Data from NiCl2@0.25M.TitratingCurve.Agarose3%dH2O.NegLispCup.LampEnergy10.LIBS07252019_HRD10591_18-23-05-573.txt Node
Date: Thu Jul 25 18:23:05 EDT 2019
User: cochatt
Spectrometer: HR+D1059
Trigger mode: 1
Integration Time (sec): 1.000000E-1
Scans to average: 1
Electric dark correction enabled: true
Nonlinearity correction enabled: false
Boxcar width: 0
XAxis mode: Wavelengths
Number of Pixels in Spectrum: 2048
>>>>>Begin Spectral Data<<<<<
223.165	-8.56
223.4	-8.56
223.635	-8.56
223.869	-27.56
224.104	-23.56
224.338	-23.56
224.573	-19.56
224.808	-26.56
225.042	-13.56
225.277	-1.56
225.511	11.44
225.746	12.44
225.98	13.44
226.215	6.44
226.449	17.44
226.683	15.44
226.918	25.44
227.152	42.44
227.387	38.44
227.621	42.44
227.856	47.44
228.09	46.44
228.324	47.44
228.559	55.44
228.793	66.44
229.027	92.44
229.262	90.44
229.496	105.44
229.73	113.44
229.964	125.44
230.199	123.44
230.433	113.44
230.667	129.44
230.901	126.44
231.136	90.44
231.37	130.44
231.604	134.44
231.838	137.44
232.072	111.44
232.306	128.44
232.541	125.44
232.775	113.44
233.009	132.44
233.243	127.44
233.477	126.44
233.711	131.44
233.945	131.44
234.179	129.44
234.413	133.44
234.647	132.44
234.881	138.44
235.115	125.44
235.349	136.44
235.583	138.44
235.817	128.44
236.051	135.44
236.285	128.44
236.519	135.44
236.753	139.44
236.987	131.44
237.221	138.44
237.455	147.44
237.689	139.44
237.922	147.44
238.156	144.44
238.39	140.44
238.624	150.44
238.858	143.44
239.091	135.44
239.325	165.44
239.559	155.44
239.793	148.44
240.027	163.44
240.26	162.44
240.494	149.44
240.728	136.44
240.961	150.44
241.195	171.44
241.429	158.44
241.662	156.44
241.896	148.44
242.13	162.44
242.363	169.44
242.597	160.44
242.83	166.44
243.064	169.44
243.298	164.44
243.531	184.44
243.765	182.44
243.998	167.44
244.232	169.44
244.465	178.44
244.699	175.44
244.932	178.44
245.166	176.44
245.399	186.44
245.633	184.44
245.866	184.44
246.099	172.44
246.333	177.44
246.566	195.44
246.8	187.44
247.033	197.44
247.266	180.44
247.5	207.44
247.733	190.44
247.966	199.44
248.2	199.44
248.433	201.44
248.666	198.44
248.899	202.44
249.133	207.44
249.366	199.44
249.599	221.44
249.832	200.44
250.066	198.44
250.299	198.44
250.532	202.44
250.765	219.44
250.998	221.44
251.231	225.44
251.465	225.44
251.698	220.44
251.931	220.44
252.164	211.44
252.397	225.44
252.63	212.44
252.863	233.44
253.096	220.44
253.329	215.44
253.562	216.44
253.795	238.44
254.028	226.44
254.261	229.44
254.494	230.44
254.727	233.44
254.96	223.44
255.193	231.44
255.426	254.44
255.659	242.44
255.892	240.44
256.124	227.44
256.357	240.44
256.59	258.44
256.823	223.44
257.056	243.44
257.289	240.44
257.521	264.44
257.754	247.44
257.987	268.44
258.22	242.44
258.452	271.44
258.685	238.44
258.918	244.44
259.151	255.44
259.383	245.44
259.616	249.44
259.849	239.44
260.081	270.44
260.314	262.44
260.547	262.44
260.779	255.44
261.012	245.44
261.244	267.44
261.477	249.44
261.71	275.44
261.942	274.44
262.175	270.44
262.407	267.44
262.64	279.44
262.872	269.44
263.105	274.44
263.337	280.44
263.57	268.44
263.802	283.44
264.035	281.44
264.267	288.44
264.499	293.44
264.732	286.44
264.964	284.44
265.197	275.44
265.429	275.44
265.661	267.44
265.894	286.44
266.126	291.44
266.358	293.44
266.591	279.44
266.823	296.44
267.055	303.44
267.287	303.44
267.52	285.44
267.752	289.44
267.984	288.44
268.216	273.44
268.448	303.44
268.681	292.44
268.913	314.44
269.145	318.44
269.377	303.44
269.609	296.44
269.841	304.44
270.073	302.44
270.306	308.44
270.538	313.44
270.77	303.44
271.002	314.44
271.234	316.44
271.466	306.44
271.698	314.44
271.93	304.44
272.162	324.44
272.394	314.44
272.626	324.44
272.858	321.44
273.09	336.44
273.322	355.44
273.553	329.44
273.785	315.44
274.017	335.44
274.249	332.44
274.481	341.44
274.713	337.44
274.945	336.44
275.176	313.44
275.408	337.44
275.64	311.44
275.872	356.44
276.104	343.44
276.335	336.44
276.567	331.44
276.799	325.44
277.031	347.44
277.262	334.44
277.494	334.44
277.726	350.44
277.957	377.44
278.189	344.44
278.421	338.44
278.652	360.44
278.884	359.44
279.115	372.44
279.347	382.44
279.579	345.44
279.81	366.44
280.042	385.44
280.273	373.44
280.505	376.44
280.736	367.44
280.968	372.44
281.199	372.44
281.431	356.44
281.662	370.44
281.894	386.44
282.125	365.44
282.356	386.44
282.588	374.44
282.819	367.44
283.051	370.44
283.282	399.44
283.513	372.44
283.745	394.44
283.976	370.44
284.207	378.44
284.439	389.44
284.67	386.44
284.901	394.44
285.132	410.44
285.364	391.44
285.595	392.44
285.826	408.44
286.057	403.44
286.288	387.44
286.52	407.44
286.751	408.44
286.982	409.44
287.213	402.44
287.444	427.44
287.675	409.44
287.906	388.44
288.138	423.44
288.369	394.44
288.6	410.44
288.831	422.44
289.062	417.44
289.293	415.44
289.524	427.44
289.755	406.44
289.986	416.44
290.217	411.44
290.448	410.44
290.679	427.44
290.91	431.44
291.141	428.44
291.371	430.44
291.602	428.44
291.833	408.44
292.064	418.44
292.295	428.44
292.526	432.44
292.757	428.44
292.987	418.44
293.218	425.44
293.449	443.44
293.68	440.44
293.91	446.44
294.141	416.44
294.372	411.44
294.603	434.44
294.833	423.44
295.064	423.44
295.295	422.44
295.525	441.44
295.756	425.44
295.987	425.44
296.217	440.44
296.448	440.44
296.679	435.44
296.909	455.44
297.14	472.44
297.37	452.44
297.601	448.44
297.831	456.44
298.062	451.44
298.292	474.44
298.523	475.44
298.753	451.44
298.984	458.44
299.214	485.44
299.445	464.44
299.675	470.44
299.905	470.44
300.136	455.44
300.366	468.44
300.597	453.44
300.827	464.44
301.057	488.44
301.288	487.44
301.518	501.44
301.748	476.44
301.979	482.44
302.209	498.44
302.439	502.44
302.669	487.44
302.9	485.44
303.13	464.44
303.36	484.44
303.59	484.44
303.82	499.44
304.051	463.44
304.281	474.44
304.511	478.44
304.741	484.44
304.971	479.44
305.201	485.44
305.431	496.44
305.661	495.44
305.891	474.44
306.121	494.44
306.352	473.44
306.582	466.44
306.812	483.44
307.042	480.44
307.272	487.44
307.502	457.44
307.731	500.44
307.961	500.44
308.191	481.44
308.421	497.44
308.651	500.44
308.881	506.44
309.111	481.44
309.341	487.44
309.571	494.44
309.8	470.44
310.03	492.44
310.26	488.44
310.49	478.44
310.72	490.44
310.949	494.44
311.179	520.44
311.409	512.44
311.639	517.44
311.868	498.44
312.098	512.44
312.328	509.44
312.557	523.44
312.787	514.44
313.017	538.44
313.246	503.44
313.476	502.44
313.706	513.44
313.935	534.44
314.165	523.44
314.394	542.44
314.624	527.44
314.853	502.44
315.083	529.44
315.312	513.44
315.542	524.44
315.771	516.44
316.001	513.44
316.23	518.44
316.46	506.44
316.689	524.44
316.919	541.44
317.148	508.44
317.377	525.44
317.607	515.44
317.836	512.44
318.065	524.44
318.295	529.44
318.524	525.44
318.753	500.44
318.983	516.44
319.212	512.44
319.441	508.44
319.67	514.44
319.9	535.44
320.129	530.44
320.358	501.44
320.587	530.44
320.816	542.44
321.046	530.44
321.275	516.44
321.504	507.44
321.733	527.44
321.962	534.44
322.191	536.44
322.42	537.44
322.649	519.44
322.878	510.44
323.108	534.44
323.337	538.44
323.566	530.44
323.795	568.44
324.024	536.44
324.253	521.44
324.482	558.44
324.71	548.44
324.939	534.44
325.168	542.44
325.397	524.44
325.626	531.44
325.855	547.44
326.084	584.44
326.313	578.44
326.542	568.44
326.77	568.44
326.999	549.44
327.228	560.44
327.457	562.44
327.686	572.44
327.914	576.44
328.143	558.44
328.372	566.44
328.6	571.44
328.829	570.44
329.058	583.44
329.287	564.44
329.515	545.44
329.744	574.44
329.972	588.44
330.201	599.44
330.43	580.44
330.658	574.44
330.887	590.44
331.115	566.44
331.344	582.44
331.572	596.44
331.801	593.44
332.03	609.44
332.258	632.44
332.486	644.44
332.715	656.44
332.943	662.44
333.172	690.44
333.4	729.44
333.629	709.44
333.857	722.44
334.085	722.44
334.314	720.44
334.542	689.44
334.771	684.44
334.999	711.44
335.227	702.44
335.455	681.44
335.684	691.44
335.912	672.44
336.14	664.44
336.369	666.44
336.597	665.44
336.825	666.44
337.053	672.44
337.281	688.44
337.51	653.44
337.738	686.44
337.966	660.44
338.194	638.44
338.422	644.44
338.65	627.44
338.878	625.44
339.106	642.44
339.334	638.44
339.562	619.44
339.79	598.44
340.018	603.44
340.246	591.44
340.474	608.44
340.702	608.44
340.93	563.44
341.158	625.44
341.386	578.44
341.614	604.44
341.842	610.44
342.07	610.44
342.298	601.44
342.526	597.44
342.754	603.44
342.981	594.44
343.209	630.44
343.437	651.44
343.665	666.44
343.893	685.44
344.12	705.44
344.348	688.44
344.576	650.44
344.804	638.44
345.031	642.44
345.259	598.44
345.487	608.44
345.714	613.44
345.942	604.44
346.17	622.44
346.397	601.44
346.625	603.44
346.853	584.44
347.08	588.44
347.308	586.44
347.535	580.44
347.763	582.44
347.99	590.44
348.218	576.44
348.445	579.44
348.673	588.44
348.9	562.44
349.128	588.44
349.355	580.44
349.583	571.44
349.81	554.44
350.037	559.44
350.265	562.44
350.492	562.44
350.72	589.44
350.947	580.44
351.174	581.44
351.402	582.44
351.629	575.44
351.856	578.44
352.083	580.44
352.311	564.44
352.538	594.44
352.765	575.44
352.992	570.44
353.22	558.44
353.447	537.44
353.674	544.44
353.901	556.44
354.128	563.44
354.355	555.44
354.583	562.44
354.81	565.44
355.037	544.44
355.264	586.44
355.491	564.44
355.718	559.44
355.945	586.44
356.172	578.44
356.399	568.44
356.626	569.44
356.853	562.44
357.08	564.44
357.307	566.44
357.534	558.44
357.761	568.44
357.988	571.44
358.215	569.44
358.441	577.44
358.668	577.44
358.895	578.44
359.122	590.44
359.349	575.44
359.576	562.44
359.802	564.44
360.029	560.44
360.256	571.44
360.483	571.44
360.709	564.44
360.936	563.44
361.163	575.44
361.39	564.44
361.616	571.44
361.843	596.44
362.07	567.44
362.296	576.44
362.523	574.44
362.749	544.44
362.976	558.44
363.203	563.44
363.429	548.44
363.656	579.44
363.882	571.44
364.109	555.44
364.335	567.44
364.562	546.44
364.788	544.44
365.015	567.44
365.241	589.44
365.468	560.44
365.694	553.44
365.92	562.44
366.147	564.44
366.373	574.44
366.599	560.44
366.826	566.44
367.052	562.44
367.278	540.44
367.505	576.44
367.731	597.44
367.957	588.44
368.184	548.44
368.41	589.44
368.636	594.44
368.862	565.44
369.089	564.44
369.315	564.44
369.541	574.44
369.767	580.44
369.993	582.44
370.219	574.44
370.445	588.44
370.672	597.44
370.898	582.44
371.124	589.44
371.35	608.44
371.576	592.44
371.802	612.44
372.028	600.44
372.254	628.44
372.48	612.44
372.706	612.44
372.932	646.44
373.158	618.44
373.384	633.44
373.61	618.44
373.835	625.44
374.061	611.44
374.287	603.44
374.513	637.44
374.739	650.44
374.965	668.44
375.191	660.44
375.416	675.44
375.642	643.44
375.868	634.44
376.094	640.44
376.319	627.44
376.545	650.44
376.771	620.44
376.997	632.44
377.222	608.44
377.448	632.44
377.674	612.44
377.899	613.44
378.125	632.44
378.35	598.44
378.576	590.44
378.802	613.44
379.027	626.44
379.253	623.44
379.478	610.44
379.704	615.44
379.929	593.44
380.155	595.44
380.38	594.44
380.606	612.44
380.831	592.44
381.057	637.44
381.282	619.44
381.507	603.44
381.733	626.44
381.958	614.44
382.184	620.44
382.409	631.44
382.634	638.44
382.86	631.44
383.085	630.44
383.31	616.44
383.535	667.44
383.761	652.44
383.986	690.44
384.211	654.44
384.436	683.44
384.662	682.44
384.887	680.44
385.112	691.44
385.337	711.44
385.562	706.44
385.787	694.44
386.013	713.44
386.238	728.44
386.463	706.44
386.688	729.44
386.913	711.44
387.138	694.44
387.363	689.44
387.588	715.44
387.813	703.44
388.038	716.44
388.263	718.44
388.488	732.44
388.713	711.44
388.938	702.44
389.163	702.44
389.387	692.44
389.612	720.44
389.837	716.44
390.062	707.44
390.287	688.44
390.512	683.44
390.736	711.44
390.961	736.44
391.186	751.44
391.411	753.44
391.636	782.44
391.86	785.44
392.085	810.44
392.31	769.44
392.534	772.44
392.759	755.44
392.984	750.44
393.208	744.44
393.433	752.44
393.658	736.44
393.882	750.44
394.107	744.44
394.331	772.44
394.556	754.44
394.78	769.44
395.005	770.44
395.229	757.44
395.454	791.44
395.678	786.44
395.903	793.44
396.127	789.44
396.352	802.44
396.576	745.44
396.801	746.44
397.025	759.44
397.249	778.44
397.474	795.44
397.698	810.44
397.922	799.44
398.147	800.44
398.371	791.44
398.595	832.44
398.82	897.44
399.044	929.44
399.268	978.44
399.492	1098.44
399.717	1172.44
399.941	1202.44
400.165	1098.44
400.389	1043.44
400.613	970.44
400.837	904.44
401.062	887.44
401.286	893.44
401.51	882.44
401.734	880.44
401.958	902.44
402.182	887.44
402.406	885.44
402.63	900.44
402.854	928.44
403.078	909.44
403.302	944.44
403.526	966.44
403.75	988.44
403.974	1006.44
404.198	977.44
404.422	1000.44
404.645	982.44
404.869	975.44
405.093	970.44
405.317	964.44
405.541	946.44
405.765	938.44
405.988	955.44
406.212	952.44
406.436	940.44
406.66	981.44
406.883	987.44
407.107	1027.44
407.331	1044.44
407.555	1100.44
407.778	1077.44
408.002	1070.44
408.226	1040.44
408.449	1032.44
408.673	1000.44
408.896	999.44
409.12	973.44
409.344	1003.44
409.567	985.44
409.791	964.44
410.014	984.44
410.238	954.44
410.461	964.44
410.685	957.44
410.908	942.44
411.132	935.44
411.355	906.44
411.578	929.44
411.802	883.44
412.025	924.44
412.249	952.44
412.472	919.44
412.695	910.44
412.919	911.44
413.142	888.44
413.365	863.44
413.589	892.44
413.812	883.44
414.035	886.44
414.258	899.44
414.482	872.44
414.705	883.44
414.928	880.44
415.151	883.44
415.374	879.44
415.597	886.44
415.821	854.44
416.044	866.44
416.267	879.44
416.49	888.44
416.713	836.44
416.936	877.44
417.159	859.44
417.382	814.44
417.605	835.44
417.828	839.44
418.051	881.44
418.274	878.44
418.497	856.44
418.72	862.44
418.943	858.44
419.166	918.44
419.389	989.44
419.611	972.44
419.834	946.44
420.057	921.44
420.28	898.44
420.503	881.44
420.726	870.44
420.948	841.44
421.171	870.44
421.394	867.44
421.617	851.44
421.839	880.44
422.062	880.44
422.285	854.44
422.507	847.44
422.73	891.44
422.953	880.44
423.175	910.44
423.398	898.44
423.621	870.44
423.843	890.44
424.066	923.44
424.288	905.44
424.511	884.44
424.733	878.44
424.956	886.44
425.178	854.44
425.401	885.44
425.623	842.44
425.846	842.44
426.068	847.44
426.291	816.44
426.513	818.44
426.735	848.44
426.958	845.44
427.18	798.44
427.402	822.44
427.625	792.44
427.847	800.44
428.069	774.44
428.292	826.44
428.514	811.44
428.736	797.44
428.958	814.44
429.181	770.44
429.403	771.44
429.625	775.44
429.847	784.44
430.069	757.44
430.292	772.44
430.514	762.44
430.736	760.44
430.958	754.44
431.18	758.44
431.402	774.44
431.624	769.44
431.846	790.44
432.068	775.44
432.29	784.44
432.512	781.44
432.734	784.44
432.956	804.44
433.178	787.44
433.4	768.44
433.622	818.44
433.844	822.44
434.066	776.44
434.287	765.44
434.509	808.44
434.731	844.44
434.953	868.44
435.175	869.44
435.397	854.44
435.618	810.44
435.84	804.44
436.062	806.44
436.284	802.44
436.505	806.44
436.727	803.44
436.949	799.44
437.17	806.44
437.392	778.44
437.614	779.44
437.835	734.44
438.057	769.44
438.278	770.44
438.5	774.44
438.721	746.44
438.943	754.44
439.165	758.44
439.386	754.44
439.608	782.44
439.829	772.44
440.05	790.44
440.272	770.44
440.493	786.44
440.715	802.44
440.936	820.44
441.158	811.44
441.379	812.44
441.6	862.44
441.822	847.44
442.043	850.44
442.264	844.44
442.486	847.44
442.707	832.44
442.928	834.44
443.149	855.44
443.371	856.44
443.592	863.44
443.813	863.44
444.034	885.44
444.255	890.44
444.476	920.44
444.698	964.44
444.919	1002.44
445.14	1107.44
445.361	968.44
445.582	910.44
445.803	822.44
446.024	860.44
446.245	829.44
446.466	797.44
446.687	810.44
446.908	779.44
447.129	777.44
447.35	766.44
447.571	740.44
447.792	748.44
448.013	769.44
448.234	768.44
448.455	736.44
448.675	728.44
448.896	730.44
449.117	708.44
449.338	727.44
449.559	723.44
449.779	705.44
450	722.44
450.221	716.44
450.442	756.44
450.662	722.44
450.883	724.44
451.104	762.44
451.324	744.44
451.545	708.44
451.766	721.44
451.986	719.44
452.207	710.44
452.428	712.44
452.648	713.44
452.869	708.44
453.089	685.44
453.31	722.44
453.53	701.44
453.751	690.44
453.971	731.44
454.192	703.44
454.412	692.44
454.633	700.44
454.853	687.44
455.073	667.44
455.294	678.44
455.514	668.44
455.734	680.44
455.955	684.44
456.175	676.44
456.395	672.44
456.616	695.44
456.836	681.44
457.056	678.44
457.276	682.44
457.497	663.44
457.717	686.44
457.937	685.44
458.157	699.44
458.377	720.44
458.598	733.44
458.818	720.44
459.038	735.44
459.258	778.44
459.478	820.44
459.698	811.44
459.918	839.44
460.138	853.44
460.358	879.44
460.578	894.44
460.798	919.44
461.018	918.44
461.238	897.44
461.458	910.44
461.678	888.44
461.898	911.44
462.118	914.44
462.338	952.44
462.558	968.44
462.777	1027.44
462.997	1083.44
463.217	1136.44
463.437	1120.44
463.657	1056.44
463.876	1063.44
464.096	1040.44
464.316	1054.44
464.536	1008.44
464.755	1011.44
464.975	976.44
465.195	922.44
465.414	874.44
465.634	833.44
465.854	821.44
466.073	811.44
466.293	790.44
466.512	758.44
466.732	777.44
466.951	795.44
467.171	769.44
467.391	770.44
467.61	756.44
467.829	754.44
468.049	743.44
468.268	729.44
468.488	727.44
468.707	735.44
468.927	768.44
469.146	737.44
469.365	747.44
469.585	748.44
469.804	765.44
470.023	794.44
470.243	753.44
470.462	757.44
470.681	777.44
470.901	758.44
471.12	776.44
471.339	740.44
471.558	784.44
471.777	734.44
471.997	739.44
472.216	740.44
472.435	713.44
472.654	733.44
472.873	717.44
473.092	714.44
473.311	766.44
473.53	724.44
473.749	725.44
473.968	736.44
474.187	710.44
474.406	744.44
474.625	730.44
474.844	732.44
475.063	723.44
475.282	744.44
475.501	719.44
475.72	726.44
475.939	737.44
476.158	768.44
476.377	755.44
476.596	763.44
476.814	793.44
477.033	755.44
477.252	770.44
477.471	803.44
477.69	835.44
477.908	837.44
478.127	832.44
478.346	858.44
478.564	896.44
478.783	867.44
479.002	914.44
479.22	900.44
479.439	884.44
479.658	914.44
479.876	882.44
480.095	875.44
480.313	912.44
480.532	939.44
480.751	953.44
480.969	948.44
481.188	886.44
481.406	853.44
481.624	830.44
481.843	845.44
482.061	844.44
482.28	849.44
482.498	841.44
482.717	825.44
482.935	850.44
483.153	822.44
483.372	850.44
483.59	844.44
483.808	825.44
484.027	848.44
484.245	859.44
484.463	847.44
484.681	850.44
484.9	887.44
485.118	868.44
485.336	876.44
485.554	863.44
485.772	859.44
485.99	884.44
486.209	876.44
486.427	852.44
486.645	870.44
486.863	885.44
487.081	869.44
487.299	882.44
487.517	868.44
487.735	855.44
487.953	914.44
488.171	867.44
488.389	884.44
488.607	840.44
488.825	858.44
489.043	853.44
489.261	843.44
489.479	870.44
489.696	865.44
489.914	890.44
490.132	884.44
490.35	875.44
490.568	880.44
490.786	900.44
491.003	882.44
491.221	886.44
491.439	902.44
491.657	904.44
491.874	913.44
492.092	896.44
492.31	905.44
492.527	933.44
492.745	897.44
492.963	898.44
493.18	873.44
493.398	908.44
493.615	892.44
493.833	900.44
494.05	922.44
494.268	929.44
494.485	947.44
494.703	946.44
494.92	942.44
495.138	942.44
495.355	964.44
495.573	933.44
495.79	978.44
496.008	948.44
496.225	980.44
496.442	959.44
496.66	991.44
496.877	995.44
497.094	991.44
497.312	1029.44
497.529	1024.44
497.746	1051.44
497.963	1072.44
498.181	1132.44
498.398	1168.44
498.615	1193.44
498.832	1291.44
499.049	1348.44
499.267	1485.44
499.484	1592.44
499.701	1734.44
499.918	1852.44
500.135	2054.44
500.352	2302.44
500.569	2384.44
500.786	2327.44
501.003	2159.44
501.22	1982.44
501.437	1812.44
501.654	1649.44
501.871	1511.44
502.088	1393.44
502.305	1356.44
502.522	1260.44
502.739	1251.44
502.956	1205.44
503.172	1154.44
503.389	1109.44
503.606	1092.44
503.823	1072.44
504.04	1049.44
504.256	1084.44
504.473	1074.44
504.69	1086.44
504.907	1055.44
505.123	1000.44
505.34	968.44
505.557	917.44
505.773	910.44
505.99	919.44
506.207	884.44
506.423	867.44
506.64	863.44
506.856	865.44
507.073	818.44
507.289	840.44
507.506	848.44
507.722	809.44
507.939	828.44
508.155	804.44
508.372	792.44
508.588	811.44
508.805	780.44
509.021	791.44
509.238	770.44
509.454	776.44
509.67	767.44
509.887	775.44
510.103	781.44
510.319	781.44
510.536	795.44
510.752	752.44
510.968	764.44
511.184	762.44
511.401	740.44
511.617	752.44
511.833	758.44
512.049	738.44
512.265	763.44
512.481	770.44
512.698	776.44
512.914	758.44
513.13	767.44
513.346	775.44
513.562	801.44
513.778	759.44
513.994	752.44
514.21	794.44
514.426	790.44
514.642	767.44
514.858	746.44
515.074	788.44
515.29	764.44
515.506	775.44
515.721	781.44
515.937	806.44
516.153	799.44
516.369	836.44
516.585	862.44
516.801	862.44
517.016	886.44
517.232	923.44
517.448	971.44
517.664	965.44
517.879	969.44
518.095	975.44
518.311	972.44
518.527	944.44
518.742	912.44
518.958	858.44
519.173	863.44
519.389	826.44
519.605	807.44
519.82	824.44
520.036	798.44
520.251	807.44
520.467	761.44
520.682	753.44
520.898	773.44
521.113	742.44
521.329	740.44
521.544	734.44
521.76	748.44
521.975	744.44
522.19	720.44
522.406	722.44
522.621	731.44
522.836	719.44
523.052	702.44
523.267	707.44
523.482	715.44
523.698	702.44
523.913	710.44
524.128	674.44
524.343	692.44
524.559	695.44
524.774	687.44
524.989	699.44
525.204	673.44
525.419	697.44
525.634	692.44
525.849	694.44
526.064	681.44
526.28	700.44
526.495	680.44
526.71	704.44
526.925	646.44
527.14	656.44
527.355	694.44
527.57	690.44
527.785	688.44
527.999	688.44
528.214	678.44
528.429	692.44
528.644	680.44
528.859	687.44
529.074	680.44
529.289	667.44
529.503	686.44
529.718	704.44
529.933	695.44
530.148	674.44
530.363	696.44
530.577	661.44
530.792	667.44
531.007	638.44
531.221	670.44
531.436	693.44
531.651	658.44
531.865	668.44
532.08	664.44
532.295	690.44
532.509	659.44
532.724	663.44
532.938	654.44
533.153	683.44
533.367	679.44
533.582	691.44
533.796	652.44
534.011	659.44
534.225	664.44
534.44	674.44
534.654	645.44
534.868	658.44
535.083	652.44
535.297	654.44
535.511	670.44
535.726	640.44
535.94	631.44
536.154	634.44
536.369	652.44
536.583	669.44
536.797	652.44
537.011	626.44
537.225	652.44
537.44	623.44
537.654	636.44
537.868	581.44
538.082	598.44
538.296	611.44
538.51	616.44
538.724	637.44
538.938	626.44
539.153	626.44
539.367	611.44
539.581	611.44
539.795	626.44
540.009	626.44
540.222	589.44
540.436	607.44
540.65	612.44
540.864	614.44
541.078	605.44
541.292	586.44
541.506	606.44
541.72	590.44
541.934	618.44
542.147	622.44
542.361	625.44
542.575	582.44
542.789	597.44
543.002	599.44
543.216	611.44
543.43	607.44
543.644	627.44
543.857	627.44
544.071	611.44
544.285	627.44
544.498	618.44
544.712	609.44
544.925	627.44
545.139	617.44
545.352	625.44
545.566	633.44
545.779	608.44
545.993	602.44
546.206	636.44
546.42	639.44
546.633	613.44
546.847	609.44
547.06	622.44
547.274	616.44
547.487	644.44
547.7	621.44
547.914	596.44
548.127	621.44
548.34	638.44
548.554	627.44
548.767	634.44
548.98	632.44
549.193	627.44
549.407	634.44
549.62	618.44
549.833	624.44
550.046	634.44
550.259	601.44
550.473	622.44
550.686	624.44
550.899	588.44
551.112	604.44
551.325	599.44
551.538	610.44
551.751	603.44
551.964	606.44
552.177	609.44
552.39	625.44
552.603	644.44
552.816	643.44
553.029	649.44
553.242	647.44
553.455	650.44
553.667	676.44
553.88	638.44
554.093	644.44
554.306	616.44
554.519	596.44
554.732	616.44
554.944	590.44
555.157	569.44
555.37	587.44
555.583	572.44
555.795	553.44
556.008	586.44
556.221	550.44
556.433	551.44
556.646	540.44
556.859	522.44
557.071	530.44
557.284	538.44
557.496	542.44
557.709	528.44
557.921	532.44
558.134	488.44
558.346	527.44
558.559	533.44
558.771	530.44
558.984	539.44
559.196	515.44
559.409	509.44
559.621	504.44
559.833	528.44
560.046	509.44
560.258	526.44
560.47	512.44
560.683	512.44
560.895	510.44
561.107	528.44
561.32	488.44
561.532	512.44
561.744	532.44
561.956	501.44
562.168	487.44
562.381	506.44
562.593	514.44
562.805	507.44
563.017	503.44
563.229	500.44
563.441	510.44
563.653	518.44
563.865	493.44
564.077	521.44
564.289	536.44
564.501	540.44
564.713	531.44
564.925	543.44
565.137	551.44
565.349	572.44
565.561	585.44
565.773	592.44
565.985	606.44
566.197	612.44
566.408	664.44
566.62	699.44
566.832	764.44
567.044	756.44
567.255	779.44
567.467	782.44
567.679	837.44
567.891	835.44
568.102	862.44
568.314	841.44
568.526	768.44
568.737	706.44
568.949	652.44
569.161	618.44
569.372	587.44
569.584	566.44
569.795	540.44
570.007	523.44
570.218	510.44
570.43	523.44
570.641	514.44
570.853	524.44
571.064	536.44
571.276	530.44
571.487	492.44
571.698	502.44
571.91	456.44
572.121	466.44
572.333	469.44
572.544	444.44
572.755	430.44
572.966	422.44
573.178	411.44
573.389	414.44
573.6	442.44
573.811	420.44
574.023	409.44
574.234	438.44
574.445	442.44
574.656	411.44
574.867	414.44
575.078	396.44
575.289	423.44
575.501	403.44
575.712	403.44
575.923	402.44
576.134	385.44
576.345	387.44
576.556	399.44
576.767	397.44
576.978	403.44
577.188	394.44
577.399	382.44
577.61	377.44
577.821	394.44
578.032	379.44
578.243	387.44
578.454	383.44
578.665	368.44
578.875	375.44
579.086	362.44
579.297	396.44
579.508	386.44
579.718	394.44
579.929	355.44
580.14	363.44
580.35	374.44
580.561	368.44
580.772	371.44
580.982	369.44
581.193	344.44
581.403	374.44
581.614	372.44
581.825	375.44
582.035	372.44
582.246	367.44
582.456	358.44
582.667	356.44
582.877	345.44
583.087	344.44
583.298	360.44
583.508	350.44
583.719	347.44
583.929	362.44
584.139	335.44
584.35	339.44
584.56	351.44
584.77	344.44
584.981	355.44
585.191	345.44
585.401	339.44
585.611	340.44
585.821	351.44
586.032	337.44
586.242	354.44
586.452	341.44
586.662	337.44
586.872	345.44
587.082	333.44
587.292	340.44
587.502	353.44
587.713	355.44
587.923	322.44
588.133	344.44
588.343	351.44
588.553	334.44
588.762	341.44
588.972	351.44
589.182	378.44
589.392	352.44
589.602	346.44
589.812	366.44
590.022	328.44
590.232	348.44
590.441	349.44
590.651	343.44
590.861	326.44
591.071	344.44
591.281	358.44
591.49	334.44
591.7	335.44
591.91	370.44
592.119	347.44
592.329	362.44
592.539	392.44
592.748	375.44
592.958	388.44
593.167	378.44
593.377	424.44
593.587	406.44
593.796	396.44
594.006	413.44
594.215	396.44
594.424	433.44
594.634	408.44
594.843	406.44
595.053	375.44
595.262	369.44
595.472	358.44
595.681	346.44
595.89	351.44
596.1	329.44
596.309	346.44
596.518	329.44
596.727	331.44
596.937	329.44
597.146	330.44
597.355	326.44
597.564	316.44
597.774	310.44
597.983	312.44
598.192	322.44
598.401	312.44
598.61	297.44
598.819	295.44
599.028	306.44
599.237	312.44
599.446	305.44
599.655	295.44
599.864	288.44
600.073	282.44
600.282	296.44
600.491	276.44
600.7	296.44
600.909	276.44
601.118	291.44
601.327	295.44
601.536	279.44
601.745	268.44
601.953	286.44
602.162	290.44
602.371	291.44
602.58	290.44
602.789	276.44
602.997	280.44
603.206	262.44
603.415	274.44
603.623	282.44
603.832	258.44
604.041	267.44
604.249	254.44
604.458	268.44
604.666	267.44
604.875	265.44
605.084	263.44
605.292	276.44
605.501	285.44
605.709	263.44
605.918	271.44
606.126	258.44
606.334	284.44
606.543	266.44
606.751	255.44
606.96	249.44
607.168	255.44
607.376	248.44
607.585	266.44
607.793	240.44
608.001	254.44
608.21	261.44
608.418	257.44
608.626	258.44
608.834	258.44
609.043	263.44
609.251	255.44
609.459	259.44
609.667	269.44
609.875	250.44
610.083	260.44
610.291	252.44
610.499	262.44
610.707	262.44
610.916	270.44
611.124	249.44
611.332	254.44
611.54	240.44
611.748	255.44
611.955	256.44
612.163	235.44
612.371	249.44
612.579	258.44
612.787	245.44
612.995	265.44
613.203	250.44
613.411	241.44
613.618	266.44
613.826	241.44
614.034	240.44
614.242	249.44
614.449	239.44
614.657	236.44
614.865	225.44
615.072	235.44
615.28	256.44
615.488	249.44
615.695	256.44
615.903	265.44
616.111	230.44
616.318	253.44
616.526	250.44
616.733	238.44
616.941	259.44
617.148	265.44
617.356	267.44
617.563	256.44
617.771	239.44
617.978	229.44
618.185	253.44
618.393	243.44
618.6	241.44
618.807	240.44
619.015	220.44
619.222	240.44
619.429	244.44
619.637	249.44
619.844	252.44
620.051	249.44
620.258	228.44
620.466	228.44
620.673	226.44
620.88	242.44
621.087	246.44
621.294	239.44
621.501	231.44
621.708	240.44
621.915	230.44
622.122	221.44
622.329	225.44
622.536	220.44
622.743	249.44
622.95	237.44
623.157	231.44
623.364	225.44
623.571	207.44
623.778	216.44
623.985	221.44
624.192	220.44
624.399	217.44
624.606	230.44
624.812	252.44
625.019	201.44
625.226	207.44
625.433	212.44
625.639	216.44
625.846	204.44
626.053	230.44
626.259	232.44
626.466	224.44
626.673	214.44
626.879	200.44
627.086	219.44
627.293	231.44
627.499	211.44
627.706	220.44
627.912	211.44
628.119	198.44
628.325	210.44
628.532	238.44
628.738	207.44
628.945	209.44
629.151	220.44
629.357	209.44
629.564	201.44
629.77	219.44
629.976	211.44
630.183	187.44
630.389	207.44
630.595	204.44
630.802	198.44
631.008	188.44
631.214	202.44
631.42	198.44
631.627	210.44
631.833	198.44
632.039	186.44
632.245	185.44
632.451	195.44
632.657	193.44
632.863	211.44
633.069	191.44
633.275	207.44
633.481	195.44
633.688	182.44
633.893	186.44
634.099	206.44
634.305	207.44
634.511	196.44
634.717	181.44
634.923	183.44
635.129	185.44
635.335	197.44
635.541	197.44
635.747	201.44
635.952	179.44
636.158	205.44
636.364	183.44
636.57	184.44
636.775	178.44
636.981	191.44
637.187	180.44
637.392	195.44
637.598	198.44
637.804	184.44
638.009	169.44
638.215	178.44
638.421	167.44
638.626	176.44
638.832	187.44
639.037	185.44
639.243	174.44
639.448	174.44
639.654	169.44
639.859	178.44
640.065	161.44
640.27	182.44
640.475	167.44
640.681	172.44
640.886	181.44
641.091	167.44
641.297	182.44
641.502	182.44
641.707	171.44
641.913	169.44
642.118	188.44
642.323	169.44
642.528	165.44
642.733	174.44
642.939	162.44
643.144	177.44
643.349	181.44
643.554	156.44
643.759	172.44
643.964	168.44
644.169	178.44
644.374	174.44
644.579	180.44
644.784	192.44
644.989	172.44
645.194	160.44
645.399	182.44
645.604	162.44
645.809	165.44
646.014	157.44
646.219	181.44
646.423	164.44
646.628	174.44
646.833	170.44
647.038	184.44
647.243	171.44
647.447	182.44
647.652	178.44
647.857	184.44
648.062	167.44
648.266	183.44
648.471	189.44
648.676	189.44
648.88	175.44
649.085	180.44
649.289	174.44
649.494	175.44
649.698	152.44
649.903	170.44
650.107	158.44
650.312	190.44
650.516	170.44
650.721	166.44
650.925	153.44
651.13	152.44
651.334	146.44
651.539	148.44
651.743	169.44
651.947	158.44
652.152	148.44
652.356	151.44
652.56	145.44
652.764	147.44
652.969	141.44
653.173	145.44
653.377	143.44
653.581	128.44
653.785	148.44
653.99	139.44
654.194	141.44
654.398	119.44
654.602	137.44
654.806	136.44
655.01	121.44
655.214	146.44
655.418	140.44
655.622	140.44
655.826	142.44
656.03	130.44
656.234	123.44
656.438	146.44
656.642	137.44
656.846	131.44
657.049	124.44
657.253	131.44
657.457	111.44
657.661	111.44
657.865	111.44
658.068	117.44
658.272	128.44
658.476	107.44
658.68	108.44
658.883	106.44
659.087	91.44
659.291	94.44
659.494	102.44
659.698	104.44
659.901	90.44
660.105	87.44
660.309	95.44
660.512	96.44
660.716	87.44
660.919	92.44
661.123	97.44
661.326	88.44
661.53	94.44
661.733	94.44
661.936	92.44
662.14	80.44
662.343	84.44
662.546	89.44
662.75	98.44
662.953	82.44
663.156	81.44
663.36	86.44
663.563	84.44
663.766	82.44
663.969	82.44
664.173	88.44
664.376	82.44
664.579	87.44
664.782	92.44
664.985	74.44
665.188	80.44
665.391	71.44
665.594	86.44
665.797	86.44
666	90.44
666.203	83.44
666.406	91.44
666.609	80.44
666.812	64.44
667.015	78.44
667.218	69.44
667.421	74.44
667.624	65.44
667.827	81.44
668.03	80.44
668.232	82.44
668.435	84.44
668.638	95.44
668.841	76.44
669.043	80.44
669.246	76.44
669.449	83.44
669.651	89.44
669.854	82.44
670.057	72.44
670.259	76.44
670.462	76.44
670.665	65.44
670.867	92.44
671.07	81.44
671.272	80.44
671.475	75.44
671.677	86.44
671.88	79.44
672.082	69.44
672.284	84.44
672.487	84.44
672.689	89.44
672.892	78.44
