Data from NiCl2@0.125M.TitratingCurve.Agarose3%dH2O.NegLispCup.LampEnergy10.LIBS07252019_HRD10591_18-29-39-575.txt Node
Date: Thu Jul 25 18:29:39 EDT 2019
User: cochatt
Spectrometer: HR+D1059
Trigger mode: 1
Integration Time (sec): 1.000000E-1
Scans to average: 1
Electric dark correction enabled: true
Nonlinearity correction enabled: false
Boxcar width: 0
XAxis mode: Wavelengths
Number of Pixels in Spectrum: 2048
>>>>>Begin Spectral Data<<<<<
223.165	-13.12
223.4	-13.12
223.635	-13.12
223.869	-13.12
224.104	-17.12
224.338	-5.12
224.573	-11.12
224.808	-16.12
225.042	-11.12
225.277	-10.12
225.511	2.88
225.746	6.88
225.98	13.88
226.215	-2.12
226.449	11.88
226.683	19.88
226.918	20.88
227.152	22.88
227.387	30.88
227.621	36.88
227.856	34.88
228.09	43.88
228.324	43.88
228.559	67.88
228.793	81.88
229.027	124.88
229.262	114.88
229.496	125.88
229.73	125.88
229.964	123.88
230.199	145.88
230.433	122.88
230.667	138.88
230.901	137.88
231.136	144.88
231.37	135.88
231.604	156.88
231.838	156.88
232.072	161.88
232.306	160.88
232.541	152.88
232.775	164.88
233.009	148.88
233.243	144.88
233.477	153.88
233.711	141.88
233.945	152.88
234.179	162.88
234.413	166.88
234.647	168.88
234.881	163.88
235.115	170.88
235.349	156.88
235.583	152.88
235.817	167.88
236.051	151.88
236.285	167.88
236.519	171.88
236.753	168.88
236.987	155.88
237.221	178.88
237.455	166.88
237.689	144.88
237.922	182.88
238.156	179.88
238.39	188.88
238.624	181.88
238.858	183.88
239.091	191.88
239.325	192.88
239.559	194.88
239.793	193.88
240.027	192.88
240.26	177.88
240.494	182.88
240.728	198.88
240.961	206.88
241.195	199.88
241.429	197.88
241.662	189.88
241.896	197.88
242.13	198.88
242.363	207.88
242.597	216.88
242.83	228.88
243.064	211.88
243.298	216.88
243.531	222.88
243.765	215.88
243.998	218.88
244.232	228.88
244.465	224.88
244.699	228.88
244.932	231.88
245.166	218.88
245.399	243.88
245.633	227.88
245.866	225.88
246.099	229.88
246.333	249.88
246.566	232.88
246.8	259.88
247.033	246.88
247.266	226.88
247.5	233.88
247.733	244.88
247.966	259.88
248.2	256.88
248.433	270.88
248.666	267.88
248.899	273.88
249.133	279.88
249.366	256.88
249.599	271.88
249.832	280.88
250.066	265.88
250.299	256.88
250.532	247.88
250.765	260.88
250.998	301.88
251.231	275.88
251.465	268.88
251.698	281.88
251.931	284.88
252.164	284.88
252.397	314.88
252.63	314.88
252.863	285.88
253.096	284.88
253.329	316.88
253.562	279.88
253.795	288.88
254.028	313.88
254.261	304.88
254.494	280.88
254.727	330.88
254.96	308.88
255.193	301.88
255.426	298.88
255.659	328.88
255.892	307.88
256.124	308.88
256.357	305.88
256.59	317.88
256.823	312.88
257.056	316.88
257.289	314.88
257.521	334.88
257.754	320.88
257.987	320.88
258.22	342.88
258.452	332.88
258.685	313.88
258.918	336.88
259.151	329.88
259.383	359.88
259.616	329.88
259.849	346.88
260.081	330.88
260.314	343.88
260.547	324.88
260.779	363.88
261.012	341.88
261.244	337.88
261.477	360.88
261.71	343.88
261.942	348.88
262.175	330.88
262.407	366.88
262.64	364.88
262.872	343.88
263.105	343.88
263.337	372.88
263.57	371.88
263.802	365.88
264.035	358.88
264.267	354.88
264.499	371.88
264.732	374.88
264.964	377.88
265.197	386.88
265.429	373.88
265.661	375.88
265.894	388.88
266.126	373.88
266.358	378.88
266.591	377.88
266.823	379.88
267.055	382.88
267.287	388.88
267.52	382.88
267.752	404.88
267.984	406.88
268.216	386.88
268.448	402.88
268.681	409.88
268.913	401.88
269.145	407.88
269.377	396.88
269.609	412.88
269.841	395.88
270.073	407.88
270.306	397.88
270.538	405.88
270.77	392.88
271.002	411.88
271.234	375.88
271.466	410.88
271.698	404.88
271.93	406.88
272.162	426.88
272.394	413.88
272.626	409.88
272.858	408.88
273.09	434.88
273.322	422.88
273.553	440.88
273.785	446.88
274.017	442.88
274.249	428.88
274.481	449.88
274.713	451.88
274.945	434.88
275.176	444.88
275.408	433.88
275.64	441.88
275.872	430.88
276.104	449.88
276.335	442.88
276.567	460.88
276.799	440.88
277.031	449.88
277.262	444.88
277.494	436.88
277.726	466.88
277.957	469.88
278.189	452.88
278.421	453.88
278.652	473.88
278.884	484.88
279.115	450.88
279.347	470.88
279.579	476.88
279.81	481.88
280.042	485.88
280.273	489.88
280.505	474.88
280.736	484.88
280.968	484.88
281.199	497.88
281.431	492.88
281.662	510.88
281.894	494.88
282.125	516.88
282.356	511.88
282.588	539.88
282.819	524.88
283.051	500.88
283.282	498.88
283.513	531.88
283.745	496.88
283.976	523.88
284.207	518.88
284.439	530.88
284.67	528.88
284.901	533.88
285.132	514.88
285.364	524.88
285.595	532.88
285.826	502.88
286.057	534.88
286.288	513.88
286.52	546.88
286.751	538.88
286.982	555.88
287.213	544.88
287.444	568.88
287.675	530.88
287.906	544.88
288.138	555.88
288.369	550.88
288.6	576.88
288.831	542.88
289.062	554.88
289.293	566.88
289.524	566.88
289.755	574.88
289.986	542.88
290.217	529.88
290.448	554.88
290.679	554.88
290.91	537.88
291.141	565.88
291.371	583.88
291.602	577.88
291.833	572.88
292.064	578.88
292.295	585.88
292.526	587.88
292.757	594.88
292.987	589.88
293.218	574.88
293.449	589.88
293.68	574.88
293.91	558.88
294.141	586.88
294.372	578.88
294.603	582.88
294.833	577.88
295.064	590.88
295.295	579.88
295.525	591.88
295.756	604.88
295.987	580.88
296.217	594.88
296.448	598.88
296.679	589.88
296.909	608.88
297.14	610.88
297.37	626.88
297.601	629.88
297.831	631.88
298.062	624.88
298.292	632.88
298.523	640.88
298.753	649.88
298.984	642.88
299.214	633.88
299.445	621.88
299.675	600.88
299.905	629.88
300.136	603.88
300.366	605.88
300.597	633.88
300.827	642.88
301.057	652.88
301.288	649.88
301.518	638.88
301.748	660.88
301.979	637.88
302.209	645.88
302.439	660.88
302.669	676.88
302.9	636.88
303.13	632.88
303.36	663.88
303.59	647.88
303.82	633.88
304.051	632.88
304.281	626.88
304.511	630.88
304.741	624.88
304.971	625.88
305.201	614.88
305.431	635.88
305.661	621.88
305.891	625.88
306.121	632.88
306.352	620.88
306.582	620.88
306.812	613.88
307.042	618.88
307.272	625.88
307.502	605.88
307.731	620.88
307.961	616.88
308.191	609.88
308.421	628.88
308.651	623.88
308.881	635.88
309.111	616.88
309.341	626.88
309.571	651.88
309.8	606.88
310.03	633.88
310.26	615.88
310.49	615.88
310.72	627.88
310.949	626.88
311.179	634.88
311.409	626.88
311.639	638.88
311.868	659.88
312.098	643.88
312.328	640.88
312.557	644.88
312.787	662.88
313.017	655.88
313.246	633.88
313.476	659.88
313.706	657.88
313.935	667.88
314.165	685.88
314.394	672.88
314.624	658.88
314.853	672.88
315.083	649.88
315.312	653.88
315.542	664.88
315.771	662.88
316.001	626.88
316.23	636.88
316.46	658.88
316.689	664.88
316.919	634.88
317.148	662.88
317.377	621.88
317.607	640.88
317.836	638.88
318.065	633.88
318.295	649.88
318.524	648.88
318.753	646.88
318.983	643.88
319.212	627.88
319.441	640.88
319.67	659.88
319.9	652.88
320.129	627.88
320.358	633.88
320.587	642.88
320.816	664.88
321.046	646.88
321.275	658.88
321.504	667.88
321.733	651.88
321.962	665.88
322.191	645.88
322.42	660.88
322.649	650.88
322.878	634.88
323.108	669.88
323.337	672.88
323.566	679.88
323.795	655.88
324.024	661.88
324.253	652.88
324.482	678.88
324.71	668.88
324.939	672.88
325.168	670.88
325.397	681.88
325.626	685.88
325.855	695.88
326.084	693.88
326.313	715.88
326.542	721.88
326.77	726.88
326.999	694.88
327.228	708.88
327.457	708.88
327.686	708.88
327.914	696.88
328.143	725.88
328.372	714.88
328.6	705.88
328.829	725.88
329.058	722.88
329.287	707.88
329.515	720.88
329.744	717.88
329.972	731.88
330.201	731.88
330.43	710.88
330.658	734.88
330.887	726.88
331.115	735.88
331.344	784.88
331.572	726.88
331.801	790.88
332.03	792.88
332.258	772.88
332.486	830.88
332.715	841.88
332.943	872.88
333.172	960.88
333.4	968.88
333.629	947.88
333.857	989.88
334.085	998.88
334.314	969.88
334.542	938.88
334.771	936.88
334.999	886.88
335.227	910.88
335.455	896.88
335.684	896.88
335.912	885.88
336.14	856.88
336.369	855.88
336.597	854.88
336.825	888.88
337.053	859.88
337.281	859.88
337.51	819.88
337.738	821.88
337.966	802.88
338.194	790.88
338.422	779.88
338.65	772.88
338.878	785.88
339.106	779.88
339.334	782.88
339.562	770.88
339.79	735.88
340.018	761.88
340.246	723.88
340.474	732.88
340.702	725.88
340.93	766.88
341.158	744.88
341.386	748.88
341.614	760.88
341.842	727.88
342.07	701.88
342.298	728.88
342.526	746.88
342.754	715.88
342.981	766.88
343.209	764.88
343.437	769.88
343.665	817.88
343.893	900.88
344.12	930.88
344.348	898.88
344.576	881.88
344.804	819.88
345.031	781.88
345.259	743.88
345.487	752.88
345.714	749.88
345.942	708.88
346.17	721.88
346.397	731.88
346.625	717.88
346.853	722.88
347.08	724.88
347.308	712.88
347.535	756.88
347.763	747.88
347.99	737.88
348.218	747.88
348.445	724.88
348.673	733.88
348.9	713.88
349.128	721.88
349.355	715.88
349.583	721.88
349.81	715.88
350.037	703.88
350.265	671.88
350.492	700.88
350.72	702.88
350.947	693.88
351.174	700.88
351.402	706.88
351.629	699.88
351.856	704.88
352.083	684.88
352.311	694.88
352.538	683.88
352.765	684.88
352.992	704.88
353.22	690.88
353.447	690.88
353.674	702.88
353.901	678.88
354.128	676.88
354.355	689.88
354.583	699.88
354.81	681.88
355.037	702.88
355.264	713.88
355.491	710.88
355.718	692.88
355.945	722.88
356.172	692.88
356.399	689.88
356.626	685.88
356.853	710.88
357.08	713.88
357.307	708.88
357.534	723.88
357.761	694.88
357.988	688.88
358.215	685.88
358.441	685.88
358.668	706.88
358.895	682.88
359.122	684.88
359.349	717.88
359.576	678.88
359.802	685.88
360.029	704.88
360.256	698.88
360.483	685.88
360.709	701.88
360.936	677.88
361.163	689.88
361.39	696.88
361.616	696.88
361.843	692.88
362.07	711.88
362.296	706.88
362.523	677.88
362.749	694.88
362.976	668.88
363.203	686.88
363.429	668.88
363.656	692.88
363.882	680.88
364.109	692.88
364.335	690.88
364.562	691.88
364.788	669.88
365.015	725.88
365.241	712.88
365.468	691.88
365.694	680.88
365.92	714.88
366.147	683.88
366.373	691.88
366.599	692.88
366.826	683.88
367.052	655.88
367.278	694.88
367.505	685.88
367.731	720.88
367.957	683.88
368.184	700.88
368.41	715.88
368.636	710.88
368.862	705.88
369.089	715.88
369.315	707.88
369.541	736.88
369.767	739.88
369.993	733.88
370.219	725.88
370.445	714.88
370.672	716.88
370.898	746.88
371.124	741.88
371.35	759.88
371.576	746.88
371.802	777.88
372.028	766.88
372.254	765.88
372.48	744.88
372.706	777.88
372.932	788.88
373.158	802.88
373.384	764.88
373.61	720.88
373.835	739.88
374.061	755.88
374.287	772.88
374.513	764.88
374.739	824.88
374.965	833.88
375.191	855.88
375.416	866.88
375.642	818.88
375.868	818.88
376.094	801.88
376.319	783.88
376.545	768.88
376.771	769.88
376.997	764.88
377.222	753.88
377.448	780.88
377.674	757.88
377.899	757.88
378.125	729.88
378.35	739.88
378.576	740.88
378.802	748.88
379.027	754.88
379.253	755.88
379.478	756.88
379.704	741.88
379.929	729.88
380.155	740.88
380.38	786.88
380.606	747.88
380.831	758.88
381.057	772.88
381.282	765.88
381.507	754.88
381.733	747.88
381.958	778.88
382.184	770.88
382.409	783.88
382.634	797.88
382.86	782.88
383.085	824.88
383.31	835.88
383.535	828.88
383.761	853.88
383.986	852.88
384.211	862.88
384.436	889.88
384.662	896.88
384.887	929.88
385.112	940.88
385.337	915.88
385.562	929.88
385.787	914.88
386.013	924.88
386.238	925.88
386.463	940.88
386.688	924.88
386.913	910.88
387.138	892.88
387.363	904.88
387.588	896.88
387.813	905.88
388.038	908.88
388.263	881.88
388.488	927.88
388.713	912.88
388.938	908.88
389.163	867.88
389.387	894.88
389.612	907.88
389.837	891.88
390.062	868.88
390.287	859.88
390.512	882.88
390.736	884.88
390.961	913.88
391.186	925.88
391.411	990.88
391.636	973.88
391.86	1003.88
392.085	1051.88
392.31	1057.88
392.534	992.88
392.759	978.88
392.984	963.88
393.208	965.88
393.433	966.88
393.658	992.88
393.882	973.88
394.107	979.88
394.331	995.88
394.556	973.88
394.78	1002.88
395.005	1002.88
395.229	987.88
395.454	1014.88
395.678	1060.88
395.903	1046.88
396.127	1016.88
396.352	977.88
396.576	950.88
396.801	933.88
397.025	966.88
397.249	989.88
397.474	1014.88
397.698	1011.88
397.922	1005.88
398.147	1037.88
398.371	1042.88
398.595	1064.88
398.82	1088.88
399.044	1207.88
399.268	1320.88
399.492	1576.88
399.717	1816.88
399.941	1825.88
400.165	1578.88
400.389	1405.88
400.613	1307.88
400.837	1206.88
401.062	1166.88
401.286	1143.88
401.51	1147.88
401.734	1122.88
401.958	1154.88
402.182	1180.88
402.406	1202.88
402.63	1224.88
402.854	1245.88
403.078	1259.88
403.302	1316.88
403.526	1329.88
403.75	1299.88
403.974	1340.88
404.198	1344.88
404.422	1392.88
404.645	1387.88
404.869	1276.88
405.093	1313.88
405.317	1306.88
405.541	1310.88
405.765	1310.88
405.988	1266.88
406.212	1278.88
406.436	1290.88
406.66	1286.88
406.883	1311.88
407.107	1440.88
407.331	1508.88
407.555	1529.88
407.778	1522.88
408.002	1451.88
408.226	1420.88
408.449	1387.88
408.673	1316.88
408.896	1310.88
409.12	1306.88
409.344	1345.88
409.567	1288.88
409.791	1384.88
410.014	1334.88
410.238	1284.88
410.461	1300.88
410.685	1289.88
410.908	1282.88
411.132	1233.88
411.355	1194.88
411.578	1191.88
411.802	1212.88
412.025	1212.88
412.249	1217.88
412.472	1234.88
412.695	1211.88
412.919	1163.88
413.142	1143.88
413.365	1158.88
413.589	1156.88
413.812	1114.88
414.035	1136.88
414.258	1114.88
414.482	1160.88
414.705	1194.88
414.928	1188.88
415.151	1161.88
415.374	1161.88
415.597	1119.88
415.821	1125.88
416.044	1156.88
416.267	1125.88
416.49	1106.88
416.713	1127.88
416.936	1146.88
417.159	1126.88
417.382	1124.88
417.605	1108.88
417.828	1130.88
418.051	1185.88
418.274	1140.88
418.497	1147.88
418.72	1202.88
418.943	1192.88
419.166	1256.88
419.389	1382.88
419.611	1337.88
419.834	1276.88
420.057	1228.88
420.28	1197.88
420.503	1137.88
420.726	1126.88
420.948	1120.88
421.171	1136.88
421.394	1136.88
421.617	1121.88
421.839	1150.88
422.062	1167.88
422.285	1137.88
422.507	1183.88
422.73	1174.88
422.953	1176.88
423.175	1218.88
423.398	1226.88
423.621	1176.88
423.843	1230.88
424.066	1244.88
424.288	1229.88
424.511	1222.88
424.733	1213.88
424.956	1188.88
425.178	1131.88
425.401	1200.88
425.623	1142.88
425.846	1120.88
426.068	1118.88
426.291	1113.88
426.513	1084.88
426.735	1088.88
426.958	1076.88
427.18	1070.88
427.402	1081.88
427.625	1031.88
427.847	1015.88
428.069	1050.88
428.292	1014.88
428.514	1035.88
428.736	1008.88
428.958	1062.88
429.181	996.88
429.403	996.88
429.625	1009.88
429.847	992.88
430.069	982.88
430.292	979.88
430.514	934.88
430.736	990.88
430.958	1010.88
431.18	994.88
431.402	986.88
431.624	1003.88
431.846	1018.88
432.068	1028.88
432.29	1047.88
432.512	1002.88
432.734	1014.88
432.956	996.88
433.178	1021.88
433.4	1053.88
433.622	1056.88
433.844	1036.88
434.066	1040.88
434.287	1056.88
434.509	1091.88
434.731	1127.88
434.953	1156.88
435.175	1177.88
435.397	1157.88
435.618	1105.88
435.84	1045.88
436.062	1043.88
436.284	1024.88
436.505	1045.88
436.727	1042.88
436.949	1019.88
437.17	1010.88
437.392	1000.88
437.614	1009.88
437.835	981.88
438.057	1006.88
438.278	944.88
438.5	974.88
438.721	979.88
438.943	1000.88
439.165	975.88
439.386	1004.88
439.608	1004.88
439.829	1040.88
440.05	1058.88
440.272	1052.88
440.493	1035.88
440.715	1058.88
440.936	1069.88
441.158	1059.88
441.379	1129.88
441.6	1167.88
441.822	1185.88
442.043	1188.88
442.264	1195.88
442.486	1121.88
442.707	1138.88
442.928	1136.88
443.149	1147.88
443.371	1121.88
443.592	1152.88
443.813	1153.88
444.034	1175.88
444.255	1203.88
444.476	1277.88
444.698	1393.88
444.919	1419.88
445.14	1492.88
445.361	1318.88
445.582	1247.88
445.803	1135.88
446.024	1126.88
446.245	1065.88
446.466	1058.88
446.687	1036.88
446.908	1067.88
447.129	1026.88
447.35	1018.88
447.571	1003.88
447.792	1011.88
448.013	971.88
448.234	970.88
448.455	973.88
448.675	982.88
448.896	946.88
449.117	960.88
449.338	940.88
449.559	936.88
449.779	946.88
450	931.88
450.221	934.88
450.442	947.88
450.662	980.88
450.883	974.88
451.104	987.88
451.324	968.88
451.545	993.88
451.766	978.88
451.986	972.88
452.207	975.88
452.428	955.88
452.648	960.88
452.869	930.88
453.089	923.88
453.31	936.88
453.53	956.88
453.751	952.88
453.971	925.88
454.192	929.88
454.412	903.88
454.633	925.88
454.853	902.88
455.073	896.88
455.294	906.88
455.514	905.88
455.734	910.88
455.955	876.88
456.175	880.88
456.395	882.88
456.616	868.88
456.836	896.88
457.056	891.88
457.276	876.88
457.497	874.88
457.717	903.88
457.937	906.88
458.157	914.88
458.377	929.88
458.598	953.88
458.818	972.88
459.038	992.88
459.258	1005.88
459.478	1062.88
459.698	1074.88
459.918	1068.88
460.138	1145.88
460.358	1212.88
460.578	1240.88
460.798	1232.88
461.018	1261.88
461.238	1236.88
461.458	1227.88
461.678	1220.88
461.898	1253.88
462.118	1227.88
462.338	1336.88
462.558	1355.88
462.777	1392.88
462.997	1556.88
463.217	1662.88
463.437	1724.88
463.657	1571.88
463.876	1452.88
464.096	1489.88
464.316	1468.88
464.536	1475.88
464.755	1413.88
464.975	1363.88
465.195	1284.88
465.414	1218.88
465.634	1133.88
465.854	1084.88
466.073	1064.88
466.293	1043.88
466.512	1005.88
466.732	974.88
466.951	1002.88
467.171	985.88
467.391	997.88
467.61	997.88
467.829	973.88
468.049	970.88
468.268	955.88
468.488	952.88
468.707	958.88
468.927	938.88
469.146	955.88
469.365	986.88
469.585	1000.88
469.804	995.88
470.023	1024.88
470.243	1026.88
470.462	1037.88
470.681	1057.88
470.901	1045.88
471.12	998.88
471.339	1006.88
471.558	979.88
471.777	973.88
471.997	938.88
472.216	942.88
472.435	963.88
472.654	946.88
472.873	914.88
473.092	930.88
473.311	929.88
473.53	935.88
473.749	913.88
473.968	916.88
474.187	924.88
474.406	926.88
474.625	925.88
474.844	952.88
475.063	950.88
475.282	952.88
475.501	943.88
475.72	944.88
475.939	939.88
476.158	977.88
476.377	970.88
476.596	968.88
476.814	979.88
477.033	975.88
477.252	984.88
477.471	1042.88
477.69	1049.88
477.908	1084.88
478.127	1084.88
478.346	1130.88
478.564	1136.88
478.783	1153.88
479.002	1164.88
479.22	1187.88
479.439	1137.88
479.658	1170.88
479.876	1162.88
480.095	1183.88
480.313	1212.88
480.532	1264.88
480.751	1249.88
480.969	1224.88
481.188	1151.88
481.406	1124.88
481.624	1092.88
481.843	1075.88
482.061	1077.88
482.28	1054.88
482.498	1051.88
482.717	1064.88
482.935	1096.88
483.153	1070.88
483.372	1055.88
483.59	1099.88
483.808	1079.88
484.027	1048.88
484.245	1062.88
484.463	1081.88
484.681	1104.88
484.9	1101.88
485.118	1106.88
485.336	1122.88
485.554	1100.88
485.772	1120.88
485.99	1122.88
486.209	1152.88
486.427	1145.88
486.645	1162.88
486.863	1143.88
487.081	1120.88
487.299	1132.88
487.517	1136.88
487.735	1108.88
487.953	1135.88
488.171	1122.88
488.389	1082.88
488.607	1085.88
488.825	1071.88
489.043	1068.88
489.261	1097.88
489.479	1121.88
489.696	1067.88
489.914	1120.88
490.132	1120.88
490.35	1119.88
490.568	1107.88
490.786	1113.88
491.003	1128.88
491.221	1111.88
491.439	1149.88
491.657	1146.88
491.874	1127.88
492.092	1125.88
492.31	1165.88
492.527	1129.88
492.745	1174.88
492.963	1156.88
493.18	1152.88
493.398	1148.88
493.615	1130.88
493.833	1166.88
494.05	1174.88
494.268	1158.88
494.485	1197.88
494.703	1165.88
494.92	1188.88
495.138	1182.88
495.355	1168.88
495.573	1194.88
495.79	1182.88
496.008	1193.88
496.225	1208.88
496.442	1215.88
496.66	1222.88
496.877	1214.88
497.094	1252.88
497.312	1266.88
497.529	1284.88
497.746	1353.88
497.963	1349.88
498.181	1431.88
498.398	1466.88
498.615	1563.88
498.832	1672.88
499.049	1814.88
499.267	1966.88
499.484	2176.88
499.701	2403.88
499.918	2663.88
500.135	3082.88
500.352	3494.88
500.569	3710.88
500.786	3687.88
501.003	3431.88
501.22	3022.88
501.437	2712.88
501.654	2344.88
501.871	2110.88
502.088	1964.88
502.305	1840.88
502.522	1698.88
502.739	1636.88
502.956	1494.88
503.172	1458.88
503.389	1412.88
503.606	1349.88
503.823	1353.88
504.04	1318.88
504.256	1330.88
504.473	1364.88
504.69	1436.88
504.907	1378.88
505.123	1310.88
505.34	1261.88
505.557	1177.88
505.773	1140.88
505.99	1137.88
506.207	1098.88
506.423	1091.88
506.64	1072.88
506.856	1044.88
507.073	1076.88
507.289	1076.88
507.506	1037.88
507.722	1034.88
507.939	1032.88
508.155	985.88
508.372	993.88
508.588	1002.88
508.805	995.88
509.021	986.88
509.238	977.88
509.454	980.88
509.67	960.88
509.887	971.88
510.103	971.88
510.319	931.88
510.536	967.88
510.752	938.88
510.968	961.88
511.184	944.88
511.401	930.88
511.617	940.88
511.833	942.88
512.049	908.88
512.265	932.88
512.481	957.88
512.698	970.88
512.914	969.88
513.13	946.88
513.346	929.88
513.562	942.88
513.778	944.88
513.994	972.88
514.21	960.88
514.426	970.88
514.642	949.88
514.858	976.88
515.074	972.88
515.29	1014.88
515.506	985.88
515.721	976.88
515.937	1044.88
516.153	1017.88
516.369	1021.88
516.585	1089.88
516.801	1140.88
517.016	1152.88
517.232	1241.88
517.448	1284.88
517.664	1318.88
517.879	1332.88
518.095	1358.88
518.311	1325.88
518.527	1260.88
518.742	1240.88
518.958	1179.88
519.173	1116.88
519.389	1100.88
519.605	1048.88
519.82	1039.88
520.036	1010.88
520.251	980.88
520.467	969.88
520.682	955.88
520.898	958.88
521.113	954.88
521.329	931.88
521.544	922.88
521.76	933.88
521.975	910.88
522.19	897.88
522.406	888.88
522.621	894.88
522.836	889.88
523.052	904.88
523.267	861.88
523.482	893.88
523.698	888.88
523.913	877.88
524.128	892.88
524.343	865.88
524.559	872.88
524.774	884.88
524.989	869.88
525.204	906.88
525.419	887.88
525.634	851.88
525.849	857.88
526.064	870.88
526.28	845.88
526.495	849.88
526.71	868.88
526.925	865.88
527.14	865.88
527.355	839.88
527.57	853.88
527.785	864.88
527.999	876.88
528.214	835.88
528.429	866.88
528.644	845.88
528.859	866.88
529.074	894.88
529.289	889.88
529.503	870.88
529.718	872.88
529.933	867.88
530.148	850.88
530.363	875.88
530.577	845.88
530.792	881.88
531.007	870.88
531.221	864.88
531.436	847.88
531.651	865.88
531.865	877.88
532.08	852.88
532.295	869.88
532.509	864.88
532.724	842.88
532.938	865.88
533.153	833.88
533.367	848.88
533.582	846.88
533.796	862.88
534.011	867.88
534.225	859.88
534.44	860.88
534.654	840.88
534.868	819.88
535.083	828.88
535.297	840.88
535.511	786.88
535.726	820.88
535.94	804.88
536.154	824.88
536.369	816.88
536.583	828.88
536.797	837.88
537.011	802.88
537.225	822.88
537.44	813.88
537.654	804.88
537.868	782.88
538.082	787.88
538.296	768.88
538.51	768.88
538.724	804.88
538.938	783.88
539.153	775.88
539.367	746.88
539.581	752.88
539.795	774.88
540.009	766.88
540.222	753.88
540.436	746.88
540.65	770.88
540.864	764.88
541.078	774.88
541.292	776.88
541.506	781.88
541.72	741.88
541.934	766.88
542.147	776.88
542.361	750.88
542.575	797.88
542.789	762.88
543.002	744.88
543.216	743.88
543.43	752.88
543.644	739.88
543.857	768.88
544.071	756.88
544.285	772.88
544.498	765.88
544.712	739.88
544.925	772.88
545.139	749.88
545.352	762.88
545.566	796.88
545.779	760.88
545.993	819.88
546.206	786.88
546.42	773.88
546.633	811.88
546.847	743.88
547.06	789.88
547.274	770.88
547.487	788.88
547.7	790.88
547.914	801.88
548.127	781.88
548.34	777.88
548.554	780.88
548.767	798.88
548.98	793.88
549.193	812.88
549.407	822.88
549.62	804.88
549.833	821.88
550.046	805.88
550.259	756.88
550.473	796.88
550.686	797.88
550.899	783.88
551.112	780.88
551.325	747.88
551.538	741.88
551.751	758.88
551.964	757.88
552.177	768.88
552.39	783.88
552.603	816.88
552.816	861.88
553.029	873.88
553.242	855.88
553.455	872.88
553.667	874.88
553.88	904.88
554.093	828.88
554.306	792.88
554.519	789.88
554.732	788.88
554.944	778.88
555.157	770.88
555.37	744.88
555.583	737.88
555.795	754.88
556.008	718.88
556.221	702.88
556.433	693.88
556.646	711.88
556.859	677.88
557.071	690.88
557.284	681.88
557.496	690.88
557.709	672.88
557.921	676.88
558.134	670.88
558.346	660.88
558.559	670.88
558.771	660.88
558.984	658.88
559.196	633.88
559.409	662.88
559.621	634.88
559.833	634.88
560.046	630.88
560.258	630.88
560.47	643.88
560.683	671.88
560.895	655.88
561.107	660.88
561.32	649.88
561.532	633.88
561.744	645.88
561.956	647.88
562.168	652.88
562.381	671.88
562.593	649.88
562.805	658.88
563.017	640.88
563.229	649.88
563.441	662.88
563.653	674.88
563.865	678.88
564.077	668.88
564.289	672.88
564.501	652.88
564.713	712.88
564.925	717.88
565.137	697.88
565.349	723.88
565.561	766.88
565.773	773.88
565.985	823.88
566.197	870.88
566.408	922.88
566.62	1004.88
566.832	1088.88
567.044	1093.88
567.255	1106.88
567.467	1138.88
567.679	1189.88
567.891	1304.88
568.102	1339.88
568.314	1281.88
568.526	1123.88
568.737	1019.88
568.949	931.88
569.161	860.88
569.372	801.88
569.584	740.88
569.795	746.88
570.007	708.88
570.218	674.88
570.43	682.88
570.641	672.88
570.853	694.88
571.064	672.88
571.276	690.88
571.487	670.88
571.698	644.88
571.91	635.88
572.121	594.88
572.333	599.88
572.544	593.88
572.755	600.88
572.966	584.88
573.178	565.88
573.389	573.88
573.6	547.88
573.811	541.88
574.023	572.88
574.234	548.88
574.445	536.88
574.656	551.88
574.867	552.88
575.078	537.88
575.289	537.88
575.501	545.88
575.712	523.88
575.923	528.88
576.134	553.88
576.345	524.88
576.556	512.88
576.767	526.88
576.978	507.88
577.188	532.88
577.399	518.88
577.61	510.88
577.821	505.88
578.032	487.88
578.243	476.88
578.454	515.88
578.665	500.88
578.875	476.88
579.086	460.88
579.297	489.88
579.508	472.88
579.718	491.88
579.929	490.88
580.14	470.88
580.35	462.88
580.561	463.88
580.772	468.88
580.982	470.88
581.193	468.88
581.403	450.88
581.614	458.88
581.825	446.88
582.035	476.88
582.246	451.88
582.456	454.88
582.667	460.88
582.877	462.88
583.087	462.88
583.298	459.88
583.508	464.88
583.719	460.88
583.929	456.88
584.139	447.88
584.35	450.88
584.56	432.88
584.77	443.88
584.981	460.88
585.191	461.88
585.401	455.88
585.611	448.88
585.821	437.88
586.032	425.88
586.242	434.88
586.452	449.88
586.662	452.88
586.872	457.88
587.082	450.88
587.292	408.88
587.502	428.88
587.713	428.88
587.923	437.88
588.133	438.88
588.343	438.88
588.553	455.88
588.762	441.88
588.972	436.88
589.182	438.88
589.392	441.88
589.602	433.88
589.812	441.88
590.022	442.88
590.232	440.88
590.441	452.88
590.651	437.88
590.861	441.88
591.071	437.88
591.281	453.88
591.49	467.88
591.7	467.88
591.91	478.88
592.119	491.88
592.329	482.88
592.539	506.88
592.748	516.88
592.958	524.88
593.167	547.88
593.377	558.88
593.587	572.88
593.796	572.88
594.006	572.88
594.215	561.88
594.424	584.88
594.634	547.88
594.843	534.88
595.053	519.88
595.262	502.88
595.472	470.88
595.681	460.88
595.89	459.88
596.1	437.88
596.309	433.88
596.518	422.88
596.727	401.88
596.937	406.88
597.146	402.88
597.355	418.88
597.564	413.88
597.774	402.88
597.983	400.88
598.192	393.88
598.401	389.88
598.61	371.88
598.819	370.88
599.028	376.88
599.237	373.88
599.446	373.88
599.655	401.88
599.864	382.88
600.073	372.88
600.282	360.88
600.491	378.88
600.7	361.88
600.909	376.88
601.118	372.88
601.327	363.88
601.536	379.88
601.745	349.88
601.953	362.88
602.162	353.88
602.371	359.88
602.58	344.88
602.789	339.88
602.997	361.88
603.206	376.88
603.415	358.88
603.623	358.88
603.832	350.88
604.041	356.88
604.249	352.88
604.458	357.88
604.666	350.88
604.875	357.88
605.084	328.88
605.292	345.88
605.501	341.88
605.709	349.88
605.918	340.88
606.126	324.88
606.334	338.88
606.543	321.88
606.751	332.88
606.96	335.88
607.168	342.88
607.376	327.88
607.585	338.88
607.793	332.88
608.001	345.88
608.21	336.88
608.418	342.88
608.626	321.88
608.834	336.88
609.043	331.88
609.251	334.88
609.459	338.88
609.667	329.88
609.875	328.88
610.083	331.88
610.291	350.88
610.499	333.88
610.707	329.88
610.916	325.88
611.124	337.88
611.332	329.88
611.54	333.88
611.748	297.88
611.955	314.88
612.163	305.88
612.371	342.88
612.579	329.88
612.787	335.88
612.995	325.88
613.203	312.88
613.411	319.88
613.618	334.88
613.826	318.88
614.034	317.88
614.242	322.88
614.449	304.88
614.657	321.88
614.865	328.88
615.072	310.88
615.28	310.88
615.488	316.88
615.695	299.88
615.903	326.88
616.111	318.88
616.318	313.88
616.526	342.88
616.733	321.88
616.941	304.88
617.148	299.88
617.356	310.88
617.563	309.88
617.771	333.88
617.978	309.88
618.185	325.88
618.393	312.88
618.6	326.88
618.807	322.88
619.015	309.88
619.222	316.88
619.429	322.88
619.637	333.88
619.844	319.88
620.051	330.88
620.258	309.88
620.466	315.88
620.673	288.88
620.88	295.88
621.087	311.88
621.294	282.88
621.501	324.88
621.708	304.88
621.915	282.88
622.122	305.88
622.329	289.88
622.536	272.88
622.743	297.88
622.95	291.88
623.157	284.88
623.364	311.88
623.571	288.88
623.778	295.88
623.985	297.88
624.192	288.88
624.399	279.88
624.606	265.88
624.812	280.88
625.019	292.88
625.226	289.88
625.433	265.88
625.639	264.88
625.846	292.88
626.053	280.88
626.259	258.88
626.466	262.88
626.673	263.88
626.879	270.88
627.086	274.88
627.293	283.88
627.499	272.88
627.706	268.88
627.912	260.88
628.119	269.88
628.325	265.88
628.532	270.88
628.738	259.88
628.945	260.88
629.151	257.88
629.357	260.88
629.564	262.88
629.77	246.88
629.976	232.88
630.183	243.88
630.389	263.88
630.595	251.88
630.802	242.88
631.008	246.88
631.214	243.88
631.42	254.88
631.627	246.88
631.833	230.88
632.039	243.88
632.245	224.88
632.451	234.88
632.657	252.88
632.863	228.88
633.069	244.88
633.275	248.88
633.481	245.88
633.688	230.88
633.893	236.88
634.099	240.88
634.305	229.88
634.511	226.88
634.717	228.88
634.923	213.88
635.129	227.88
635.335	225.88
635.541	216.88
635.747	230.88
635.952	230.88
636.158	229.88
636.364	230.88
636.57	220.88
636.775	254.88
636.981	245.88
637.187	229.88
637.392	231.88
637.598	222.88
637.804	226.88
638.009	217.88
638.215	214.88
638.421	232.88
638.626	214.88
638.832	235.88
639.037	235.88
639.243	225.88
639.448	222.88
639.654	227.88
639.859	210.88
640.065	214.88
640.27	215.88
640.475	219.88
640.681	234.88
640.886	216.88
641.091	220.88
641.297	215.88
641.502	209.88
641.707	227.88
641.913	233.88
642.118	222.88
642.323	214.88
642.528	217.88
642.733	206.88
642.939	210.88
643.144	206.88
643.349	217.88
643.554	227.88
643.759	209.88
643.964	224.88
644.169	223.88
644.374	198.88
644.579	221.88
644.784	210.88
644.989	204.88
645.194	196.88
645.399	192.88
645.604	212.88
645.809	222.88
646.014	212.88
646.219	208.88
646.423	209.88
646.628	202.88
646.833	204.88
647.038	216.88
647.243	216.88
647.447	206.88
647.652	230.88
647.857	218.88
648.062	215.88
648.266	237.88
648.471	227.88
648.676	233.88
648.88	219.88
649.085	220.88
649.289	214.88
649.494	218.88
649.698	202.88
649.903	199.88
650.107	221.88
650.312	212.88
650.516	192.88
650.721	208.88
650.925	200.88
651.13	193.88
651.334	193.88
651.539	189.88
651.743	185.88
651.947	194.88
652.152	188.88
652.356	176.88
652.56	180.88
652.764	169.88
652.969	166.88
653.173	178.88
653.377	176.88
653.581	169.88
653.785	167.88
653.99	164.88
654.194	161.88
654.398	157.88
654.602	160.88
654.806	157.88
655.01	161.88
655.214	168.88
655.418	160.88
655.622	146.88
655.826	142.88
656.03	170.88
656.234	170.88
656.438	151.88
656.642	175.88
656.846	153.88
657.049	140.88
657.253	152.88
657.457	130.88
657.661	128.88
657.865	130.88
658.068	123.88
658.272	140.88
658.476	129.88
658.68	107.88
658.883	126.88
659.087	120.88
659.291	120.88
659.494	124.88
659.698	102.88
659.901	109.88
660.105	112.88
660.309	115.88
660.512	86.88
660.716	101.88
660.919	105.88
661.123	96.88
661.326	92.88
661.53	91.88
661.733	93.88
661.936	81.88
662.14	89.88
662.343	76.88
662.546	92.88
662.75	95.88
662.953	85.88
663.156	88.88
663.36	89.88
663.563	81.88
663.766	78.88
663.969	74.88
664.173	89.88
664.376	75.88
664.579	83.88
664.782	82.88
664.985	88.88
665.188	74.88
665.391	100.88
665.594	85.88
665.797	79.88
666	89.88
666.203	81.88
666.406	90.88
666.609	96.88
666.812	102.88
667.015	73.88
667.218	80.88
667.421	94.88
667.624	84.88
667.827	81.88
668.03	90.88
668.232	76.88
668.435	76.88
668.638	73.88
668.841	89.88
669.043	82.88
669.246	96.88
669.449	97.88
669.651	89.88
669.854	89.88
670.057	89.88
670.259	84.88
670.462	75.88
670.665	76.88
670.867	99.88
671.07	95.88
671.272	87.88
671.475	88.88
671.677	81.88
671.88	80.88
672.082	71.88
672.284	83.88
672.487	77.88
672.689	79.88
672.892	82.88
