Data from NiCl2@0.125M.TitratingCurve.Agarose3%dH2O.NegLispCup.LampEnergy10.LIBS07252019_HRD10591_18-27-14-574.txt Node
Date: Thu Jul 25 18:27:14 EDT 2019
User: cochatt
Spectrometer: HR+D1059
Trigger mode: 1
Integration Time (sec): 1.000000E-1
Scans to average: 1
Electric dark correction enabled: true
Nonlinearity correction enabled: false
Boxcar width: 0
XAxis mode: Wavelengths
Number of Pixels in Spectrum: 2048
>>>>>Begin Spectral Data<<<<<
223.165	-21.31
223.4	-21.31
223.635	-21.31
223.869	-3.31
224.104	-13.31
224.338	-24.31
224.573	-17.31
224.808	-1.31
225.042	-8.31
225.277	-23.31
225.511	-10.31
225.746	12.69
225.98	1.69
226.215	23.69
226.449	11.69
226.683	27.69
226.918	10.69
227.152	34.69
227.387	38.69
227.621	31.69
227.856	44.69
228.09	23.69
228.324	52.69
228.559	52.69
228.793	78.69
229.027	132.69
229.262	134.69
229.496	146.69
229.73	123.69
229.964	168.69
230.199	160.69
230.433	161.69
230.667	171.69
230.901	169.69
231.136	152.69
231.37	171.69
231.604	163.69
231.838	172.69
232.072	184.69
232.306	188.69
232.541	168.69
232.775	174.69
233.009	169.69
233.243	182.69
233.477	180.69
233.711	184.69
233.945	168.69
234.179	169.69
234.413	178.69
234.647	191.69
234.881	198.69
235.115	196.69
235.349	188.69
235.583	171.69
235.817	183.69
236.051	186.69
236.285	178.69
236.519	191.69
236.753	174.69
236.987	196.69
237.221	184.69
237.455	182.69
237.689	203.69
237.922	210.69
238.156	210.69
238.39	215.69
238.624	196.69
238.858	222.69
239.091	206.69
239.325	216.69
239.559	214.69
239.793	224.69
240.027	225.69
240.26	215.69
240.494	223.69
240.728	227.69
240.961	220.69
241.195	233.69
241.429	225.69
241.662	238.69
241.896	225.69
242.13	239.69
242.363	219.69
242.597	254.69
242.83	242.69
243.064	243.69
243.298	251.69
243.531	247.69
243.765	258.69
243.998	264.69
244.232	268.69
244.465	251.69
244.699	264.69
244.932	255.69
245.166	269.69
245.399	263.69
245.633	246.69
245.866	283.69
246.099	290.69
246.333	291.69
246.566	283.69
246.8	286.69
247.033	299.69
247.266	280.69
247.5	297.69
247.733	301.69
247.966	296.69
248.2	326.69
248.433	302.69
248.666	320.69
248.899	293.69
249.133	302.69
249.366	292.69
249.599	314.69
249.832	314.69
250.066	324.69
250.299	322.69
250.532	335.69
250.765	319.69
250.998	330.69
251.231	349.69
251.465	324.69
251.698	338.69
251.931	339.69
252.164	331.69
252.397	353.69
252.63	350.69
252.863	344.69
253.096	357.69
253.329	351.69
253.562	357.69
253.795	352.69
254.028	358.69
254.261	392.69
254.494	374.69
254.727	355.69
254.96	366.69
255.193	349.69
255.426	354.69
255.659	378.69
255.892	384.69
256.124	379.69
256.357	380.69
256.59	381.69
256.823	390.69
257.056	376.69
257.289	394.69
257.521	379.69
257.754	390.69
257.987	384.69
258.22	406.69
258.452	410.69
258.685	406.69
258.918	392.69
259.151	379.69
259.383	402.69
259.616	401.69
259.849	414.69
260.081	414.69
260.314	403.69
260.547	418.69
260.779	412.69
261.012	411.69
261.244	423.69
261.477	424.69
261.71	426.69
261.942	419.69
262.175	432.69
262.407	406.69
262.64	426.69
262.872	440.69
263.105	453.69
263.337	419.69
263.57	434.69
263.802	464.69
264.035	447.69
264.267	467.69
264.499	465.69
264.732	452.69
264.964	446.69
265.197	435.69
265.429	448.69
265.661	458.69
265.894	459.69
266.126	452.69
266.358	467.69
266.591	446.69
266.823	475.69
267.055	465.69
267.287	477.69
267.52	478.69
267.752	479.69
267.984	490.69
268.216	487.69
268.448	484.69
268.681	492.69
268.913	479.69
269.145	501.69
269.377	502.69
269.609	504.69
269.841	498.69
270.073	490.69
270.306	486.69
270.538	504.69
270.77	511.69
271.002	495.69
271.234	530.69
271.466	512.69
271.698	519.69
271.93	530.69
272.162	525.69
272.394	531.69
272.626	532.69
272.858	538.69
273.09	551.69
273.322	525.69
273.553	513.69
273.785	530.69
274.017	523.69
274.249	520.69
274.481	549.69
274.713	544.69
274.945	553.69
275.176	555.69
275.408	549.69
275.64	551.69
275.872	562.69
276.104	572.69
276.335	556.69
276.567	568.69
276.799	568.69
277.031	567.69
277.262	578.69
277.494	566.69
277.726	589.69
277.957	603.69
278.189	567.69
278.421	595.69
278.652	600.69
278.884	596.69
279.115	570.69
279.347	606.69
279.579	601.69
279.81	604.69
280.042	598.69
280.273	626.69
280.505	598.69
280.736	601.69
280.968	609.69
281.199	607.69
281.431	613.69
281.662	626.69
281.894	606.69
282.125	598.69
282.356	641.69
282.588	614.69
282.819	648.69
283.051	650.69
283.282	642.69
283.513	631.69
283.745	646.69
283.976	617.69
284.207	628.69
284.439	651.69
284.67	648.69
284.901	655.69
285.132	645.69
285.364	658.69
285.595	651.69
285.826	660.69
286.057	653.69
286.288	639.69
286.52	653.69
286.751	660.69
286.982	663.69
287.213	669.69
287.444	664.69
287.675	666.69
287.906	672.69
288.138	686.69
288.369	692.69
288.6	707.69
288.831	679.69
289.062	692.69
289.293	704.69
289.524	682.69
289.755	713.69
289.986	652.69
290.217	726.69
290.448	706.69
290.679	696.69
290.91	715.69
291.141	722.69
291.371	735.69
291.602	702.69
291.833	709.69
292.064	734.69
292.295	724.69
292.526	690.69
292.757	714.69
292.987	706.69
293.218	720.69
293.449	721.69
293.68	706.69
293.91	710.69
294.141	722.69
294.372	704.69
294.603	711.69
294.833	716.69
295.064	733.69
295.295	719.69
295.525	718.69
295.756	719.69
295.987	734.69
296.217	747.69
296.448	718.69
296.679	737.69
296.909	742.69
297.14	756.69
297.37	754.69
297.601	759.69
297.831	755.69
298.062	757.69
298.292	766.69
298.523	779.69
298.753	775.69
298.984	763.69
299.214	768.69
299.445	784.69
299.675	754.69
299.905	741.69
300.136	772.69
300.366	752.69
300.597	754.69
300.827	773.69
301.057	775.69
301.288	787.69
301.518	799.69
301.748	794.69
301.979	818.69
302.209	824.69
302.439	810.69
302.669	787.69
302.9	822.69
303.13	789.69
303.36	768.69
303.59	819.69
303.82	804.69
304.051	798.69
304.281	817.69
304.511	811.69
304.741	796.69
304.971	816.69
305.201	798.69
305.431	811.69
305.661	805.69
305.891	780.69
306.121	772.69
306.352	802.69
306.582	787.69
306.812	786.69
307.042	785.69
307.272	796.69
307.502	797.69
307.731	795.69
307.961	794.69
308.191	777.69
308.421	786.69
308.651	796.69
308.881	785.69
309.111	778.69
309.341	773.69
309.571	796.69
309.8	785.69
310.03	803.69
310.26	788.69
310.49	827.69
310.72	804.69
310.949	814.69
311.179	811.69
311.409	815.69
311.639	811.69
311.868	827.69
312.098	810.69
312.328	823.69
312.557	832.69
312.787	815.69
313.017	810.69
313.246	842.69
313.476	858.69
313.706	866.69
313.935	838.69
314.165	856.69
314.394	839.69
314.624	868.69
314.853	884.69
315.083	838.69
315.312	872.69
315.542	848.69
315.771	838.69
316.001	858.69
316.23	870.69
316.46	845.69
316.689	834.69
316.919	868.69
317.148	871.69
317.377	873.69
317.607	851.69
317.836	850.69
318.065	818.69
318.295	843.69
318.524	858.69
318.753	814.69
318.983	836.69
319.212	846.69
319.441	848.69
319.67	851.69
319.9	852.69
320.129	840.69
320.358	849.69
320.587	857.69
320.816	849.69
321.046	857.69
321.275	838.69
321.504	838.69
321.733	875.69
321.962	858.69
322.191	854.69
322.42	868.69
322.649	865.69
322.878	860.69
323.108	853.69
323.337	883.69
323.566	871.69
323.795	898.69
324.024	843.69
324.253	882.69
324.482	895.69
324.71	884.69
324.939	878.69
325.168	916.69
325.397	889.69
325.626	911.69
325.855	920.69
326.084	908.69
326.313	935.69
326.542	937.69
326.77	922.69
326.999	915.69
327.228	936.69
327.457	906.69
327.686	908.69
327.914	924.69
328.143	926.69
328.372	926.69
328.6	920.69
328.829	909.69
329.058	893.69
329.287	929.69
329.515	980.69
329.744	928.69
329.972	939.69
330.201	949.69
330.43	928.69
330.658	947.69
330.887	943.69
331.115	980.69
331.344	961.69
331.572	982.69
331.801	989.69
332.03	995.69
332.258	1041.69
332.486	1046.69
332.715	1072.69
332.943	1091.69
333.172	1111.69
333.4	1154.69
333.629	1182.69
333.857	1191.69
334.085	1208.69
334.314	1198.69
334.542	1174.69
334.771	1189.69
334.999	1158.69
335.227	1161.69
335.455	1159.69
335.684	1141.69
335.912	1152.69
336.14	1146.69
336.369	1123.69
336.597	1119.69
336.825	1118.69
337.053	1104.69
337.281	1065.69
337.51	1067.69
337.738	1064.69
337.966	1031.69
338.194	1031.69
338.422	1033.69
338.65	1030.69
338.878	1012.69
339.106	996.69
339.334	1036.69
339.562	1020.69
339.79	994.69
340.018	992.69
340.246	984.69
340.474	984.69
340.702	972.69
340.93	984.69
341.158	1017.69
341.386	986.69
341.614	988.69
341.842	977.69
342.07	957.69
342.298	954.69
342.526	989.69
342.754	973.69
342.981	978.69
343.209	998.69
343.437	1059.69
343.665	1096.69
343.893	1132.69
344.12	1159.69
344.348	1160.69
344.576	1131.69
344.804	1092.69
345.031	1065.69
345.259	1039.69
345.487	1003.69
345.714	1011.69
345.942	960.69
346.17	971.69
346.397	980.69
346.625	933.69
346.853	936.69
347.08	944.69
347.308	988.69
347.535	927.69
347.763	954.69
347.99	934.69
348.218	940.69
348.445	946.69
348.673	931.69
348.9	940.69
349.128	937.69
349.355	932.69
349.583	920.69
349.81	917.69
350.037	929.69
350.265	897.69
350.492	913.69
350.72	893.69
350.947	926.69
351.174	903.69
351.402	888.69
351.629	925.69
351.856	926.69
352.083	918.69
352.311	954.69
352.538	912.69
352.765	930.69
352.992	906.69
353.22	896.69
353.447	905.69
353.674	900.69
353.901	894.69
354.128	907.69
354.355	881.69
354.583	908.69
354.81	913.69
355.037	886.69
355.264	912.69
355.491	907.69
355.718	912.69
355.945	924.69
356.172	913.69
356.399	902.69
356.626	887.69
356.853	914.69
357.08	906.69
357.307	923.69
357.534	921.69
357.761	914.69
357.988	906.69
358.215	906.69
358.441	907.69
358.668	891.69
358.895	935.69
359.122	903.69
359.349	931.69
359.576	945.69
359.802	932.69
360.029	907.69
360.256	929.69
360.483	921.69
360.709	886.69
360.936	936.69
361.163	890.69
361.39	916.69
361.616	937.69
361.843	899.69
362.07	933.69
362.296	932.69
362.523	909.69
362.749	918.69
362.976	937.69
363.203	922.69
363.429	899.69
363.656	880.69
363.882	907.69
364.109	905.69
364.335	898.69
364.562	934.69
364.788	905.69
365.015	910.69
365.241	904.69
365.468	909.69
365.694	921.69
365.92	929.69
366.147	902.69
366.373	908.69
366.599	922.69
366.826	911.69
367.052	907.69
367.278	904.69
367.505	915.69
367.731	914.69
367.957	951.69
368.184	925.69
368.41	921.69
368.636	904.69
368.862	930.69
369.089	916.69
369.315	921.69
369.541	936.69
369.767	942.69
369.993	937.69
370.219	956.69
370.445	998.69
370.672	977.69
370.898	972.69
371.124	987.69
371.35	1018.69
371.576	1029.69
371.802	991.69
372.028	1002.69
372.254	979.69
372.48	965.69
372.706	1027.69
372.932	1048.69
373.158	1026.69
373.384	1022.69
373.61	1012.69
373.835	1003.69
374.061	982.69
374.287	996.69
374.513	1030.69
374.739	1065.69
374.965	1083.69
375.191	1088.69
375.416	1091.69
375.642	1063.69
375.868	1032.69
376.094	1008.69
376.319	1024.69
376.545	1027.69
376.771	1025.69
376.997	1015.69
377.222	980.69
377.448	986.69
377.674	995.69
377.899	978.69
378.125	972.69
378.35	966.69
378.576	1003.69
378.802	987.69
379.027	966.69
379.253	985.69
379.478	961.69
379.704	953.69
379.929	954.69
380.155	965.69
380.38	976.69
380.606	979.69
380.831	976.69
381.057	994.69
381.282	974.69
381.507	988.69
381.733	1004.69
381.958	986.69
382.184	1029.69
382.409	1008.69
382.634	1049.69
382.86	1005.69
383.085	1037.69
383.31	1058.69
383.535	1046.69
383.761	1073.69
383.986	1084.69
384.211	1104.69
384.436	1131.69
384.662	1125.69
384.887	1160.69
385.112	1126.69
385.337	1155.69
385.562	1158.69
385.787	1182.69
386.013	1203.69
386.238	1177.69
386.463	1194.69
386.688	1201.69
386.913	1173.69
387.138	1176.69
387.363	1168.69
387.588	1164.69
387.813	1189.69
388.038	1196.69
388.263	1178.69
388.488	1200.69
388.713	1192.69
388.938	1165.69
389.163	1156.69
389.387	1186.69
389.612	1159.69
389.837	1176.69
390.062	1162.69
390.287	1197.69
390.512	1168.69
390.736	1190.69
390.961	1192.69
391.186	1222.69
391.411	1242.69
391.636	1269.69
391.86	1298.69
392.085	1307.69
392.31	1318.69
392.534	1314.69
392.759	1261.69
392.984	1255.69
393.208	1272.69
393.433	1259.69
393.658	1322.69
393.882	1244.69
394.107	1241.69
394.331	1238.69
394.556	1293.69
394.78	1251.69
395.005	1281.69
395.229	1272.69
395.454	1307.69
395.678	1327.69
395.903	1335.69
396.127	1302.69
396.352	1285.69
396.576	1276.69
396.801	1267.69
397.025	1311.69
397.249	1378.69
397.474	1368.69
397.698	1382.69
397.922	1392.69
398.147	1379.69
398.371	1415.69
398.595	1443.69
398.82	1448.69
399.044	1560.69
399.268	1665.69
399.492	1861.69
399.717	2036.69
399.941	2081.69
400.165	1906.69
400.389	1816.69
400.613	1694.69
400.837	1592.69
401.062	1603.69
401.286	1518.69
401.51	1510.69
401.734	1460.69
401.958	1485.69
402.182	1493.69
402.406	1513.69
402.63	1544.69
402.854	1574.69
403.078	1579.69
403.302	1560.69
403.526	1631.69
403.75	1629.69
403.974	1632.69
404.198	1609.69
404.422	1629.69
404.645	1607.69
404.869	1607.69
405.093	1606.69
405.317	1614.69
405.541	1614.69
405.765	1609.69
405.988	1603.69
406.212	1595.69
406.436	1617.69
406.66	1629.69
406.883	1674.69
407.107	1720.69
407.331	1745.69
407.555	1840.69
407.778	1840.69
408.002	1771.69
408.226	1790.69
408.449	1720.69
408.673	1711.69
408.896	1673.69
409.12	1633.69
409.344	1626.69
409.567	1600.69
409.791	1643.69
410.014	1637.69
410.238	1630.69
410.461	1626.69
410.685	1611.69
410.908	1541.69
411.132	1563.69
411.355	1490.69
411.578	1520.69
411.802	1553.69
412.025	1540.69
412.249	1577.69
412.472	1547.69
412.695	1483.69
412.919	1495.69
413.142	1467.69
413.365	1500.69
413.589	1501.69
413.812	1458.69
414.035	1449.69
414.258	1450.69
414.482	1455.69
414.705	1494.69
414.928	1484.69
415.151	1483.69
415.374	1487.69
415.597	1467.69
415.821	1426.69
416.044	1442.69
416.267	1436.69
416.49	1460.69
416.713	1444.69
416.936	1458.69
417.159	1424.69
417.382	1420.69
417.605	1395.69
417.828	1417.69
418.051	1458.69
418.274	1420.69
418.497	1424.69
418.72	1468.69
418.943	1459.69
419.166	1559.69
419.389	1614.69
419.611	1633.69
419.834	1551.69
420.057	1476.69
420.28	1448.69
420.503	1422.69
420.726	1406.69
420.948	1417.69
421.171	1424.69
421.394	1414.69
421.617	1440.69
421.839	1466.69
422.062	1468.69
422.285	1424.69
422.507	1464.69
422.73	1479.69
422.953	1444.69
423.175	1470.69
423.398	1454.69
423.621	1450.69
423.843	1495.69
424.066	1471.69
424.288	1492.69
424.511	1476.69
424.733	1474.69
424.956	1429.69
425.178	1441.69
425.401	1429.69
425.623	1464.69
425.846	1379.69
426.068	1410.69
426.291	1398.69
426.513	1380.69
426.735	1358.69
426.958	1393.69
427.18	1323.69
427.402	1368.69
427.625	1384.69
427.847	1315.69
428.069	1315.69
428.292	1305.69
428.514	1302.69
428.736	1308.69
428.958	1316.69
429.181	1286.69
429.403	1304.69
429.625	1300.69
429.847	1287.69
430.069	1292.69
430.292	1323.69
430.514	1272.69
430.736	1310.69
430.958	1299.69
431.18	1324.69
431.402	1292.69
431.624	1283.69
431.846	1307.69
432.068	1311.69
432.29	1335.69
432.512	1245.69
432.734	1285.69
432.956	1303.69
433.178	1316.69
433.4	1306.69
433.622	1322.69
433.844	1322.69
434.066	1343.69
434.287	1328.69
434.509	1362.69
434.731	1394.69
434.953	1418.69
435.175	1446.69
435.397	1448.69
435.618	1356.69
435.84	1350.69
436.062	1292.69
436.284	1318.69
436.505	1309.69
436.727	1294.69
436.949	1298.69
437.17	1315.69
437.392	1319.69
437.614	1294.69
437.835	1244.69
438.057	1238.69
438.278	1233.69
438.5	1239.69
438.721	1259.69
438.943	1248.69
439.165	1260.69
439.386	1268.69
439.608	1317.69
439.829	1313.69
440.05	1288.69
440.272	1322.69
440.493	1281.69
440.715	1334.69
440.936	1379.69
441.158	1375.69
441.379	1383.69
441.6	1401.69
441.822	1416.69
442.043	1481.69
442.264	1424.69
442.486	1381.69
442.707	1420.69
442.928	1391.69
443.149	1430.69
443.371	1416.69
443.592	1403.69
443.813	1441.69
444.034	1430.69
444.255	1443.69
444.476	1524.69
444.698	1577.69
444.919	1603.69
445.14	1686.69
445.361	1565.69
445.582	1502.69
445.803	1456.69
446.024	1388.69
446.245	1395.69
446.466	1362.69
446.687	1312.69
446.908	1363.69
447.129	1320.69
447.35	1283.69
447.571	1234.69
447.792	1260.69
448.013	1216.69
448.234	1224.69
448.455	1200.69
448.675	1242.69
448.896	1187.69
449.117	1171.69
449.338	1210.69
449.559	1174.69
449.779	1143.69
450	1178.69
450.221	1216.69
450.442	1180.69
450.662	1208.69
450.883	1204.69
451.104	1211.69
451.324	1203.69
451.545	1178.69
451.766	1175.69
451.986	1153.69
452.207	1164.69
452.428	1168.69
452.648	1158.69
452.869	1117.69
453.089	1139.69
453.31	1162.69
453.53	1140.69
453.751	1119.69
453.971	1136.69
454.192	1168.69
454.412	1132.69
454.633	1129.69
454.853	1149.69
455.073	1159.69
455.294	1112.69
455.514	1120.69
455.734	1106.69
455.955	1090.69
456.175	1068.69
456.395	1099.69
456.616	1119.69
456.836	1105.69
457.056	1100.69
457.276	1116.69
457.497	1115.69
457.717	1106.69
457.937	1120.69
458.157	1114.69
458.377	1155.69
458.598	1184.69
458.818	1212.69
459.038	1235.69
459.258	1272.69
459.478	1255.69
459.698	1350.69
459.918	1354.69
460.138	1403.69
460.358	1462.69
460.578	1490.69
460.798	1540.69
461.018	1516.69
461.238	1470.69
461.458	1467.69
461.678	1454.69
461.898	1510.69
462.118	1541.69
462.338	1599.69
462.558	1610.69
462.777	1703.69
462.997	1772.69
463.217	1856.69
463.437	1866.69
463.657	1791.69
463.876	1733.69
464.096	1678.69
464.316	1668.69
464.536	1675.69
464.755	1641.69
464.975	1623.69
465.195	1506.69
465.414	1478.69
465.634	1391.69
465.854	1366.69
466.073	1290.69
466.293	1296.69
466.512	1298.69
466.732	1264.69
466.951	1252.69
467.171	1250.69
467.391	1274.69
467.61	1243.69
467.829	1220.69
468.049	1246.69
468.268	1225.69
468.488	1194.69
468.707	1186.69
468.927	1222.69
469.146	1210.69
469.365	1195.69
469.585	1268.69
469.804	1269.69
470.023	1306.69
470.243	1246.69
470.462	1265.69
470.681	1275.69
470.901	1287.69
471.12	1259.69
471.339	1230.69
471.558	1259.69
471.777	1226.69
471.997	1206.69
472.216	1220.69
472.435	1230.69
472.654	1192.69
472.873	1179.69
473.092	1199.69
473.311	1188.69
473.53	1178.69
473.749	1192.69
473.968	1182.69
474.187	1169.69
474.406	1192.69
474.625	1200.69
474.844	1182.69
475.063	1189.69
475.282	1226.69
475.501	1225.69
475.72	1230.69
475.939	1243.69
476.158	1243.69
476.377	1220.69
476.596	1240.69
476.814	1286.69
477.033	1278.69
477.252	1291.69
477.471	1347.69
477.69	1357.69
477.908	1381.69
478.127	1357.69
478.346	1404.69
478.564	1416.69
478.783	1426.69
479.002	1481.69
479.22	1497.69
479.439	1522.69
479.658	1489.69
479.876	1513.69
480.095	1507.69
480.313	1565.69
480.532	1537.69
480.751	1556.69
480.969	1527.69
481.188	1463.69
481.406	1446.69
481.624	1430.69
481.843	1402.69
482.061	1414.69
482.28	1423.69
482.498	1402.69
482.717	1402.69
482.935	1427.69
483.153	1432.69
483.372	1402.69
483.59	1414.69
483.808	1422.69
484.027	1402.69
484.245	1424.69
484.463	1412.69
484.681	1460.69
484.9	1434.69
485.118	1449.69
485.336	1438.69
485.554	1464.69
485.772	1471.69
485.99	1454.69
486.209	1453.69
486.427	1453.69
486.645	1478.69
486.863	1456.69
487.081	1450.69
487.299	1466.69
487.517	1480.69
487.735	1433.69
487.953	1447.69
488.171	1503.69
488.389	1483.69
488.607	1439.69
488.825	1435.69
489.043	1458.69
489.261	1449.69
489.479	1414.69
489.696	1424.69
489.914	1448.69
490.132	1464.69
490.35	1445.69
490.568	1481.69
490.786	1476.69
491.003	1467.69
491.221	1496.69
491.439	1497.69
491.657	1426.69
491.874	1504.69
492.092	1519.69
492.31	1475.69
492.527	1466.69
492.745	1512.69
492.963	1457.69
493.18	1506.69
493.398	1508.69
493.615	1499.69
493.833	1503.69
494.05	1546.69
494.268	1511.69
494.485	1553.69
494.703	1508.69
494.92	1498.69
495.138	1517.69
495.355	1530.69
495.573	1564.69
495.79	1537.69
496.008	1564.69
496.225	1594.69
496.442	1581.69
496.66	1585.69
496.877	1634.69
497.094	1666.69
497.312	1694.69
497.529	1684.69
497.746	1736.69
497.963	1794.69
498.181	1879.69
498.398	1891.69
498.615	2011.69
498.832	2088.69
499.049	2219.69
499.267	2379.69
499.484	2606.69
499.701	2782.69
499.918	3020.69
500.135	3280.69
500.352	3614.69
500.569	3748.69
500.786	3646.69
501.003	3507.69
501.22	3273.69
501.437	2990.69
501.654	2747.69
501.871	2583.69
502.088	2389.69
502.305	2265.69
502.522	2146.69
502.739	2006.69
502.956	1961.69
503.172	1915.69
503.389	1881.69
503.606	1786.69
503.823	1756.69
504.04	1748.69
504.256	1706.69
504.473	1744.69
504.69	1723.69
504.907	1710.69
505.123	1679.69
505.34	1602.69
505.557	1525.69
505.773	1475.69
505.99	1475.69
506.207	1409.69
506.423	1424.69
506.64	1407.69
506.856	1338.69
507.073	1310.69
507.289	1323.69
507.506	1314.69
507.722	1299.69
507.939	1301.69
508.155	1306.69
508.372	1279.69
508.588	1304.69
508.805	1282.69
509.021	1259.69
509.238	1225.69
509.454	1248.69
509.67	1218.69
509.887	1202.69
510.103	1224.69
510.319	1217.69
510.536	1224.69
510.752	1178.69
510.968	1193.69
511.184	1190.69
511.401	1202.69
511.617	1202.69
511.833	1210.69
512.049	1201.69
512.265	1202.69
512.481	1224.69
512.698	1189.69
512.914	1204.69
513.13	1190.69
513.346	1200.69
513.562	1190.69
513.778	1206.69
513.994	1208.69
514.21	1188.69
514.426	1196.69
514.642	1211.69
514.858	1220.69
515.074	1233.69
515.29	1260.69
515.506	1246.69
515.721	1259.69
515.937	1282.69
516.153	1312.69
516.369	1323.69
516.585	1351.69
516.801	1394.69
517.016	1408.69
517.232	1478.69
517.448	1506.69
517.664	1547.69
517.879	1532.69
518.095	1546.69
518.311	1534.69
518.527	1505.69
518.742	1463.69
518.958	1414.69
519.173	1346.69
519.389	1345.69
519.605	1283.69
519.82	1272.69
520.036	1235.69
520.251	1211.69
520.467	1209.69
520.682	1202.69
520.898	1180.69
521.113	1158.69
521.329	1164.69
521.544	1151.69
521.76	1163.69
521.975	1162.69
522.19	1107.69
522.406	1127.69
522.621	1143.69
522.836	1112.69
523.052	1096.69
523.267	1145.69
523.482	1111.69
523.698	1086.69
523.913	1098.69
524.128	1114.69
524.343	1090.69
524.559	1094.69
524.774	1103.69
524.989	1087.69
525.204	1106.69
525.419	1068.69
525.634	1059.69
525.849	1064.69
526.064	1096.69
526.28	1067.69
526.495	1059.69
526.71	1082.69
526.925	1062.69
527.14	1066.69
527.355	1058.69
527.57	1078.69
527.785	1056.69
527.999	1051.69
528.214	1061.69
528.429	1028.69
528.644	1059.69
528.859	1075.69
529.074	1076.69
529.289	1078.69
529.503	1050.69
529.718	1054.69
529.933	1071.69
530.148	1041.69
530.363	1049.69
530.577	1041.69
530.792	1050.69
531.007	1036.69
531.221	1050.69
531.436	1025.69
531.651	1033.69
531.865	1064.69
532.08	1044.69
532.295	1062.69
532.509	1015.69
532.724	1053.69
532.938	1042.69
533.153	1040.69
533.367	1052.69
533.582	1043.69
533.796	1041.69
534.011	1026.69
534.225	1032.69
534.44	1022.69
534.654	1024.69
534.868	1023.69
535.083	995.69
535.297	995.69
535.511	976.69
535.726	1004.69
535.94	998.69
536.154	970.69
536.369	989.69
536.583	982.69
536.797	960.69
537.011	963.69
537.225	992.69
537.44	971.69
537.654	967.69
537.868	958.69
538.082	962.69
538.296	954.69
538.51	974.69
538.724	938.69
538.938	955.69
539.153	960.69
539.367	952.69
539.581	939.69
539.795	928.69
540.009	922.69
540.222	938.69
540.436	967.69
540.65	905.69
540.864	920.69
541.078	932.69
541.292	935.69
541.506	953.69
541.72	951.69
541.934	938.69
542.147	951.69
542.361	936.69
542.575	939.69
542.789	936.69
543.002	917.69
543.216	935.69
543.43	941.69
543.644	908.69
543.857	903.69
544.071	920.69
544.285	944.69
544.498	922.69
544.712	915.69
544.925	932.69
545.139	938.69
545.352	976.69
545.566	965.69
545.779	921.69
545.993	966.69
546.206	978.69
546.42	975.69
546.633	973.69
546.847	947.69
547.06	958.69
547.274	966.69
547.487	957.69
547.7	932.69
547.914	982.69
548.127	976.69
548.34	952.69
548.554	961.69
548.767	946.69
548.98	962.69
549.193	968.69
549.407	980.69
549.62	996.69
549.833	993.69
550.046	990.69
550.259	956.69
550.473	959.69
550.686	942.69
550.899	946.69
551.112	929.69
551.325	923.69
551.538	970.69
551.751	953.69
551.964	937.69
552.177	937.69
552.39	959.69
552.603	1003.69
552.816	1011.69
553.029	1010.69
553.242	1020.69
553.455	1016.69
553.667	994.69
553.88	1008.69
554.093	986.69
554.306	981.69
554.519	955.69
554.732	921.69
554.944	919.69
555.157	926.69
555.37	903.69
555.583	900.69
555.795	887.69
556.008	872.69
556.221	840.69
556.433	832.69
556.646	852.69
556.859	825.69
557.071	822.69
557.284	831.69
557.496	840.69
557.709	822.69
557.921	801.69
558.134	825.69
558.346	808.69
558.559	808.69
558.771	793.69
558.984	807.69
559.196	801.69
559.409	800.69
559.621	830.69
559.833	787.69
560.046	809.69
560.258	814.69
560.47	798.69
560.683	777.69
560.895	780.69
561.107	783.69
561.32	800.69
561.532	777.69
561.744	810.69
561.956	773.69
562.168	775.69
562.381	751.69
562.593	781.69
562.805	815.69
563.017	803.69
563.229	831.69
563.441	796.69
563.653	799.69
563.865	792.69
564.077	811.69
564.289	836.69
564.501	865.69
564.713	829.69
564.925	875.69
565.137	886.69
565.349	881.69
565.561	901.69
565.773	939.69
565.985	975.69
566.197	1007.69
566.408	1059.69
566.62	1112.69
566.832	1193.69
567.044	1219.69
567.255	1227.69
567.467	1240.69
567.679	1293.69
567.891	1350.69
568.102	1348.69
568.314	1268.69
568.526	1181.69
568.737	1122.69
568.949	1065.69
569.161	984.69
569.372	959.69
569.584	911.69
569.795	859.69
570.007	834.69
570.218	827.69
570.43	819.69
570.641	801.69
570.853	814.69
571.064	830.69
571.276	805.69
571.487	773.69
571.698	755.69
571.91	754.69
572.121	700.69
572.333	704.69
572.544	709.69
572.755	666.69
572.966	664.69
573.178	686.69
573.389	680.69
573.6	659.69
573.811	643.69
574.023	670.69
574.234	681.69
574.445	638.69
574.656	662.69
574.867	655.69
575.078	635.69
575.289	646.69
575.501	638.69
575.712	628.69
575.923	598.69
576.134	610.69
576.345	618.69
576.556	608.69
576.767	606.69
576.978	617.69
577.188	623.69
577.399	597.69
577.61	606.69
577.821	593.69
578.032	586.69
578.243	598.69
578.454	585.69
578.665	592.69
578.875	564.69
579.086	575.69
579.297	571.69
579.508	575.69
579.718	576.69
579.929	567.69
580.14	542.69
580.35	558.69
580.561	558.69
580.772	568.69
580.982	567.69
581.193	559.69
581.403	555.69
581.614	534.69
581.825	549.69
582.035	554.69
582.246	539.69
582.456	550.69
582.667	531.69
582.877	541.69
583.087	529.69
583.298	543.69
583.508	546.69
583.719	542.69
583.929	524.69
584.139	522.69
584.35	522.69
584.56	522.69
584.77	505.69
584.981	522.69
585.191	530.69
585.401	504.69
585.611	523.69
585.821	525.69
586.032	506.69
586.242	520.69
586.452	500.69
586.662	497.69
586.872	526.69
587.082	516.69
587.292	490.69
587.502	502.69
587.713	513.69
587.923	484.69
588.133	506.69
588.343	531.69
588.553	526.69
588.762	522.69
588.972	521.69
589.182	531.69
589.392	527.69
589.602	510.69
589.812	520.69
590.022	522.69
590.232	530.69
590.441	514.69
590.651	535.69
590.861	534.69
591.071	524.69
591.281	518.69
591.49	527.69
591.7	532.69
591.91	554.69
592.119	564.69
592.329	555.69
592.539	562.69
592.748	586.69
592.958	588.69
593.167	632.69
593.377	627.69
593.587	625.69
593.796	642.69
594.006	625.69
594.215	606.69
594.424	606.69
594.634	614.69
594.843	575.69
595.053	576.69
595.262	574.69
595.472	522.69
595.681	515.69
595.89	525.69
596.1	518.69
596.309	489.69
596.518	502.69
596.727	482.69
596.937	481.69
597.146	480.69
597.355	474.69
597.564	459.69
597.774	466.69
597.983	440.69
598.192	451.69
598.401	453.69
598.61	437.69
598.819	447.69
599.028	434.69
599.237	428.69
599.446	434.69
599.655	440.69
599.864	436.69
600.073	430.69
600.282	438.69
600.491	441.69
600.7	427.69
600.909	414.69
601.118	405.69
601.327	412.69
601.536	407.69
601.745	410.69
601.953	413.69
602.162	431.69
602.371	407.69
602.58	400.69
602.789	394.69
602.997	401.69
603.206	423.69
603.415	398.69
603.623	401.69
603.832	420.69
604.041	410.69
604.249	397.69
604.458	403.69
604.666	412.69
604.875	399.69
605.084	380.69
605.292	400.69
605.501	402.69
605.709	396.69
605.918	383.69
606.126	394.69
606.334	379.69
606.543	380.69
606.751	400.69
606.96	402.69
607.168	394.69
607.376	385.69
607.585	395.69
607.793	394.69
608.001	383.69
608.21	373.69
608.418	371.69
608.626	380.69
608.834	393.69
609.043	388.69
609.251	407.69
609.459	390.69
609.667	378.69
609.875	384.69
610.083	380.69
610.291	401.69
610.499	383.69
610.707	377.69
610.916	378.69
611.124	361.69
611.332	361.69
611.54	355.69
611.748	364.69
611.955	371.69
612.163	363.69
612.371	374.69
612.579	352.69
612.787	376.69
612.995	376.69
613.203	368.69
613.411	365.69
613.618	353.69
613.826	377.69
614.034	360.69
614.242	361.69
614.449	367.69
614.657	366.69
614.865	352.69
615.072	382.69
615.28	368.69
615.488	348.69
615.695	351.69
615.903	355.69
616.111	350.69
616.318	363.69
616.526	361.69
616.733	354.69
616.941	363.69
617.148	350.69
617.356	340.69
617.563	342.69
617.771	358.69
617.978	356.69
618.185	356.69
618.393	368.69
618.6	355.69
618.807	359.69
619.015	360.69
619.222	343.69
619.429	335.69
619.637	359.69
619.844	348.69
620.051	337.69
620.258	346.69
620.466	343.69
620.673	340.69
620.88	308.69
621.087	340.69
621.294	344.69
621.501	338.69
621.708	327.69
621.915	332.69
622.122	345.69
622.329	335.69
622.536	323.69
622.743	324.69
622.95	318.69
623.157	314.69
623.364	320.69
623.571	318.69
623.778	318.69
623.985	323.69
624.192	319.69
624.399	310.69
624.606	313.69
624.812	319.69
625.019	318.69
625.226	315.69
625.433	322.69
625.639	322.69
625.846	329.69
626.053	310.69
626.259	305.69
626.466	323.69
626.673	302.69
626.879	287.69
627.086	291.69
627.293	311.69
627.499	302.69
627.706	332.69
627.912	325.69
628.119	299.69
628.325	294.69
628.532	280.69
628.738	294.69
628.945	297.69
629.151	292.69
629.357	289.69
629.564	270.69
629.77	307.69
629.976	314.69
630.183	299.69
630.389	276.69
630.595	281.69
630.802	300.69
631.008	287.69
631.214	283.69
631.42	296.69
631.627	293.69
631.833	260.69
632.039	265.69
632.245	279.69
632.451	281.69
632.657	263.69
632.863	277.69
633.069	288.69
633.275	272.69
633.481	276.69
633.688	277.69
633.893	276.69
634.099	293.69
634.305	285.69
634.511	272.69
634.717	254.69
634.923	275.69
635.129	269.69
635.335	261.69
635.541	278.69
635.747	266.69
635.952	290.69
636.158	257.69
636.364	272.69
636.57	267.69
636.775	270.69
636.981	260.69
637.187	250.69
637.392	266.69
637.598	267.69
637.804	235.69
638.009	240.69
638.215	258.69
638.421	248.69
638.626	265.69
638.832	244.69
639.037	243.69
639.243	271.69
639.448	258.69
639.654	244.69
639.859	245.69
640.065	235.69
640.27	254.69
640.475	257.69
640.681	246.69
640.886	248.69
641.091	262.69
641.297	242.69
641.502	241.69
641.707	229.69
641.913	243.69
642.118	261.69
642.323	254.69
642.528	241.69
642.733	256.69
642.939	234.69
643.144	229.69
643.349	232.69
643.554	238.69
643.759	238.69
643.964	232.69
644.169	248.69
644.374	234.69
644.579	238.69
644.784	238.69
644.989	240.69
645.194	267.69
645.399	251.69
645.604	235.69
645.809	246.69
646.014	247.69
646.219	231.69
646.423	244.69
646.628	242.69
646.833	235.69
647.038	250.69
647.243	251.69
647.447	247.69
647.652	248.69
647.857	254.69
648.062	271.69
648.266	267.69
648.471	263.69
648.676	283.69
648.88	254.69
649.085	250.69
649.289	257.69
649.494	249.69
649.698	243.69
649.903	235.69
650.107	258.69
650.312	230.69
650.516	245.69
650.721	243.69
650.925	230.69
651.13	238.69
651.334	244.69
651.539	229.69
651.743	223.69
651.947	231.69
652.152	210.69
652.356	214.69
652.56	211.69
652.764	228.69
652.969	206.69
653.173	223.69
653.377	206.69
653.581	211.69
653.785	219.69
653.99	217.69
654.194	207.69
654.398	204.69
654.602	210.69
654.806	214.69
655.01	216.69
655.214	225.69
655.418	214.69
655.622	230.69
655.826	207.69
656.03	223.69
656.234	232.69
656.438	227.69
656.642	227.69
656.846	223.69
657.049	207.69
657.253	188.69
657.457	178.69
657.661	176.69
657.865	161.69
658.068	154.69
658.272	157.69
658.476	156.69
658.68	153.69
658.883	154.69
659.087	131.69
659.291	134.69
659.494	117.69
659.698	115.69
659.901	122.69
660.105	115.69
660.309	111.69
660.512	103.69
660.716	104.69
660.919	107.69
661.123	93.69
661.326	103.69
661.53	95.69
661.733	100.69
661.936	92.69
662.14	95.69
662.343	87.69
662.546	91.69
662.75	93.69
662.953	97.69
663.156	72.69
663.36	72.69
663.563	76.69
663.766	77.69
663.969	78.69
664.173	83.69
664.376	74.69
664.579	85.69
664.782	68.69
664.985	80.69
665.188	70.69
665.391	86.69
665.594	80.69
665.797	77.69
666	74.69
666.203	74.69
666.406	71.69
666.609	78.69
666.812	78.69
667.015	86.69
667.218	63.69
667.421	71.69
667.624	80.69
667.827	71.69
668.03	76.69
668.232	84.69
668.435	76.69
668.638	80.69
668.841	76.69
669.043	74.69
669.246	79.69
669.449	84.69
669.651	95.69
669.854	85.69
670.057	64.69
670.259	86.69
670.462	79.69
670.665	74.69
670.867	75.69
671.07	75.69
671.272	83.69
671.475	82.69
671.677	89.69
671.88	77.69
672.082	82.69
672.284	72.69
672.487	90.69
672.689	78.69
672.892	68.69
