Data from NiCl2@0.5M.TitratingCurve.Agarose3%dH2O.NegLispCup.LampEnergy10.LIBS07252019_HRD10591_18-19-47-572.txt Node
Date: Thu Jul 25 18:19:47 EDT 2019
User: cochatt
Spectrometer: HR+D1059
Trigger mode: 1
Integration Time (sec): 1.000000E-1
Scans to average: 1
Electric dark correction enabled: true
Nonlinearity correction enabled: false
Boxcar width: 0
XAxis mode: Wavelengths
Number of Pixels in Spectrum: 2048
>>>>>Begin Spectral Data<<<<<
223.165	-7.94
223.4	-7.94
223.635	-7.94
223.869	-16.94
224.104	-22.94
224.338	-34.94
224.573	-5.94
224.808	-13.94
225.042	2.06
225.277	-8.94
225.511	-1.94
225.746	-4.94
225.98	7.06
226.215	18.06
226.449	7.06
226.683	26.06
226.918	27.06
227.152	31.06
227.387	21.06
227.621	38.06
227.856	46.06
228.09	39.06
228.324	52.06
228.559	39.06
228.793	68.06
229.027	102.06
229.262	100.06
229.496	103.06
229.73	107.06
229.964	102.06
230.199	133.06
230.433	131.06
230.667	128.06
230.901	139.06
231.136	119.06
231.37	138.06
231.604	134.06
231.838	142.06
232.072	147.06
232.306	134.06
232.541	134.06
232.775	134.06
233.009	131.06
233.243	131.06
233.477	137.06
233.711	130.06
233.945	123.06
234.179	134.06
234.413	143.06
234.647	149.06
234.881	148.06
235.115	154.06
235.349	137.06
235.583	149.06
235.817	135.06
236.051	145.06
236.285	152.06
236.519	135.06
236.753	141.06
236.987	137.06
237.221	143.06
237.455	144.06
237.689	149.06
237.922	148.06
238.156	144.06
238.39	148.06
238.624	130.06
238.858	144.06
239.091	156.06
239.325	157.06
239.559	167.06
239.793	162.06
240.027	146.06
240.26	143.06
240.494	161.06
240.728	156.06
240.961	158.06
241.195	156.06
241.429	169.06
241.662	174.06
241.896	173.06
242.13	160.06
242.363	168.06
242.597	168.06
242.83	166.06
243.064	178.06
243.298	172.06
243.531	197.06
243.765	192.06
243.998	195.06
244.232	187.06
244.465	191.06
244.699	186.06
244.932	195.06
245.166	193.06
245.399	189.06
245.633	188.06
245.866	189.06
246.099	202.06
246.333	208.06
246.566	189.06
246.8	183.06
247.033	175.06
247.266	194.06
247.5	184.06
247.733	205.06
247.966	216.06
248.2	208.06
248.433	212.06
248.666	182.06
248.899	210.06
249.133	212.06
249.366	216.06
249.599	206.06
249.832	236.06
250.066	234.06
250.299	231.06
250.532	229.06
250.765	205.06
250.998	229.06
251.231	216.06
251.465	229.06
251.698	238.06
251.931	223.06
252.164	243.06
252.397	222.06
252.63	235.06
252.863	217.06
253.096	221.06
253.329	213.06
253.562	247.06
253.795	261.06
254.028	250.06
254.261	237.06
254.494	250.06
254.727	243.06
254.96	258.06
255.193	249.06
255.426	239.06
255.659	231.06
255.892	251.06
256.124	263.06
256.357	256.06
256.59	262.06
256.823	235.06
257.056	264.06
257.289	255.06
257.521	249.06
257.754	258.06
257.987	253.06
258.22	268.06
258.452	273.06
258.685	264.06
258.918	272.06
259.151	263.06
259.383	272.06
259.616	272.06
259.849	275.06
260.081	272.06
260.314	282.06
260.547	278.06
260.779	275.06
261.012	272.06
261.244	280.06
261.477	299.06
261.71	292.06
261.942	288.06
262.175	296.06
262.407	286.06
262.64	282.06
262.872	294.06
263.105	286.06
263.337	292.06
263.57	293.06
263.802	286.06
264.035	297.06
264.267	314.06
264.499	294.06
264.732	304.06
264.964	297.06
265.197	306.06
265.429	315.06
265.661	283.06
265.894	319.06
266.126	318.06
266.358	302.06
266.591	312.06
266.823	296.06
267.055	279.06
267.287	325.06
267.52	326.06
267.752	337.06
267.984	308.06
268.216	327.06
268.448	317.06
268.681	316.06
268.913	317.06
269.145	331.06
269.377	317.06
269.609	338.06
269.841	352.06
270.073	328.06
270.306	326.06
270.538	328.06
270.77	342.06
271.002	325.06
271.234	338.06
271.466	359.06
271.698	339.06
271.93	352.06
272.162	336.06
272.394	344.06
272.626	352.06
272.858	360.06
273.09	371.06
273.322	348.06
273.553	339.06
273.785	350.06
274.017	374.06
274.249	330.06
274.481	371.06
274.713	365.06
274.945	342.06
275.176	339.06
275.408	352.06
275.64	356.06
275.872	362.06
276.104	381.06
276.335	362.06
276.567	360.06
276.799	383.06
277.031	374.06
277.262	360.06
277.494	376.06
277.726	365.06
277.957	378.06
278.189	385.06
278.421	384.06
278.652	386.06
278.884	368.06
279.115	378.06
279.347	395.06
279.579	383.06
279.81	381.06
280.042	383.06
280.273	393.06
280.505	402.06
280.736	390.06
280.968	397.06
281.199	410.06
281.431	400.06
281.662	426.06
281.894	401.06
282.125	421.06
282.356	397.06
282.588	409.06
282.819	410.06
283.051	419.06
283.282	405.06
283.513	409.06
283.745	410.06
283.976	403.06
284.207	420.06
284.439	404.06
284.67	431.06
284.901	448.06
285.132	415.06
285.364	431.06
285.595	443.06
285.826	427.06
286.057	427.06
286.288	436.06
286.52	440.06
286.751	429.06
286.982	450.06
287.213	436.06
287.444	444.06
287.675	430.06
287.906	442.06
288.138	437.06
288.369	442.06
288.6	468.06
288.831	458.06
289.062	444.06
289.293	450.06
289.524	450.06
289.755	461.06
289.986	419.06
290.217	462.06
290.448	438.06
290.679	463.06
290.91	464.06
291.141	451.06
291.371	462.06
291.602	448.06
291.833	460.06
292.064	464.06
292.295	479.06
292.526	442.06
292.757	472.06
292.987	447.06
293.218	466.06
293.449	454.06
293.68	466.06
293.91	455.06
294.141	478.06
294.372	461.06
294.603	464.06
294.833	469.06
295.064	466.06
295.295	459.06
295.525	487.06
295.756	463.06
295.987	465.06
296.217	465.06
296.448	490.06
296.679	484.06
296.909	472.06
297.14	487.06
297.37	487.06
297.601	505.06
297.831	492.06
298.062	523.06
298.292	487.06
298.523	487.06
298.753	504.06
298.984	491.06
299.214	493.06
299.445	501.06
299.675	500.06
299.905	528.06
300.136	510.06
300.366	530.06
300.597	528.06
300.827	519.06
301.057	523.06
301.288	529.06
301.518	520.06
301.748	540.06
301.979	547.06
302.209	531.06
302.439	525.06
302.669	519.06
302.9	535.06
303.13	519.06
303.36	551.06
303.59	525.06
303.82	531.06
304.051	556.06
304.281	536.06
304.511	520.06
304.741	546.06
304.971	546.06
305.201	551.06
305.431	547.06
305.661	547.06
305.891	544.06
306.121	527.06
306.352	540.06
306.582	539.06
306.812	526.06
307.042	549.06
307.272	508.06
307.502	541.06
307.731	536.06
307.961	527.06
308.191	522.06
308.421	526.06
308.651	514.06
308.881	515.06
309.111	529.06
309.341	551.06
309.571	530.06
309.8	558.06
310.03	541.06
310.26	552.06
310.49	575.06
310.72	553.06
310.949	531.06
311.179	538.06
311.409	536.06
311.639	525.06
311.868	540.06
312.098	555.06
312.328	565.06
312.557	554.06
312.787	550.06
313.017	573.06
313.246	563.06
313.476	559.06
313.706	605.06
313.935	562.06
314.165	560.06
314.394	571.06
314.624	543.06
314.853	542.06
315.083	562.06
315.312	596.06
315.542	568.06
315.771	593.06
316.001	591.06
316.23	555.06
316.46	590.06
316.689	541.06
316.919	551.06
317.148	549.06
317.377	562.06
317.607	563.06
317.836	558.06
318.065	573.06
318.295	583.06
318.524	577.06
318.753	574.06
318.983	592.06
319.212	577.06
319.441	581.06
319.67	593.06
319.9	587.06
320.129	579.06
320.358	572.06
320.587	573.06
320.816	555.06
321.046	574.06
321.275	564.06
321.504	591.06
321.733	584.06
321.962	580.06
322.191	601.06
322.42	572.06
322.649	596.06
322.878	613.06
323.108	583.06
323.337	580.06
323.566	572.06
323.795	592.06
324.024	590.06
324.253	620.06
324.482	606.06
324.71	613.06
324.939	598.06
325.168	600.06
325.397	580.06
325.626	580.06
325.855	591.06
326.084	613.06
326.313	623.06
326.542	616.06
326.77	626.06
326.999	621.06
327.228	618.06
327.457	614.06
327.686	607.06
327.914	615.06
328.143	626.06
328.372	628.06
328.6	622.06
328.829	626.06
329.058	628.06
329.287	620.06
329.515	623.06
329.744	610.06
329.972	636.06
330.201	648.06
330.43	653.06
330.658	635.06
330.887	615.06
331.115	649.06
331.344	644.06
331.572	660.06
331.801	663.06
332.03	690.06
332.258	701.06
332.486	709.06
332.715	722.06
332.943	743.06
333.172	740.06
333.4	758.06
333.629	765.06
333.857	811.06
334.085	818.06
334.314	776.06
334.542	774.06
334.771	786.06
334.999	761.06
335.227	772.06
335.455	771.06
335.684	748.06
335.912	764.06
336.14	754.06
336.369	715.06
336.597	734.06
336.825	741.06
337.053	760.06
337.281	736.06
337.51	723.06
337.738	736.06
337.966	716.06
338.194	713.06
338.422	720.06
338.65	694.06
338.878	676.06
339.106	662.06
339.334	682.06
339.562	686.06
339.79	644.06
340.018	649.06
340.246	660.06
340.474	647.06
340.702	653.06
340.93	660.06
341.158	676.06
341.386	680.06
341.614	693.06
341.842	694.06
342.07	683.06
342.298	653.06
342.526	666.06
342.754	660.06
342.981	672.06
343.209	695.06
343.437	687.06
343.665	739.06
343.893	748.06
344.12	785.06
344.348	743.06
344.576	714.06
344.804	718.06
345.031	670.06
345.259	659.06
345.487	675.06
345.714	662.06
345.942	685.06
346.17	688.06
346.397	697.06
346.625	654.06
346.853	629.06
347.08	653.06
347.308	627.06
347.535	634.06
347.763	645.06
347.99	610.06
348.218	617.06
348.445	628.06
348.673	612.06
348.9	627.06
349.128	616.06
349.355	628.06
349.583	666.06
349.81	638.06
350.037	634.06
350.265	634.06
350.492	631.06
350.72	600.06
350.947	620.06
351.174	643.06
351.402	647.06
351.629	630.06
351.856	636.06
352.083	623.06
352.311	621.06
352.538	648.06
352.765	664.06
352.992	607.06
353.22	595.06
353.447	587.06
353.674	580.06
353.901	581.06
354.128	580.06
354.355	588.06
354.583	604.06
354.81	600.06
355.037	606.06
355.264	605.06
355.491	612.06
355.718	622.06
355.945	599.06
356.172	608.06
356.399	620.06
356.626	621.06
356.853	638.06
357.08	614.06
357.307	611.06
357.534	597.06
357.761	609.06
357.988	596.06
358.215	588.06
358.441	571.06
358.668	583.06
358.895	582.06
359.122	587.06
359.349	595.06
359.576	608.06
359.802	627.06
360.029	612.06
360.256	606.06
360.483	600.06
360.709	611.06
360.936	613.06
361.163	602.06
361.39	601.06
361.616	613.06
361.843	609.06
362.07	634.06
362.296	627.06
362.523	606.06
362.749	596.06
362.976	601.06
363.203	568.06
363.429	590.06
363.656	594.06
363.882	600.06
364.109	591.06
364.335	586.06
364.562	577.06
364.788	583.06
365.015	591.06
365.241	584.06
365.468	583.06
365.694	588.06
365.92	574.06
366.147	603.06
366.373	575.06
366.599	610.06
366.826	600.06
367.052	580.06
367.278	585.06
367.505	576.06
367.731	588.06
367.957	587.06
368.184	597.06
368.41	599.06
368.636	603.06
368.862	598.06
369.089	597.06
369.315	609.06
369.541	601.06
369.767	610.06
369.993	608.06
370.219	603.06
370.445	600.06
370.672	603.06
370.898	598.06
371.124	622.06
371.35	647.06
371.576	646.06
371.802	640.06
372.028	623.06
372.254	626.06
372.48	636.06
372.706	646.06
372.932	643.06
373.158	643.06
373.384	629.06
373.61	617.06
373.835	608.06
374.061	636.06
374.287	647.06
374.513	652.06
374.739	661.06
374.965	666.06
375.191	664.06
375.416	686.06
375.642	663.06
375.868	666.06
376.094	638.06
376.319	636.06
376.545	616.06
376.771	608.06
376.997	614.06
377.222	623.06
377.448	646.06
377.674	648.06
377.899	603.06
378.125	632.06
378.35	605.06
378.576	591.06
378.802	620.06
379.027	611.06
379.253	632.06
379.478	604.06
379.704	606.06
379.929	619.06
380.155	634.06
380.38	622.06
380.606	621.06
380.831	650.06
381.057	631.06
381.282	616.06
381.507	612.06
381.733	604.06
381.958	633.06
382.184	612.06
382.409	636.06
382.634	639.06
382.86	637.06
383.085	645.06
383.31	650.06
383.535	640.06
383.761	683.06
383.986	675.06
384.211	690.06
384.436	707.06
384.662	699.06
384.887	714.06
385.112	692.06
385.337	713.06
385.562	693.06
385.787	734.06
386.013	724.06
386.238	722.06
386.463	734.06
386.688	743.06
386.913	699.06
387.138	724.06
387.363	727.06
387.588	726.06
387.813	723.06
388.038	692.06
388.263	742.06
388.488	718.06
388.713	716.06
388.938	709.06
389.163	699.06
389.387	706.06
389.612	703.06
389.837	698.06
390.062	704.06
390.287	721.06
390.512	700.06
390.736	749.06
390.961	705.06
391.186	739.06
391.411	748.06
391.636	775.06
391.86	812.06
392.085	812.06
392.31	806.06
392.534	797.06
392.759	791.06
392.984	759.06
393.208	766.06
393.433	740.06
393.658	720.06
393.882	770.06
394.107	741.06
394.331	770.06
394.556	751.06
394.78	772.06
395.005	762.06
395.229	770.06
395.454	764.06
395.678	818.06
395.903	806.06
396.127	799.06
396.352	789.06
396.576	758.06
396.801	798.06
397.025	781.06
397.249	802.06
397.474	821.06
397.698	802.06
397.922	825.06
398.147	801.06
398.371	843.06
398.595	894.06
398.82	908.06
399.044	939.06
399.268	1022.06
399.492	1131.06
399.717	1204.06
399.941	1208.06
400.165	1102.06
400.389	1044.06
400.613	969.06
400.837	930.06
401.062	931.06
401.286	892.06
401.51	907.06
401.734	875.06
401.958	906.06
402.182	906.06
402.406	896.06
402.63	922.06
402.854	921.06
403.078	920.06
403.302	957.06
403.526	974.06
403.75	976.06
403.974	1013.06
404.198	975.06
404.422	984.06
404.645	1004.06
404.869	991.06
405.093	970.06
405.317	958.06
405.541	977.06
405.765	968.06
405.988	955.06
406.212	971.06
406.436	990.06
406.66	994.06
406.883	1026.06
407.107	1060.06
407.331	1102.06
407.555	1076.06
407.778	1130.06
408.002	1108.06
408.226	1079.06
408.449	1062.06
408.673	1027.06
408.896	1031.06
409.12	1000.06
409.344	1030.06
409.567	1023.06
409.791	1005.06
410.014	994.06
410.238	999.06
410.461	985.06
410.685	978.06
410.908	958.06
411.132	969.06
411.355	950.06
411.578	924.06
411.802	956.06
412.025	951.06
412.249	934.06
412.472	922.06
412.695	920.06
412.919	902.06
413.142	914.06
413.365	910.06
413.589	891.06
413.812	896.06
414.035	894.06
414.258	910.06
414.482	891.06
414.705	934.06
414.928	939.06
415.151	907.06
415.374	896.06
415.597	907.06
415.821	895.06
416.044	888.06
416.267	913.06
416.49	894.06
416.713	906.06
416.936	901.06
417.159	875.06
417.382	887.06
417.605	893.06
417.828	875.06
418.051	900.06
418.274	891.06
418.497	895.06
418.72	921.06
418.943	893.06
419.166	960.06
419.389	998.06
419.611	1018.06
419.834	975.06
420.057	943.06
420.28	926.06
420.503	890.06
420.726	918.06
420.948	877.06
421.171	910.06
421.394	895.06
421.617	878.06
421.839	930.06
422.062	914.06
422.285	905.06
422.507	936.06
422.73	923.06
422.953	918.06
423.175	911.06
423.398	920.06
423.621	915.06
423.843	946.06
424.066	962.06
424.288	931.06
424.511	946.06
424.733	942.06
424.956	941.06
425.178	922.06
425.401	877.06
425.623	914.06
425.846	893.06
426.068	890.06
426.291	912.06
426.513	888.06
426.735	850.06
426.958	856.06
427.18	851.06
427.402	834.06
427.625	848.06
427.847	815.06
428.069	840.06
428.292	847.06
428.514	841.06
428.736	853.06
428.958	865.06
429.181	821.06
429.403	804.06
429.625	815.06
429.847	808.06
430.069	822.06
430.292	814.06
430.514	839.06
430.736	846.06
430.958	812.06
431.18	824.06
431.402	850.06
431.624	826.06
431.846	875.06
432.068	848.06
432.29	874.06
432.512	834.06
432.734	846.06
432.956	845.06
433.178	894.06
433.4	860.06
433.622	870.06
433.844	879.06
434.066	859.06
434.287	875.06
434.509	894.06
434.731	942.06
434.953	906.06
435.175	919.06
435.397	916.06
435.618	894.06
435.84	878.06
436.062	852.06
436.284	830.06
436.505	834.06
436.727	846.06
436.949	857.06
437.17	830.06
437.392	832.06
437.614	823.06
437.835	832.06
438.057	804.06
438.278	824.06
438.5	836.06
438.721	822.06
438.943	867.06
439.165	832.06
439.386	843.06
439.608	843.06
439.829	853.06
440.05	873.06
440.272	862.06
440.493	869.06
440.715	870.06
440.936	862.06
441.158	891.06
441.379	914.06
441.6	932.06
441.822	955.06
442.043	937.06
442.264	910.06
442.486	913.06
442.707	926.06
442.928	910.06
443.149	933.06
443.371	927.06
443.592	932.06
443.813	958.06
444.034	968.06
444.255	973.06
444.476	1009.06
444.698	1025.06
444.919	1062.06
445.14	1154.06
445.361	1047.06
445.582	966.06
445.803	971.06
446.024	916.06
446.245	930.06
446.466	891.06
446.687	876.06
446.908	894.06
447.129	862.06
447.35	855.06
447.571	858.06
447.792	825.06
448.013	827.06
448.234	815.06
448.455	760.06
448.675	816.06
448.896	815.06
449.117	779.06
449.338	799.06
449.559	799.06
449.779	787.06
450	802.06
450.221	799.06
450.442	802.06
450.662	772.06
450.883	811.06
451.104	815.06
451.324	795.06
451.545	834.06
451.766	796.06
451.986	792.06
452.207	798.06
452.428	803.06
452.648	791.06
452.869	790.06
453.089	769.06
453.31	779.06
453.53	760.06
453.751	755.06
453.971	760.06
454.192	765.06
454.412	759.06
454.633	740.06
454.853	752.06
455.073	748.06
455.294	770.06
455.514	735.06
455.734	752.06
455.955	747.06
456.175	750.06
456.395	750.06
456.616	757.06
456.836	747.06
457.056	765.06
457.276	725.06
457.497	748.06
457.717	755.06
457.937	764.06
458.157	770.06
458.377	742.06
458.598	774.06
458.818	793.06
459.038	828.06
459.258	859.06
459.478	865.06
459.698	871.06
459.918	933.06
460.138	936.06
460.358	968.06
460.578	1003.06
460.798	991.06
461.018	993.06
461.238	986.06
461.458	990.06
461.678	977.06
461.898	985.06
462.118	1015.06
462.338	1076.06
462.558	1068.06
462.777	1128.06
462.997	1161.06
463.217	1245.06
463.437	1245.06
463.657	1159.06
463.876	1172.06
464.096	1144.06
464.316	1143.06
464.536	1133.06
464.755	1082.06
464.975	1048.06
465.195	1020.06
465.414	994.06
465.634	940.06
465.854	898.06
466.073	903.06
466.293	896.06
466.512	861.06
466.732	850.06
466.951	829.06
467.171	875.06
467.391	862.06
467.61	854.06
467.829	855.06
468.049	834.06
468.268	804.06
468.488	821.06
468.707	796.06
468.927	858.06
469.146	797.06
469.365	847.06
469.585	822.06
469.804	842.06
470.023	846.06
470.243	864.06
470.462	882.06
470.681	843.06
470.901	866.06
471.12	842.06
471.339	852.06
471.558	864.06
471.777	852.06
471.997	836.06
472.216	818.06
472.435	802.06
472.654	814.06
472.873	798.06
473.092	775.06
473.311	804.06
473.53	833.06
473.749	804.06
473.968	799.06
474.187	788.06
474.406	799.06
474.625	779.06
474.844	806.06
475.063	828.06
475.282	825.06
475.501	832.06
475.72	807.06
475.939	838.06
476.158	852.06
476.377	874.06
476.596	847.06
476.814	861.06
477.033	865.06
477.252	868.06
477.471	893.06
477.69	914.06
477.908	917.06
478.127	893.06
478.346	941.06
478.564	967.06
478.783	969.06
479.002	1002.06
479.22	1021.06
479.439	1002.06
479.658	936.06
479.876	979.06
480.095	997.06
480.313	1027.06
480.532	1061.06
480.751	1029.06
480.969	1038.06
481.188	975.06
481.406	976.06
481.624	971.06
481.843	941.06
482.061	926.06
482.28	949.06
482.498	916.06
482.717	930.06
482.935	931.06
483.153	938.06
483.372	955.06
483.59	933.06
483.808	946.06
484.027	959.06
484.245	946.06
484.463	955.06
484.681	983.06
484.9	962.06
485.118	979.06
485.336	978.06
485.554	949.06
485.772	970.06
485.99	981.06
486.209	980.06
486.427	1005.06
486.645	974.06
486.863	982.06
487.081	992.06
487.299	971.06
487.517	990.06
487.735	988.06
487.953	982.06
488.171	1001.06
488.389	983.06
488.607	967.06
488.825	953.06
489.043	955.06
489.261	938.06
489.479	961.06
489.696	985.06
489.914	992.06
490.132	980.06
490.35	975.06
490.568	996.06
490.786	1034.06
491.003	1026.06
491.221	991.06
491.439	990.06
491.657	984.06
491.874	1019.06
492.092	1044.06
492.31	1035.06
492.527	1037.06
492.745	1046.06
492.963	1038.06
493.18	1038.06
493.398	1059.06
493.615	1052.06
493.833	1022.06
494.05	1073.06
494.268	1058.06
494.485	1061.06
494.703	1050.06
494.92	1026.06
495.138	1040.06
495.355	1033.06
495.573	1048.06
495.79	1026.06
496.008	1078.06
496.225	1090.06
496.442	1112.06
496.66	1117.06
496.877	1141.06
497.094	1124.06
497.312	1118.06
497.529	1150.06
497.746	1181.06
497.963	1225.06
498.181	1239.06
498.398	1314.06
498.615	1390.06
498.832	1437.06
499.049	1506.06
499.267	1641.06
499.484	1773.06
499.701	1873.06
499.918	2005.06
500.135	2267.06
500.352	2462.06
500.569	2586.06
500.786	2508.06
501.003	2358.06
501.22	2194.06
501.437	2038.06
501.654	1798.06
501.871	1725.06
502.088	1555.06
502.305	1472.06
502.522	1392.06
502.739	1384.06
502.956	1317.06
503.172	1259.06
503.389	1222.06
503.606	1215.06
503.823	1165.06
504.04	1199.06
504.256	1189.06
504.473	1157.06
504.69	1191.06
504.907	1181.06
505.123	1127.06
505.34	1062.06
505.557	1004.06
505.773	1011.06
505.99	1023.06
506.207	995.06
506.423	960.06
506.64	948.06
506.856	973.06
507.073	925.06
507.289	940.06
507.506	906.06
507.722	911.06
507.939	938.06
508.155	891.06
508.372	887.06
508.588	888.06
508.805	864.06
509.021	875.06
509.238	892.06
509.454	850.06
509.67	860.06
509.887	875.06
510.103	848.06
510.319	855.06
510.536	832.06
510.752	828.06
510.968	819.06
511.184	807.06
511.401	802.06
511.617	836.06
511.833	824.06
512.049	810.06
512.265	838.06
512.481	832.06
512.698	832.06
512.914	825.06
513.13	834.06
513.346	805.06
513.562	850.06
513.778	838.06
513.994	811.06
514.21	812.06
514.426	831.06
514.642	852.06
514.858	836.06
515.074	839.06
515.29	861.06
515.506	832.06
515.721	857.06
515.937	906.06
516.153	904.06
516.369	898.06
516.585	947.06
516.801	971.06
517.016	1018.06
517.232	1028.06
517.448	1037.06
517.664	1059.06
517.879	1037.06
518.095	1067.06
518.311	1049.06
518.527	1016.06
518.742	963.06
518.958	950.06
519.173	946.06
519.389	896.06
519.605	902.06
519.82	882.06
520.036	858.06
520.251	868.06
520.467	827.06
520.682	799.06
520.898	801.06
521.113	837.06
521.329	810.06
521.544	772.06
521.76	822.06
521.975	772.06
522.19	784.06
522.406	798.06
522.621	796.06
522.836	780.06
523.052	771.06
523.267	792.06
523.482	762.06
523.698	772.06
523.913	768.06
524.128	761.06
524.343	764.06
524.559	761.06
524.774	751.06
524.989	752.06
525.204	748.06
525.419	772.06
525.634	754.06
525.849	755.06
526.064	744.06
526.28	748.06
526.495	716.06
526.71	765.06
526.925	723.06
527.14	726.06
527.355	738.06
527.57	723.06
527.785	696.06
527.999	754.06
528.214	748.06
528.429	731.06
528.644	743.06
528.859	772.06
529.074	747.06
529.289	731.06
529.503	748.06
529.718	771.06
529.933	763.06
530.148	726.06
530.363	709.06
530.577	732.06
530.792	747.06
531.007	721.06
531.221	740.06
531.436	734.06
531.651	740.06
531.865	722.06
532.08	739.06
532.295	721.06
532.509	721.06
532.724	720.06
532.938	744.06
533.153	722.06
533.367	734.06
533.582	755.06
533.796	745.06
534.011	720.06
534.225	706.06
534.44	697.06
534.654	729.06
534.868	712.06
535.083	726.06
535.297	717.06
535.511	719.06
535.726	674.06
535.94	718.06
536.154	710.06
536.369	701.06
536.583	683.06
536.797	714.06
537.011	696.06
537.225	681.06
537.44	672.06
537.654	682.06
537.868	683.06
538.082	664.06
538.296	684.06
538.51	660.06
538.724	691.06
538.938	668.06
539.153	666.06
539.367	663.06
539.581	687.06
539.795	664.06
540.009	654.06
540.222	669.06
540.436	662.06
540.65	665.06
540.864	694.06
541.078	668.06
541.292	656.06
541.506	680.06
541.72	677.06
541.934	672.06
542.147	702.06
542.361	685.06
542.575	690.06
542.789	694.06
543.002	647.06
543.216	649.06
543.43	654.06
543.644	657.06
543.857	650.06
544.071	651.06
544.285	660.06
544.498	661.06
544.712	659.06
544.925	674.06
545.139	694.06
545.352	700.06
545.566	699.06
545.779	693.06
545.993	691.06
546.206	669.06
546.42	686.06
546.633	697.06
546.847	680.06
547.06	692.06
547.274	662.06
547.487	695.06
547.7	664.06
547.914	684.06
548.127	684.06
548.34	701.06
548.554	690.06
548.767	687.06
548.98	708.06
549.193	693.06
549.407	680.06
549.62	700.06
549.833	702.06
550.046	673.06
550.259	696.06
550.473	691.06
550.686	695.06
550.899	679.06
551.112	661.06
551.325	654.06
551.538	696.06
551.751	658.06
551.964	672.06
552.177	701.06
552.39	670.06
552.603	681.06
552.816	703.06
553.029	691.06
553.242	716.06
553.455	723.06
553.667	710.06
553.88	714.06
554.093	690.06
554.306	697.06
554.519	679.06
554.732	658.06
554.944	671.06
555.157	638.06
555.37	638.06
555.583	639.06
555.795	638.06
556.008	620.06
556.221	616.06
556.433	632.06
556.646	619.06
556.859	604.06
557.071	588.06
557.284	603.06
557.496	568.06
557.709	570.06
557.921	571.06
558.134	583.06
558.346	564.06
558.559	580.06
558.771	571.06
558.984	571.06
559.196	564.06
559.409	582.06
559.621	568.06
559.833	566.06
560.046	576.06
560.258	568.06
560.47	578.06
560.683	562.06
560.895	563.06
561.107	567.06
561.32	549.06
561.532	554.06
561.744	576.06
561.956	587.06
562.168	574.06
562.381	570.06
562.593	569.06
562.805	587.06
563.017	559.06
563.229	575.06
563.441	588.06
563.653	583.06
563.865	575.06
564.077	572.06
564.289	570.06
564.501	589.06
564.713	601.06
564.925	624.06
565.137	635.06
565.349	632.06
565.561	630.06
565.773	672.06
565.985	674.06
566.197	683.06
566.408	738.06
566.62	773.06
566.832	830.06
567.044	823.06
567.255	829.06
567.467	829.06
567.679	837.06
567.891	907.06
568.102	916.06
568.314	910.06
568.526	818.06
568.737	774.06
568.949	718.06
569.161	643.06
569.372	636.06
569.584	621.06
569.795	611.06
570.007	592.06
570.218	581.06
570.43	564.06
570.641	551.06
570.853	553.06
571.064	576.06
571.276	577.06
571.487	533.06
571.698	528.06
571.91	512.06
572.121	509.06
572.333	501.06
572.544	494.06
572.755	491.06
572.966	478.06
573.178	464.06
573.389	452.06
573.6	463.06
573.811	465.06
574.023	463.06
574.234	455.06
574.445	486.06
574.656	459.06
574.867	450.06
575.078	439.06
575.289	444.06
575.501	428.06
575.712	411.06
575.923	431.06
576.134	428.06
576.345	450.06
576.556	448.06
576.767	408.06
576.978	416.06
577.188	393.06
577.399	431.06
577.61	420.06
577.821	460.06
578.032	435.06
578.243	405.06
578.454	439.06
578.665	420.06
578.875	406.06
579.086	400.06
579.297	384.06
579.508	409.06
579.718	410.06
579.929	406.06
580.14	384.06
580.35	389.06
580.561	367.06
580.772	399.06
580.982	387.06
581.193	395.06
581.403	406.06
581.614	411.06
581.825	390.06
582.035	379.06
582.246	386.06
582.456	377.06
582.667	379.06
582.877	393.06
583.087	383.06
583.298	381.06
583.508	387.06
583.719	383.06
583.929	384.06
584.139	343.06
584.35	377.06
584.56	356.06
584.77	370.06
584.981	379.06
585.191	375.06
585.401	353.06
585.611	374.06
585.821	376.06
586.032	388.06
586.242	380.06
586.452	370.06
586.662	346.06
586.872	365.06
587.082	365.06
587.292	366.06
587.502	372.06
587.713	365.06
587.923	377.06
588.133	363.06
588.343	350.06
588.553	365.06
588.762	374.06
588.972	394.06
589.182	428.06
589.392	426.06
589.602	394.06
589.812	399.06
590.022	407.06
590.232	371.06
590.441	363.06
590.651	358.06
590.861	376.06
591.071	396.06
591.281	365.06
591.49	394.06
591.7	390.06
591.91	383.06
592.119	380.06
592.329	395.06
592.539	406.06
592.748	409.06
592.958	422.06
593.167	436.06
593.377	439.06
593.587	447.06
593.796	434.06
594.006	420.06
594.215	445.06
594.424	434.06
594.634	429.06
594.843	424.06
595.053	390.06
595.262	394.06
595.472	389.06
595.681	382.06
595.89	386.06
596.1	370.06
596.309	364.06
596.518	374.06
596.727	346.06
596.937	340.06
597.146	337.06
597.355	338.06
597.564	325.06
597.774	325.06
597.983	352.06
598.192	329.06
598.401	320.06
598.61	328.06
598.819	311.06
599.028	317.06
599.237	296.06
599.446	322.06
599.655	307.06
599.864	307.06
600.073	321.06
600.282	321.06
600.491	308.06
600.7	315.06
600.909	314.06
601.118	318.06
601.327	318.06
601.536	314.06
601.745	310.06
601.953	311.06
602.162	316.06
602.371	297.06
602.58	325.06
602.789	304.06
602.997	301.06
603.206	304.06
603.415	297.06
603.623	307.06
603.832	291.06
604.041	295.06
604.249	294.06
604.458	286.06
604.666	280.06
604.875	293.06
605.084	288.06
605.292	284.06
605.501	304.06
605.709	294.06
605.918	288.06
606.126	295.06
606.334	285.06
606.543	293.06
606.751	313.06
606.96	278.06
607.168	264.06
607.376	270.06
607.585	306.06
607.793	277.06
608.001	285.06
608.21	295.06
608.418	282.06
608.626	286.06
608.834	285.06
609.043	270.06
609.251	279.06
609.459	264.06
609.667	280.06
609.875	286.06
610.083	282.06
610.291	291.06
610.499	262.06
610.707	275.06
610.916	286.06
611.124	268.06
611.332	256.06
611.54	277.06
611.748	278.06
611.955	267.06
612.163	270.06
612.371	270.06
612.579	270.06
612.787	287.06
612.995	277.06
613.203	282.06
613.411	270.06
613.618	265.06
613.826	273.06
614.034	267.06
614.242	265.06
614.449	278.06
614.657	276.06
614.865	244.06
615.072	263.06
615.28	280.06
615.488	272.06
615.695	264.06
615.903	258.06
616.111	293.06
616.318	290.06
616.526	279.06
616.733	272.06
616.941	251.06
617.148	266.06
617.356	265.06
617.563	269.06
617.771	256.06
617.978	242.06
618.185	260.06
618.393	250.06
618.6	244.06
618.807	255.06
619.015	254.06
619.222	247.06
619.429	250.06
619.637	255.06
619.844	250.06
620.051	243.06
620.258	248.06
620.466	236.06
620.673	241.06
620.88	230.06
621.087	250.06
621.294	258.06
621.501	250.06
621.708	261.06
621.915	269.06
622.122	263.06
622.329	236.06
622.536	250.06
622.743	251.06
622.95	239.06
623.157	260.06
623.364	246.06
623.571	249.06
623.778	230.06
623.985	236.06
624.192	232.06
624.399	240.06
624.606	247.06
624.812	234.06
625.019	245.06
625.226	224.06
625.433	249.06
625.639	223.06
625.846	235.06
626.053	235.06
626.259	246.06
626.466	229.06
626.673	225.06
626.879	221.06
627.086	214.06
627.293	231.06
627.499	212.06
627.706	240.06
627.912	233.06
628.119	235.06
628.325	214.06
628.532	227.06
628.738	226.06
628.945	209.06
629.151	215.06
629.357	205.06
629.564	218.06
629.77	218.06
629.976	220.06
630.183	186.06
630.389	213.06
630.595	217.06
630.802	201.06
631.008	207.06
631.214	218.06
631.42	207.06
631.627	200.06
631.833	210.06
632.039	208.06
632.245	194.06
632.451	207.06
632.657	210.06
632.863	203.06
633.069	205.06
633.275	202.06
633.481	216.06
633.688	195.06
633.893	199.06
634.099	212.06
634.305	214.06
634.511	210.06
634.717	206.06
634.923	197.06
635.129	200.06
635.335	195.06
635.541	198.06
635.747	203.06
635.952	206.06
636.158	200.06
636.364	199.06
636.57	201.06
636.775	205.06
636.981	195.06
637.187	208.06
637.392	210.06
637.598	198.06
637.804	197.06
638.009	200.06
638.215	204.06
638.421	194.06
638.626	195.06
638.832	205.06
639.037	205.06
639.243	204.06
639.448	202.06
639.654	205.06
639.859	183.06
640.065	201.06
640.27	186.06
640.475	188.06
640.681	199.06
640.886	190.06
641.091	188.06
641.297	197.06
641.502	187.06
641.707	198.06
641.913	187.06
642.118	164.06
642.323	184.06
642.528	172.06
642.733	178.06
642.939	184.06
643.144	194.06
643.349	179.06
643.554	188.06
643.759	189.06
643.964	187.06
644.169	176.06
644.374	186.06
644.579	198.06
644.784	188.06
644.989	189.06
645.194	186.06
645.399	189.06
645.604	186.06
645.809	174.06
646.014	162.06
646.219	167.06
646.423	193.06
646.628	178.06
646.833	177.06
647.038	184.06
647.243	190.06
647.447	193.06
647.652	187.06
647.857	189.06
648.062	181.06
648.266	198.06
648.471	206.06
648.676	189.06
648.88	194.06
649.085	193.06
649.289	185.06
649.494	190.06
649.698	180.06
649.903	179.06
650.107	175.06
650.312	176.06
650.516	178.06
650.721	180.06
650.925	183.06
651.13	173.06
651.334	180.06
651.539	158.06
651.743	179.06
651.947	174.06
652.152	154.06
652.356	168.06
652.56	180.06
652.764	154.06
652.969	164.06
653.173	154.06
653.377	147.06
653.581	142.06
653.785	168.06
653.99	158.06
654.194	156.06
654.398	163.06
654.602	156.06
654.806	153.06
655.01	181.06
655.214	162.06
655.418	142.06
655.622	151.06
655.826	142.06
656.03	156.06
656.234	153.06
656.438	150.06
656.642	152.06
656.846	140.06
657.049	145.06
657.253	153.06
657.457	152.06
657.661	130.06
657.865	132.06
658.068	148.06
658.272	117.06
658.476	114.06
658.68	120.06
658.883	120.06
659.087	118.06
659.291	99.06
659.494	109.06
659.698	112.06
659.901	104.06
660.105	97.06
660.309	101.06
660.512	101.06
660.716	93.06
660.919	93.06
661.123	99.06
661.326	87.06
661.53	93.06
661.733	100.06
661.936	96.06
662.14	77.06
662.343	86.06
662.546	107.06
662.75	87.06
662.953	88.06
663.156	88.06
663.36	87.06
663.563	94.06
663.766	96.06
663.969	81.06
664.173	96.06
664.376	90.06
664.579	94.06
664.782	99.06
664.985	89.06
665.188	81.06
665.391	103.06
665.594	78.06
665.797	91.06
666	84.06
666.203	88.06
666.406	79.06
666.609	79.06
666.812	83.06
667.015	89.06
667.218	88.06
667.421	93.06
667.624	100.06
667.827	92.06
668.03	90.06
668.232	85.06
668.435	84.06
668.638	77.06
668.841	88.06
669.043	64.06
669.246	83.06
669.449	83.06
669.651	75.06
669.854	86.06
670.057	81.06
670.259	76.06
670.462	84.06
670.665	96.06
670.867	91.06
671.07	91.06
671.272	83.06
671.475	88.06
671.677	75.06
671.88	78.06
672.082	79.06
672.284	71.06
672.487	86.06
672.689	83.06
672.892	81.06
