Data from NiCl2@0.25M.TitratingCurve.Agarose3%dH2O.NegLispCup.LampEnergy10.LIBS07252019_HRD10591_18-22-43-571.txt Node
Date: Thu Jul 25 18:22:43 EDT 2019
User: cochatt
Spectrometer: HR+D1059
Trigger mode: 1
Integration Time (sec): 1.000000E-1
Scans to average: 1
Electric dark correction enabled: true
Nonlinearity correction enabled: false
Boxcar width: 0
XAxis mode: Wavelengths
Number of Pixels in Spectrum: 2048
>>>>>Begin Spectral Data<<<<<
223.165	-22.06
223.4	-22.06
223.635	-22.06
223.869	-12.06
224.104	-26.06
224.338	-11.06
224.573	-5.06
224.808	-11.06
225.042	-19.06
225.277	0.94
225.511	-1.06
225.746	5.94
225.98	3.94
226.215	2.94
226.449	14.94
226.683	23.94
226.918	31.94
227.152	22.94
227.387	25.94
227.621	37.94
227.856	25.94
228.09	62.94
228.324	45.94
228.559	49.94
228.793	70.94
229.027	84.94
229.262	102.94
229.496	93.94
229.73	113.94
229.964	116.94
230.199	123.94
230.433	136.94
230.667	118.94
230.901	130.94
231.136	114.94
231.37	128.94
231.604	144.94
231.838	141.94
232.072	138.94
232.306	142.94
232.541	142.94
232.775	135.94
233.009	135.94
233.243	148.94
233.477	142.94
233.711	142.94
233.945	138.94
234.179	129.94
234.413	139.94
234.647	141.94
234.881	138.94
235.115	155.94
235.349	132.94
235.583	148.94
235.817	143.94
236.051	132.94
236.285	143.94
236.519	136.94
236.753	144.94
236.987	158.94
237.221	127.94
237.455	146.94
237.689	145.94
237.922	156.94
238.156	136.94
238.39	137.94
238.624	139.94
238.858	149.94
239.091	161.94
239.325	149.94
239.559	160.94
239.793	168.94
240.027	151.94
240.26	155.94
240.494	153.94
240.728	162.94
240.961	160.94
241.195	166.94
241.429	163.94
241.662	157.94
241.896	173.94
242.13	176.94
242.363	167.94
242.597	172.94
242.83	167.94
243.064	161.94
243.298	167.94
243.531	180.94
243.765	179.94
243.998	200.94
244.232	193.94
244.465	193.94
244.699	170.94
244.932	204.94
245.166	191.94
245.399	184.94
245.633	192.94
245.866	190.94
246.099	200.94
246.333	183.94
246.566	183.94
246.8	199.94
247.033	205.94
247.266	195.94
247.5	200.94
247.733	190.94
247.966	205.94
248.2	211.94
248.433	225.94
248.666	201.94
248.899	203.94
249.133	193.94
249.366	217.94
249.599	207.94
249.832	201.94
250.066	222.94
250.299	216.94
250.532	211.94
250.765	229.94
250.998	218.94
251.231	213.94
251.465	234.94
251.698	227.94
251.931	224.94
252.164	238.94
252.397	230.94
252.63	241.94
252.863	213.94
253.096	222.94
253.329	241.94
253.562	228.94
253.795	233.94
254.028	236.94
254.261	247.94
254.494	250.94
254.727	243.94
254.96	235.94
255.193	237.94
255.426	241.94
255.659	247.94
255.892	231.94
256.124	243.94
256.357	240.94
256.59	233.94
256.823	241.94
257.056	263.94
257.289	247.94
257.521	253.94
257.754	256.94
257.987	251.94
258.22	269.94
258.452	256.94
258.685	258.94
258.918	264.94
259.151	267.94
259.383	258.94
259.616	258.94
259.849	266.94
260.081	275.94
260.314	285.94
260.547	282.94
260.779	289.94
261.012	278.94
261.244	267.94
261.477	276.94
261.71	270.94
261.942	268.94
262.175	289.94
262.407	276.94
262.64	275.94
262.872	283.94
263.105	265.94
263.337	269.94
263.57	265.94
263.802	290.94
264.035	292.94
264.267	288.94
264.499	299.94
264.732	298.94
264.964	295.94
265.197	304.94
265.429	294.94
265.661	287.94
265.894	288.94
266.126	314.94
266.358	294.94
266.591	301.94
266.823	310.94
267.055	299.94
267.287	314.94
267.52	300.94
267.752	287.94
267.984	310.94
268.216	304.94
268.448	309.94
268.681	322.94
268.913	302.94
269.145	305.94
269.377	292.94
269.609	317.94
269.841	316.94
270.073	309.94
270.306	337.94
270.538	324.94
270.77	340.94
271.002	322.94
271.234	334.94
271.466	330.94
271.698	347.94
271.93	325.94
272.162	336.94
272.394	325.94
272.626	342.94
272.858	327.94
273.09	333.94
273.322	316.94
273.553	331.94
273.785	325.94
274.017	337.94
274.249	347.94
274.481	334.94
274.713	334.94
274.945	346.94
275.176	347.94
275.408	347.94
275.64	337.94
275.872	364.94
276.104	349.94
276.335	341.94
276.567	347.94
276.799	360.94
277.031	378.94
277.262	374.94
277.494	364.94
277.726	345.94
277.957	365.94
278.189	355.94
278.421	342.94
278.652	361.94
278.884	368.94
279.115	368.94
279.347	363.94
279.579	356.94
279.81	372.94
280.042	370.94
280.273	366.94
280.505	367.94
280.736	384.94
280.968	398.94
281.199	384.94
281.431	394.94
281.662	387.94
281.894	376.94
282.125	378.94
282.356	388.94
282.588	388.94
282.819	379.94
283.051	408.94
283.282	396.94
283.513	390.94
283.745	401.94
283.976	409.94
284.207	407.94
284.439	405.94
284.67	399.94
284.901	404.94
285.132	395.94
285.364	397.94
285.595	422.94
285.826	405.94
286.057	404.94
286.288	413.94
286.52	418.94
286.751	415.94
286.982	424.94
287.213	424.94
287.444	401.94
287.675	419.94
287.906	412.94
288.138	443.94
288.369	425.94
288.6	429.94
288.831	450.94
289.062	425.94
289.293	431.94
289.524	420.94
289.755	427.94
289.986	445.94
290.217	421.94
290.448	415.94
290.679	448.94
290.91	420.94
291.141	424.94
291.371	450.94
291.602	423.94
291.833	444.94
292.064	425.94
292.295	415.94
292.526	429.94
292.757	440.94
292.987	437.94
293.218	430.94
293.449	447.94
293.68	432.94
293.91	452.94
294.141	468.94
294.372	421.94
294.603	438.94
294.833	421.94
295.064	429.94
295.295	455.94
295.525	430.94
295.756	454.94
295.987	446.94
296.217	457.94
296.448	452.94
296.679	449.94
296.909	448.94
297.14	466.94
297.37	461.94
297.601	479.94
297.831	472.94
298.062	486.94
298.292	484.94
298.523	499.94
298.753	488.94
298.984	468.94
299.214	462.94
299.445	480.94
299.675	489.94
299.905	487.94
300.136	490.94
300.366	516.94
300.597	497.94
300.827	501.94
301.057	506.94
301.288	513.94
301.518	492.94
301.748	521.94
301.979	506.94
302.209	496.94
302.439	489.94
302.669	520.94
302.9	491.94
303.13	509.94
303.36	508.94
303.59	492.94
303.82	514.94
304.051	516.94
304.281	498.94
304.511	488.94
304.741	496.94
304.971	517.94
305.201	505.94
305.431	506.94
305.661	529.94
305.891	513.94
306.121	504.94
306.352	496.94
306.582	491.94
306.812	482.94
307.042	511.94
307.272	485.94
307.502	490.94
307.731	512.94
307.961	498.94
308.191	474.94
308.421	490.94
308.651	507.94
308.881	503.94
309.111	502.94
309.341	467.94
309.571	513.94
309.8	503.94
310.03	498.94
310.26	531.94
310.49	514.94
310.72	536.94
310.949	497.94
311.179	496.94
311.409	488.94
311.639	484.94
311.868	526.94
312.098	523.94
312.328	527.94
312.557	526.94
312.787	532.94
313.017	503.94
313.246	561.94
313.476	556.94
313.706	540.94
313.935	523.94
314.165	527.94
314.394	544.94
314.624	530.94
314.853	521.94
315.083	534.94
315.312	514.94
315.542	536.94
315.771	531.94
316.001	522.94
316.23	514.94
316.46	520.94
316.689	521.94
316.919	514.94
317.148	542.94
317.377	511.94
317.607	532.94
317.836	517.94
318.065	518.94
318.295	530.94
318.524	562.94
318.753	544.94
318.983	521.94
319.212	513.94
319.441	529.94
319.67	528.94
319.9	536.94
320.129	504.94
320.358	535.94
320.587	535.94
320.816	531.94
321.046	523.94
321.275	512.94
321.504	531.94
321.733	525.94
321.962	520.94
322.191	526.94
322.42	542.94
322.649	550.94
322.878	532.94
323.108	536.94
323.337	550.94
323.566	548.94
323.795	547.94
324.024	555.94
324.253	553.94
324.482	539.94
324.71	547.94
324.939	546.94
325.168	551.94
325.397	546.94
325.626	535.94
325.855	552.94
326.084	573.94
326.313	557.94
326.542	563.94
326.77	577.94
326.999	559.94
327.228	568.94
327.457	600.94
327.686	564.94
327.914	560.94
328.143	578.94
328.372	585.94
328.6	586.94
328.829	573.94
329.058	576.94
329.287	573.94
329.515	576.94
329.744	580.94
329.972	582.94
330.201	612.94
330.43	580.94
330.658	571.94
330.887	606.94
331.115	604.94
331.344	594.94
331.572	610.94
331.801	616.94
332.03	634.94
332.258	619.94
332.486	656.94
332.715	656.94
332.943	717.94
333.172	722.94
333.4	759.94
333.629	774.94
333.857	792.94
334.085	762.94
334.314	740.94
334.542	748.94
334.771	718.94
334.999	698.94
335.227	728.94
335.455	716.94
335.684	707.94
335.912	694.94
336.14	679.94
336.369	714.94
336.597	702.94
336.825	718.94
337.053	681.94
337.281	694.94
337.51	692.94
337.738	680.94
337.966	661.94
338.194	664.94
338.422	658.94
338.65	631.94
338.878	646.94
339.106	627.94
339.334	652.94
339.562	631.94
339.79	619.94
340.018	608.94
340.246	614.94
340.474	592.94
340.702	613.94
340.93	606.94
341.158	612.94
341.386	633.94
341.614	637.94
341.842	612.94
342.07	594.94
342.298	588.94
342.526	607.94
342.754	595.94
342.981	614.94
343.209	632.94
343.437	632.94
343.665	710.94
343.893	721.94
344.12	738.94
344.348	706.94
344.576	702.94
344.804	670.94
345.031	640.94
345.259	615.94
345.487	620.94
345.714	617.94
345.942	635.94
346.17	621.94
346.397	638.94
346.625	590.94
346.853	596.94
347.08	588.94
347.308	586.94
347.535	621.94
347.763	591.94
347.99	605.94
348.218	594.94
348.445	585.94
348.673	580.94
348.9	588.94
349.128	600.94
349.355	598.94
349.583	603.94
349.81	571.94
350.037	553.94
350.265	595.94
350.492	553.94
350.72	584.94
350.947	564.94
351.174	568.94
351.402	582.94
351.629	596.94
351.856	588.94
352.083	579.94
352.311	566.94
352.538	600.94
352.765	609.94
352.992	565.94
353.22	562.94
353.447	540.94
353.674	554.94
353.901	540.94
354.128	544.94
354.355	544.94
354.583	557.94
354.81	576.94
355.037	576.94
355.264	573.94
355.491	547.94
355.718	576.94
355.945	560.94
356.172	554.94
356.399	576.94
356.626	586.94
356.853	601.94
357.08	577.94
357.307	578.94
357.534	551.94
357.761	566.94
357.988	556.94
358.215	588.94
358.441	562.94
358.668	555.94
358.895	555.94
359.122	553.94
359.349	558.94
359.576	542.94
359.802	579.94
360.029	561.94
360.256	577.94
360.483	582.94
360.709	569.94
360.936	554.94
361.163	578.94
361.39	588.94
361.616	597.94
361.843	587.94
362.07	599.94
362.296	589.94
362.523	560.94
362.749	551.94
362.976	566.94
363.203	561.94
363.429	551.94
363.656	553.94
363.882	551.94
364.109	555.94
364.335	572.94
364.562	557.94
364.788	567.94
365.015	542.94
365.241	553.94
365.468	565.94
365.694	569.94
365.92	567.94
366.147	569.94
366.373	556.94
366.599	554.94
366.826	576.94
367.052	546.94
367.278	575.94
367.505	568.94
367.731	604.94
367.957	568.94
368.184	570.94
368.41	568.94
368.636	566.94
368.862	588.94
369.089	574.94
369.315	598.94
369.541	571.94
369.767	571.94
369.993	587.94
370.219	580.94
370.445	584.94
370.672	598.94
370.898	592.94
371.124	588.94
371.35	593.94
371.576	624.94
371.802	602.94
372.028	626.94
372.254	594.94
372.48	604.94
372.706	619.94
372.932	654.94
373.158	636.94
373.384	617.94
373.61	602.94
373.835	618.94
374.061	609.94
374.287	632.94
374.513	636.94
374.739	660.94
374.965	679.94
375.191	668.94
375.416	684.94
375.642	628.94
375.868	676.94
376.094	632.94
376.319	635.94
376.545	616.94
376.771	630.94
376.997	604.94
377.222	624.94
377.448	628.94
377.674	629.94
377.899	588.94
378.125	596.94
378.35	609.94
378.576	594.94
378.802	600.94
379.027	610.94
379.253	581.94
379.478	584.94
379.704	594.94
379.929	609.94
380.155	575.94
380.38	595.94
380.606	632.94
380.831	613.94
381.057	598.94
381.282	608.94
381.507	623.94
381.733	614.94
381.958	628.94
382.184	637.94
382.409	626.94
382.634	630.94
382.86	645.94
383.085	630.94
383.31	645.94
383.535	669.94
383.761	684.94
383.986	689.94
384.211	719.94
384.436	708.94
384.662	712.94
384.887	705.94
385.112	738.94
385.337	731.94
385.562	712.94
385.787	703.94
386.013	724.94
386.238	735.94
386.463	730.94
386.688	725.94
386.913	715.94
387.138	733.94
387.363	714.94
387.588	730.94
387.813	712.94
388.038	719.94
388.263	719.94
388.488	745.94
388.713	700.94
388.938	712.94
389.163	715.94
389.387	701.94
389.612	697.94
389.837	713.94
390.062	693.94
390.287	712.94
390.512	686.94
390.736	718.94
390.961	712.94
391.186	752.94
391.411	777.94
391.636	796.94
391.86	789.94
392.085	792.94
392.31	840.94
392.534	816.94
392.759	798.94
392.984	782.94
393.208	791.94
393.433	798.94
393.658	777.94
393.882	767.94
394.107	773.94
394.331	753.94
394.556	808.94
394.78	818.94
395.005	773.94
395.229	765.94
395.454	783.94
395.678	824.94
395.903	817.94
396.127	784.94
396.352	773.94
396.576	768.94
396.801	809.94
397.025	772.94
397.249	799.94
397.474	818.94
397.698	832.94
397.922	837.94
398.147	799.94
398.371	834.94
398.595	860.94
398.82	890.94
399.044	925.94
399.268	1024.94
399.492	1196.94
399.717	1324.94
399.941	1343.94
400.165	1174.94
400.389	1067.94
400.613	1031.94
400.837	955.94
401.062	924.94
401.286	924.94
401.51	898.94
401.734	932.94
401.958	898.94
402.182	932.94
402.406	922.94
402.63	945.94
402.854	978.94
403.078	980.94
403.302	999.94
403.526	1011.94
403.75	1041.94
403.974	1033.94
404.198	1050.94
404.422	1032.94
404.645	1051.94
404.869	1045.94
405.093	1008.94
405.317	1001.94
405.541	985.94
405.765	1006.94
405.988	987.94
406.212	1007.94
406.436	993.94
406.66	1032.94
406.883	1031.94
407.107	1098.94
407.331	1131.94
407.555	1195.94
407.778	1153.94
408.002	1148.94
408.226	1080.94
408.449	1093.94
408.673	1056.94
408.896	1025.94
409.12	1035.94
409.344	1007.94
409.567	981.94
409.791	1035.94
410.014	1002.94
410.238	1008.94
410.461	975.94
410.685	977.94
410.908	992.94
411.132	960.94
411.355	922.94
411.578	944.94
411.802	920.94
412.025	959.94
412.249	954.94
412.472	946.94
412.695	948.94
412.919	918.94
413.142	895.94
413.365	899.94
413.589	900.94
413.812	894.94
414.035	908.94
414.258	911.94
414.482	916.94
414.705	900.94
414.928	923.94
415.151	906.94
415.374	905.94
415.597	893.94
415.821	896.94
416.044	890.94
416.267	872.94
416.49	880.94
416.713	856.94
416.936	869.94
417.159	896.94
417.382	890.94
417.605	894.94
417.828	900.94
418.051	914.94
418.274	900.94
418.497	908.94
418.72	915.94
418.943	924.94
419.166	974.94
419.389	1025.94
419.611	1023.94
419.834	950.94
420.057	934.94
420.28	915.94
420.503	872.94
420.726	887.94
420.948	880.94
421.171	873.94
421.394	875.94
421.617	880.94
421.839	886.94
422.062	905.94
422.285	890.94
422.507	909.94
422.73	928.94
422.953	909.94
423.175	941.94
423.398	953.94
423.621	949.94
423.843	949.94
424.066	933.94
424.288	944.94
424.511	948.94
424.733	913.94
424.956	908.94
425.178	922.94
425.401	880.94
425.623	887.94
425.846	875.94
426.068	874.94
426.291	871.94
426.513	839.94
426.735	855.94
426.958	845.94
427.18	836.94
427.402	834.94
427.625	814.94
427.847	812.94
428.069	801.94
428.292	832.94
428.514	801.94
428.736	784.94
428.958	811.94
429.181	798.94
429.403	781.94
429.625	775.94
429.847	769.94
430.069	765.94
430.292	813.94
430.514	777.94
430.736	774.94
430.958	800.94
431.18	796.94
431.402	789.94
431.624	780.94
431.846	786.94
432.068	794.94
432.29	828.94
432.512	780.94
432.734	789.94
432.956	805.94
433.178	821.94
433.4	829.94
433.622	812.94
433.844	805.94
434.066	824.94
434.287	832.94
434.509	823.94
434.731	868.94
434.953	893.94
435.175	882.94
435.397	889.94
435.618	838.94
435.84	814.94
436.062	798.94
436.284	822.94
436.505	785.94
436.727	823.94
436.949	792.94
437.17	830.94
437.392	795.94
437.614	787.94
437.835	774.94
438.057	790.94
438.278	759.94
438.5	746.94
438.721	742.94
438.943	765.94
439.165	781.94
439.386	783.94
439.608	786.94
439.829	797.94
440.05	822.94
440.272	794.94
440.493	809.94
440.715	841.94
440.936	830.94
441.158	827.94
441.379	860.94
441.6	916.94
441.822	885.94
442.043	876.94
442.264	873.94
442.486	865.94
442.707	865.94
442.928	884.94
443.149	890.94
443.371	877.94
443.592	869.94
443.813	885.94
444.034	918.94
444.255	929.94
444.476	990.94
444.698	1014.94
444.919	1073.94
445.14	1128.94
445.361	1010.94
445.582	926.94
445.803	862.94
446.024	837.94
446.245	835.94
446.466	798.94
446.687	815.94
446.908	798.94
447.129	786.94
447.35	788.94
447.571	764.94
447.792	777.94
448.013	754.94
448.234	755.94
448.455	720.94
448.675	759.94
448.896	748.94
449.117	720.94
449.338	708.94
449.559	711.94
449.779	719.94
450	699.94
450.221	725.94
450.442	731.94
450.662	743.94
450.883	766.94
451.104	765.94
451.324	747.94
451.545	732.94
451.766	728.94
451.986	732.94
452.207	738.94
452.428	739.94
452.648	733.94
452.869	736.94
453.089	717.94
453.31	727.94
453.53	732.94
453.751	733.94
453.971	702.94
454.192	710.94
454.412	718.94
454.633	692.94
454.853	663.94
455.073	664.94
455.294	684.94
455.514	691.94
455.734	685.94
455.955	680.94
456.175	676.94
456.395	689.94
456.616	665.94
456.836	701.94
457.056	668.94
457.276	663.94
457.497	686.94
457.717	683.94
457.937	716.94
458.157	711.94
458.377	700.94
458.598	729.94
458.818	724.94
459.038	764.94
459.258	787.94
459.478	811.94
459.698	828.94
459.918	852.94
460.138	888.94
460.358	908.94
460.578	928.94
460.798	949.94
461.018	949.94
461.238	917.94
461.458	935.94
461.678	923.94
461.898	958.94
462.118	931.94
462.338	998.94
462.558	1053.94
462.777	1087.94
462.997	1125.94
463.217	1225.94
463.437	1238.94
463.657	1149.94
463.876	1103.94
464.096	1102.94
464.316	1108.94
464.536	1102.94
464.755	1051.94
464.975	1006.94
465.195	972.94
465.414	910.94
465.634	866.94
465.854	847.94
466.073	809.94
466.293	806.94
466.512	774.94
466.732	775.94
466.951	761.94
467.171	752.94
467.391	738.94
467.61	749.94
467.829	756.94
468.049	760.94
468.268	736.94
468.488	722.94
468.707	718.94
468.927	745.94
469.146	733.94
469.365	770.94
469.585	754.94
469.804	796.94
470.023	789.94
470.243	805.94
470.462	807.94
470.681	797.94
470.901	824.94
471.12	828.94
471.339	801.94
471.558	748.94
471.777	746.94
471.997	761.94
472.216	738.94
472.435	726.94
472.654	743.94
472.873	727.94
473.092	723.94
473.311	702.94
473.53	708.94
473.749	718.94
473.968	729.94
474.187	727.94
474.406	693.94
474.625	735.94
474.844	721.94
475.063	730.94
475.282	723.94
475.501	729.94
475.72	733.94
475.939	727.94
476.158	732.94
476.377	737.94
476.596	736.94
476.814	741.94
477.033	742.94
477.252	773.94
477.471	787.94
477.69	795.94
477.908	827.94
478.127	852.94
478.346	841.94
478.564	865.94
478.783	892.94
479.002	902.94
479.22	872.94
479.439	880.94
479.658	889.94
479.876	881.94
480.095	896.94
480.313	969.94
480.532	962.94
480.751	925.94
480.969	925.94
481.188	878.94
481.406	864.94
481.624	826.94
481.843	817.94
482.061	815.94
482.28	842.94
482.498	832.94
482.717	830.94
482.935	864.94
483.153	845.94
483.372	841.94
483.59	837.94
483.808	808.94
484.027	820.94
484.245	790.94
484.463	840.94
484.681	860.94
484.9	868.94
485.118	862.94
485.336	841.94
485.554	843.94
485.772	868.94
485.99	838.94
486.209	852.94
486.427	827.94
486.645	868.94
486.863	878.94
487.081	871.94
487.299	858.94
487.517	859.94
487.735	864.94
487.953	860.94
488.171	883.94
488.389	882.94
488.607	846.94
488.825	828.94
489.043	838.94
489.261	856.94
489.479	888.94
489.696	854.94
489.914	857.94
490.132	878.94
490.35	866.94
490.568	874.94
490.786	873.94
491.003	858.94
491.221	868.94
491.439	859.94
491.657	882.94
491.874	868.94
492.092	873.94
492.31	888.94
492.527	920.94
492.745	892.94
492.963	894.94
493.18	904.94
493.398	894.94
493.615	921.94
493.833	920.94
494.05	894.94
494.268	928.94
494.485	934.94
494.703	923.94
494.92	942.94
495.138	942.94
495.355	903.94
495.573	920.94
495.79	918.94
496.008	934.94
496.225	938.94
496.442	965.94
496.66	949.94
496.877	966.94
497.094	973.94
497.312	977.94
497.529	1020.94
497.746	1042.94
497.963	1084.94
498.181	1101.94
498.398	1175.94
498.615	1251.94
498.832	1308.94
499.049	1402.94
499.267	1528.94
499.484	1668.94
499.701	1844.94
499.918	1979.94
500.135	2264.94
500.352	2578.94
500.569	2690.94
500.786	2644.94
501.003	2428.94
501.22	2187.94
501.437	1952.94
501.654	1750.94
501.871	1605.94
502.088	1464.94
502.305	1402.94
502.522	1323.94
502.739	1258.94
502.956	1193.94
503.172	1150.94
503.389	1107.94
503.606	1088.94
503.823	1070.94
504.04	1057.94
504.256	1051.94
504.473	1066.94
504.69	1078.94
504.907	1059.94
505.123	1047.94
505.34	972.94
505.557	903.94
505.773	905.94
505.99	887.94
506.207	861.94
506.423	862.94
506.64	854.94
506.856	797.94
507.073	819.94
507.289	839.94
507.506	830.94
507.722	833.94
507.939	803.94
508.155	802.94
508.372	800.94
508.588	776.94
508.805	800.94
509.021	773.94
509.238	770.94
509.454	766.94
509.67	754.94
509.887	753.94
510.103	754.94
510.319	775.94
510.536	761.94
510.752	730.94
510.968	776.94
511.184	746.94
511.401	760.94
511.617	789.94
511.833	733.94
512.049	736.94
512.265	748.94
512.481	732.94
512.698	724.94
512.914	749.94
513.13	743.94
513.346	717.94
513.562	735.94
513.778	773.94
513.994	745.94
514.21	740.94
514.426	758.94
514.642	760.94
514.858	762.94
515.074	743.94
515.29	782.94
515.506	772.94
515.721	791.94
515.937	796.94
516.153	807.94
516.369	820.94
516.585	822.94
516.801	886.94
517.016	921.94
517.232	949.94
517.448	998.94
517.664	995.94
517.879	1020.94
518.095	1025.94
518.311	1010.94
518.527	948.94
518.742	902.94
518.958	897.94
519.173	861.94
519.389	843.94
519.605	795.94
519.82	760.94
520.036	776.94
520.251	761.94
520.467	765.94
520.682	759.94
520.898	743.94
521.113	716.94
521.329	737.94
521.544	730.94
521.76	721.94
521.975	714.94
522.19	702.94
522.406	701.94
522.621	705.94
522.836	705.94
523.052	709.94
523.267	694.94
523.482	703.94
523.698	694.94
523.913	679.94
524.128	678.94
524.343	694.94
524.559	675.94
524.774	691.94
524.989	678.94
525.204	706.94
525.419	668.94
525.634	662.94
525.849	661.94
526.064	667.94
526.28	662.94
526.495	660.94
526.71	670.94
526.925	652.94
527.14	662.94
527.355	677.94
527.57	660.94
527.785	650.94
527.999	669.94
528.214	642.94
528.429	682.94
528.644	651.94
528.859	646.94
529.074	669.94
529.289	674.94
529.503	684.94
529.718	666.94
529.933	676.94
530.148	680.94
530.363	649.94
530.577	666.94
530.792	679.94
531.007	653.94
531.221	673.94
531.436	650.94
531.651	668.94
531.865	678.94
532.08	650.94
532.295	690.94
532.509	669.94
532.724	658.94
532.938	659.94
533.153	648.94
533.367	660.94
533.582	650.94
533.796	655.94
534.011	642.94
534.225	635.94
534.44	648.94
534.654	656.94
534.868	649.94
535.083	637.94
535.297	651.94
535.511	673.94
535.726	636.94
535.94	651.94
536.154	622.94
536.369	648.94
536.583	660.94
536.797	632.94
537.011	633.94
537.225	641.94
537.44	611.94
537.654	605.94
537.868	590.94
538.082	581.94
538.296	624.94
538.51	597.94
538.724	596.94
538.938	609.94
539.153	634.94
539.367	612.94
539.581	604.94
539.795	597.94
540.009	601.94
540.222	589.94
540.436	599.94
540.65	601.94
540.864	598.94
541.078	613.94
541.292	600.94
541.506	605.94
541.72	600.94
541.934	609.94
542.147	611.94
542.361	613.94
542.575	589.94
542.789	596.94
543.002	604.94
543.216	605.94
543.43	597.94
543.644	600.94
543.857	601.94
544.071	620.94
544.285	603.94
544.498	589.94
544.712	593.94
544.925	611.94
545.139	601.94
545.352	602.94
545.566	600.94
545.779	612.94
545.993	608.94
546.206	616.94
546.42	600.94
546.633	642.94
546.847	617.94
547.06	614.94
547.274	605.94
547.487	616.94
547.7	618.94
547.914	633.94
548.127	627.94
548.34	604.94
548.554	621.94
548.767	630.94
548.98	626.94
549.193	621.94
549.407	617.94
549.62	622.94
549.833	660.94
550.046	635.94
550.259	634.94
550.473	620.94
550.686	603.94
550.899	608.94
551.112	605.94
551.325	600.94
551.538	602.94
551.751	593.94
551.964	605.94
552.177	629.94
552.39	605.94
552.603	653.94
552.816	615.94
553.029	646.94
553.242	650.94
553.455	665.94
553.667	690.94
553.88	637.94
554.093	631.94
554.306	629.94
554.519	629.94
554.732	592.94
554.944	582.94
555.157	589.94
555.37	605.94
555.583	566.94
555.795	568.94
556.008	557.94
556.221	542.94
556.433	547.94
556.646	530.94
556.859	543.94
557.071	523.94
557.284	532.94
557.496	515.94
557.709	529.94
557.921	544.94
558.134	518.94
558.346	517.94
558.559	499.94
558.771	511.94
558.984	518.94
559.196	486.94
559.409	520.94
559.621	522.94
559.833	497.94
560.046	496.94
560.258	504.94
560.47	518.94
560.683	501.94
560.895	494.94
561.107	512.94
561.32	511.94
561.532	505.94
561.744	504.94
561.956	491.94
562.168	504.94
562.381	504.94
562.593	499.94
562.805	496.94
563.017	509.94
563.229	508.94
563.441	512.94
563.653	521.94
563.865	520.94
564.077	511.94
564.289	533.94
564.501	551.94
564.713	545.94
564.925	539.94
565.137	572.94
565.349	567.94
565.561	592.94
565.773	574.94
565.985	614.94
566.197	664.94
566.408	697.94
566.62	756.94
566.832	776.94
567.044	789.94
567.255	803.94
567.467	864.94
567.679	863.94
567.891	922.94
568.102	933.94
568.314	880.94
568.526	825.94
568.737	765.94
568.949	677.94
569.161	632.94
569.372	602.94
569.584	588.94
569.795	562.94
570.007	540.94
570.218	524.94
570.43	520.94
570.641	530.94
570.853	524.94
571.064	534.94
571.276	508.94
571.487	503.94
571.698	498.94
571.91	477.94
572.121	459.94
572.333	469.94
572.544	438.94
572.755	426.94
572.966	441.94
573.178	436.94
573.389	418.94
573.6	415.94
573.811	420.94
574.023	425.94
574.234	414.94
574.445	428.94
574.656	426.94
574.867	418.94
575.078	416.94
575.289	410.94
575.501	409.94
575.712	391.94
575.923	407.94
576.134	405.94
576.345	395.94
576.556	407.94
576.767	394.94
576.978	380.94
577.188	370.94
577.399	397.94
577.61	380.94
577.821	376.94
578.032	372.94
578.243	370.94
578.454	386.94
578.665	380.94
578.875	391.94
579.086	380.94
579.297	370.94
579.508	364.94
579.718	349.94
579.929	364.94
580.14	357.94
580.35	375.94
580.561	374.94
580.772	346.94
580.982	366.94
581.193	362.94
581.403	374.94
581.614	347.94
581.825	352.94
582.035	366.94
582.246	354.94
582.456	368.94
582.667	368.94
582.877	354.94
583.087	358.94
583.298	347.94
583.508	337.94
583.719	347.94
583.929	358.94
584.139	339.94
584.35	349.94
584.56	357.94
584.77	351.94
584.981	326.94
585.191	356.94
585.401	338.94
585.611	335.94
585.821	353.94
586.032	340.94
586.242	358.94
586.452	346.94
586.662	358.94
586.872	346.94
587.082	324.94
587.292	361.94
587.502	334.94
587.713	345.94
587.923	350.94
588.133	343.94
588.343	352.94
588.553	342.94
588.762	342.94
588.972	372.94
589.182	406.94
589.392	391.94
589.602	360.94
589.812	370.94
590.022	356.94
590.232	348.94
590.441	355.94
590.651	338.94
590.861	334.94
591.071	341.94
591.281	347.94
591.49	369.94
591.7	370.94
591.91	364.94
592.119	356.94
592.329	377.94
592.539	374.94
592.748	395.94
592.958	405.94
593.167	414.94
593.377	413.94
593.587	409.94
593.796	415.94
594.006	442.94
594.215	442.94
594.424	411.94
594.634	424.94
594.843	380.94
595.053	369.94
595.262	388.94
595.472	376.94
595.681	382.94
595.89	362.94
596.1	339.94
596.309	344.94
596.518	333.94
596.727	335.94
596.937	328.94
597.146	313.94
597.355	319.94
597.564	325.94
597.774	302.94
597.983	289.94
598.192	322.94
598.401	286.94
598.61	302.94
598.819	296.94
599.028	292.94
599.237	291.94
599.446	288.94
599.655	297.94
599.864	299.94
600.073	288.94
600.282	308.94
600.491	300.94
600.7	284.94
600.909	282.94
601.118	314.94
601.327	271.94
601.536	296.94
601.745	287.94
601.953	266.94
602.162	291.94
602.371	283.94
602.58	273.94
602.789	285.94
602.997	272.94
603.206	278.94
603.415	276.94
603.623	288.94
603.832	262.94
604.041	262.94
604.249	276.94
604.458	282.94
604.666	275.94
604.875	281.94
605.084	282.94
605.292	272.94
605.501	258.94
605.709	281.94
605.918	268.94
606.126	264.94
606.334	264.94
606.543	265.94
606.751	271.94
606.96	274.94
607.168	259.94
607.376	262.94
607.585	246.94
607.793	270.94
608.001	266.94
608.21	270.94
608.418	269.94
608.626	259.94
608.834	260.94
609.043	264.94
609.251	277.94
609.459	261.94
609.667	258.94
609.875	254.94
610.083	266.94
610.291	265.94
610.499	250.94
610.707	246.94
610.916	252.94
611.124	266.94
611.332	243.94
611.54	254.94
611.748	259.94
611.955	253.94
612.163	271.94
612.371	266.94
612.579	240.94
612.787	248.94
612.995	245.94
613.203	265.94
613.411	240.94
613.618	253.94
613.826	249.94
614.034	244.94
614.242	252.94
614.449	253.94
614.657	235.94
614.865	256.94
615.072	237.94
615.28	258.94
615.488	242.94
615.695	252.94
615.903	236.94
616.111	257.94
616.318	258.94
616.526	241.94
616.733	246.94
616.941	244.94
617.148	243.94
617.356	274.94
617.563	258.94
617.771	266.94
617.978	266.94
618.185	243.94
618.393	243.94
618.6	244.94
618.807	248.94
619.015	242.94
619.222	234.94
619.429	248.94
619.637	235.94
619.844	248.94
620.051	229.94
620.258	232.94
620.466	234.94
620.673	247.94
620.88	244.94
621.087	221.94
621.294	217.94
621.501	220.94
621.708	231.94
621.915	218.94
622.122	233.94
622.329	220.94
622.536	219.94
622.743	226.94
622.95	228.94
623.157	241.94
623.364	216.94
623.571	236.94
623.778	220.94
623.985	224.94
624.192	224.94
624.399	236.94
624.606	246.94
624.812	229.94
625.019	226.94
625.226	223.94
625.433	225.94
625.639	216.94
625.846	214.94
626.053	229.94
626.259	224.94
626.466	225.94
626.673	212.94
626.879	201.94
627.086	207.94
627.293	216.94
627.499	209.94
627.706	218.94
627.912	211.94
628.119	223.94
628.325	217.94
628.532	227.94
628.738	213.94
628.945	208.94
629.151	196.94
629.357	207.94
629.564	212.94
629.77	217.94
629.976	206.94
630.183	186.94
630.389	200.94
630.595	196.94
630.802	199.94
631.008	189.94
631.214	196.94
631.42	197.94
631.627	206.94
631.833	210.94
632.039	195.94
632.245	185.94
632.451	185.94
632.657	181.94
632.863	188.94
633.069	199.94
633.275	207.94
633.481	187.94
633.688	193.94
633.893	184.94
634.099	200.94
634.305	195.94
634.511	194.94
634.717	200.94
634.923	186.94
635.129	184.94
635.335	190.94
635.541	192.94
635.747	188.94
635.952	197.94
636.158	183.94
636.364	196.94
636.57	188.94
636.775	180.94
636.981	186.94
637.187	191.94
637.392	184.94
637.598	196.94
637.804	204.94
638.009	198.94
638.215	188.94
638.421	200.94
638.626	182.94
638.832	180.94
639.037	176.94
639.243	181.94
639.448	200.94
639.654	171.94
639.859	182.94
640.065	173.94
640.27	182.94
640.475	172.94
640.681	192.94
640.886	180.94
641.091	168.94
641.297	155.94
641.502	172.94
641.707	178.94
641.913	186.94
642.118	176.94
642.323	157.94
642.528	188.94
642.733	183.94
642.939	181.94
643.144	194.94
643.349	173.94
643.554	168.94
643.759	167.94
643.964	163.94
644.169	172.94
644.374	186.94
644.579	178.94
644.784	161.94
644.989	176.94
645.194	176.94
645.399	166.94
645.604	149.94
645.809	167.94
646.014	164.94
646.219	182.94
646.423	157.94
646.628	156.94
646.833	171.94
647.038	186.94
647.243	176.94
647.447	164.94
647.652	169.94
647.857	180.94
648.062	180.94
648.266	184.94
648.471	175.94
648.676	187.94
648.88	180.94
649.085	190.94
649.289	170.94
649.494	174.94
649.698	170.94
649.903	188.94
650.107	173.94
650.312	177.94
650.516	157.94
650.721	165.94
650.925	165.94
651.13	149.94
651.334	153.94
651.539	164.94
651.743	153.94
651.947	140.94
652.152	160.94
652.356	148.94
652.56	150.94
652.764	154.94
652.969	132.94
653.173	136.94
653.377	144.94
653.581	141.94
653.785	142.94
653.99	136.94
654.194	153.94
654.398	143.94
654.602	152.94
654.806	139.94
655.01	139.94
655.214	152.94
655.418	146.94
655.622	136.94
655.826	140.94
656.03	139.94
656.234	125.94
656.438	131.94
656.642	136.94
656.846	128.94
657.049	130.94
657.253	125.94
657.457	108.94
657.661	130.94
657.865	118.94
658.068	113.94
658.272	105.94
658.476	121.94
658.68	101.94
658.883	114.94
659.087	107.94
659.291	112.94
659.494	103.94
659.698	106.94
659.901	100.94
660.105	94.94
660.309	96.94
660.512	99.94
660.716	91.94
660.919	96.94
661.123	93.94
661.326	93.94
661.53	89.94
661.733	83.94
661.936	89.94
662.14	94.94
662.343	83.94
662.546	78.94
662.75	106.94
662.953	85.94
663.156	97.94
663.36	105.94
663.563	99.94
663.766	93.94
663.969	93.94
664.173	73.94
664.376	88.94
664.579	100.94
664.782	81.94
664.985	95.94
665.188	90.94
665.391	87.94
665.594	79.94
665.797	84.94
666	72.94
666.203	86.94
666.406	80.94
666.609	84.94
666.812	101.94
667.015	84.94
667.218	71.94
667.421	84.94
667.624	76.94
667.827	88.94
668.03	90.94
668.232	74.94
668.435	77.94
668.638	85.94
668.841	95.94
669.043	85.94
669.246	102.94
669.449	78.94
669.651	101.94
669.854	88.94
670.057	91.94
670.259	97.94
670.462	98.94
670.665	94.94
670.867	72.94
671.07	85.94
671.272	87.94
671.475	94.94
671.677	75.94
671.88	78.94
672.082	77.94
672.284	89.94
672.487	74.94
672.689	65.94
672.892	74.94
