Data from NiCl2@0.25M.TitratingCurve.Agarose3%dH2O.NegLispCup.LampEnergy10.LIBS07252019_HRD10591_18-24-52-574.txt Node
Date: Thu Jul 25 18:24:52 EDT 2019
User: cochatt
Spectrometer: HR+D1059
Trigger mode: 1
Integration Time (sec): 1.000000E-1
Scans to average: 1
Electric dark correction enabled: true
Nonlinearity correction enabled: false
Boxcar width: 0
XAxis mode: Wavelengths
Number of Pixels in Spectrum: 2048
>>>>>Begin Spectral Data<<<<<
223.165	-12.94
223.4	-12.94
223.635	-12.94
223.869	-25.94
224.104	-25.94
224.338	-16.94
224.573	0.06
224.808	-8.94
225.042	7.06
225.277	-14.94
225.511	1.06
225.746	-2.94
225.98	6.06
226.215	-5.94
226.449	19.06
226.683	23.06
226.918	21.06
227.152	37.06
227.387	49.06
227.621	47.06
227.856	52.06
228.09	44.06
228.324	35.06
228.559	52.06
228.793	79.06
229.027	113.06
229.262	125.06
229.496	127.06
229.73	129.06
229.964	159.06
230.199	153.06
230.433	140.06
230.667	148.06
230.901	154.06
231.136	149.06
231.37	162.06
231.604	161.06
231.838	153.06
232.072	165.06
232.306	166.06
232.541	181.06
232.775	175.06
233.009	185.06
233.243	192.06
233.477	165.06
233.711	179.06
233.945	175.06
234.179	182.06
234.413	179.06
234.647	191.06
234.881	205.06
235.115	185.06
235.349	199.06
235.583	183.06
235.817	181.06
236.051	184.06
236.285	192.06
236.519	178.06
236.753	210.06
236.987	195.06
237.221	205.06
237.455	190.06
237.689	200.06
237.922	208.06
238.156	206.06
238.39	205.06
238.624	203.06
238.858	202.06
239.091	221.06
239.325	217.06
239.559	200.06
239.793	217.06
240.027	213.06
240.26	222.06
240.494	220.06
240.728	218.06
240.961	226.06
241.195	211.06
241.429	245.06
241.662	225.06
241.896	243.06
242.13	244.06
242.363	243.06
242.597	246.06
242.83	253.06
243.064	257.06
243.298	263.06
243.531	262.06
243.765	258.06
243.998	249.06
244.232	261.06
244.465	255.06
244.699	275.06
244.932	283.06
245.166	271.06
245.399	268.06
245.633	261.06
245.866	284.06
246.099	275.06
246.333	268.06
246.566	300.06
246.8	286.06
247.033	296.06
247.266	285.06
247.5	298.06
247.733	293.06
247.966	307.06
248.2	299.06
248.433	291.06
248.666	295.06
248.899	301.06
249.133	304.06
249.366	324.06
249.599	328.06
249.832	300.06
250.066	325.06
250.299	325.06
250.532	336.06
250.765	327.06
250.998	325.06
251.231	336.06
251.465	340.06
251.698	340.06
251.931	352.06
252.164	351.06
252.397	340.06
252.63	362.06
252.863	363.06
253.096	360.06
253.329	355.06
253.562	355.06
253.795	365.06
254.028	380.06
254.261	355.06
254.494	375.06
254.727	369.06
254.96	358.06
255.193	371.06
255.426	383.06
255.659	378.06
255.892	375.06
256.124	368.06
256.357	383.06
256.59	389.06
256.823	381.06
257.056	389.06
257.289	406.06
257.521	392.06
257.754	380.06
257.987	412.06
258.22	389.06
258.452	396.06
258.685	383.06
258.918	403.06
259.151	408.06
259.383	409.06
259.616	402.06
259.849	428.06
260.081	435.06
260.314	395.06
260.547	406.06
260.779	394.06
261.012	410.06
261.244	437.06
261.477	429.06
261.71	412.06
261.942	427.06
262.175	411.06
262.407	425.06
262.64	416.06
262.872	436.06
263.105	439.06
263.337	462.06
263.57	447.06
263.802	447.06
264.035	439.06
264.267	456.06
264.499	477.06
264.732	467.06
264.964	447.06
265.197	469.06
265.429	461.06
265.661	449.06
265.894	461.06
266.126	457.06
266.358	461.06
266.591	486.06
266.823	482.06
267.055	484.06
267.287	476.06
267.52	474.06
267.752	481.06
267.984	505.06
268.216	474.06
268.448	489.06
268.681	501.06
268.913	495.06
269.145	493.06
269.377	489.06
269.609	497.06
269.841	499.06
270.073	489.06
270.306	476.06
270.538	507.06
270.77	507.06
271.002	512.06
271.234	488.06
271.466	526.06
271.698	519.06
271.93	519.06
272.162	534.06
272.394	528.06
272.626	511.06
272.858	511.06
273.09	524.06
273.322	541.06
273.553	540.06
273.785	542.06
274.017	539.06
274.249	546.06
274.481	517.06
274.713	548.06
274.945	545.06
275.176	566.06
275.408	546.06
275.64	541.06
275.872	539.06
276.104	579.06
276.335	569.06
276.567	574.06
276.799	569.06
277.031	594.06
277.262	573.06
277.494	572.06
277.726	564.06
277.957	581.06
278.189	586.06
278.421	579.06
278.652	587.06
278.884	592.06
279.115	603.06
279.347	619.06
279.579	579.06
279.81	610.06
280.042	579.06
280.273	599.06
280.505	585.06
280.736	605.06
280.968	596.06
281.199	616.06
281.431	648.06
281.662	611.06
281.894	637.06
282.125	641.06
282.356	634.06
282.588	624.06
282.819	645.06
283.051	637.06
283.282	649.06
283.513	646.06
283.745	646.06
283.976	667.06
284.207	639.06
284.439	653.06
284.67	650.06
284.901	655.06
285.132	671.06
285.364	677.06
285.595	661.06
285.826	671.06
286.057	657.06
286.288	686.06
286.52	677.06
286.751	663.06
286.982	680.06
287.213	691.06
287.444	674.06
287.675	687.06
287.906	688.06
288.138	704.06
288.369	691.06
288.6	679.06
288.831	684.06
289.062	687.06
289.293	682.06
289.524	701.06
289.755	697.06
289.986	711.06
290.217	688.06
290.448	711.06
290.679	689.06
290.91	705.06
291.141	703.06
291.371	727.06
291.602	697.06
291.833	716.06
292.064	697.06
292.295	719.06
292.526	693.06
292.757	700.06
292.987	686.06
293.218	732.06
293.449	725.06
293.68	686.06
293.91	714.06
294.141	683.06
294.372	717.06
294.603	747.06
294.833	727.06
295.064	709.06
295.295	728.06
295.525	729.06
295.756	747.06
295.987	737.06
296.217	751.06
296.448	747.06
296.679	773.06
296.909	761.06
297.14	746.06
297.37	785.06
297.601	780.06
297.831	725.06
298.062	757.06
298.292	789.06
298.523	780.06
298.753	790.06
298.984	799.06
299.214	760.06
299.445	791.06
299.675	786.06
299.905	739.06
300.136	772.06
300.366	775.06
300.597	788.06
300.827	813.06
301.057	792.06
301.288	803.06
301.518	824.06
301.748	827.06
301.979	802.06
302.209	820.06
302.439	839.06
302.669	815.06
302.9	829.06
303.13	812.06
303.36	822.06
303.59	795.06
303.82	801.06
304.051	817.06
304.281	790.06
304.511	799.06
304.741	794.06
304.971	819.06
305.201	817.06
305.431	809.06
305.661	816.06
305.891	772.06
306.121	774.06
306.352	793.06
306.582	806.06
306.812	802.06
307.042	801.06
307.272	802.06
307.502	778.06
307.731	779.06
307.961	770.06
308.191	789.06
308.421	784.06
308.651	795.06
308.881	776.06
309.111	800.06
309.341	778.06
309.571	779.06
309.8	799.06
310.03	801.06
310.26	788.06
310.49	793.06
310.72	811.06
310.949	800.06
311.179	785.06
311.409	793.06
311.639	818.06
311.868	793.06
312.098	813.06
312.328	833.06
312.557	830.06
312.787	815.06
313.017	852.06
313.246	840.06
313.476	836.06
313.706	824.06
313.935	846.06
314.165	867.06
314.394	844.06
314.624	881.06
314.853	839.06
315.083	869.06
315.312	881.06
315.542	833.06
315.771	831.06
316.001	865.06
316.23	841.06
316.46	854.06
316.689	858.06
316.919	860.06
317.148	852.06
317.377	849.06
317.607	827.06
317.836	818.06
318.065	817.06
318.295	831.06
318.524	825.06
318.753	830.06
318.983	821.06
319.212	805.06
319.441	876.06
319.67	842.06
319.9	826.06
320.129	826.06
320.358	839.06
320.587	850.06
320.816	851.06
321.046	865.06
321.275	840.06
321.504	857.06
321.733	825.06
321.962	845.06
322.191	881.06
322.42	869.06
322.649	837.06
322.878	856.06
323.108	864.06
323.337	852.06
323.566	856.06
323.795	860.06
324.024	882.06
324.253	875.06
324.482	863.06
324.71	826.06
324.939	884.06
325.168	871.06
325.397	851.06
325.626	875.06
325.855	903.06
326.084	922.06
326.313	897.06
326.542	933.06
326.77	910.06
326.999	911.06
327.228	895.06
327.457	913.06
327.686	929.06
327.914	920.06
328.143	933.06
328.372	896.06
328.6	938.06
328.829	925.06
329.058	900.06
329.287	919.06
329.515	930.06
329.744	908.06
329.972	962.06
330.201	936.06
330.43	960.06
330.658	951.06
330.887	935.06
331.115	932.06
331.344	985.06
331.572	1003.06
331.801	1029.06
332.03	1011.06
332.258	1054.06
332.486	1083.06
332.715	1083.06
332.943	1132.06
333.172	1170.06
333.4	1229.06
333.629	1238.06
333.857	1291.06
334.085	1282.06
334.314	1258.06
334.542	1251.06
334.771	1225.06
334.999	1181.06
335.227	1195.06
335.455	1156.06
335.684	1164.06
335.912	1148.06
336.14	1138.06
336.369	1114.06
336.597	1125.06
336.825	1093.06
337.053	1126.06
337.281	1140.06
337.51	1067.06
337.738	1076.06
337.966	1025.06
338.194	1042.06
338.422	1033.06
338.65	999.06
338.878	1013.06
339.106	1011.06
339.334	1010.06
339.562	1014.06
339.79	976.06
340.018	957.06
340.246	940.06
340.474	972.06
340.702	958.06
340.93	969.06
341.158	977.06
341.386	962.06
341.614	966.06
341.842	986.06
342.07	943.06
342.298	933.06
342.526	959.06
342.754	956.06
342.981	973.06
343.209	969.06
343.437	1018.06
343.665	1073.06
343.893	1168.06
344.12	1215.06
344.348	1163.06
344.576	1124.06
344.804	1081.06
345.031	1027.06
345.259	984.06
345.487	957.06
345.714	951.06
345.942	936.06
346.17	929.06
346.397	929.06
346.625	919.06
346.853	906.06
347.08	909.06
347.308	943.06
347.535	916.06
347.763	929.06
347.99	939.06
348.218	948.06
348.445	935.06
348.673	917.06
348.9	893.06
349.128	889.06
349.355	904.06
349.583	900.06
349.81	919.06
350.037	886.06
350.265	890.06
350.492	894.06
350.72	904.06
350.947	898.06
351.174	893.06
351.402	878.06
351.629	886.06
351.856	879.06
352.083	861.06
352.311	880.06
352.538	887.06
352.765	889.06
352.992	865.06
353.22	865.06
353.447	856.06
353.674	909.06
353.901	885.06
354.128	883.06
354.355	868.06
354.583	889.06
354.81	920.06
355.037	897.06
355.264	879.06
355.491	870.06
355.718	889.06
355.945	890.06
356.172	917.06
356.399	875.06
356.626	880.06
356.853	879.06
357.08	882.06
357.307	897.06
357.534	893.06
357.761	888.06
357.988	907.06
358.215	898.06
358.441	875.06
358.668	884.06
358.895	900.06
359.122	866.06
359.349	884.06
359.576	913.06
359.802	881.06
360.029	880.06
360.256	920.06
360.483	906.06
360.709	899.06
360.936	901.06
361.163	863.06
361.39	890.06
361.616	876.06
361.843	906.06
362.07	894.06
362.296	876.06
362.523	862.06
362.749	885.06
362.976	889.06
363.203	904.06
363.429	861.06
363.656	895.06
363.882	885.06
364.109	893.06
364.335	886.06
364.562	866.06
364.788	871.06
365.015	889.06
365.241	890.06
365.468	901.06
365.694	893.06
365.92	863.06
366.147	858.06
366.373	889.06
366.599	865.06
366.826	888.06
367.052	899.06
367.278	885.06
367.505	872.06
367.731	897.06
367.957	902.06
368.184	874.06
368.41	889.06
368.636	865.06
368.862	921.06
369.089	913.06
369.315	910.06
369.541	880.06
369.767	917.06
369.993	930.06
370.219	946.06
370.445	920.06
370.672	938.06
370.898	953.06
371.124	963.06
371.35	979.06
371.576	965.06
371.802	981.06
372.028	969.06
372.254	950.06
372.48	969.06
372.706	984.06
372.932	1000.06
373.158	1009.06
373.384	991.06
373.61	992.06
373.835	972.06
374.061	1011.06
374.287	981.06
374.513	1004.06
374.739	1036.06
374.965	1059.06
375.191	1115.06
375.416	1088.06
375.642	1055.06
375.868	1019.06
376.094	1026.06
376.319	978.06
376.545	1016.06
376.771	992.06
376.997	992.06
377.222	999.06
377.448	971.06
377.674	967.06
377.899	985.06
378.125	957.06
378.35	945.06
378.576	953.06
378.802	944.06
379.027	961.06
379.253	958.06
379.478	943.06
379.704	970.06
379.929	948.06
380.155	939.06
380.38	957.06
380.606	970.06
380.831	951.06
381.057	949.06
381.282	936.06
381.507	954.06
381.733	973.06
381.958	971.06
382.184	986.06
382.409	1012.06
382.634	1013.06
382.86	1011.06
383.085	1009.06
383.31	1056.06
383.535	1044.06
383.761	1048.06
383.986	1091.06
384.211	1106.06
384.436	1123.06
384.662	1151.06
384.887	1163.06
385.112	1156.06
385.337	1174.06
385.562	1173.06
385.787	1183.06
386.013	1194.06
386.238	1214.06
386.463	1180.06
386.688	1209.06
386.913	1151.06
387.138	1145.06
387.363	1195.06
387.588	1167.06
387.813	1171.06
388.038	1187.06
388.263	1165.06
388.488	1211.06
388.713	1163.06
388.938	1177.06
389.163	1164.06
389.387	1158.06
389.612	1155.06
389.837	1156.06
390.062	1181.06
390.287	1138.06
390.512	1157.06
390.736	1173.06
390.961	1197.06
391.186	1242.06
391.411	1252.06
391.636	1279.06
391.86	1323.06
392.085	1348.06
392.31	1356.06
392.534	1294.06
392.759	1325.06
392.984	1257.06
393.208	1244.06
393.433	1275.06
393.658	1250.06
393.882	1263.06
394.107	1292.06
394.331	1239.06
394.556	1271.06
394.78	1272.06
395.005	1284.06
395.229	1291.06
395.454	1313.06
395.678	1351.06
395.903	1349.06
396.127	1315.06
396.352	1314.06
396.576	1261.06
396.801	1283.06
397.025	1273.06
397.249	1300.06
397.474	1354.06
397.698	1361.06
397.922	1390.06
398.147	1327.06
398.371	1375.06
398.595	1431.06
398.82	1507.06
399.044	1621.06
399.268	1768.06
399.492	2032.06
399.717	2239.06
399.941	2271.06
400.165	2059.06
400.389	1904.06
400.613	1745.06
400.837	1657.06
401.062	1580.06
401.286	1551.06
401.51	1529.06
401.734	1525.06
401.958	1540.06
402.182	1553.06
402.406	1591.06
402.63	1573.06
402.854	1617.06
403.078	1613.06
403.302	1647.06
403.526	1673.06
403.75	1691.06
403.974	1706.06
404.198	1755.06
404.422	1731.06
404.645	1725.06
404.869	1716.06
405.093	1728.06
405.317	1698.06
405.541	1689.06
405.765	1655.06
405.988	1674.06
406.212	1683.06
406.436	1657.06
406.66	1674.06
406.883	1740.06
407.107	1889.06
407.331	1920.06
407.555	1988.06
407.778	1954.06
408.002	1931.06
408.226	1878.06
408.449	1818.06
408.673	1742.06
408.896	1686.06
409.12	1674.06
409.344	1704.06
409.567	1690.06
409.791	1739.06
410.014	1725.06
410.238	1660.06
410.461	1683.06
410.685	1633.06
410.908	1621.06
411.132	1596.06
411.355	1488.06
411.578	1556.06
411.802	1572.06
412.025	1612.06
412.249	1629.06
412.472	1594.06
412.695	1541.06
412.919	1527.06
413.142	1543.06
413.365	1505.06
413.589	1523.06
413.812	1476.06
414.035	1467.06
414.258	1494.06
414.482	1534.06
414.705	1534.06
414.928	1520.06
415.151	1541.06
415.374	1533.06
415.597	1519.06
415.821	1499.06
416.044	1436.06
416.267	1419.06
416.49	1443.06
416.713	1444.06
416.936	1437.06
417.159	1449.06
417.382	1460.06
417.605	1499.06
417.828	1472.06
418.051	1482.06
418.274	1454.06
418.497	1469.06
418.72	1544.06
418.943	1500.06
419.166	1621.06
419.389	1715.06
419.611	1669.06
419.834	1610.06
420.057	1587.06
420.28	1523.06
420.503	1455.06
420.726	1463.06
420.948	1463.06
421.171	1471.06
421.394	1488.06
421.617	1471.06
421.839	1495.06
422.062	1481.06
422.285	1476.06
422.507	1513.06
422.73	1505.06
422.953	1512.06
423.175	1503.06
423.398	1529.06
423.621	1525.06
423.843	1553.06
424.066	1552.06
424.288	1567.06
424.511	1521.06
424.733	1528.06
424.956	1506.06
425.178	1488.06
425.401	1556.06
425.623	1490.06
425.846	1413.06
426.068	1456.06
426.291	1434.06
426.513	1418.06
426.735	1408.06
426.958	1400.06
427.18	1340.06
427.402	1371.06
427.625	1337.06
427.847	1319.06
428.069	1282.06
428.292	1332.06
428.514	1292.06
428.736	1315.06
428.958	1305.06
429.181	1249.06
429.403	1261.06
429.625	1271.06
429.847	1253.06
430.069	1283.06
430.292	1256.06
430.514	1272.06
430.736	1271.06
430.958	1238.06
431.18	1263.06
431.402	1299.06
431.624	1269.06
431.846	1284.06
432.068	1307.06
432.29	1314.06
432.512	1308.06
432.734	1351.06
432.956	1299.06
433.178	1277.06
433.4	1298.06
433.622	1300.06
433.844	1314.06
434.066	1295.06
434.287	1316.06
434.509	1363.06
434.731	1436.06
434.953	1454.06
435.175	1486.06
435.397	1449.06
435.618	1377.06
435.84	1361.06
436.062	1311.06
436.284	1300.06
436.505	1269.06
436.727	1303.06
436.949	1310.06
437.17	1281.06
437.392	1244.06
437.614	1285.06
437.835	1254.06
438.057	1260.06
438.278	1234.06
438.5	1241.06
438.721	1240.06
438.943	1219.06
439.165	1235.06
439.386	1259.06
439.608	1249.06
439.829	1301.06
440.05	1275.06
440.272	1292.06
440.493	1324.06
440.715	1337.06
440.936	1367.06
441.158	1361.06
441.379	1404.06
441.6	1498.06
441.822	1455.06
442.043	1478.06
442.264	1423.06
442.486	1385.06
442.707	1432.06
442.928	1428.06
443.149	1415.06
443.371	1441.06
443.592	1435.06
443.813	1477.06
444.034	1470.06
444.255	1506.06
444.476	1585.06
444.698	1681.06
444.919	1730.06
445.14	1825.06
445.361	1675.06
445.582	1564.06
445.803	1466.06
446.024	1384.06
446.245	1377.06
446.466	1335.06
446.687	1303.06
446.908	1303.06
447.129	1234.06
447.35	1250.06
447.571	1282.06
447.792	1194.06
448.013	1209.06
448.234	1207.06
448.455	1206.06
448.675	1207.06
448.896	1180.06
449.117	1164.06
449.338	1146.06
449.559	1167.06
449.779	1157.06
450	1157.06
450.221	1174.06
450.442	1168.06
450.662	1159.06
450.883	1192.06
451.104	1181.06
451.324	1187.06
451.545	1207.06
451.766	1199.06
451.986	1136.06
452.207	1178.06
452.428	1159.06
452.648	1157.06
452.869	1153.06
453.089	1140.06
453.31	1151.06
453.53	1149.06
453.751	1136.06
453.971	1097.06
454.192	1129.06
454.412	1096.06
454.633	1126.06
454.853	1127.06
455.073	1082.06
455.294	1106.06
455.514	1072.06
455.734	1064.06
455.955	1089.06
456.175	1117.06
456.395	1100.06
456.616	1106.06
456.836	1097.06
457.056	1105.06
457.276	1071.06
457.497	1114.06
457.717	1094.06
457.937	1097.06
458.157	1108.06
458.377	1133.06
458.598	1180.06
458.818	1208.06
459.038	1257.06
459.258	1256.06
459.478	1330.06
459.698	1314.06
459.918	1384.06
460.138	1455.06
460.358	1500.06
460.578	1546.06
460.798	1536.06
461.018	1579.06
461.238	1568.06
461.458	1578.06
461.678	1550.06
461.898	1590.06
462.118	1573.06
462.338	1653.06
462.558	1719.06
462.777	1769.06
462.997	1924.06
463.217	2031.06
463.437	2063.06
463.657	1932.06
463.876	1812.06
464.096	1809.06
464.316	1816.06
464.536	1799.06
464.755	1776.06
464.975	1697.06
465.195	1594.06
465.414	1496.06
465.634	1430.06
465.854	1347.06
466.073	1327.06
466.293	1318.06
466.512	1291.06
466.732	1238.06
466.951	1260.06
467.171	1263.06
467.391	1249.06
467.61	1216.06
467.829	1201.06
468.049	1226.06
468.268	1196.06
468.488	1161.06
468.707	1165.06
468.927	1183.06
469.146	1208.06
469.365	1205.06
469.585	1205.06
469.804	1231.06
470.023	1270.06
470.243	1262.06
470.462	1280.06
470.681	1273.06
470.901	1305.06
471.12	1253.06
471.339	1271.06
471.558	1214.06
471.777	1215.06
471.997	1192.06
472.216	1194.06
472.435	1156.06
472.654	1128.06
472.873	1155.06
473.092	1152.06
473.311	1155.06
473.53	1159.06
473.749	1163.06
473.968	1093.06
474.187	1127.06
474.406	1136.06
474.625	1141.06
474.844	1132.06
475.063	1127.06
475.282	1144.06
475.501	1154.06
475.72	1157.06
475.939	1177.06
476.158	1215.06
476.377	1200.06
476.596	1232.06
476.814	1249.06
477.033	1231.06
477.252	1270.06
477.471	1292.06
477.69	1329.06
477.908	1324.06
478.127	1343.06
478.346	1380.06
478.564	1403.06
478.783	1441.06
479.002	1487.06
479.22	1448.06
479.439	1462.06
479.658	1435.06
479.876	1499.06
480.095	1464.06
480.313	1545.06
480.532	1567.06
480.751	1558.06
480.969	1537.06
481.188	1455.06
481.406	1417.06
481.624	1411.06
481.843	1341.06
482.061	1334.06
482.28	1343.06
482.498	1319.06
482.717	1292.06
482.935	1286.06
483.153	1328.06
483.372	1325.06
483.59	1321.06
483.808	1324.06
484.027	1303.06
484.245	1351.06
484.463	1329.06
484.681	1315.06
484.9	1358.06
485.118	1329.06
485.336	1354.06
485.554	1347.06
485.772	1377.06
485.99	1398.06
486.209	1378.06
486.427	1392.06
486.645	1383.06
486.863	1399.06
487.081	1363.06
487.299	1405.06
487.517	1356.06
487.735	1361.06
487.953	1379.06
488.171	1367.06
488.389	1382.06
488.607	1359.06
488.825	1376.06
489.043	1355.06
489.261	1346.06
489.479	1356.06
489.696	1373.06
489.914	1359.06
490.132	1392.06
490.35	1401.06
490.568	1415.06
490.786	1400.06
491.003	1363.06
491.221	1414.06
491.439	1391.06
491.657	1420.06
491.874	1410.06
492.092	1397.06
492.31	1433.06
492.527	1424.06
492.745	1416.06
492.963	1416.06
493.18	1464.06
493.398	1424.06
493.615	1417.06
493.833	1418.06
494.05	1458.06
494.268	1439.06
494.485	1491.06
494.703	1446.06
494.92	1463.06
495.138	1468.06
495.355	1467.06
495.573	1490.06
495.79	1497.06
496.008	1510.06
496.225	1507.06
496.442	1539.06
496.66	1578.06
496.877	1558.06
497.094	1600.06
497.312	1635.06
497.529	1655.06
497.746	1725.06
497.963	1781.06
498.181	1864.06
498.398	1955.06
498.615	2079.06
498.832	2264.06
499.049	2395.06
499.267	2591.06
499.484	2887.06
499.701	3169.06
499.918	3584.06
500.135	3917.06
500.352	4437.06
500.569	4616.06
500.786	4601.06
501.003	4329.06
501.22	3946.06
501.437	3530.06
501.654	3141.06
501.871	2829.06
502.088	2592.06
502.305	2409.06
502.522	2282.06
502.739	2130.06
502.956	1993.06
503.172	1968.06
503.389	1883.06
503.606	1791.06
503.823	1754.06
504.04	1751.06
504.256	1743.06
504.473	1763.06
504.69	1767.06
504.907	1742.06
505.123	1683.06
505.34	1597.06
505.557	1524.06
505.773	1485.06
505.99	1419.06
506.207	1430.06
506.423	1388.06
506.64	1365.06
506.856	1352.06
507.073	1331.06
507.289	1334.06
507.506	1356.06
507.722	1313.06
507.939	1307.06
508.155	1255.06
508.372	1245.06
508.588	1265.06
508.805	1268.06
509.021	1236.06
509.238	1246.06
509.454	1231.06
509.67	1192.06
509.887	1219.06
510.103	1203.06
510.319	1190.06
510.536	1183.06
510.752	1171.06
510.968	1186.06
511.184	1190.06
511.401	1196.06
511.617	1190.06
511.833	1179.06
512.049	1185.06
512.265	1186.06
512.481	1190.06
512.698	1157.06
512.914	1172.06
513.13	1170.06
513.346	1185.06
513.562	1191.06
513.778	1178.06
513.994	1183.06
514.21	1208.06
514.426	1196.06
514.642	1222.06
514.858	1215.06
515.074	1227.06
515.29	1204.06
515.506	1236.06
515.721	1271.06
515.937	1310.06
516.153	1324.06
516.369	1344.06
516.585	1412.06
516.801	1429.06
517.016	1471.06
517.232	1547.06
517.448	1615.06
517.664	1698.06
517.879	1727.06
518.095	1717.06
518.311	1668.06
518.527	1612.06
518.742	1549.06
518.958	1465.06
519.173	1438.06
519.389	1395.06
519.605	1327.06
519.82	1288.06
520.036	1289.06
520.251	1200.06
520.467	1219.06
520.682	1216.06
520.898	1194.06
521.113	1192.06
521.329	1158.06
521.544	1174.06
521.76	1172.06
521.975	1126.06
522.19	1116.06
522.406	1131.06
522.621	1145.06
522.836	1115.06
523.052	1106.06
523.267	1111.06
523.482	1116.06
523.698	1092.06
523.913	1097.06
524.128	1097.06
524.343	1070.06
524.559	1092.06
524.774	1071.06
524.989	1084.06
525.204	1083.06
525.419	1077.06
525.634	1101.06
525.849	1099.06
526.064	1087.06
526.28	1063.06
526.495	1058.06
526.71	1031.06
526.925	1053.06
527.14	1087.06
527.355	1056.06
527.57	1034.06
527.785	1054.06
527.999	1053.06
528.214	1045.06
528.429	1075.06
528.644	1063.06
528.859	1065.06
529.074	1062.06
529.289	1059.06
529.503	1042.06
529.718	1028.06
529.933	1041.06
530.148	1055.06
530.363	1035.06
530.577	1043.06
530.792	1043.06
531.007	1048.06
531.221	1059.06
531.436	1057.06
531.651	1067.06
531.865	1057.06
532.08	1069.06
532.295	1058.06
532.509	1026.06
532.724	1066.06
532.938	1069.06
533.153	1072.06
533.367	1035.06
533.582	1047.06
533.796	1041.06
534.011	1042.06
534.225	1043.06
534.44	1046.06
534.654	1006.06
534.868	1049.06
535.083	1036.06
535.297	1024.06
535.511	1000.06
535.726	1011.06
535.94	1029.06
536.154	977.06
536.369	1005.06
536.583	959.06
536.797	994.06
537.011	973.06
537.225	961.06
537.44	964.06
537.654	978.06
537.868	953.06
538.082	967.06
538.296	942.06
538.51	940.06
538.724	962.06
538.938	961.06
539.153	939.06
539.367	941.06
539.581	931.06
539.795	952.06
540.009	967.06
540.222	936.06
540.436	954.06
540.65	919.06
540.864	944.06
541.078	925.06
541.292	947.06
541.506	936.06
541.72	921.06
541.934	939.06
542.147	939.06
542.361	931.06
542.575	915.06
542.789	951.06
543.002	926.06
543.216	909.06
543.43	931.06
543.644	915.06
543.857	915.06
544.071	923.06
544.285	953.06
544.498	938.06
544.712	921.06
544.925	954.06
545.139	976.06
545.352	937.06
545.566	1004.06
545.779	959.06
545.993	965.06
546.206	952.06
546.42	964.06
546.633	972.06
546.847	956.06
547.06	954.06
547.274	978.06
547.487	966.06
547.7	964.06
547.914	973.06
548.127	975.06
548.34	943.06
548.554	977.06
548.767	981.06
548.98	992.06
549.193	972.06
549.407	989.06
549.62	999.06
549.833	1010.06
550.046	991.06
550.259	1001.06
550.473	953.06
550.686	979.06
550.899	973.06
551.112	950.06
551.325	958.06
551.538	959.06
551.751	937.06
551.964	935.06
552.177	969.06
552.39	1006.06
552.603	1031.06
552.816	1025.06
553.029	1061.06
553.242	1078.06
553.455	1079.06
553.667	1092.06
553.88	1071.06
554.093	1026.06
554.306	971.06
554.519	968.06
554.732	958.06
554.944	947.06
555.157	934.06
555.37	884.06
555.583	941.06
555.795	903.06
556.008	865.06
556.221	842.06
556.433	850.06
556.646	832.06
556.859	839.06
557.071	835.06
557.284	822.06
557.496	815.06
557.709	828.06
557.921	810.06
558.134	817.06
558.346	804.06
558.559	817.06
558.771	795.06
558.984	803.06
559.196	801.06
559.409	803.06
559.621	790.06
559.833	810.06
560.046	783.06
560.258	769.06
560.47	791.06
560.683	763.06
560.895	791.06
561.107	759.06
561.32	789.06
561.532	812.06
561.744	791.06
561.956	778.06
562.168	763.06
562.381	800.06
562.593	802.06
562.805	772.06
563.017	793.06
563.229	827.06
563.441	795.06
563.653	807.06
563.865	781.06
564.077	795.06
564.289	800.06
564.501	847.06
564.713	847.06
564.925	869.06
565.137	883.06
565.349	925.06
565.561	932.06
565.773	981.06
565.985	1005.06
566.197	1080.06
566.408	1145.06
566.62	1222.06
566.832	1305.06
567.044	1339.06
567.255	1390.06
567.467	1440.06
567.679	1450.06
567.891	1545.06
568.102	1533.06
568.314	1477.06
568.526	1363.06
568.737	1265.06
568.949	1153.06
569.161	1048.06
569.372	972.06
569.584	920.06
569.795	881.06
570.007	876.06
570.218	833.06
570.43	825.06
570.641	805.06
570.853	835.06
571.064	861.06
571.276	825.06
571.487	825.06
571.698	772.06
571.91	742.06
572.121	740.06
572.333	723.06
572.544	682.06
572.755	701.06
572.966	691.06
573.178	666.06
573.389	678.06
573.6	648.06
573.811	657.06
574.023	688.06
574.234	663.06
574.445	650.06
574.656	655.06
574.867	652.06
575.078	651.06
575.289	645.06
575.501	635.06
575.712	635.06
575.923	613.06
576.134	611.06
576.345	625.06
576.556	625.06
576.767	604.06
576.978	620.06
577.188	616.06
577.399	610.06
577.61	600.06
577.821	602.06
578.032	570.06
578.243	578.06
578.454	580.06
578.665	595.06
578.875	568.06
579.086	559.06
579.297	585.06
579.508	573.06
579.718	583.06
579.929	572.06
580.14	541.06
580.35	546.06
580.561	531.06
580.772	550.06
580.982	548.06
581.193	548.06
581.403	557.06
581.614	538.06
581.825	529.06
582.035	526.06
582.246	541.06
582.456	521.06
582.667	521.06
582.877	513.06
583.087	533.06
583.298	532.06
583.508	541.06
583.719	526.06
583.929	546.06
584.139	549.06
584.35	553.06
584.56	523.06
584.77	498.06
584.981	488.06
585.191	539.06
585.401	516.06
585.611	500.06
585.821	511.06
586.032	519.06
586.242	512.06
586.452	508.06
586.662	516.06
586.872	483.06
587.082	519.06
587.292	516.06
587.502	533.06
587.713	518.06
587.923	519.06
588.133	505.06
588.343	518.06
588.553	507.06
588.762	496.06
588.972	530.06
589.182	542.06
589.392	535.06
589.602	514.06
589.812	523.06
590.022	526.06
590.232	515.06
590.441	523.06
590.651	535.06
590.861	492.06
591.071	531.06
591.281	535.06
591.49	529.06
591.7	565.06
591.91	570.06
592.119	561.06
592.329	593.06
592.539	611.06
592.748	631.06
592.958	604.06
593.167	665.06
593.377	660.06
593.587	664.06
593.796	663.06
594.006	674.06
594.215	661.06
594.424	652.06
594.634	665.06
594.843	631.06
595.053	608.06
595.262	613.06
595.472	563.06
595.681	544.06
595.89	549.06
596.1	535.06
596.309	528.06
596.518	495.06
596.727	497.06
596.937	475.06
597.146	476.06
597.355	469.06
597.564	466.06
597.774	452.06
597.983	448.06
598.192	456.06
598.401	455.06
598.61	445.06
598.819	449.06
599.028	439.06
599.237	410.06
599.446	455.06
599.655	442.06
599.864	444.06
600.073	429.06
600.282	443.06
600.491	436.06
600.7	408.06
600.909	416.06
601.118	428.06
601.327	419.06
601.536	427.06
601.745	427.06
601.953	398.06
602.162	418.06
602.371	398.06
602.58	401.06
602.789	402.06
602.997	410.06
603.206	416.06
603.415	415.06
603.623	412.06
603.832	397.06
604.041	403.06
604.249	398.06
604.458	419.06
604.666	407.06
604.875	389.06
605.084	389.06
605.292	373.06
605.501	385.06
605.709	387.06
605.918	387.06
606.126	408.06
606.334	387.06
606.543	402.06
606.751	385.06
606.96	381.06
607.168	400.06
607.376	394.06
607.585	406.06
607.793	392.06
608.001	378.06
608.21	375.06
608.418	378.06
608.626	368.06
608.834	366.06
609.043	360.06
609.251	372.06
609.459	374.06
609.667	378.06
609.875	365.06
610.083	379.06
610.291	354.06
610.499	393.06
610.707	357.06
610.916	367.06
611.124	332.06
611.332	362.06
611.54	375.06
611.748	364.06
611.955	365.06
612.163	356.06
612.371	348.06
612.579	366.06
612.787	353.06
612.995	358.06
613.203	371.06
613.411	357.06
613.618	344.06
613.826	356.06
614.034	372.06
614.242	367.06
614.449	355.06
614.657	354.06
614.865	367.06
615.072	363.06
615.28	361.06
615.488	354.06
615.695	354.06
615.903	341.06
616.111	349.06
616.318	356.06
616.526	355.06
616.733	346.06
616.941	370.06
617.148	351.06
617.356	345.06
617.563	350.06
617.771	366.06
617.978	364.06
618.185	351.06
618.393	339.06
618.6	346.06
618.807	341.06
619.015	365.06
619.222	370.06
619.429	345.06
619.637	339.06
619.844	340.06
620.051	329.06
620.258	322.06
620.466	317.06
620.673	333.06
620.88	327.06
621.087	342.06
621.294	341.06
621.501	330.06
621.708	336.06
621.915	331.06
622.122	324.06
622.329	325.06
622.536	332.06
622.743	338.06
622.95	336.06
623.157	316.06
623.364	325.06
623.571	318.06
623.778	314.06
623.985	323.06
624.192	319.06
624.399	320.06
624.606	322.06
624.812	304.06
625.019	326.06
625.226	298.06
625.433	308.06
625.639	299.06
625.846	311.06
626.053	299.06
626.259	316.06
626.466	298.06
626.673	295.06
626.879	294.06
627.086	304.06
627.293	298.06
627.499	289.06
627.706	315.06
627.912	287.06
628.119	299.06
628.325	289.06
628.532	283.06
628.738	293.06
628.945	300.06
629.151	284.06
629.357	283.06
629.564	284.06
629.77	290.06
629.976	279.06
630.183	269.06
630.389	287.06
630.595	266.06
630.802	273.06
631.008	269.06
631.214	278.06
631.42	275.06
631.627	269.06
631.833	279.06
632.039	277.06
632.245	268.06
632.451	263.06
632.657	259.06
632.863	265.06
633.069	276.06
633.275	265.06
633.481	260.06
633.688	283.06
633.893	265.06
634.099	268.06
634.305	271.06
634.511	262.06
634.717	247.06
634.923	272.06
635.129	257.06
635.335	258.06
635.541	261.06
635.747	259.06
635.952	270.06
636.158	257.06
636.364	254.06
636.57	261.06
636.775	223.06
636.981	237.06
637.187	258.06
637.392	232.06
637.598	223.06
637.804	229.06
638.009	253.06
638.215	259.06
638.421	249.06
638.626	245.06
638.832	256.06
639.037	245.06
639.243	241.06
639.448	239.06
639.654	248.06
639.859	226.06
640.065	228.06
640.27	237.06
640.475	239.06
640.681	222.06
640.886	233.06
641.091	236.06
641.297	241.06
641.502	229.06
641.707	241.06
641.913	239.06
642.118	236.06
642.323	233.06
642.528	237.06
642.733	236.06
642.939	232.06
643.144	232.06
643.349	243.06
643.554	222.06
643.759	215.06
643.964	203.06
644.169	234.06
644.374	212.06
644.579	220.06
644.784	206.06
644.989	227.06
645.194	226.06
645.399	216.06
645.604	220.06
645.809	220.06
646.014	214.06
646.219	229.06
646.423	225.06
646.628	222.06
646.833	237.06
647.038	228.06
647.243	213.06
647.447	208.06
647.652	244.06
647.857	219.06
648.062	235.06
648.266	233.06
648.471	235.06
648.676	224.06
648.88	244.06
649.085	223.06
649.289	247.06
649.494	208.06
649.698	207.06
649.903	212.06
650.107	218.06
650.312	213.06
650.516	207.06
650.721	215.06
650.925	211.06
651.13	210.06
651.334	210.06
651.539	189.06
651.743	204.06
651.947	188.06
652.152	169.06
652.356	179.06
652.56	187.06
652.764	172.06
652.969	183.06
653.173	176.06
653.377	163.06
653.581	172.06
653.785	156.06
653.99	157.06
654.194	166.06
654.398	160.06
654.602	169.06
654.806	159.06
655.01	155.06
655.214	163.06
655.418	160.06
655.622	151.06
655.826	155.06
656.03	153.06
656.234	145.06
656.438	155.06
656.642	157.06
656.846	138.06
657.049	154.06
657.253	147.06
657.457	132.06
657.661	127.06
657.865	125.06
658.068	143.06
658.272	129.06
658.476	131.06
658.68	109.06
658.883	107.06
659.087	124.06
659.291	124.06
659.494	117.06
659.698	98.06
659.901	102.06
660.105	112.06
660.309	98.06
660.512	92.06
660.716	98.06
660.919	95.06
661.123	99.06
661.326	95.06
661.53	92.06
661.733	101.06
661.936	89.06
662.14	96.06
662.343	87.06
662.546	91.06
662.75	87.06
662.953	97.06
663.156	70.06
663.36	91.06
663.563	66.06
663.766	67.06
663.969	97.06
664.173	84.06
664.376	75.06
664.579	81.06
664.782	74.06
664.985	99.06
665.188	82.06
665.391	81.06
665.594	79.06
665.797	85.06
666	83.06
666.203	89.06
666.406	83.06
666.609	94.06
666.812	83.06
667.015	87.06
667.218	89.06
667.421	87.06
667.624	82.06
667.827	92.06
668.03	75.06
668.232	75.06
668.435	92.06
668.638	88.06
668.841	68.06
669.043	85.06
669.246	85.06
669.449	93.06
669.651	90.06
669.854	64.06
670.057	87.06
670.259	88.06
670.462	89.06
670.665	72.06
670.867	89.06
671.07	92.06
671.272	103.06
671.475	85.06
671.677	79.06
671.88	80.06
672.082	81.06
672.284	75.06
672.487	73.06
672.689	86.06
672.892	78.06
