Data from NiCl2@0.0625M.TitratingCurve.Agarose3%dH2O.NegLispCup.LampEnergy10.LIBS07252019_HRD10591_18-32-22-576.txt Node
Date: Thu Jul 25 18:32:22 EDT 2019
User: cochatt
Spectrometer: HR+D1059
Trigger mode: 1
Integration Time (sec): 1.000000E-1
Scans to average: 1
Electric dark correction enabled: true
Nonlinearity correction enabled: false
Boxcar width: 0
XAxis mode: Wavelengths
Number of Pixels in Spectrum: 2048
>>>>>Begin Spectral Data<<<<<
223.165	-16.88
223.4	-16.88
223.635	-16.88
223.869	-22.88
224.104	-24.88
224.338	-14.88
224.573	-22.88
224.808	-6.88
225.042	3.12
225.277	9.12
225.511	-22.88
225.746	8.12
225.98	15.12
226.215	16.12
226.449	23.12
226.683	18.12
226.918	26.12
227.152	13.12
227.387	31.12
227.621	23.12
227.856	31.12
228.09	46.12
228.324	45.12
228.559	55.12
228.793	81.12
229.027	168.12
229.262	161.12
229.496	173.12
229.73	183.12
229.964	182.12
230.199	211.12
230.433	183.12
230.667	201.12
230.901	206.12
231.136	194.12
231.37	193.12
231.604	198.12
231.838	191.12
232.072	218.12
232.306	219.12
232.541	218.12
232.775	229.12
233.009	207.12
233.243	219.12
233.477	210.12
233.711	221.12
233.945	232.12
234.179	235.12
234.413	223.12
234.647	236.12
234.881	227.12
235.115	229.12
235.349	231.12
235.583	243.12
235.817	265.12
236.051	247.12
236.285	260.12
236.519	238.12
236.753	245.12
236.987	254.12
237.221	266.12
237.455	271.12
237.689	251.12
237.922	272.12
238.156	259.12
238.39	267.12
238.624	270.12
238.858	273.12
239.091	265.12
239.325	299.12
239.559	301.12
239.793	287.12
240.027	304.12
240.26	271.12
240.494	269.12
240.728	299.12
240.961	289.12
241.195	311.12
241.429	292.12
241.662	317.12
241.896	321.12
242.13	308.12
242.363	335.12
242.597	324.12
242.83	327.12
243.064	327.12
243.298	329.12
243.531	366.12
243.765	351.12
243.998	335.12
244.232	372.12
244.465	362.12
244.699	377.12
244.932	354.12
245.166	389.12
245.399	373.12
245.633	365.12
245.866	369.12
246.099	355.12
246.333	373.12
246.566	385.12
246.8	377.12
247.033	382.12
247.266	395.12
247.5	395.12
247.733	401.12
247.966	418.12
248.2	436.12
248.433	437.12
248.666	418.12
248.899	427.12
249.133	414.12
249.366	430.12
249.599	440.12
249.832	419.12
250.066	417.12
250.299	424.12
250.532	446.12
250.765	453.12
250.998	432.12
251.231	469.12
251.465	450.12
251.698	476.12
251.931	482.12
252.164	470.12
252.397	465.12
252.63	488.12
252.863	476.12
253.096	478.12
253.329	482.12
253.562	481.12
253.795	480.12
254.028	496.12
254.261	499.12
254.494	488.12
254.727	505.12
254.96	489.12
255.193	498.12
255.426	508.12
255.659	509.12
255.892	522.12
256.124	514.12
256.357	526.12
256.59	522.12
256.823	509.12
257.056	547.12
257.289	533.12
257.521	560.12
257.754	532.12
257.987	515.12
258.22	533.12
258.452	536.12
258.685	524.12
258.918	546.12
259.151	548.12
259.383	565.12
259.616	548.12
259.849	564.12
260.081	553.12
260.314	584.12
260.547	564.12
260.779	564.12
261.012	571.12
261.244	581.12
261.477	585.12
261.71	615.12
261.942	593.12
262.175	615.12
262.407	589.12
262.64	576.12
262.872	591.12
263.105	604.12
263.337	587.12
263.57	614.12
263.802	617.12
264.035	606.12
264.267	623.12
264.499	614.12
264.732	613.12
264.964	634.12
265.197	627.12
265.429	615.12
265.661	605.12
265.894	640.12
266.126	648.12
266.358	629.12
266.591	639.12
266.823	640.12
267.055	663.12
267.287	649.12
267.52	651.12
267.752	665.12
267.984	667.12
268.216	660.12
268.448	680.12
268.681	678.12
268.913	663.12
269.145	680.12
269.377	671.12
269.609	696.12
269.841	693.12
270.073	697.12
270.306	719.12
270.538	668.12
270.77	702.12
271.002	689.12
271.234	707.12
271.466	710.12
271.698	723.12
271.93	723.12
272.162	716.12
272.394	721.12
272.626	729.12
272.858	715.12
273.09	733.12
273.322	733.12
273.553	740.12
273.785	754.12
274.017	742.12
274.249	756.12
274.481	768.12
274.713	757.12
274.945	760.12
275.176	758.12
275.408	777.12
275.64	769.12
275.872	790.12
276.104	763.12
276.335	782.12
276.567	770.12
276.799	787.12
277.031	798.12
277.262	801.12
277.494	803.12
277.726	792.12
277.957	806.12
278.189	802.12
278.421	804.12
278.652	815.12
278.884	834.12
279.115	837.12
279.347	838.12
279.579	850.12
279.81	829.12
280.042	824.12
280.273	843.12
280.505	848.12
280.736	827.12
280.968	863.12
281.199	848.12
281.431	865.12
281.662	864.12
281.894	889.12
282.125	843.12
282.356	874.12
282.588	870.12
282.819	900.12
283.051	900.12
283.282	863.12
283.513	881.12
283.745	887.12
283.976	909.12
284.207	907.12
284.439	872.12
284.67	913.12
284.901	925.12
285.132	920.12
285.364	923.12
285.595	904.12
285.826	896.12
286.057	903.12
286.288	921.12
286.52	919.12
286.751	957.12
286.982	944.12
287.213	951.12
287.444	931.12
287.675	950.12
287.906	924.12
288.138	940.12
288.369	949.12
288.6	981.12
288.831	952.12
289.062	954.12
289.293	944.12
289.524	936.12
289.755	949.12
289.986	967.12
290.217	936.12
290.448	983.12
290.679	944.12
290.91	964.12
291.141	989.12
291.371	989.12
291.602	996.12
291.833	977.12
292.064	982.12
292.295	965.12
292.526	1001.12
292.757	980.12
292.987	1000.12
293.218	946.12
293.449	979.12
293.68	972.12
293.91	989.12
294.141	1009.12
294.372	989.12
294.603	996.12
294.833	984.12
295.064	997.12
295.295	1024.12
295.525	978.12
295.756	1006.12
295.987	991.12
296.217	999.12
296.448	1005.12
296.679	1008.12
296.909	1016.12
297.14	1009.12
297.37	1032.12
297.601	1034.12
297.831	1058.12
298.062	1059.12
298.292	1041.12
298.523	1073.12
298.753	1114.12
298.984	1060.12
299.214	1057.12
299.445	1045.12
299.675	1057.12
299.905	1082.12
300.136	1058.12
300.366	1096.12
300.597	1086.12
300.827	1086.12
301.057	1102.12
301.288	1094.12
301.518	1099.12
301.748	1123.12
301.979	1123.12
302.209	1133.12
302.439	1127.12
302.669	1141.12
302.9	1103.12
303.13	1113.12
303.36	1111.12
303.59	1135.12
303.82	1113.12
304.051	1113.12
304.281	1088.12
304.511	1102.12
304.741	1111.12
304.971	1107.12
305.201	1112.12
305.431	1110.12
305.661	1122.12
305.891	1126.12
306.121	1061.12
306.352	1137.12
306.582	1112.12
306.812	1101.12
307.042	1114.12
307.272	1098.12
307.502	1074.12
307.731	1109.12
307.961	1129.12
308.191	1100.12
308.421	1112.12
308.651	1105.12
308.881	1089.12
309.111	1093.12
309.341	1089.12
309.571	1135.12
309.8	1122.12
310.03	1096.12
310.26	1119.12
310.49	1117.12
310.72	1110.12
310.949	1141.12
311.179	1149.12
311.409	1135.12
311.639	1162.12
311.868	1162.12
312.098	1158.12
312.328	1149.12
312.557	1187.12
312.787	1148.12
313.017	1181.12
313.246	1170.12
313.476	1156.12
313.706	1189.12
313.935	1218.12
314.165	1191.12
314.394	1201.12
314.624	1194.12
314.853	1185.12
315.083	1214.12
315.312	1222.12
315.542	1202.12
315.771	1202.12
316.001	1146.12
316.23	1191.12
316.46	1175.12
316.689	1194.12
316.919	1171.12
317.148	1172.12
317.377	1181.12
317.607	1172.12
317.836	1181.12
318.065	1165.12
318.295	1174.12
318.524	1189.12
318.753	1180.12
318.983	1197.12
319.212	1179.12
319.441	1157.12
319.67	1185.12
319.9	1165.12
320.129	1192.12
320.358	1189.12
320.587	1182.12
320.816	1213.12
321.046	1175.12
321.275	1186.12
321.504	1210.12
321.733	1204.12
321.962	1189.12
322.191	1174.12
322.42	1215.12
322.649	1208.12
322.878	1211.12
323.108	1207.12
323.337	1215.12
323.566	1225.12
323.795	1224.12
324.024	1246.12
324.253	1223.12
324.482	1251.12
324.71	1221.12
324.939	1231.12
325.168	1295.12
325.397	1240.12
325.626	1244.12
325.855	1280.12
326.084	1337.12
326.313	1306.12
326.542	1286.12
326.77	1331.12
326.999	1281.12
327.228	1299.12
327.457	1281.12
327.686	1313.12
327.914	1302.12
328.143	1309.12
328.372	1294.12
328.6	1281.12
328.829	1292.12
329.058	1270.12
329.287	1312.12
329.515	1322.12
329.744	1285.12
329.972	1316.12
330.201	1301.12
330.43	1330.12
330.658	1308.12
330.887	1343.12
331.115	1341.12
331.344	1381.12
331.572	1400.12
331.801	1415.12
332.03	1418.12
332.258	1426.12
332.486	1458.12
332.715	1512.12
332.943	1540.12
333.172	1552.12
333.4	1614.12
333.629	1632.12
333.857	1693.12
334.085	1662.12
334.314	1675.12
334.542	1654.12
334.771	1661.12
334.999	1599.12
335.227	1603.12
335.455	1604.12
335.684	1603.12
335.912	1612.12
336.14	1569.12
336.369	1551.12
336.597	1572.12
336.825	1511.12
337.053	1545.12
337.281	1526.12
337.51	1471.12
337.738	1488.12
337.966	1430.12
338.194	1458.12
338.422	1421.12
338.65	1433.12
338.878	1401.12
339.106	1433.12
339.334	1430.12
339.562	1418.12
339.79	1417.12
340.018	1360.12
340.246	1346.12
340.474	1351.12
340.702	1345.12
340.93	1360.12
341.158	1361.12
341.386	1403.12
341.614	1401.12
341.842	1374.12
342.07	1321.12
342.298	1389.12
342.526	1322.12
342.754	1346.12
342.981	1349.12
343.209	1427.12
343.437	1426.12
343.665	1535.12
343.893	1573.12
344.12	1610.12
344.348	1594.12
344.576	1503.12
344.804	1495.12
345.031	1449.12
345.259	1383.12
345.487	1382.12
345.714	1343.12
345.942	1369.12
346.17	1336.12
346.397	1341.12
346.625	1320.12
346.853	1306.12
347.08	1313.12
347.308	1291.12
347.535	1286.12
347.763	1291.12
347.99	1298.12
348.218	1326.12
348.445	1317.12
348.673	1290.12
348.9	1290.12
349.128	1307.12
349.355	1308.12
349.583	1283.12
349.81	1288.12
350.037	1252.12
350.265	1249.12
350.492	1258.12
350.72	1282.12
350.947	1266.12
351.174	1274.12
351.402	1289.12
351.629	1261.12
351.856	1240.12
352.083	1258.12
352.311	1231.12
352.538	1266.12
352.765	1255.12
352.992	1246.12
353.22	1233.12
353.447	1247.12
353.674	1261.12
353.901	1219.12
354.128	1257.12
354.355	1223.12
354.583	1223.12
354.81	1266.12
355.037	1268.12
355.264	1238.12
355.491	1269.12
355.718	1260.12
355.945	1230.12
356.172	1251.12
356.399	1256.12
356.626	1261.12
356.853	1286.12
357.08	1242.12
357.307	1237.12
357.534	1266.12
357.761	1305.12
357.988	1276.12
358.215	1258.12
358.441	1252.12
358.668	1289.12
358.895	1269.12
359.122	1304.12
359.349	1290.12
359.576	1244.12
359.802	1241.12
360.029	1228.12
360.256	1259.12
360.483	1244.12
360.709	1249.12
360.936	1275.12
361.163	1282.12
361.39	1241.12
361.616	1298.12
361.843	1280.12
362.07	1239.12
362.296	1270.12
362.523	1279.12
362.749	1259.12
362.976	1262.12
363.203	1237.12
363.429	1273.12
363.656	1275.12
363.882	1240.12
364.109	1225.12
364.335	1247.12
364.562	1252.12
364.788	1231.12
365.015	1253.12
365.241	1258.12
365.468	1265.12
365.694	1267.12
365.92	1275.12
366.147	1238.12
366.373	1259.12
366.599	1232.12
366.826	1248.12
367.052	1242.12
367.278	1225.12
367.505	1282.12
367.731	1310.12
367.957	1292.12
368.184	1275.12
368.41	1306.12
368.636	1325.12
368.862	1310.12
369.089	1313.12
369.315	1297.12
369.541	1297.12
369.767	1288.12
369.993	1291.12
370.219	1316.12
370.445	1321.12
370.672	1328.12
370.898	1327.12
371.124	1362.12
371.35	1389.12
371.576	1384.12
371.802	1358.12
372.028	1376.12
372.254	1361.12
372.48	1373.12
372.706	1406.12
372.932	1425.12
373.158	1401.12
373.384	1430.12
373.61	1389.12
373.835	1384.12
374.061	1389.12
374.287	1391.12
374.513	1394.12
374.739	1432.12
374.965	1443.12
375.191	1485.12
375.416	1491.12
375.642	1445.12
375.868	1438.12
376.094	1376.12
376.319	1416.12
376.545	1427.12
376.771	1354.12
376.997	1358.12
377.222	1325.12
377.448	1355.12
377.674	1373.12
377.899	1346.12
378.125	1322.12
378.35	1395.12
378.576	1335.12
378.802	1319.12
379.027	1357.12
379.253	1382.12
379.478	1353.12
379.704	1366.12
379.929	1376.12
380.155	1332.12
380.38	1348.12
380.606	1364.12
380.831	1367.12
381.057	1342.12
381.282	1378.12
381.507	1364.12
381.733	1362.12
381.958	1371.12
382.184	1409.12
382.409	1403.12
382.634	1465.12
382.86	1430.12
383.085	1421.12
383.31	1451.12
383.535	1496.12
383.761	1473.12
383.986	1508.12
384.211	1531.12
384.436	1555.12
384.662	1591.12
384.887	1574.12
385.112	1571.12
385.337	1630.12
385.562	1616.12
385.787	1626.12
386.013	1673.12
386.238	1675.12
386.463	1653.12
386.688	1670.12
386.913	1621.12
387.138	1640.12
387.363	1616.12
387.588	1602.12
387.813	1622.12
388.038	1603.12
388.263	1614.12
388.488	1637.12
388.713	1624.12
388.938	1608.12
389.163	1600.12
389.387	1632.12
389.612	1592.12
389.837	1623.12
390.062	1619.12
390.287	1592.12
390.512	1608.12
390.736	1643.12
390.961	1667.12
391.186	1637.12
391.411	1696.12
391.636	1749.12
391.86	1780.12
392.085	1820.12
392.31	1797.12
392.534	1815.12
392.759	1759.12
392.984	1734.12
393.208	1731.12
393.433	1736.12
393.658	1754.12
393.882	1707.12
394.107	1711.12
394.331	1735.12
394.556	1681.12
394.78	1749.12
395.005	1745.12
395.229	1736.12
395.454	1807.12
395.678	1821.12
395.903	1809.12
396.127	1807.12
396.352	1743.12
396.576	1731.12
396.801	1721.12
397.025	1775.12
397.249	1788.12
397.474	1809.12
397.698	1871.12
397.922	1816.12
398.147	1810.12
398.371	1880.12
398.595	1948.12
398.82	2019.12
399.044	2160.12
399.268	2341.12
399.492	2576.12
399.717	2802.12
399.941	2811.12
400.165	2593.12
400.389	2438.12
400.613	2296.12
400.837	2195.12
401.062	2093.12
401.286	2086.12
401.51	2056.12
401.734	1974.12
401.958	2088.12
402.182	2037.12
402.406	2066.12
402.63	2075.12
402.854	2083.12
403.078	2115.12
403.302	2134.12
403.526	2175.12
403.75	2175.12
403.974	2228.12
404.198	2235.12
404.422	2219.12
404.645	2173.12
404.869	2207.12
405.093	2176.12
405.317	2198.12
405.541	2193.12
405.765	2185.12
405.988	2175.12
406.212	2175.12
406.436	2165.12
406.66	2255.12
406.883	2241.12
407.107	2426.12
407.331	2463.12
407.555	2557.12
407.778	2500.12
408.002	2490.12
408.226	2409.12
408.449	2378.12
408.673	2309.12
408.896	2293.12
409.12	2239.12
409.344	2253.12
409.567	2238.12
409.791	2234.12
410.014	2186.12
410.238	2191.12
410.461	2181.12
410.685	2201.12
410.908	2120.12
411.132	2116.12
411.355	2081.12
411.578	2057.12
411.802	2094.12
412.025	2108.12
412.249	2136.12
412.472	2132.12
412.695	2081.12
412.919	2030.12
413.142	2019.12
413.365	2019.12
413.589	2035.12
413.812	2044.12
414.035	1987.12
414.258	2031.12
414.482	2046.12
414.705	2041.12
414.928	2035.12
415.151	2020.12
415.374	1997.12
415.597	2015.12
415.821	1949.12
416.044	1947.12
416.267	1927.12
416.49	1948.12
416.713	1898.12
416.936	1954.12
417.159	1946.12
417.382	1922.12
417.605	1944.12
417.828	1974.12
418.051	2005.12
418.274	1912.12
418.497	1963.12
418.72	1981.12
418.943	1941.12
419.166	2120.12
419.389	2271.12
419.611	2154.12
419.834	2082.12
420.057	2046.12
420.28	1999.12
420.503	1949.12
420.726	1929.12
420.948	1867.12
421.171	1895.12
421.394	1953.12
421.617	1924.12
421.839	1954.12
422.062	1976.12
422.285	1886.12
422.507	1929.12
422.73	1951.12
422.953	1975.12
423.175	2003.12
423.398	2001.12
423.621	1959.12
423.843	2004.12
424.066	2015.12
424.288	2011.12
424.511	1968.12
424.733	2009.12
424.956	1942.12
425.178	1930.12
425.401	1975.12
425.623	1922.12
425.846	1917.12
426.068	1901.12
426.291	1898.12
426.513	1875.12
426.735	1815.12
426.958	1860.12
427.18	1820.12
427.402	1841.12
427.625	1843.12
427.847	1779.12
428.069	1755.12
428.292	1811.12
428.514	1758.12
428.736	1774.12
428.958	1766.12
429.181	1755.12
429.403	1742.12
429.625	1763.12
429.847	1744.12
430.069	1725.12
430.292	1774.12
430.514	1693.12
430.736	1754.12
430.958	1736.12
431.18	1737.12
431.402	1784.12
431.624	1744.12
431.846	1782.12
432.068	1814.12
432.29	1806.12
432.512	1778.12
432.734	1786.12
432.956	1770.12
433.178	1789.12
433.4	1790.12
433.622	1833.12
433.844	1841.12
434.066	1802.12
434.287	1848.12
434.509	1902.12
434.731	1958.12
434.953	1955.12
435.175	1967.12
435.397	1905.12
435.618	1891.12
435.84	1832.12
436.062	1802.12
436.284	1807.12
436.505	1789.12
436.727	1766.12
436.949	1793.12
437.17	1789.12
437.392	1740.12
437.614	1712.12
437.835	1700.12
438.057	1684.12
438.278	1673.12
438.5	1674.12
438.721	1669.12
438.943	1686.12
439.165	1723.12
439.386	1721.12
439.608	1723.12
439.829	1709.12
440.05	1707.12
440.272	1762.12
440.493	1745.12
440.715	1794.12
440.936	1785.12
441.158	1828.12
441.379	1847.12
441.6	1877.12
441.822	1928.12
442.043	1909.12
442.264	1896.12
442.486	1835.12
442.707	1885.12
442.928	1869.12
443.149	1930.12
443.371	1912.12
443.592	1941.12
443.813	1901.12
444.034	1904.12
444.255	1991.12
444.476	2085.12
444.698	2218.12
444.919	2201.12
445.14	2212.12
445.361	2138.12
445.582	2017.12
445.803	1903.12
446.024	1843.12
446.245	1845.12
446.466	1815.12
446.687	1790.12
446.908	1757.12
447.129	1741.12
447.35	1694.12
447.571	1676.12
447.792	1616.12
448.013	1626.12
448.234	1632.12
448.455	1609.12
448.675	1624.12
448.896	1595.12
449.117	1552.12
449.338	1618.12
449.559	1615.12
449.779	1575.12
450	1562.12
450.221	1591.12
450.442	1557.12
450.662	1573.12
450.883	1594.12
451.104	1623.12
451.324	1571.12
451.545	1602.12
451.766	1598.12
451.986	1593.12
452.207	1555.12
452.428	1569.12
452.648	1577.12
452.869	1502.12
453.089	1506.12
453.31	1550.12
453.53	1524.12
453.751	1533.12
453.971	1510.12
454.192	1487.12
454.412	1472.12
454.633	1486.12
454.853	1494.12
455.073	1487.12
455.294	1486.12
455.514	1468.12
455.734	1487.12
455.955	1462.12
456.175	1484.12
456.395	1479.12
456.616	1474.12
456.836	1505.12
457.056	1474.12
457.276	1471.12
457.497	1511.12
457.717	1495.12
457.937	1516.12
458.157	1536.12
458.377	1552.12
458.598	1553.12
458.818	1632.12
459.038	1656.12
459.258	1679.12
459.478	1783.12
459.698	1825.12
459.918	1823.12
460.138	1897.12
460.358	1919.12
460.578	1980.12
460.798	1996.12
461.018	2035.12
461.238	2013.12
461.458	2009.12
461.678	1987.12
461.898	2019.12
462.118	2064.12
462.338	2135.12
462.558	2195.12
462.777	2257.12
462.997	2391.12
463.217	2494.12
463.437	2582.12
463.657	2383.12
463.876	2344.12
464.096	2305.12
464.316	2315.12
464.536	2312.12
464.755	2230.12
464.975	2147.12
465.195	2051.12
465.414	1989.12
465.634	1869.12
465.854	1793.12
466.073	1758.12
466.293	1765.12
466.512	1734.12
466.732	1658.12
466.951	1668.12
467.171	1643.12
467.391	1723.12
467.61	1687.12
467.829	1632.12
468.049	1640.12
468.268	1595.12
468.488	1605.12
468.707	1584.12
468.927	1609.12
469.146	1591.12
469.365	1608.12
469.585	1584.12
469.804	1664.12
470.023	1685.12
470.243	1689.12
470.462	1685.12
470.681	1689.12
470.901	1701.12
471.12	1709.12
471.339	1666.12
471.558	1647.12
471.777	1648.12
471.997	1639.12
472.216	1623.12
472.435	1654.12
472.654	1559.12
472.873	1579.12
473.092	1583.12
473.311	1598.12
473.53	1581.12
473.749	1582.12
473.968	1582.12
474.187	1616.12
474.406	1581.12
474.625	1594.12
474.844	1589.12
475.063	1592.12
475.282	1635.12
475.501	1612.12
475.72	1657.12
475.939	1639.12
476.158	1656.12
476.377	1672.12
476.596	1687.12
476.814	1699.12
477.033	1686.12
477.252	1735.12
477.471	1737.12
477.69	1817.12
477.908	1861.12
478.127	1867.12
478.346	1890.12
478.564	1951.12
478.783	1937.12
479.002	2025.12
479.22	2011.12
479.439	1998.12
479.658	2005.12
479.876	2007.12
480.095	2038.12
480.313	2083.12
480.532	2150.12
480.751	2138.12
480.969	2066.12
481.188	2033.12
481.406	1987.12
481.624	1990.12
481.843	1901.12
482.061	1920.12
482.28	1928.12
482.498	1955.12
482.717	1938.12
482.935	1918.12
483.153	1941.12
483.372	1944.12
483.59	1964.12
483.808	1988.12
484.027	1972.12
484.245	2027.12
484.463	1999.12
484.681	2066.12
484.9	2065.12
485.118	2054.12
485.336	2047.12
485.554	2090.12
485.772	2110.12
485.99	2050.12
486.209	2090.12
486.427	2070.12
486.645	2036.12
486.863	2087.12
487.081	2062.12
487.299	2022.12
487.517	2078.12
487.735	2026.12
487.953	2080.12
488.171	1997.12
488.389	2017.12
488.607	2030.12
488.825	2023.12
489.043	1996.12
489.261	1993.12
489.479	2010.12
489.696	2023.12
489.914	2014.12
490.132	2007.12
490.35	2019.12
490.568	1977.12
490.786	2006.12
491.003	1966.12
491.221	1950.12
491.439	2006.12
491.657	1979.12
491.874	1989.12
492.092	1947.12
492.31	1994.12
492.527	2019.12
492.745	1992.12
492.963	2020.12
493.18	2004.12
493.398	2042.12
493.615	2013.12
493.833	2038.12
494.05	2053.12
494.268	2024.12
494.485	2090.12
494.703	2046.12
494.92	2036.12
495.138	2058.12
495.355	2032.12
495.573	2080.12
495.79	2087.12
496.008	2107.12
496.225	2113.12
496.442	2152.12
496.66	2177.12
496.877	2164.12
497.094	2216.12
497.312	2253.12
497.529	2270.12
497.746	2339.12
497.963	2403.12
498.181	2478.12
498.398	2549.12
498.615	2712.12
498.832	2880.12
499.049	3092.12
499.267	3279.12
499.484	3564.12
499.701	3785.12
499.918	4087.12
500.135	4613.12
500.352	5034.12
500.569	5137.12
500.786	5101.12
501.003	4865.12
501.22	4559.12
501.437	4101.12
501.654	3719.12
501.871	3440.12
502.088	3159.12
502.305	2993.12
502.522	2913.12
502.739	2756.12
502.956	2628.12
503.172	2520.12
503.389	2398.12
503.606	2371.12
503.823	2320.12
504.04	2303.12
504.256	2333.12
504.473	2328.12
504.69	2307.12
504.907	2240.12
505.123	2178.12
505.34	2110.12
505.557	2016.12
505.773	1974.12
505.99	1935.12
506.207	1899.12
506.423	1866.12
506.64	1831.12
506.856	1811.12
507.073	1808.12
507.289	1789.12
507.506	1752.12
507.722	1750.12
507.939	1740.12
508.155	1717.12
508.372	1702.12
508.588	1670.12
508.805	1662.12
509.021	1629.12
509.238	1661.12
509.454	1624.12
509.67	1636.12
509.887	1591.12
510.103	1608.12
510.319	1608.12
510.536	1574.12
510.752	1610.12
510.968	1581.12
511.184	1560.12
511.401	1604.12
511.617	1567.12
511.833	1582.12
512.049	1575.12
512.265	1610.12
512.481	1570.12
512.698	1573.12
512.914	1601.12
513.13	1588.12
513.346	1589.12
513.562	1568.12
513.778	1617.12
513.994	1621.12
514.21	1601.12
514.426	1594.12
514.642	1617.12
514.858	1607.12
515.074	1626.12
515.29	1666.12
515.506	1643.12
515.721	1657.12
515.937	1717.12
516.153	1718.12
516.369	1784.12
516.585	1800.12
516.801	1834.12
517.016	1895.12
517.232	1965.12
517.448	2062.12
517.664	2071.12
517.879	2096.12
518.095	2083.12
518.311	2051.12
518.527	2014.12
518.742	1919.12
518.958	1872.12
519.173	1838.12
519.389	1787.12
519.605	1687.12
519.82	1701.12
520.036	1667.12
520.251	1578.12
520.467	1612.12
520.682	1570.12
520.898	1610.12
521.113	1557.12
521.329	1557.12
521.544	1535.12
521.76	1479.12
521.975	1504.12
522.19	1520.12
522.406	1503.12
522.621	1463.12
522.836	1499.12
523.052	1481.12
523.267	1471.12
523.482	1459.12
523.698	1439.12
523.913	1441.12
524.128	1417.12
524.343	1450.12
524.559	1441.12
524.774	1435.12
524.989	1479.12
525.204	1405.12
525.419	1429.12
525.634	1382.12
525.849	1410.12
526.064	1446.12
526.28	1394.12
526.495	1393.12
526.71	1409.12
526.925	1402.12
527.14	1427.12
527.355	1411.12
527.57	1405.12
527.785	1363.12
527.999	1402.12
528.214	1395.12
528.429	1382.12
528.644	1411.12
528.859	1397.12
529.074	1403.12
529.289	1402.12
529.503	1391.12
529.718	1410.12
529.933	1414.12
530.148	1390.12
530.363	1394.12
530.577	1374.12
530.792	1364.12
531.007	1360.12
531.221	1396.12
531.436	1378.12
531.651	1407.12
531.865	1385.12
532.08	1398.12
532.295	1369.12
532.509	1349.12
532.724	1382.12
532.938	1391.12
533.153	1389.12
533.367	1366.12
533.582	1365.12
533.796	1360.12
534.011	1363.12
534.225	1389.12
534.44	1358.12
534.654	1353.12
534.868	1350.12
535.083	1359.12
535.297	1321.12
535.511	1319.12
535.726	1319.12
535.94	1319.12
536.154	1274.12
536.369	1268.12
536.583	1265.12
536.797	1280.12
537.011	1285.12
537.225	1255.12
537.44	1262.12
537.654	1284.12
537.868	1286.12
538.082	1249.12
538.296	1267.12
538.51	1273.12
538.724	1268.12
538.938	1268.12
539.153	1230.12
539.367	1247.12
539.581	1258.12
539.795	1235.12
540.009	1245.12
540.222	1261.12
540.436	1255.12
540.65	1226.12
540.864	1207.12
541.078	1207.12
541.292	1239.12
541.506	1209.12
541.72	1210.12
541.934	1208.12
542.147	1239.12
542.361	1233.12
542.575	1221.12
542.789	1197.12
543.002	1222.12
543.216	1224.12
543.43	1230.12
543.644	1189.12
543.857	1197.12
544.071	1216.12
544.285	1194.12
544.498	1222.12
544.712	1242.12
544.925	1239.12
545.139	1245.12
545.352	1253.12
545.566	1214.12
545.779	1259.12
545.993	1234.12
546.206	1238.12
546.42	1192.12
546.633	1248.12
546.847	1225.12
547.06	1252.12
547.274	1207.12
547.487	1245.12
547.7	1247.12
547.914	1235.12
548.127	1247.12
548.34	1225.12
548.554	1273.12
548.767	1221.12
548.98	1265.12
549.193	1238.12
549.407	1258.12
549.62	1283.12
549.833	1288.12
550.046	1262.12
550.259	1217.12
550.473	1201.12
550.686	1193.12
550.899	1223.12
551.112	1202.12
551.325	1225.12
551.538	1203.12
551.751	1222.12
551.964	1199.12
552.177	1233.12
552.39	1244.12
552.603	1290.12
552.816	1283.12
553.029	1321.12
553.242	1330.12
553.455	1323.12
553.667	1318.12
553.88	1320.12
554.093	1300.12
554.306	1241.12
554.519	1202.12
554.732	1207.12
554.944	1230.12
555.157	1174.12
555.37	1167.12
555.583	1149.12
555.795	1134.12
556.008	1128.12
556.221	1093.12
556.433	1071.12
556.646	1102.12
556.859	1066.12
557.071	1093.12
557.284	1075.12
557.496	1066.12
557.709	1054.12
557.921	1034.12
558.134	1049.12
558.346	1030.12
558.559	1027.12
558.771	1044.12
558.984	1015.12
559.196	1020.12
559.409	1042.12
559.621	1018.12
559.833	1009.12
560.046	1021.12
560.258	992.12
560.47	1005.12
560.683	1009.12
560.895	1002.12
561.107	1019.12
561.32	1005.12
561.532	996.12
561.744	1001.12
561.956	1026.12
562.168	1032.12
562.381	1033.12
562.593	994.12
562.805	1014.12
563.017	1017.12
563.229	1033.12
563.441	1023.12
563.653	1029.12
563.865	1041.12
564.077	1078.12
564.289	1057.12
564.501	1088.12
564.713	1095.12
564.925	1090.12
565.137	1126.12
565.349	1189.12
565.561	1170.12
565.773	1233.12
565.985	1257.12
566.197	1310.12
566.408	1404.12
566.62	1484.12
566.832	1555.12
567.044	1588.12
567.255	1640.12
567.467	1647.12
567.679	1673.12
567.891	1796.12
568.102	1789.12
568.314	1699.12
568.526	1585.12
568.737	1434.12
568.949	1405.12
569.161	1256.12
569.372	1177.12
569.584	1165.12
569.795	1107.12
570.007	1096.12
570.218	1083.12
570.43	1048.12
570.641	1045.12
570.853	1034.12
571.064	1009.12
571.276	1019.12
571.487	1014.12
571.698	965.12
571.91	949.12
572.121	955.12
572.333	941.12
572.544	913.12
572.755	873.12
572.966	878.12
573.178	878.12
573.389	851.12
573.6	835.12
573.811	840.12
574.023	819.12
574.234	826.12
574.445	823.12
574.656	842.12
574.867	839.12
575.078	833.12
575.289	809.12
575.501	832.12
575.712	797.12
575.923	797.12
576.134	776.12
576.345	771.12
576.556	802.12
576.767	779.12
576.978	775.12
577.188	760.12
577.399	777.12
577.61	754.12
577.821	762.12
578.032	726.12
578.243	738.12
578.454	734.12
578.665	734.12
578.875	747.12
579.086	728.12
579.297	691.12
579.508	717.12
579.718	713.12
579.929	714.12
580.14	710.12
580.35	695.12
580.561	697.12
580.772	699.12
580.982	731.12
581.193	698.12
581.403	729.12
581.614	690.12
581.825	718.12
582.035	693.12
582.246	698.12
582.456	694.12
582.667	679.12
582.877	682.12
583.087	709.12
583.298	690.12
583.508	678.12
583.719	682.12
583.929	688.12
584.139	674.12
584.35	669.12
584.56	674.12
584.77	661.12
584.981	658.12
585.191	663.12
585.401	655.12
585.611	664.12
585.821	649.12
586.032	642.12
586.242	653.12
586.452	652.12
586.662	625.12
586.872	655.12
587.082	646.12
587.292	645.12
587.502	664.12
587.713	667.12
587.923	674.12
588.133	650.12
588.343	652.12
588.553	634.12
588.762	649.12
588.972	645.12
589.182	660.12
589.392	663.12
589.602	659.12
589.812	685.12
590.022	683.12
590.232	661.12
590.441	664.12
590.651	662.12
590.861	664.12
591.071	667.12
591.281	678.12
591.49	694.12
591.7	685.12
591.91	717.12
592.119	728.12
592.329	713.12
592.539	729.12
592.748	734.12
592.958	751.12
593.167	769.12
593.377	785.12
593.587	800.12
593.796	797.12
594.006	776.12
594.215	818.12
594.424	804.12
594.634	798.12
594.843	730.12
595.053	745.12
595.262	715.12
595.472	691.12
595.681	653.12
595.89	658.12
596.1	628.12
596.309	623.12
596.518	624.12
596.727	641.12
596.937	605.12
597.146	598.12
597.355	590.12
597.564	586.12
597.774	584.12
597.983	580.12
598.192	568.12
598.401	598.12
598.61	568.12
598.819	540.12
599.028	559.12
599.237	566.12
599.446	543.12
599.655	546.12
599.864	541.12
600.073	539.12
600.282	561.12
600.491	537.12
600.7	554.12
600.909	565.12
601.118	529.12
601.327	539.12
601.536	526.12
601.745	522.12
601.953	545.12
602.162	504.12
602.371	513.12
602.58	516.12
602.789	509.12
602.997	502.12
603.206	497.12
603.415	509.12
603.623	509.12
603.832	498.12
604.041	517.12
604.249	483.12
604.458	513.12
604.666	490.12
604.875	506.12
605.084	483.12
605.292	490.12
605.501	491.12
605.709	470.12
605.918	485.12
606.126	488.12
606.334	498.12
606.543	494.12
606.751	490.12
606.96	500.12
607.168	511.12
607.376	482.12
607.585	468.12
607.793	462.12
608.001	490.12
608.21	508.12
608.418	496.12
608.626	460.12
608.834	454.12
609.043	462.12
609.251	456.12
609.459	482.12
609.667	478.12
609.875	445.12
610.083	440.12
610.291	465.12
610.499	448.12
610.707	475.12
610.916	453.12
611.124	464.12
611.332	479.12
611.54	470.12
611.748	445.12
611.955	442.12
612.163	464.12
612.371	452.12
612.579	464.12
612.787	450.12
612.995	451.12
613.203	462.12
613.411	446.12
613.618	434.12
613.826	463.12
614.034	447.12
614.242	438.12
614.449	439.12
614.657	432.12
614.865	432.12
615.072	437.12
615.28	446.12
615.488	442.12
615.695	444.12
615.903	455.12
616.111	464.12
616.318	446.12
616.526	477.12
616.733	481.12
616.941	451.12
617.148	443.12
617.356	441.12
617.563	448.12
617.771	460.12
617.978	439.12
618.185	430.12
618.393	434.12
618.6	448.12
618.807	451.12
619.015	439.12
619.222	455.12
619.429	431.12
619.637	439.12
619.844	433.12
620.051	433.12
620.258	419.12
620.466	413.12
620.673	410.12
620.88	409.12
621.087	405.12
621.294	407.12
621.501	422.12
621.708	424.12
621.915	405.12
622.122	417.12
622.329	403.12
622.536	387.12
622.743	396.12
622.95	405.12
623.157	394.12
623.364	394.12
623.571	410.12
623.778	394.12
623.985	408.12
624.192	398.12
624.399	385.12
624.606	378.12
624.812	395.12
625.019	387.12
625.226	386.12
625.433	380.12
625.639	369.12
625.846	372.12
626.053	376.12
626.259	366.12
626.466	376.12
626.673	385.12
626.879	373.12
627.086	380.12
627.293	368.12
627.499	372.12
627.706	355.12
627.912	364.12
628.119	360.12
628.325	385.12
628.532	365.12
628.738	376.12
628.945	359.12
629.151	376.12
629.357	351.12
629.564	371.12
629.77	348.12
629.976	353.12
630.183	352.12
630.389	349.12
630.595	342.12
630.802	351.12
631.008	351.12
631.214	321.12
631.42	353.12
631.627	376.12
631.833	351.12
632.039	325.12
632.245	335.12
632.451	315.12
632.657	337.12
632.863	347.12
633.069	337.12
633.275	321.12
633.481	331.12
633.688	320.12
633.893	341.12
634.099	322.12
634.305	340.12
634.511	326.12
634.717	329.12
634.923	336.12
635.129	327.12
635.335	324.12
635.541	320.12
635.747	327.12
635.952	307.12
636.158	311.12
636.364	310.12
636.57	333.12
636.775	348.12
636.981	317.12
637.187	312.12
637.392	309.12
637.598	318.12
637.804	321.12
638.009	315.12
638.215	296.12
638.421	309.12
638.626	310.12
638.832	299.12
639.037	310.12
639.243	317.12
639.448	301.12
639.654	309.12
639.859	288.12
640.065	301.12
640.27	309.12
640.475	293.12
640.681	290.12
640.886	311.12
641.091	298.12
641.297	294.12
641.502	298.12
641.707	287.12
641.913	299.12
642.118	288.12
642.323	306.12
642.528	307.12
642.733	307.12
642.939	292.12
643.144	278.12
643.349	299.12
643.554	313.12
643.759	298.12
643.964	293.12
644.169	302.12
644.374	295.12
644.579	291.12
644.784	293.12
644.989	299.12
645.194	294.12
645.399	310.12
645.604	288.12
645.809	289.12
646.014	309.12
646.219	296.12
646.423	317.12
646.628	297.12
646.833	301.12
647.038	296.12
647.243	286.12
647.447	283.12
647.652	305.12
647.857	325.12
648.062	319.12
648.266	331.12
648.471	331.12
648.676	327.12
648.88	324.12
649.085	318.12
649.289	314.12
649.494	315.12
649.698	291.12
649.903	321.12
650.107	306.12
650.312	307.12
650.516	317.12
650.721	292.12
650.925	285.12
651.13	306.12
651.334	291.12
651.539	302.12
651.743	300.12
651.947	290.12
652.152	289.12
652.356	269.12
652.56	285.12
652.764	301.12
652.969	308.12
653.173	288.12
653.377	292.12
653.581	304.12
653.785	288.12
653.99	290.12
654.194	283.12
654.398	293.12
654.602	297.12
654.806	295.12
655.01	312.12
655.214	301.12
655.418	315.12
655.622	317.12
655.826	332.12
656.03	345.12
656.234	367.12
656.438	361.12
656.642	360.12
656.846	352.12
657.049	334.12
657.253	308.12
657.457	265.12
657.661	259.12
657.865	213.12
658.068	205.12
658.272	200.12
658.476	194.12
658.68	196.12
658.883	162.12
659.087	175.12
659.291	151.12
659.494	153.12
659.698	153.12
659.901	145.12
660.105	121.12
660.309	128.12
660.512	130.12
660.716	113.12
660.919	124.12
661.123	109.12
661.326	104.12
661.53	99.12
661.733	107.12
661.936	85.12
662.14	94.12
662.343	96.12
662.546	94.12
662.75	85.12
662.953	88.12
663.156	78.12
663.36	80.12
663.563	77.12
663.766	81.12
663.969	84.12
664.173	93.12
664.376	94.12
664.579	84.12
664.782	81.12
664.985	72.12
665.188	73.12
665.391	83.12
665.594	79.12
665.797	75.12
666	78.12
666.203	90.12
666.406	84.12
666.609	78.12
666.812	79.12
667.015	84.12
667.218	87.12
667.421	89.12
667.624	80.12
667.827	73.12
668.03	74.12
668.232	65.12
668.435	76.12
668.638	74.12
668.841	93.12
669.043	75.12
669.246	84.12
669.449	73.12
669.651	83.12
669.854	86.12
670.057	83.12
670.259	70.12
670.462	77.12
670.665	83.12
670.867	81.12
671.07	84.12
671.272	89.12
671.475	86.12
671.677	67.12
671.88	78.12
672.082	69.12
672.284	78.12
672.487	83.12
672.689	96.12
672.892	87.12
