Data from NiCl2@0.25M.TitratingCurve.Agarose3%dH2O.NegLispCup.LampEnergy10.LIBS07252019_HRD10591_18-22-46-572.txt Node
Date: Thu Jul 25 18:22:46 EDT 2019
User: cochatt
Spectrometer: HR+D1059
Trigger mode: 1
Integration Time (sec): 1.000000E-1
Scans to average: 1
Electric dark correction enabled: true
Nonlinearity correction enabled: false
Boxcar width: 0
XAxis mode: Wavelengths
Number of Pixels in Spectrum: 2048
>>>>>Begin Spectral Data<<<<<
223.165	-12.56
223.4	-12.56
223.635	-12.56
223.869	-11.56
224.104	-20.56
224.338	-8.56
224.573	-14.56
224.808	-17.56
225.042	-12.56
225.277	-11.56
225.511	-10.56
225.746	0.44
225.98	15.44
226.215	16.44
226.449	6.44
226.683	25.44
226.918	23.44
227.152	32.44
227.387	37.44
227.621	30.44
227.856	24.44
228.09	38.44
228.324	38.44
228.559	54.44
228.793	60.44
229.027	87.44
229.262	88.44
229.496	89.44
229.73	98.44
229.964	106.44
230.199	94.44
230.433	108.44
230.667	101.44
230.901	98.44
231.136	108.44
231.37	100.44
231.604	116.44
231.838	114.44
232.072	112.44
232.306	107.44
232.541	115.44
232.775	126.44
233.009	116.44
233.243	100.44
233.477	122.44
233.711	118.44
233.945	113.44
234.179	123.44
234.413	122.44
234.647	109.44
234.881	107.44
235.115	115.44
235.349	124.44
235.583	115.44
235.817	112.44
236.051	111.44
236.285	111.44
236.519	114.44
236.753	134.44
236.987	105.44
237.221	124.44
237.455	126.44
237.689	117.44
237.922	127.44
238.156	122.44
238.39	107.44
238.624	126.44
238.858	126.44
239.091	117.44
239.325	114.44
239.559	132.44
239.793	130.44
240.027	128.44
240.26	134.44
240.494	134.44
240.728	132.44
240.961	133.44
241.195	121.44
241.429	138.44
241.662	139.44
241.896	134.44
242.13	132.44
242.363	138.44
242.597	134.44
242.83	146.44
243.064	122.44
243.298	130.44
243.531	133.44
243.765	146.44
243.998	151.44
244.232	153.44
244.465	145.44
244.699	130.44
244.932	156.44
245.166	147.44
245.399	143.44
245.633	148.44
245.866	148.44
246.099	169.44
246.333	151.44
246.566	162.44
246.8	138.44
247.033	138.44
247.266	146.44
247.5	154.44
247.733	174.44
247.966	160.44
248.2	161.44
248.433	164.44
248.666	174.44
248.899	161.44
249.133	175.44
249.366	167.44
249.599	155.44
249.832	170.44
250.066	172.44
250.299	185.44
250.532	187.44
250.765	157.44
250.998	174.44
251.231	176.44
251.465	167.44
251.698	172.44
251.931	163.44
252.164	168.44
252.397	180.44
252.63	172.44
252.863	181.44
253.096	190.44
253.329	187.44
253.562	185.44
253.795	180.44
254.028	180.44
254.261	170.44
254.494	192.44
254.727	186.44
254.96	186.44
255.193	186.44
255.426	195.44
255.659	203.44
255.892	208.44
256.124	192.44
256.357	174.44
256.59	182.44
256.823	204.44
257.056	202.44
257.289	208.44
257.521	199.44
257.754	194.44
257.987	191.44
258.22	197.44
258.452	211.44
258.685	205.44
258.918	190.44
259.151	192.44
259.383	215.44
259.616	204.44
259.849	192.44
260.081	203.44
260.314	212.44
260.547	201.44
260.779	208.44
261.012	208.44
261.244	214.44
261.477	201.44
261.71	188.44
261.942	198.44
262.175	226.44
262.407	203.44
262.64	207.44
262.872	224.44
263.105	200.44
263.337	233.44
263.57	206.44
263.802	222.44
264.035	210.44
264.267	188.44
264.499	202.44
264.732	222.44
264.964	217.44
265.197	208.44
265.429	230.44
265.661	245.44
265.894	239.44
266.126	241.44
266.358	231.44
266.591	235.44
266.823	225.44
267.055	234.44
267.287	236.44
267.52	239.44
267.752	216.44
267.984	210.44
268.216	246.44
268.448	239.44
268.681	249.44
268.913	231.44
269.145	232.44
269.377	250.44
269.609	233.44
269.841	252.44
270.073	230.44
270.306	248.44
270.538	254.44
270.77	236.44
271.002	258.44
271.234	244.44
271.466	224.44
271.698	247.44
271.93	246.44
272.162	263.44
272.394	251.44
272.626	242.44
272.858	257.44
273.09	258.44
273.322	272.44
273.553	243.44
273.785	240.44
274.017	260.44
274.249	239.44
274.481	253.44
274.713	273.44
274.945	278.44
275.176	262.44
275.408	250.44
275.64	260.44
275.872	259.44
276.104	281.44
276.335	252.44
276.567	242.44
276.799	269.44
277.031	258.44
277.262	269.44
277.494	286.44
277.726	283.44
277.957	269.44
278.189	264.44
278.421	282.44
278.652	266.44
278.884	274.44
279.115	283.44
279.347	282.44
279.579	274.44
279.81	268.44
280.042	283.44
280.273	279.44
280.505	278.44
280.736	276.44
280.968	275.44
281.199	276.44
281.431	276.44
281.662	284.44
281.894	319.44
282.125	278.44
282.356	304.44
282.588	290.44
282.819	298.44
283.051	289.44
283.282	307.44
283.513	293.44
283.745	290.44
283.976	293.44
284.207	304.44
284.439	311.44
284.67	290.44
284.901	310.44
285.132	319.44
285.364	295.44
285.595	288.44
285.826	303.44
286.057	306.44
286.288	299.44
286.52	304.44
286.751	306.44
286.982	302.44
287.213	322.44
287.444	325.44
287.675	313.44
287.906	318.44
288.138	308.44
288.369	318.44
288.6	310.44
288.831	307.44
289.062	312.44
289.293	306.44
289.524	320.44
289.755	321.44
289.986	332.44
290.217	334.44
290.448	319.44
290.679	326.44
290.91	317.44
291.141	315.44
291.371	319.44
291.602	320.44
291.833	332.44
292.064	321.44
292.295	317.44
292.526	318.44
292.757	309.44
292.987	337.44
293.218	328.44
293.449	328.44
293.68	321.44
293.91	322.44
294.141	323.44
294.372	327.44
294.603	336.44
294.833	337.44
295.064	333.44
295.295	320.44
295.525	326.44
295.756	333.44
295.987	343.44
296.217	362.44
296.448	329.44
296.679	334.44
296.909	359.44
297.14	347.44
297.37	345.44
297.601	340.44
297.831	359.44
298.062	352.44
298.292	355.44
298.523	364.44
298.753	358.44
298.984	355.44
299.214	339.44
299.445	359.44
299.675	356.44
299.905	359.44
300.136	376.44
300.366	361.44
300.597	352.44
300.827	376.44
301.057	367.44
301.288	374.44
301.518	361.44
301.748	356.44
301.979	373.44
302.209	370.44
302.439	378.44
302.669	373.44
302.9	364.44
303.13	382.44
303.36	370.44
303.59	375.44
303.82	376.44
304.051	357.44
304.281	369.44
304.511	368.44
304.741	400.44
304.971	362.44
305.201	389.44
305.431	371.44
305.661	369.44
305.891	402.44
306.121	364.44
306.352	357.44
306.582	370.44
306.812	356.44
307.042	340.44
307.272	384.44
307.502	363.44
307.731	356.44
307.961	372.44
308.191	350.44
308.421	359.44
308.651	368.44
308.881	351.44
309.111	361.44
309.341	361.44
309.571	377.44
309.8	376.44
310.03	366.44
310.26	360.44
310.49	350.44
310.72	360.44
310.949	370.44
311.179	347.44
311.409	374.44
311.639	378.44
311.868	372.44
312.098	380.44
312.328	376.44
312.557	369.44
312.787	397.44
313.017	381.44
313.246	374.44
313.476	387.44
313.706	415.44
313.935	406.44
314.165	374.44
314.394	390.44
314.624	383.44
314.853	378.44
315.083	406.44
315.312	381.44
315.542	379.44
315.771	390.44
316.001	398.44
316.23	401.44
316.46	389.44
316.689	398.44
316.919	399.44
317.148	378.44
317.377	378.44
317.607	388.44
317.836	364.44
318.065	374.44
318.295	402.44
318.524	394.44
318.753	380.44
318.983	407.44
319.212	366.44
319.441	374.44
319.67	392.44
319.9	382.44
320.129	401.44
320.358	380.44
320.587	375.44
320.816	362.44
321.046	392.44
321.275	390.44
321.504	396.44
321.733	405.44
321.962	397.44
322.191	382.44
322.42	392.44
322.649	402.44
322.878	387.44
323.108	389.44
323.337	400.44
323.566	420.44
323.795	388.44
324.024	392.44
324.253	391.44
324.482	403.44
324.71	421.44
324.939	403.44
325.168	408.44
325.397	404.44
325.626	408.44
325.855	434.44
326.084	432.44
326.313	433.44
326.542	428.44
326.77	432.44
326.999	430.44
327.228	410.44
327.457	408.44
327.686	421.44
327.914	425.44
328.143	429.44
328.372	434.44
328.6	419.44
328.829	433.44
329.058	403.44
329.287	441.44
329.515	423.44
329.744	423.44
329.972	440.44
330.201	430.44
330.43	418.44
330.658	418.44
330.887	441.44
331.115	461.44
331.344	464.44
331.572	457.44
331.801	449.44
332.03	450.44
332.258	474.44
332.486	479.44
332.715	485.44
332.943	512.44
333.172	539.44
333.4	529.44
333.629	556.44
333.857	560.44
334.085	554.44
334.314	550.44
334.542	549.44
334.771	553.44
334.999	519.44
335.227	532.44
335.455	534.44
335.684	496.44
335.912	514.44
336.14	506.44
336.369	521.44
336.597	503.44
336.825	523.44
337.053	501.44
337.281	523.44
337.51	502.44
337.738	483.44
337.966	468.44
338.194	481.44
338.422	467.44
338.65	443.44
338.878	477.44
339.106	488.44
339.334	484.44
339.562	455.44
339.79	458.44
340.018	460.44
340.246	456.44
340.474	452.44
340.702	452.44
340.93	426.44
341.158	452.44
341.386	438.44
341.614	454.44
341.842	456.44
342.07	434.44
342.298	437.44
342.526	427.44
342.754	448.44
342.981	444.44
343.209	445.44
343.437	470.44
343.665	489.44
343.893	520.44
344.12	555.44
344.348	530.44
344.576	513.44
344.804	492.44
345.031	469.44
345.259	476.44
345.487	474.44
345.714	421.44
345.942	464.44
346.17	459.44
346.397	444.44
346.625	474.44
346.853	426.44
347.08	418.44
347.308	409.44
347.535	425.44
347.763	435.44
347.99	441.44
348.218	451.44
348.445	425.44
348.673	434.44
348.9	431.44
349.128	426.44
349.355	396.44
349.583	460.44
349.81	443.44
350.037	420.44
350.265	430.44
350.492	432.44
350.72	437.44
350.947	399.44
351.174	406.44
351.402	407.44
351.629	420.44
351.856	419.44
352.083	402.44
352.311	429.44
352.538	442.44
352.765	396.44
352.992	415.44
353.22	398.44
353.447	411.44
353.674	427.44
353.901	422.44
354.128	408.44
354.355	410.44
354.583	404.44
354.81	411.44
355.037	435.44
355.264	408.44
355.491	434.44
355.718	410.44
355.945	413.44
356.172	423.44
356.399	417.44
356.626	442.44
356.853	429.44
357.08	445.44
357.307	426.44
357.534	423.44
357.761	410.44
357.988	419.44
358.215	407.44
358.441	416.44
358.668	425.44
358.895	411.44
359.122	422.44
359.349	402.44
359.576	420.44
359.802	416.44
360.029	419.44
360.256	402.44
360.483	422.44
360.709	420.44
360.936	430.44
361.163	431.44
361.39	427.44
361.616	414.44
361.843	410.44
362.07	412.44
362.296	430.44
362.523	418.44
362.749	426.44
362.976	434.44
363.203	430.44
363.429	394.44
363.656	412.44
363.882	408.44
364.109	423.44
364.335	408.44
364.562	407.44
364.788	402.44
365.015	407.44
365.241	416.44
365.468	420.44
365.694	409.44
365.92	423.44
366.147	415.44
366.373	418.44
366.599	413.44
366.826	410.44
367.052	414.44
367.278	430.44
367.505	424.44
367.731	410.44
367.957	422.44
368.184	435.44
368.41	438.44
368.636	426.44
368.862	413.44
369.089	451.44
369.315	451.44
369.541	452.44
369.767	454.44
369.993	440.44
370.219	444.44
370.445	420.44
370.672	457.44
370.898	440.44
371.124	441.44
371.35	443.44
371.576	431.44
371.802	447.44
372.028	450.44
372.254	455.44
372.48	448.44
372.706	466.44
372.932	452.44
373.158	456.44
373.384	467.44
373.61	446.44
373.835	464.44
374.061	485.44
374.287	472.44
374.513	472.44
374.739	491.44
374.965	489.44
375.191	512.44
375.416	488.44
375.642	480.44
375.868	472.44
376.094	467.44
376.319	472.44
376.545	449.44
376.771	449.44
376.997	441.44
377.222	451.44
377.448	452.44
377.674	450.44
377.899	462.44
378.125	433.44
378.35	455.44
378.576	432.44
378.802	425.44
379.027	471.44
379.253	449.44
379.478	464.44
379.704	448.44
379.929	442.44
380.155	435.44
380.38	451.44
380.606	442.44
380.831	440.44
381.057	450.44
381.282	469.44
381.507	456.44
381.733	464.44
381.958	461.44
382.184	471.44
382.409	473.44
382.634	463.44
382.86	461.44
383.085	475.44
383.31	489.44
383.535	491.44
383.761	498.44
383.986	515.44
384.211	490.44
384.436	516.44
384.662	547.44
384.887	538.44
385.112	539.44
385.337	538.44
385.562	544.44
385.787	546.44
386.013	544.44
386.238	534.44
386.463	536.44
386.688	540.44
386.913	538.44
387.138	527.44
387.363	546.44
387.588	560.44
387.813	546.44
388.038	551.44
388.263	562.44
388.488	556.44
388.713	539.44
388.938	554.44
389.163	526.44
389.387	491.44
389.612	516.44
389.837	516.44
390.062	512.44
390.287	526.44
390.512	526.44
390.736	537.44
390.961	541.44
391.186	552.44
391.411	579.44
391.636	578.44
391.86	594.44
392.085	617.44
392.31	622.44
392.534	580.44
392.759	597.44
392.984	598.44
393.208	581.44
393.433	562.44
393.658	578.44
393.882	588.44
394.107	570.44
394.331	576.44
394.556	595.44
394.78	587.44
395.005	594.44
395.229	603.44
395.454	624.44
395.678	601.44
395.903	586.44
396.127	582.44
396.352	601.44
396.576	568.44
396.801	588.44
397.025	571.44
397.249	600.44
397.474	602.44
397.698	607.44
397.922	622.44
398.147	602.44
398.371	624.44
398.595	652.44
398.82	676.44
399.044	688.44
399.268	792.44
399.492	870.44
399.717	979.44
399.941	964.44
400.165	890.44
400.389	801.44
400.613	754.44
400.837	704.44
401.062	680.44
401.286	684.44
401.51	676.44
401.734	666.44
401.958	676.44
402.182	666.44
402.406	706.44
402.63	720.44
402.854	706.44
403.078	712.44
403.302	746.44
403.526	759.44
403.75	774.44
403.974	783.44
404.198	758.44
404.422	785.44
404.645	757.44
404.869	756.44
405.093	735.44
405.317	743.44
405.541	736.44
405.765	708.44
405.988	729.44
406.212	742.44
406.436	732.44
406.66	763.44
406.883	759.44
407.107	847.44
407.331	871.44
407.555	874.44
407.778	842.44
408.002	839.44
408.226	823.44
408.449	780.44
408.673	790.44
408.896	794.44
409.12	772.44
409.344	784.44
409.567	777.44
409.791	781.44
410.014	780.44
410.238	759.44
410.461	766.44
410.685	730.44
410.908	731.44
411.132	744.44
411.355	704.44
411.578	715.44
411.802	696.44
412.025	720.44
412.249	706.44
412.472	701.44
412.695	697.44
412.919	681.44
413.142	722.44
413.365	720.44
413.589	693.44
413.812	690.44
414.035	674.44
414.258	680.44
414.482	697.44
414.705	680.44
414.928	726.44
415.151	703.44
415.374	678.44
415.597	688.44
415.821	663.44
416.044	670.44
416.267	667.44
416.49	665.44
416.713	672.44
416.936	657.44
417.159	659.44
417.382	671.44
417.605	690.44
417.828	689.44
418.051	703.44
418.274	684.44
418.497	664.44
418.72	675.44
418.943	711.44
419.166	741.44
419.389	785.44
419.611	759.44
419.834	723.44
420.057	701.44
420.28	719.44
420.503	672.44
420.726	681.44
420.948	690.44
421.171	686.44
421.394	679.44
421.617	662.44
421.839	665.44
422.062	705.44
422.285	679.44
422.507	681.44
422.73	698.44
422.953	683.44
423.175	706.44
423.398	695.44
423.621	706.44
423.843	711.44
424.066	692.44
424.288	712.44
424.511	674.44
424.733	674.44
424.956	679.44
425.178	686.44
425.401	697.44
425.623	670.44
425.846	650.44
426.068	638.44
426.291	651.44
426.513	649.44
426.735	645.44
426.958	645.44
427.18	640.44
427.402	622.44
427.625	620.44
427.847	631.44
428.069	599.44
428.292	604.44
428.514	628.44
428.736	582.44
428.958	588.44
429.181	585.44
429.403	586.44
429.625	595.44
429.847	587.44
430.069	589.44
430.292	601.44
430.514	580.44
430.736	590.44
430.958	619.44
431.18	590.44
431.402	605.44
431.624	603.44
431.846	586.44
432.068	587.44
432.29	625.44
432.512	599.44
432.734	614.44
432.956	593.44
433.178	603.44
433.4	606.44
433.622	634.44
433.844	594.44
434.066	602.44
434.287	637.44
434.509	626.44
434.731	634.44
434.953	668.44
435.175	672.44
435.397	666.44
435.618	628.44
435.84	630.44
436.062	620.44
436.284	610.44
436.505	631.44
436.727	611.44
436.949	603.44
437.17	613.44
437.392	603.44
437.614	608.44
437.835	601.44
438.057	586.44
438.278	571.44
438.5	582.44
438.721	570.44
438.943	618.44
439.165	590.44
439.386	567.44
439.608	592.44
439.829	612.44
440.05	603.44
440.272	603.44
440.493	617.44
440.715	611.44
440.936	620.44
441.158	622.44
441.379	629.44
441.6	671.44
441.822	669.44
442.043	652.44
442.264	656.44
442.486	670.44
442.707	665.44
442.928	649.44
443.149	654.44
443.371	676.44
443.592	648.44
443.813	646.44
444.034	678.44
444.255	697.44
444.476	725.44
444.698	773.44
444.919	785.44
445.14	884.44
445.361	760.44
445.582	688.44
445.803	696.44
446.024	636.44
446.245	613.44
446.466	630.44
446.687	618.44
446.908	606.44
447.129	601.44
447.35	595.44
447.571	595.44
447.792	568.44
448.013	568.44
448.234	547.44
448.455	566.44
448.675	571.44
448.896	567.44
449.117	541.44
449.338	530.44
449.559	529.44
449.779	551.44
450	555.44
450.221	564.44
450.442	566.44
450.662	572.44
450.883	552.44
451.104	568.44
451.324	579.44
451.545	566.44
451.766	550.44
451.986	540.44
452.207	550.44
452.428	566.44
452.648	548.44
452.869	554.44
453.089	539.44
453.31	549.44
453.53	541.44
453.751	544.44
453.971	544.44
454.192	563.44
454.412	545.44
454.633	527.44
454.853	500.44
455.073	541.44
455.294	530.44
455.514	523.44
455.734	542.44
455.955	517.44
456.175	541.44
456.395	498.44
456.616	520.44
456.836	537.44
457.056	511.44
457.276	512.44
457.497	532.44
457.717	544.44
457.937	520.44
458.157	547.44
458.377	539.44
458.598	549.44
458.818	555.44
459.038	595.44
459.258	619.44
459.478	601.44
459.698	636.44
459.918	656.44
460.138	690.44
460.358	690.44
460.578	716.44
460.798	701.44
461.018	731.44
461.238	686.44
461.458	705.44
461.678	712.44
461.898	715.44
462.118	708.44
462.338	762.44
462.558	759.44
462.777	788.44
462.997	876.44
463.217	912.44
463.437	935.44
463.657	867.44
463.876	809.44
464.096	844.44
464.316	821.44
464.536	824.44
464.755	764.44
464.975	777.44
465.195	727.44
465.414	700.44
465.634	672.44
465.854	643.44
466.073	626.44
466.293	599.44
466.512	587.44
466.732	593.44
466.951	587.44
467.171	595.44
467.391	599.44
467.61	581.44
467.829	568.44
468.049	585.44
468.268	562.44
468.488	566.44
468.707	562.44
468.927	600.44
469.146	546.44
469.365	559.44
469.585	582.44
469.804	597.44
470.023	598.44
470.243	595.44
470.462	607.44
470.681	602.44
470.901	592.44
471.12	591.44
471.339	606.44
471.558	578.44
471.777	579.44
471.997	561.44
472.216	556.44
472.435	536.44
472.654	533.44
472.873	554.44
473.092	560.44
473.311	567.44
473.53	546.44
473.749	570.44
473.968	538.44
474.187	544.44
474.406	537.44
474.625	562.44
474.844	550.44
475.063	581.44
475.282	547.44
475.501	559.44
475.72	563.44
475.939	582.44
476.158	562.44
476.377	562.44
476.596	549.44
476.814	586.44
477.033	581.44
477.252	609.44
477.471	628.44
477.69	637.44
477.908	645.44
478.127	662.44
478.346	658.44
478.564	676.44
478.783	674.44
479.002	702.44
479.22	690.44
479.439	681.44
479.658	678.44
479.876	675.44
480.095	692.44
480.313	710.44
480.532	737.44
480.751	707.44
480.969	671.44
481.188	649.44
481.406	670.44
481.624	648.44
481.843	618.44
482.061	636.44
482.28	622.44
482.498	630.44
482.717	626.44
482.935	614.44
483.153	637.44
483.372	630.44
483.59	636.44
483.808	623.44
484.027	621.44
484.245	632.44
484.463	632.44
484.681	660.44
484.9	672.44
485.118	632.44
485.336	658.44
485.554	632.44
485.772	630.44
485.99	631.44
486.209	688.44
486.427	665.44
486.645	664.44
486.863	653.44
487.081	658.44
487.299	644.44
487.517	638.44
487.735	660.44
487.953	657.44
488.171	659.44
488.389	650.44
488.607	650.44
488.825	646.44
489.043	653.44
489.261	640.44
489.479	650.44
489.696	649.44
489.914	658.44
490.132	678.44
490.35	657.44
490.568	664.44
490.786	694.44
491.003	640.44
491.221	676.44
491.439	678.44
491.657	677.44
491.874	666.44
492.092	682.44
492.31	683.44
492.527	683.44
492.745	674.44
492.963	678.44
493.18	692.44
493.398	700.44
493.615	697.44
493.833	696.44
494.05	703.44
494.268	701.44
494.485	690.44
494.703	696.44
494.92	699.44
495.138	675.44
495.355	702.44
495.573	708.44
495.79	713.44
496.008	736.44
496.225	726.44
496.442	726.44
496.66	731.44
496.877	751.44
497.094	762.44
497.312	775.44
497.529	794.44
497.746	804.44
497.963	828.44
498.181	839.44
498.398	878.44
498.615	940.44
498.832	976.44
499.049	1061.44
499.267	1148.44
499.484	1262.44
499.701	1358.44
499.918	1505.44
500.135	1682.44
500.352	1928.44
500.569	1956.44
500.786	1947.44
501.003	1833.44
501.22	1619.44
501.437	1467.44
501.654	1331.44
501.871	1227.44
502.088	1100.44
502.305	1036.44
502.522	1010.44
502.739	999.44
502.956	888.44
503.172	898.44
503.389	825.44
503.606	814.44
503.823	802.44
504.04	828.44
504.256	810.44
504.473	821.44
504.69	807.44
504.907	818.44
505.123	776.44
505.34	731.44
505.557	686.44
505.773	675.44
505.99	685.44
506.207	647.44
506.423	633.44
506.64	655.44
506.856	626.44
507.073	625.44
507.289	624.44
507.506	610.44
507.722	624.44
507.939	614.44
508.155	605.44
508.372	576.44
508.588	618.44
508.805	587.44
509.021	606.44
509.238	599.44
509.454	582.44
509.67	562.44
509.887	572.44
510.103	592.44
510.319	564.44
510.536	561.44
510.752	553.44
510.968	571.44
511.184	576.44
511.401	561.44
511.617	554.44
511.833	562.44
512.049	566.44
512.265	565.44
512.481	564.44
512.698	570.44
512.914	587.44
513.13	552.44
513.346	572.44
513.562	593.44
513.778	570.44
513.994	568.44
514.21	576.44
514.426	582.44
514.642	566.44
514.858	586.44
515.074	571.44
515.29	598.44
515.506	609.44
515.721	602.44
515.937	608.44
516.153	627.44
516.369	632.44
516.585	634.44
516.801	650.44
517.016	669.44
517.232	725.44
517.448	758.44
517.664	787.44
517.879	785.44
518.095	770.44
518.311	771.44
518.527	725.44
518.742	710.44
518.958	676.44
519.173	641.44
519.389	651.44
519.605	622.44
519.82	599.44
520.036	595.44
520.251	588.44
520.467	575.44
520.682	560.44
520.898	570.44
521.113	563.44
521.329	555.44
521.544	560.44
521.76	544.44
521.975	537.44
522.19	533.44
522.406	551.44
522.621	551.44
522.836	518.44
523.052	537.44
523.267	548.44
523.482	520.44
523.698	526.44
523.913	529.44
524.128	525.44
524.343	523.44
524.559	537.44
524.774	523.44
524.989	522.44
525.204	516.44
525.419	534.44
525.634	512.44
525.849	530.44
526.064	500.44
526.28	521.44
526.495	494.44
526.71	522.44
526.925	519.44
527.14	520.44
527.355	519.44
527.57	526.44
527.785	506.44
527.999	503.44
528.214	502.44
528.429	532.44
528.644	514.44
528.859	513.44
529.074	514.44
529.289	522.44
529.503	511.44
529.718	532.44
529.933	510.44
530.148	506.44
530.363	504.44
530.577	530.44
530.792	501.44
531.007	514.44
531.221	520.44
531.436	500.44
531.651	502.44
531.865	510.44
532.08	526.44
532.295	515.44
532.509	499.44
532.724	532.44
532.938	519.44
533.153	518.44
533.367	502.44
533.582	498.44
533.796	518.44
534.011	499.44
534.225	494.44
534.44	488.44
534.654	496.44
534.868	506.44
535.083	512.44
535.297	482.44
535.511	468.44
535.726	484.44
535.94	489.44
536.154	480.44
536.369	491.44
536.583	442.44
536.797	476.44
537.011	456.44
537.225	475.44
537.44	475.44
537.654	487.44
537.868	457.44
538.082	480.44
538.296	482.44
538.51	481.44
538.724	463.44
538.938	463.44
539.153	485.44
539.367	477.44
539.581	471.44
539.795	469.44
540.009	463.44
540.222	460.44
540.436	479.44
540.65	463.44
540.864	466.44
541.078	470.44
541.292	483.44
541.506	467.44
541.72	466.44
541.934	467.44
542.147	457.44
542.361	469.44
542.575	465.44
542.789	457.44
543.002	454.44
543.216	448.44
543.43	454.44
543.644	455.44
543.857	438.44
544.071	479.44
544.285	487.44
544.498	469.44
544.712	474.44
544.925	471.44
545.139	487.44
545.352	482.44
545.566	486.44
545.779	455.44
545.993	473.44
546.206	465.44
546.42	469.44
546.633	490.44
546.847	469.44
547.06	467.44
547.274	470.44
547.487	497.44
547.7	481.44
547.914	473.44
548.127	488.44
548.34	487.44
548.554	467.44
548.767	473.44
548.98	480.44
549.193	492.44
549.407	491.44
549.62	484.44
549.833	491.44
550.046	490.44
550.259	494.44
550.473	466.44
550.686	490.44
550.899	460.44
551.112	460.44
551.325	451.44
551.538	463.44
551.751	479.44
551.964	466.44
552.177	478.44
552.39	455.44
552.603	512.44
552.816	508.44
553.029	517.44
553.242	516.44
553.455	505.44
553.667	536.44
553.88	504.44
554.093	494.44
554.306	491.44
554.519	476.44
554.732	468.44
554.944	465.44
555.157	443.44
555.37	454.44
555.583	456.44
555.795	447.44
556.008	432.44
556.221	424.44
556.433	408.44
556.646	423.44
556.859	418.44
557.071	413.44
557.284	422.44
557.496	418.44
557.709	425.44
557.921	434.44
558.134	396.44
558.346	407.44
558.559	408.44
558.771	397.44
558.984	390.44
559.196	389.44
559.409	390.44
559.621	399.44
559.833	393.44
560.046	400.44
560.258	395.44
560.47	393.44
560.683	394.44
560.895	395.44
561.107	384.44
561.32	400.44
561.532	395.44
561.744	416.44
561.956	410.44
562.168	403.44
562.381	395.44
562.593	394.44
562.805	419.44
563.017	408.44
563.229	414.44
563.441	400.44
563.653	418.44
563.865	395.44
564.077	396.44
564.289	405.44
564.501	419.44
564.713	410.44
564.925	420.44
565.137	412.44
565.349	431.44
565.561	440.44
565.773	467.44
565.985	478.44
566.197	494.44
566.408	532.44
566.62	583.44
566.832	604.44
567.044	601.44
567.255	602.44
567.467	631.44
567.679	666.44
567.891	688.44
568.102	708.44
568.314	683.44
568.526	603.44
568.737	571.44
568.949	535.44
569.161	496.44
569.372	460.44
569.584	441.44
569.795	434.44
570.007	408.44
570.218	390.44
570.43	402.44
570.641	384.44
570.853	391.44
571.064	403.44
571.276	419.44
571.487	386.44
571.698	376.44
571.91	365.44
572.121	391.44
572.333	355.44
572.544	340.44
572.755	346.44
572.966	362.44
573.178	362.44
573.389	344.44
573.6	332.44
573.811	334.44
574.023	335.44
574.234	331.44
574.445	331.44
574.656	335.44
574.867	336.44
575.078	330.44
575.289	333.44
575.501	329.44
575.712	316.44
575.923	304.44
576.134	315.44
576.345	304.44
576.556	324.44
576.767	302.44
576.978	318.44
577.188	322.44
577.399	310.44
577.61	314.44
577.821	315.44
578.032	291.44
578.243	294.44
578.454	302.44
578.665	292.44
578.875	278.44
579.086	299.44
579.297	310.44
579.508	280.44
579.718	288.44
579.929	291.44
580.14	298.44
580.35	283.44
580.561	295.44
580.772	284.44
580.982	296.44
581.193	290.44
581.403	302.44
581.614	298.44
581.825	295.44
582.035	283.44
582.246	291.44
582.456	283.44
582.667	297.44
582.877	269.44
583.087	272.44
583.298	273.44
583.508	274.44
583.719	288.44
583.929	278.44
584.139	262.44
584.35	273.44
584.56	278.44
584.77	279.44
584.981	256.44
585.191	253.44
585.401	265.44
585.611	260.44
585.821	274.44
586.032	281.44
586.242	273.44
586.452	271.44
586.662	266.44
586.872	270.44
587.082	304.44
587.292	286.44
587.502	278.44
587.713	266.44
587.923	264.44
588.133	256.44
588.343	255.44
588.553	261.44
588.762	272.44
588.972	275.44
589.182	287.44
589.392	271.44
589.602	264.44
589.812	270.44
590.022	283.44
590.232	295.44
590.441	275.44
590.651	272.44
590.861	272.44
591.071	288.44
591.281	282.44
591.49	280.44
591.7	290.44
591.91	274.44
592.119	280.44
592.329	286.44
592.539	307.44
592.748	304.44
592.958	326.44
593.167	325.44
593.377	329.44
593.587	334.44
593.796	336.44
594.006	339.44
594.215	331.44
594.424	312.44
594.634	322.44
594.843	310.44
595.053	323.44
595.262	289.44
595.472	292.44
595.681	275.44
595.89	292.44
596.1	278.44
596.309	270.44
596.518	276.44
596.727	274.44
596.937	255.44
597.146	225.44
597.355	258.44
597.564	270.44
597.774	245.44
597.983	245.44
598.192	247.44
598.401	245.44
598.61	230.44
598.819	241.44
599.028	235.44
599.237	240.44
599.446	252.44
599.655	255.44
599.864	219.44
600.073	238.44
600.282	244.44
600.491	235.44
600.7	233.44
600.909	233.44
601.118	227.44
601.327	218.44
601.536	224.44
601.745	233.44
601.953	216.44
602.162	220.44
602.371	228.44
602.58	232.44
602.789	234.44
602.997	234.44
603.206	219.44
603.415	221.44
603.623	234.44
603.832	231.44
604.041	224.44
604.249	230.44
604.458	217.44
604.666	216.44
604.875	232.44
605.084	226.44
605.292	223.44
605.501	223.44
605.709	222.44
605.918	210.44
606.126	215.44
606.334	216.44
606.543	208.44
606.751	220.44
606.96	227.44
607.168	224.44
607.376	210.44
607.585	222.44
607.793	196.44
608.001	199.44
608.21	216.44
608.418	210.44
608.626	214.44
608.834	213.44
609.043	208.44
609.251	205.44
609.459	200.44
609.667	221.44
609.875	198.44
610.083	210.44
610.291	215.44
610.499	220.44
610.707	206.44
610.916	202.44
611.124	201.44
611.332	208.44
611.54	208.44
611.748	202.44
611.955	207.44
612.163	204.44
612.371	206.44
612.579	193.44
612.787	231.44
612.995	218.44
613.203	194.44
613.411	204.44
613.618	207.44
613.826	195.44
614.034	200.44
614.242	211.44
614.449	214.44
614.657	210.44
614.865	203.44
615.072	215.44
615.28	209.44
615.488	206.44
615.695	210.44
615.903	193.44
616.111	227.44
616.318	207.44
616.526	215.44
616.733	208.44
616.941	205.44
617.148	196.44
617.356	196.44
617.563	211.44
617.771	202.44
617.978	206.44
618.185	198.44
618.393	186.44
618.6	193.44
618.807	204.44
619.015	204.44
619.222	185.44
619.429	201.44
619.637	202.44
619.844	198.44
620.051	211.44
620.258	201.44
620.466	191.44
620.673	193.44
620.88	199.44
621.087	193.44
621.294	188.44
621.501	200.44
621.708	195.44
621.915	201.44
622.122	182.44
622.329	190.44
622.536	193.44
622.743	194.44
622.95	183.44
623.157	192.44
623.364	194.44
623.571	178.44
623.778	177.44
623.985	189.44
624.192	179.44
624.399	198.44
624.606	195.44
624.812	169.44
625.019	177.44
625.226	180.44
625.433	177.44
625.639	180.44
625.846	161.44
626.053	178.44
626.259	175.44
626.466	168.44
626.673	190.44
626.879	170.44
627.086	177.44
627.293	166.44
627.499	194.44
627.706	181.44
627.912	168.44
628.119	178.44
628.325	179.44
628.532	187.44
628.738	168.44
628.945	184.44
629.151	182.44
629.357	163.44
629.564	168.44
629.77	149.44
629.976	182.44
630.183	176.44
630.389	160.44
630.595	162.44
630.802	166.44
631.008	160.44
631.214	164.44
631.42	157.44
631.627	162.44
631.833	162.44
632.039	167.44
632.245	162.44
632.451	172.44
632.657	166.44
632.863	162.44
633.069	179.44
633.275	164.44
633.481	161.44
633.688	145.44
633.893	174.44
634.099	145.44
634.305	160.44
634.511	165.44
634.717	164.44
634.923	161.44
635.129	149.44
635.335	165.44
635.541	166.44
635.747	165.44
635.952	147.44
636.158	144.44
636.364	161.44
636.57	160.44
636.775	156.44
636.981	143.44
637.187	162.44
637.392	162.44
637.598	158.44
637.804	154.44
638.009	150.44
638.215	170.44
638.421	154.44
638.626	153.44
638.832	146.44
639.037	148.44
639.243	166.44
639.448	140.44
639.654	150.44
639.859	158.44
640.065	157.44
640.27	158.44
640.475	166.44
640.681	153.44
640.886	138.44
641.091	142.44
641.297	156.44
641.502	171.44
641.707	143.44
641.913	150.44
642.118	139.44
642.323	147.44
642.528	136.44
642.733	154.44
642.939	160.44
643.144	154.44
643.349	149.44
643.554	154.44
643.759	151.44
643.964	142.44
644.169	147.44
644.374	137.44
644.579	139.44
644.784	130.44
644.989	148.44
645.194	144.44
645.399	150.44
645.604	140.44
645.809	152.44
646.014	153.44
646.219	126.44
646.423	145.44
646.628	137.44
646.833	140.44
647.038	156.44
647.243	142.44
647.447	141.44
647.652	155.44
647.857	158.44
648.062	142.44
648.266	147.44
648.471	166.44
648.676	151.44
648.88	147.44
649.085	167.44
649.289	146.44
649.494	121.44
649.698	146.44
649.903	147.44
650.107	140.44
650.312	155.44
650.516	156.44
650.721	143.44
650.925	150.44
651.13	127.44
651.334	139.44
651.539	152.44
651.743	129.44
651.947	142.44
652.152	132.44
652.356	122.44
652.56	124.44
652.764	128.44
652.969	115.44
653.173	119.44
653.377	131.44
653.581	136.44
653.785	130.44
653.99	129.44
654.194	119.44
654.398	122.44
654.602	106.44
654.806	122.44
655.01	135.44
655.214	129.44
655.418	121.44
655.622	97.44
655.826	112.44
656.03	104.44
656.234	122.44
656.438	140.44
656.642	126.44
656.846	111.44
657.049	110.44
657.253	127.44
657.457	104.44
657.661	104.44
657.865	104.44
658.068	114.44
658.272	112.44
658.476	113.44
658.68	103.44
658.883	98.44
659.087	94.44
659.291	103.44
659.494	103.44
659.698	107.44
659.901	99.44
660.105	106.44
660.309	101.44
660.512	95.44
660.716	81.44
660.919	86.44
661.123	92.44
661.326	90.44
661.53	93.44
661.733	95.44
661.936	83.44
662.14	86.44
662.343	81.44
662.546	80.44
662.75	81.44
662.953	85.44
663.156	72.44
663.36	94.44
663.563	82.44
663.766	82.44
663.969	80.44
664.173	80.44
664.376	74.44
664.579	78.44
664.782	79.44
664.985	84.44
665.188	89.44
665.391	85.44
665.594	82.44
665.797	70.44
666	81.44
666.203	76.44
666.406	82.44
666.609	67.44
666.812	86.44
667.015	74.44
667.218	75.44
667.421	72.44
667.624	69.44
667.827	79.44
668.03	80.44
668.232	84.44
668.435	69.44
668.638	84.44
668.841	89.44
669.043	75.44
669.246	82.44
669.449	76.44
669.651	76.44
669.854	81.44
670.057	78.44
670.259	84.44
670.462	93.44
670.665	81.44
670.867	84.44
671.07	80.44
671.272	82.44
671.475	89.44
671.677	80.44
671.88	82.44
672.082	74.44
672.284	84.44
672.487	92.44
672.689	81.44
672.892	80.44
