Data from NiCl2@0.5M.TitratingCurve.Agarose3%dH2O.NegLispCup.LampEnergy10.LIBS07252019_HRD10591_18-20-05-571.txt Node
Date: Thu Jul 25 18:20:05 EDT 2019
User: cochatt
Spectrometer: HR+D1059
Trigger mode: 1
Integration Time (sec): 1.000000E-1
Scans to average: 1
Electric dark correction enabled: true
Nonlinearity correction enabled: false
Boxcar width: 0
XAxis mode: Wavelengths
Number of Pixels in Spectrum: 2048
>>>>>Begin Spectral Data<<<<<
223.165	-5.25
223.4	-5.25
223.635	-5.25
223.869	-13.25
224.104	-34.25
224.338	-16.25
224.573	-7.25
224.808	-12.25
225.042	-8.25
225.277	5.75
225.511	-9.25
225.746	4.75
225.98	16.75
226.215	1.75
226.449	13.75
226.683	8.75
226.918	25.75
227.152	28.75
227.387	57.75
227.621	30.75
227.856	32.75
228.09	45.75
228.324	44.75
228.559	48.75
228.793	76.75
229.027	93.75
229.262	111.75
229.496	118.75
229.73	112.75
229.964	111.75
230.199	130.75
230.433	124.75
230.667	116.75
230.901	126.75
231.136	133.75
231.37	127.75
231.604	135.75
231.838	141.75
232.072	111.75
232.306	146.75
232.541	140.75
232.775	149.75
233.009	144.75
233.243	134.75
233.477	138.75
233.711	149.75
233.945	126.75
234.179	135.75
234.413	138.75
234.647	133.75
234.881	125.75
235.115	137.75
235.349	127.75
235.583	127.75
235.817	134.75
236.051	150.75
236.285	143.75
236.519	146.75
236.753	140.75
236.987	155.75
237.221	145.75
237.455	145.75
237.689	145.75
237.922	130.75
238.156	146.75
238.39	140.75
238.624	148.75
238.858	158.75
239.091	156.75
239.325	158.75
239.559	133.75
239.793	166.75
240.027	151.75
240.26	144.75
240.494	154.75
240.728	157.75
240.961	147.75
241.195	170.75
241.429	173.75
241.662	154.75
241.896	167.75
242.13	168.75
242.363	165.75
242.597	159.75
242.83	175.75
243.064	173.75
243.298	182.75
243.531	174.75
243.765	161.75
243.998	171.75
244.232	184.75
244.465	169.75
244.699	185.75
244.932	202.75
245.166	187.75
245.399	180.75
245.633	199.75
245.866	176.75
246.099	193.75
246.333	180.75
246.566	180.75
246.8	196.75
247.033	200.75
247.266	181.75
247.5	193.75
247.733	189.75
247.966	198.75
248.2	194.75
248.433	197.75
248.666	215.75
248.899	202.75
249.133	200.75
249.366	193.75
249.599	212.75
249.832	218.75
250.066	207.75
250.299	201.75
250.532	209.75
250.765	216.75
250.998	208.75
251.231	213.75
251.465	222.75
251.698	216.75
251.931	215.75
252.164	221.75
252.397	205.75
252.63	215.75
252.863	231.75
253.096	231.75
253.329	214.75
253.562	228.75
253.795	226.75
254.028	237.75
254.261	223.75
254.494	243.75
254.727	246.75
254.96	225.75
255.193	235.75
255.426	233.75
255.659	243.75
255.892	223.75
256.124	228.75
256.357	234.75
256.59	245.75
256.823	239.75
257.056	257.75
257.289	235.75
257.521	254.75
257.754	262.75
257.987	249.75
258.22	237.75
258.452	247.75
258.685	245.75
258.918	265.75
259.151	241.75
259.383	260.75
259.616	252.75
259.849	256.75
260.081	253.75
260.314	286.75
260.547	253.75
260.779	278.75
261.012	254.75
261.244	261.75
261.477	284.75
261.71	258.75
261.942	277.75
262.175	250.75
262.407	288.75
262.64	274.75
262.872	281.75
263.105	274.75
263.337	274.75
263.57	271.75
263.802	297.75
264.035	284.75
264.267	288.75
264.499	281.75
264.732	277.75
264.964	288.75
265.197	287.75
265.429	263.75
265.661	296.75
265.894	281.75
266.126	291.75
266.358	289.75
266.591	282.75
266.823	319.75
267.055	284.75
267.287	285.75
267.52	289.75
267.752	292.75
267.984	288.75
268.216	298.75
268.448	309.75
268.681	310.75
268.913	304.75
269.145	301.75
269.377	321.75
269.609	312.75
269.841	305.75
270.073	329.75
270.306	312.75
270.538	299.75
270.77	308.75
271.002	310.75
271.234	314.75
271.466	341.75
271.698	332.75
271.93	316.75
272.162	304.75
272.394	325.75
272.626	320.75
272.858	327.75
273.09	329.75
273.322	326.75
273.553	330.75
273.785	336.75
274.017	335.75
274.249	343.75
274.481	341.75
274.713	328.75
274.945	343.75
275.176	332.75
275.408	327.75
275.64	355.75
275.872	350.75
276.104	350.75
276.335	337.75
276.567	351.75
276.799	339.75
277.031	345.75
277.262	331.75
277.494	351.75
277.726	354.75
277.957	351.75
278.189	349.75
278.421	360.75
278.652	357.75
278.884	336.75
279.115	351.75
279.347	350.75
279.579	368.75
279.81	357.75
280.042	366.75
280.273	377.75
280.505	368.75
280.736	359.75
280.968	386.75
281.199	386.75
281.431	396.75
281.662	365.75
281.894	386.75
282.125	400.75
282.356	385.75
282.588	388.75
282.819	382.75
283.051	393.75
283.282	380.75
283.513	362.75
283.745	373.75
283.976	386.75
284.207	383.75
284.439	392.75
284.67	399.75
284.901	410.75
285.132	414.75
285.364	382.75
285.595	392.75
285.826	382.75
286.057	390.75
286.288	399.75
286.52	421.75
286.751	418.75
286.982	418.75
287.213	398.75
287.444	394.75
287.675	416.75
287.906	417.75
288.138	403.75
288.369	413.75
288.6	409.75
288.831	424.75
289.062	440.75
289.293	445.75
289.524	406.75
289.755	408.75
289.986	433.75
290.217	424.75
290.448	433.75
290.679	434.75
290.91	425.75
291.141	428.75
291.371	413.75
291.602	430.75
291.833	428.75
292.064	410.75
292.295	430.75
292.526	445.75
292.757	433.75
292.987	432.75
293.218	410.75
293.449	424.75
293.68	452.75
293.91	444.75
294.141	450.75
294.372	428.75
294.603	433.75
294.833	438.75
295.064	459.75
295.295	425.75
295.525	445.75
295.756	455.75
295.987	449.75
296.217	431.75
296.448	454.75
296.679	436.75
296.909	448.75
297.14	468.75
297.37	462.75
297.601	452.75
297.831	457.75
298.062	456.75
298.292	462.75
298.523	487.75
298.753	485.75
298.984	481.75
299.214	479.75
299.445	477.75
299.675	468.75
299.905	477.75
300.136	491.75
300.366	501.75
300.597	516.75
300.827	501.75
301.057	498.75
301.288	492.75
301.518	516.75
301.748	518.75
301.979	502.75
302.209	496.75
302.439	481.75
302.669	496.75
302.9	467.75
303.13	503.75
303.36	491.75
303.59	514.75
303.82	502.75
304.051	516.75
304.281	503.75
304.511	487.75
304.741	521.75
304.971	508.75
305.201	516.75
305.431	522.75
305.661	523.75
305.891	473.75
306.121	494.75
306.352	493.75
306.582	480.75
306.812	481.75
307.042	487.75
307.272	511.75
307.502	489.75
307.731	481.75
307.961	480.75
308.191	493.75
308.421	500.75
308.651	499.75
308.881	461.75
309.111	496.75
309.341	459.75
309.571	472.75
309.8	488.75
310.03	532.75
310.26	510.75
310.49	501.75
310.72	504.75
310.949	503.75
311.179	519.75
311.409	496.75
311.639	502.75
311.868	512.75
312.098	510.75
312.328	516.75
312.557	486.75
312.787	522.75
313.017	508.75
313.246	530.75
313.476	515.75
313.706	534.75
313.935	526.75
314.165	528.75
314.394	533.75
314.624	537.75
314.853	528.75
315.083	524.75
315.312	518.75
315.542	537.75
315.771	522.75
316.001	518.75
316.23	521.75
316.46	500.75
316.689	522.75
316.919	527.75
317.148	544.75
317.377	527.75
317.607	513.75
317.836	526.75
318.065	512.75
318.295	522.75
318.524	508.75
318.753	519.75
318.983	521.75
319.212	520.75
319.441	502.75
319.67	524.75
319.9	523.75
320.129	531.75
320.358	522.75
320.587	525.75
320.816	531.75
321.046	506.75
321.275	522.75
321.504	549.75
321.733	531.75
321.962	544.75
322.191	548.75
322.42	537.75
322.649	527.75
322.878	527.75
323.108	549.75
323.337	520.75
323.566	528.75
323.795	542.75
324.024	548.75
324.253	537.75
324.482	549.75
324.71	518.75
324.939	543.75
325.168	556.75
325.397	540.75
325.626	557.75
325.855	540.75
326.084	576.75
326.313	565.75
326.542	585.75
326.77	573.75
326.999	564.75
327.228	567.75
327.457	590.75
327.686	561.75
327.914	574.75
328.143	556.75
328.372	554.75
328.6	587.75
328.829	586.75
329.058	569.75
329.287	563.75
329.515	575.75
329.744	557.75
329.972	571.75
330.201	579.75
330.43	598.75
330.658	586.75
330.887	607.75
331.115	592.75
331.344	616.75
331.572	596.75
331.801	620.75
332.03	612.75
332.258	630.75
332.486	650.75
332.715	656.75
332.943	669.75
333.172	714.75
333.4	720.75
333.629	719.75
333.857	731.75
334.085	757.75
334.314	724.75
334.542	743.75
334.771	725.75
334.999	703.75
335.227	692.75
335.455	698.75
335.684	702.75
335.912	698.75
336.14	692.75
336.369	695.75
336.597	702.75
336.825	693.75
337.053	685.75
337.281	692.75
337.51	648.75
337.738	654.75
337.966	630.75
338.194	631.75
338.422	612.75
338.65	638.75
338.878	650.75
339.106	620.75
339.334	620.75
339.562	609.75
339.79	604.75
340.018	577.75
340.246	561.75
340.474	594.75
340.702	620.75
340.93	594.75
341.158	599.75
341.386	600.75
341.614	621.75
341.842	616.75
342.07	619.75
342.298	601.75
342.526	602.75
342.754	606.75
342.981	610.75
343.209	613.75
343.437	630.75
343.665	664.75
343.893	681.75
344.12	681.75
344.348	690.75
344.576	665.75
344.804	655.75
345.031	646.75
345.259	614.75
345.487	618.75
345.714	609.75
345.942	614.75
346.17	625.75
346.397	618.75
346.625	599.75
346.853	581.75
347.08	581.75
347.308	582.75
347.535	607.75
347.763	584.75
347.99	591.75
348.218	588.75
348.445	590.75
348.673	575.75
348.9	580.75
349.128	568.75
349.355	569.75
349.583	576.75
349.81	572.75
350.037	553.75
350.265	556.75
350.492	568.75
350.72	568.75
350.947	549.75
351.174	566.75
351.402	585.75
351.629	578.75
351.856	560.75
352.083	559.75
352.311	557.75
352.538	565.75
352.765	574.75
352.992	572.75
353.22	566.75
353.447	548.75
353.674	534.75
353.901	539.75
354.128	529.75
354.355	541.75
354.583	531.75
354.81	548.75
355.037	569.75
355.264	552.75
355.491	544.75
355.718	534.75
355.945	552.75
356.172	534.75
356.399	536.75
356.626	566.75
356.853	567.75
357.08	564.75
357.307	561.75
357.534	549.75
357.761	546.75
357.988	557.75
358.215	546.75
358.441	525.75
358.668	540.75
358.895	541.75
359.122	533.75
359.349	538.75
359.576	536.75
359.802	551.75
360.029	540.75
360.256	561.75
360.483	556.75
360.709	549.75
360.936	550.75
361.163	549.75
361.39	555.75
361.616	557.75
361.843	559.75
362.07	569.75
362.296	558.75
362.523	532.75
362.749	548.75
362.976	519.75
363.203	554.75
363.429	553.75
363.656	555.75
363.882	542.75
364.109	549.75
364.335	557.75
364.562	534.75
364.788	525.75
365.015	526.75
365.241	534.75
365.468	536.75
365.694	519.75
365.92	543.75
366.147	520.75
366.373	546.75
366.599	539.75
366.826	515.75
367.052	528.75
367.278	540.75
367.505	545.75
367.731	536.75
367.957	529.75
368.184	538.75
368.41	530.75
368.636	534.75
368.862	540.75
369.089	546.75
369.315	535.75
369.541	542.75
369.767	532.75
369.993	539.75
370.219	540.75
370.445	552.75
370.672	565.75
370.898	558.75
371.124	581.75
371.35	578.75
371.576	572.75
371.802	571.75
372.028	588.75
372.254	598.75
372.48	589.75
372.706	593.75
372.932	617.75
373.158	616.75
373.384	573.75
373.61	569.75
373.835	563.75
374.061	584.75
374.287	570.75
374.513	574.75
374.739	626.75
374.965	626.75
375.191	615.75
375.416	616.75
375.642	604.75
375.868	593.75
376.094	564.75
376.319	578.75
376.545	583.75
376.771	574.75
376.997	578.75
377.222	573.75
377.448	575.75
377.674	573.75
377.899	565.75
378.125	548.75
378.35	554.75
378.576	543.75
378.802	553.75
379.027	567.75
379.253	562.75
379.478	562.75
379.704	544.75
379.929	565.75
380.155	550.75
380.38	547.75
380.606	568.75
380.831	552.75
381.057	566.75
381.282	557.75
381.507	566.75
381.733	556.75
381.958	579.75
382.184	566.75
382.409	576.75
382.634	573.75
382.86	576.75
383.085	581.75
383.31	586.75
383.535	632.75
383.761	611.75
383.986	620.75
384.211	620.75
384.436	638.75
384.662	636.75
384.887	664.75
385.112	636.75
385.337	633.75
385.562	667.75
385.787	662.75
386.013	680.75
386.238	680.75
386.463	656.75
386.688	674.75
386.913	648.75
387.138	685.75
387.363	679.75
387.588	672.75
387.813	637.75
388.038	649.75
388.263	667.75
388.488	658.75
388.713	651.75
388.938	656.75
389.163	648.75
389.387	646.75
389.612	654.75
389.837	635.75
390.062	643.75
390.287	662.75
390.512	632.75
390.736	661.75
390.961	698.75
391.186	680.75
391.411	693.75
391.636	726.75
391.86	726.75
392.085	711.75
392.31	749.75
392.534	710.75
392.759	705.75
392.984	718.75
393.208	702.75
393.433	702.75
393.658	701.75
393.882	705.75
394.107	700.75
394.331	730.75
394.556	700.75
394.78	697.75
395.005	726.75
395.229	709.75
395.454	724.75
395.678	734.75
395.903	742.75
396.127	732.75
396.352	717.75
396.576	717.75
396.801	708.75
397.025	702.75
397.249	729.75
397.474	746.75
397.698	750.75
397.922	778.75
398.147	738.75
398.371	784.75
398.595	793.75
398.82	820.75
399.044	875.75
399.268	962.75
399.492	1043.75
399.717	1171.75
399.941	1147.75
400.165	1049.75
400.389	975.75
400.613	901.75
400.837	848.75
401.062	848.75
401.286	834.75
401.51	832.75
401.734	806.75
401.958	878.75
402.182	858.75
402.406	820.75
402.63	853.75
402.854	876.75
403.078	898.75
403.302	902.75
403.526	899.75
403.75	898.75
403.974	932.75
404.198	940.75
404.422	951.75
404.645	924.75
404.869	915.75
405.093	896.75
405.317	891.75
405.541	907.75
405.765	902.75
405.988	882.75
406.212	911.75
406.436	904.75
406.66	912.75
406.883	934.75
407.107	996.75
407.331	1035.75
407.555	1073.75
407.778	1038.75
408.002	1040.75
408.226	986.75
408.449	966.75
408.673	941.75
408.896	968.75
409.12	925.75
409.344	988.75
409.567	952.75
409.791	967.75
410.014	929.75
410.238	925.75
410.461	921.75
410.685	935.75
410.908	919.75
411.132	897.75
411.355	850.75
411.578	856.75
411.802	881.75
412.025	878.75
412.249	887.75
412.472	908.75
412.695	856.75
412.919	832.75
413.142	837.75
413.365	870.75
413.589	845.75
413.812	859.75
414.035	845.75
414.258	847.75
414.482	836.75
414.705	839.75
414.928	845.75
415.151	854.75
415.374	859.75
415.597	847.75
415.821	812.75
416.044	818.75
416.267	818.75
416.49	817.75
416.713	812.75
416.936	838.75
417.159	821.75
417.382	830.75
417.605	831.75
417.828	820.75
418.051	847.75
418.274	861.75
418.497	850.75
418.72	856.75
418.943	849.75
419.166	908.75
419.389	938.75
419.611	964.75
419.834	882.75
420.057	879.75
420.28	860.75
420.503	822.75
420.726	828.75
420.948	802.75
421.171	844.75
421.394	849.75
421.617	829.75
421.839	824.75
422.062	854.75
422.285	854.75
422.507	862.75
422.73	862.75
422.953	832.75
423.175	884.75
423.398	864.75
423.621	893.75
423.843	868.75
424.066	881.75
424.288	894.75
424.511	860.75
424.733	868.75
424.956	869.75
425.178	874.75
425.401	870.75
425.623	828.75
425.846	844.75
426.068	809.75
426.291	817.75
426.513	815.75
426.735	809.75
426.958	823.75
427.18	778.75
427.402	825.75
427.625	814.75
427.847	767.75
428.069	780.75
428.292	769.75
428.514	775.75
428.736	755.75
428.958	765.75
429.181	761.75
429.403	778.75
429.625	736.75
429.847	748.75
430.069	753.75
430.292	761.75
430.514	782.75
430.736	758.75
430.958	757.75
431.18	758.75
431.402	773.75
431.624	759.75
431.846	765.75
432.068	792.75
432.29	801.75
432.512	774.75
432.734	796.75
432.956	787.75
433.178	819.75
433.4	804.75
433.622	792.75
433.844	798.75
434.066	789.75
434.287	812.75
434.509	822.75
434.731	879.75
434.953	868.75
435.175	865.75
435.397	853.75
435.618	844.75
435.84	809.75
436.062	794.75
436.284	813.75
436.505	775.75
436.727	798.75
436.949	782.75
437.17	789.75
437.392	764.75
437.614	778.75
437.835	771.75
438.057	751.75
438.278	722.75
438.5	748.75
438.721	750.75
438.943	800.75
439.165	752.75
439.386	764.75
439.608	789.75
439.829	777.75
440.05	762.75
440.272	825.75
440.493	781.75
440.715	809.75
440.936	798.75
441.158	820.75
441.379	858.75
441.6	871.75
441.822	877.75
442.043	848.75
442.264	877.75
442.486	865.75
442.707	848.75
442.928	829.75
443.149	847.75
443.371	859.75
443.592	855.75
443.813	877.75
444.034	870.75
444.255	899.75
444.476	933.75
444.698	962.75
444.919	1030.75
445.14	1102.75
445.361	972.75
445.582	931.75
445.803	864.75
446.024	849.75
446.245	840.75
446.466	841.75
446.687	825.75
446.908	835.75
447.129	798.75
447.35	797.75
447.571	754.75
447.792	752.75
448.013	776.75
448.234	740.75
448.455	757.75
448.675	756.75
448.896	774.75
449.117	730.75
449.338	722.75
449.559	778.75
449.779	738.75
450	736.75
450.221	751.75
450.442	718.75
450.662	756.75
450.883	747.75
451.104	749.75
451.324	751.75
451.545	747.75
451.766	748.75
451.986	768.75
452.207	731.75
452.428	720.75
452.648	720.75
452.869	734.75
453.089	726.75
453.31	727.75
453.53	695.75
453.751	696.75
453.971	699.75
454.192	693.75
454.412	694.75
454.633	694.75
454.853	704.75
455.073	685.75
455.294	712.75
455.514	685.75
455.734	696.75
455.955	716.75
456.175	711.75
456.395	700.75
456.616	686.75
456.836	697.75
457.056	684.75
457.276	695.75
457.497	702.75
457.717	705.75
457.937	673.75
458.157	715.75
458.377	721.75
458.598	722.75
458.818	738.75
459.038	756.75
459.258	781.75
459.478	784.75
459.698	836.75
459.918	861.75
460.138	906.75
460.358	921.75
460.578	907.75
460.798	896.75
461.018	932.75
461.238	912.75
461.458	913.75
461.678	932.75
461.898	927.75
462.118	935.75
462.338	988.75
462.558	975.75
462.777	1036.75
462.997	1162.75
463.217	1181.75
463.437	1174.75
463.657	1117.75
463.876	1066.75
464.096	1075.75
464.316	1071.75
464.536	1064.75
464.755	1046.75
464.975	988.75
465.195	973.75
465.414	910.75
465.634	863.75
465.854	876.75
466.073	811.75
466.293	800.75
466.512	822.75
466.732	792.75
466.951	776.75
467.171	777.75
467.391	789.75
467.61	784.75
467.829	752.75
468.049	772.75
468.268	764.75
468.488	773.75
468.707	752.75
468.927	757.75
469.146	737.75
469.365	744.75
469.585	760.75
469.804	780.75
470.023	794.75
470.243	804.75
470.462	811.75
470.681	799.75
470.901	820.75
471.12	788.75
471.339	788.75
471.558	773.75
471.777	783.75
471.997	754.75
472.216	774.75
472.435	735.75
472.654	740.75
472.873	725.75
473.092	741.75
473.311	746.75
473.53	735.75
473.749	729.75
473.968	744.75
474.187	716.75
474.406	700.75
474.625	713.75
474.844	742.75
475.063	744.75
475.282	751.75
475.501	730.75
475.72	767.75
475.939	751.75
476.158	762.75
476.377	780.75
476.596	800.75
476.814	776.75
477.033	772.75
477.252	767.75
477.471	814.75
477.69	817.75
477.908	834.75
478.127	891.75
478.346	883.75
478.564	864.75
478.783	884.75
479.002	891.75
479.22	920.75
479.439	929.75
479.658	923.75
479.876	909.75
480.095	917.75
480.313	934.75
480.532	970.75
480.751	958.75
480.969	952.75
481.188	898.75
481.406	897.75
481.624	860.75
481.843	846.75
482.061	830.75
482.28	847.75
482.498	831.75
482.717	813.75
482.935	833.75
483.153	844.75
483.372	872.75
483.59	854.75
483.808	864.75
484.027	830.75
484.245	834.75
484.463	862.75
484.681	878.75
484.9	840.75
485.118	874.75
485.336	881.75
485.554	865.75
485.772	902.75
485.99	898.75
486.209	896.75
486.427	887.75
486.645	882.75
486.863	884.75
487.081	882.75
487.299	868.75
487.517	910.75
487.735	888.75
487.953	879.75
488.171	898.75
488.389	879.75
488.607	868.75
488.825	850.75
489.043	883.75
489.261	856.75
489.479	864.75
489.696	882.75
489.914	893.75
490.132	910.75
490.35	913.75
490.568	907.75
490.786	908.75
491.003	893.75
491.221	884.75
491.439	888.75
491.657	911.75
491.874	904.75
492.092	905.75
492.31	909.75
492.527	953.75
492.745	920.75
492.963	910.75
493.18	908.75
493.398	928.75
493.615	922.75
493.833	950.75
494.05	956.75
494.268	934.75
494.485	942.75
494.703	927.75
494.92	959.75
495.138	939.75
495.355	934.75
495.573	969.75
495.79	967.75
496.008	935.75
496.225	957.75
496.442	980.75
496.66	1004.75
496.877	1000.75
497.094	997.75
497.312	1034.75
497.529	1056.75
497.746	1102.75
497.963	1118.75
498.181	1153.75
498.398	1172.75
498.615	1259.75
498.832	1326.75
499.049	1432.75
499.267	1525.75
499.484	1630.75
499.701	1840.75
499.918	1952.75
500.135	2158.75
500.352	2360.75
500.569	2481.75
500.786	2449.75
501.003	2333.75
501.22	2130.75
501.437	1895.75
501.654	1744.75
501.871	1596.75
502.088	1476.75
502.305	1388.75
502.522	1320.75
502.739	1263.75
502.956	1206.75
503.172	1151.75
503.389	1096.75
503.606	1078.75
503.823	1070.75
504.04	1074.75
504.256	1094.75
504.473	1106.75
504.69	1080.75
504.907	1057.75
505.123	1012.75
505.34	970.75
505.557	936.75
505.773	935.75
505.99	892.75
506.207	893.75
506.423	858.75
506.64	869.75
506.856	862.75
507.073	879.75
507.289	856.75
507.506	828.75
507.722	827.75
507.939	814.75
508.155	824.75
508.372	795.75
508.588	784.75
508.805	814.75
509.021	792.75
509.238	773.75
509.454	754.75
509.67	774.75
509.887	774.75
510.103	751.75
510.319	750.75
510.536	762.75
510.752	749.75
510.968	734.75
511.184	737.75
511.401	757.75
511.617	758.75
511.833	733.75
512.049	744.75
512.265	735.75
512.481	773.75
512.698	749.75
512.914	790.75
513.13	753.75
513.346	758.75
513.562	738.75
513.778	735.75
513.994	756.75
514.21	790.75
514.426	782.75
514.642	758.75
514.858	770.75
515.074	791.75
515.29	774.75
515.506	776.75
515.721	763.75
515.937	816.75
516.153	850.75
516.369	830.75
516.585	851.75
516.801	899.75
517.016	897.75
517.232	942.75
517.448	974.75
517.664	989.75
517.879	1000.75
518.095	1003.75
518.311	961.75
518.527	947.75
518.742	878.75
518.958	863.75
519.173	879.75
519.389	843.75
519.605	822.75
519.82	780.75
520.036	768.75
520.251	773.75
520.467	756.75
520.682	748.75
520.898	750.75
521.113	729.75
521.329	727.75
521.544	735.75
521.76	721.75
521.975	710.75
522.19	703.75
522.406	721.75
522.621	710.75
522.836	719.75
523.052	681.75
523.267	714.75
523.482	708.75
523.698	688.75
523.913	694.75
524.128	708.75
524.343	686.75
524.559	716.75
524.774	699.75
524.989	690.75
525.204	704.75
525.419	696.75
525.634	679.75
525.849	678.75
526.064	681.75
526.28	684.75
526.495	677.75
526.71	678.75
526.925	644.75
527.14	673.75
527.355	648.75
527.57	665.75
527.785	671.75
527.999	697.75
528.214	675.75
528.429	674.75
528.644	687.75
528.859	687.75
529.074	668.75
529.289	687.75
529.503	682.75
529.718	694.75
529.933	671.75
530.148	666.75
530.363	676.75
530.577	664.75
530.792	670.75
531.007	672.75
531.221	667.75
531.436	657.75
531.651	698.75
531.865	683.75
532.08	677.75
532.295	685.75
532.509	666.75
532.724	670.75
532.938	698.75
533.153	670.75
533.367	669.75
533.582	660.75
533.796	668.75
534.011	657.75
534.225	664.75
534.44	674.75
534.654	646.75
534.868	650.75
535.083	654.75
535.297	665.75
535.511	652.75
535.726	644.75
535.94	650.75
536.154	640.75
536.369	629.75
536.583	634.75
536.797	631.75
537.011	618.75
537.225	632.75
537.44	612.75
537.654	608.75
537.868	611.75
538.082	609.75
538.296	629.75
538.51	626.75
538.724	618.75
538.938	615.75
539.153	627.75
539.367	622.75
539.581	602.75
539.795	610.75
540.009	610.75
540.222	587.75
540.436	589.75
540.65	598.75
540.864	609.75
541.078	590.75
541.292	622.75
541.506	625.75
541.72	636.75
541.934	625.75
542.147	622.75
542.361	630.75
542.575	609.75
542.789	599.75
543.002	621.75
543.216	622.75
543.43	604.75
543.644	605.75
543.857	589.75
544.071	617.75
544.285	615.75
544.498	603.75
544.712	617.75
544.925	628.75
545.139	623.75
545.352	634.75
545.566	637.75
545.779	656.75
545.993	623.75
546.206	619.75
546.42	651.75
546.633	640.75
546.847	620.75
547.06	604.75
547.274	614.75
547.487	642.75
547.7	643.75
547.914	646.75
548.127	642.75
548.34	643.75
548.554	631.75
548.767	643.75
548.98	636.75
549.193	631.75
549.407	614.75
549.62	655.75
549.833	632.75
550.046	614.75
550.259	628.75
550.473	624.75
550.686	618.75
550.899	601.75
551.112	621.75
551.325	606.75
551.538	644.75
551.751	617.75
551.964	592.75
552.177	610.75
552.39	636.75
552.603	640.75
552.816	657.75
553.029	666.75
553.242	686.75
553.455	673.75
553.667	686.75
553.88	672.75
554.093	648.75
554.306	650.75
554.519	625.75
554.732	597.75
554.944	580.75
555.157	610.75
555.37	600.75
555.583	584.75
555.795	576.75
556.008	576.75
556.221	551.75
556.433	538.75
556.646	571.75
556.859	534.75
557.071	545.75
557.284	557.75
557.496	560.75
557.709	542.75
557.921	554.75
558.134	549.75
558.346	528.75
558.559	523.75
558.771	560.75
558.984	528.75
559.196	524.75
559.409	524.75
559.621	525.75
559.833	512.75
560.046	507.75
560.258	533.75
560.47	509.75
560.683	530.75
560.895	516.75
561.107	527.75
561.32	526.75
561.532	507.75
561.744	529.75
561.956	513.75
562.168	516.75
562.381	502.75
562.593	533.75
562.805	516.75
563.017	514.75
563.229	542.75
563.441	510.75
563.653	530.75
563.865	536.75
564.077	556.75
564.289	518.75
564.501	553.75
564.713	536.75
564.925	559.75
565.137	550.75
565.349	554.75
565.561	615.75
565.773	606.75
565.985	637.75
566.197	654.75
566.408	668.75
566.62	742.75
566.832	762.75
567.044	794.75
567.255	751.75
567.467	806.75
567.679	836.75
567.891	870.75
568.102	880.75
568.314	840.75
568.526	760.75
568.737	712.75
568.949	687.75
569.161	618.75
569.372	599.75
569.584	576.75
569.795	566.75
570.007	554.75
570.218	538.75
570.43	519.75
570.641	515.75
570.853	524.75
571.064	549.75
571.276	528.75
571.487	515.75
571.698	512.75
571.91	505.75
572.121	483.75
572.333	466.75
572.544	450.75
572.755	446.75
572.966	437.75
573.178	440.75
573.389	424.75
573.6	446.75
573.811	418.75
574.023	433.75
574.234	440.75
574.445	424.75
574.656	434.75
574.867	423.75
575.078	428.75
575.289	416.75
575.501	396.75
575.712	392.75
575.923	410.75
576.134	430.75
576.345	400.75
576.556	417.75
576.767	408.75
576.978	389.75
577.188	414.75
577.399	402.75
577.61	402.75
577.821	382.75
578.032	390.75
578.243	378.75
578.454	378.75
578.665	373.75
578.875	376.75
579.086	378.75
579.297	367.75
579.508	368.75
579.718	382.75
579.929	368.75
580.14	350.75
580.35	368.75
580.561	369.75
580.772	360.75
580.982	360.75
581.193	365.75
581.403	357.75
581.614	357.75
581.825	365.75
582.035	366.75
582.246	365.75
582.456	359.75
582.667	368.75
582.877	356.75
583.087	373.75
583.298	337.75
583.508	369.75
583.719	359.75
583.929	347.75
584.139	350.75
584.35	360.75
584.56	342.75
584.77	363.75
584.981	365.75
585.191	344.75
585.401	357.75
585.611	356.75
585.821	323.75
586.032	348.75
586.242	352.75
586.452	345.75
586.662	342.75
586.872	345.75
587.082	345.75
587.292	341.75
587.502	321.75
587.713	349.75
587.923	344.75
588.133	332.75
588.343	343.75
588.553	334.75
588.762	342.75
588.972	351.75
589.182	406.75
589.392	390.75
589.602	330.75
589.812	373.75
590.022	393.75
590.232	349.75
590.441	359.75
590.651	362.75
590.861	333.75
591.071	358.75
591.281	353.75
591.49	361.75
591.7	350.75
591.91	380.75
592.119	362.75
592.329	376.75
592.539	389.75
592.748	406.75
592.958	382.75
593.167	399.75
593.377	396.75
593.587	432.75
593.796	406.75
594.006	410.75
594.215	413.75
594.424	408.75
594.634	400.75
594.843	380.75
595.053	377.75
595.262	378.75
595.472	354.75
595.681	363.75
595.89	365.75
596.1	355.75
596.309	340.75
596.518	331.75
596.727	323.75
596.937	336.75
597.146	314.75
597.355	328.75
597.564	316.75
597.774	302.75
597.983	324.75
598.192	301.75
598.401	299.75
598.61	308.75
598.819	308.75
599.028	302.75
599.237	303.75
599.446	312.75
599.655	294.75
599.864	309.75
600.073	300.75
600.282	276.75
600.491	280.75
600.7	292.75
600.909	282.75
601.118	284.75
601.327	295.75
601.536	265.75
601.745	278.75
601.953	269.75
602.162	277.75
602.371	273.75
602.58	288.75
602.789	286.75
602.997	255.75
603.206	276.75
603.415	294.75
603.623	278.75
603.832	283.75
604.041	285.75
604.249	267.75
604.458	289.75
604.666	271.75
604.875	280.75
605.084	266.75
605.292	268.75
605.501	259.75
605.709	262.75
605.918	251.75
606.126	275.75
606.334	273.75
606.543	266.75
606.751	248.75
606.96	289.75
607.168	268.75
607.376	277.75
607.585	263.75
607.793	276.75
608.001	249.75
608.21	266.75
608.418	253.75
608.626	252.75
608.834	260.75
609.043	253.75
609.251	254.75
609.459	246.75
609.667	261.75
609.875	261.75
610.083	267.75
610.291	249.75
610.499	244.75
610.707	284.75
610.916	254.75
611.124	254.75
611.332	267.75
611.54	267.75
611.748	245.75
611.955	248.75
612.163	256.75
612.371	242.75
612.579	257.75
612.787	250.75
612.995	255.75
613.203	265.75
613.411	252.75
613.618	256.75
613.826	247.75
614.034	248.75
614.242	252.75
614.449	228.75
614.657	246.75
614.865	241.75
615.072	247.75
615.28	259.75
615.488	226.75
615.695	244.75
615.903	244.75
616.111	243.75
616.318	247.75
616.526	253.75
616.733	244.75
616.941	263.75
617.148	258.75
617.356	248.75
617.563	245.75
617.771	260.75
617.978	231.75
618.185	231.75
618.393	254.75
618.6	248.75
618.807	260.75
619.015	231.75
619.222	238.75
619.429	255.75
619.637	248.75
619.844	240.75
620.051	244.75
620.258	243.75
620.466	232.75
620.673	240.75
620.88	248.75
621.087	221.75
621.294	230.75
621.501	240.75
621.708	249.75
621.915	246.75
622.122	249.75
622.329	245.75
622.536	248.75
622.743	234.75
622.95	224.75
623.157	217.75
623.364	226.75
623.571	239.75
623.778	234.75
623.985	225.75
624.192	206.75
624.399	220.75
624.606	234.75
624.812	225.75
625.019	210.75
625.226	215.75
625.433	241.75
625.639	214.75
625.846	204.75
626.053	204.75
626.259	203.75
626.466	222.75
626.673	229.75
626.879	196.75
627.086	212.75
627.293	213.75
627.499	219.75
627.706	218.75
627.912	200.75
628.119	214.75
628.325	211.75
628.532	220.75
628.738	217.75
628.945	222.75
629.151	200.75
629.357	209.75
629.564	223.75
629.77	200.75
629.976	205.75
630.183	213.75
630.389	205.75
630.595	216.75
630.802	193.75
631.008	190.75
631.214	185.75
631.42	186.75
631.627	198.75
631.833	198.75
632.039	185.75
632.245	191.75
632.451	207.75
632.657	192.75
632.863	207.75
633.069	181.75
633.275	196.75
633.481	191.75
633.688	181.75
633.893	202.75
634.099	198.75
634.305	208.75
634.511	206.75
634.717	190.75
634.923	202.75
635.129	196.75
635.335	184.75
635.541	170.75
635.747	175.75
635.952	182.75
636.158	190.75
636.364	194.75
636.57	191.75
636.775	193.75
636.981	172.75
637.187	176.75
637.392	186.75
637.598	196.75
637.804	186.75
638.009	191.75
638.215	180.75
638.421	184.75
638.626	172.75
638.832	178.75
639.037	183.75
639.243	178.75
639.448	172.75
639.654	187.75
639.859	173.75
640.065	178.75
640.27	193.75
640.475	182.75
640.681	184.75
640.886	180.75
641.091	166.75
641.297	180.75
641.502	162.75
641.707	175.75
641.913	181.75
642.118	170.75
642.323	161.75
642.528	186.75
642.733	180.75
642.939	166.75
643.144	173.75
643.349	196.75
643.554	180.75
643.759	165.75
643.964	175.75
644.169	166.75
644.374	170.75
644.579	170.75
644.784	193.75
644.989	169.75
645.194	174.75
645.399	169.75
645.604	175.75
645.809	183.75
646.014	161.75
646.219	177.75
646.423	174.75
646.628	166.75
646.833	187.75
647.038	181.75
647.243	174.75
647.447	174.75
647.652	189.75
647.857	190.75
648.062	182.75
648.266	181.75
648.471	173.75
648.676	188.75
648.88	174.75
649.085	171.75
649.289	180.75
649.494	176.75
649.698	184.75
649.903	180.75
650.107	171.75
650.312	157.75
650.516	150.75
650.721	175.75
650.925	173.75
651.13	154.75
651.334	154.75
651.539	156.75
651.743	169.75
651.947	171.75
652.152	150.75
652.356	160.75
652.56	146.75
652.764	158.75
652.969	155.75
653.173	159.75
653.377	158.75
653.581	140.75
653.785	147.75
653.99	146.75
654.194	146.75
654.398	139.75
654.602	140.75
654.806	152.75
655.01	140.75
655.214	143.75
655.418	133.75
655.622	136.75
655.826	136.75
656.03	129.75
656.234	142.75
656.438	146.75
656.642	124.75
656.846	150.75
657.049	129.75
657.253	119.75
657.457	121.75
657.661	118.75
657.865	127.75
658.068	127.75
658.272	126.75
658.476	123.75
658.68	129.75
658.883	129.75
659.087	106.75
659.291	100.75
659.494	112.75
659.698	108.75
659.901	115.75
660.105	111.75
660.309	89.75
660.512	104.75
660.716	87.75
660.919	96.75
661.123	89.75
661.326	102.75
661.53	89.75
661.733	95.75
661.936	80.75
662.14	84.75
662.343	96.75
662.546	78.75
662.75	95.75
662.953	100.75
663.156	87.75
663.36	92.75
663.563	84.75
663.766	94.75
663.969	84.75
664.173	93.75
664.376	99.75
664.579	87.75
664.782	105.75
664.985	83.75
665.188	93.75
665.391	88.75
665.594	90.75
665.797	80.75
666	86.75
666.203	93.75
666.406	104.75
666.609	95.75
666.812	94.75
667.015	95.75
667.218	86.75
667.421	100.75
667.624	92.75
667.827	86.75
668.03	83.75
668.232	88.75
668.435	94.75
668.638	96.75
668.841	93.75
669.043	86.75
669.246	90.75
669.449	92.75
669.651	101.75
669.854	89.75
670.057	64.75
670.259	88.75
670.462	88.75
670.665	96.75
670.867	81.75
671.07	90.75
671.272	78.75
671.475	94.75
671.677	100.75
671.88	93.75
672.082	97.75
672.284	68.75
672.487	98.75
672.689	84.75
672.892	87.75
