Data from NiCl2@0.5M.TitratingCurve.Agarose3%dH2O.NegLispCup.LampEnergy10.LIBS07252019_HRD10591_18-20-11-574.txt Node
Date: Thu Jul 25 18:20:11 EDT 2019
User: cochatt
Spectrometer: HR+D1059
Trigger mode: 1
Integration Time (sec): 1.000000E-1
Scans to average: 1
Electric dark correction enabled: true
Nonlinearity correction enabled: false
Boxcar width: 0
XAxis mode: Wavelengths
Number of Pixels in Spectrum: 2048
>>>>>Begin Spectral Data<<<<<
223.165	-9.06
223.4	-9.06
223.635	-9.06
223.869	-24.06
224.104	-21.06
224.338	-9.06
224.573	-15.06
224.808	-15.06
225.042	2.94
225.277	-3.06
225.511	-1.06
225.746	0.94
225.98	5.94
226.215	25.94
226.449	5.94
226.683	12.94
226.918	19.94
227.152	22.94
227.387	40.94
227.621	38.94
227.856	45.94
228.09	51.94
228.324	48.94
228.559	53.94
228.793	59.94
229.027	107.94
229.262	110.94
229.496	119.94
229.73	135.94
229.964	122.94
230.199	138.94
230.433	134.94
230.667	138.94
230.901	139.94
231.136	145.94
231.37	128.94
231.604	142.94
231.838	147.94
232.072	121.94
232.306	145.94
232.541	141.94
232.775	142.94
233.009	142.94
233.243	138.94
233.477	143.94
233.711	122.94
233.945	126.94
234.179	150.94
234.413	140.94
234.647	151.94
234.881	150.94
235.115	152.94
235.349	141.94
235.583	141.94
235.817	149.94
236.051	143.94
236.285	157.94
236.519	149.94
236.753	139.94
236.987	146.94
237.221	147.94
237.455	151.94
237.689	145.94
237.922	162.94
238.156	142.94
238.39	164.94
238.624	141.94
238.858	148.94
239.091	148.94
239.325	165.94
239.559	177.94
239.793	159.94
240.027	164.94
240.26	175.94
240.494	201.94
240.728	181.94
240.961	177.94
241.195	189.94
241.429	205.94
241.662	168.94
241.896	191.94
242.13	185.94
242.363	182.94
242.597	175.94
242.83	184.94
243.064	177.94
243.298	195.94
243.531	182.94
243.765	187.94
243.998	187.94
244.232	197.94
244.465	181.94
244.699	200.94
244.932	202.94
245.166	215.94
245.399	203.94
245.633	205.94
245.866	209.94
246.099	216.94
246.333	202.94
246.566	206.94
246.8	210.94
247.033	195.94
247.266	209.94
247.5	203.94
247.733	214.94
247.966	207.94
248.2	234.94
248.433	208.94
248.666	218.94
248.899	253.94
249.133	222.94
249.366	239.94
249.599	244.94
249.832	227.94
250.066	223.94
250.299	230.94
250.532	257.94
250.765	219.94
250.998	214.94
251.231	226.94
251.465	247.94
251.698	229.94
251.931	250.94
252.164	255.94
252.397	257.94
252.63	246.94
252.863	241.94
253.096	250.94
253.329	252.94
253.562	251.94
253.795	271.94
254.028	255.94
254.261	271.94
254.494	264.94
254.727	271.94
254.96	265.94
255.193	273.94
255.426	251.94
255.659	270.94
255.892	271.94
256.124	274.94
256.357	266.94
256.59	279.94
256.823	281.94
257.056	286.94
257.289	255.94
257.521	282.94
257.754	291.94
257.987	278.94
258.22	276.94
258.452	278.94
258.685	295.94
258.918	285.94
259.151	269.94
259.383	310.94
259.616	292.94
259.849	282.94
260.081	285.94
260.314	292.94
260.547	295.94
260.779	309.94
261.012	294.94
261.244	291.94
261.477	306.94
261.71	295.94
261.942	291.94
262.175	294.94
262.407	321.94
262.64	308.94
262.872	304.94
263.105	321.94
263.337	299.94
263.57	315.94
263.802	330.94
264.035	330.94
264.267	305.94
264.499	307.94
264.732	309.94
264.964	317.94
265.197	328.94
265.429	304.94
265.661	332.94
265.894	339.94
266.126	339.94
266.358	342.94
266.591	324.94
266.823	340.94
267.055	323.94
267.287	332.94
267.52	346.94
267.752	327.94
267.984	346.94
268.216	350.94
268.448	342.94
268.681	356.94
268.913	340.94
269.145	351.94
269.377	351.94
269.609	347.94
269.841	340.94
270.073	348.94
270.306	351.94
270.538	350.94
270.77	378.94
271.002	348.94
271.234	353.94
271.466	362.94
271.698	360.94
271.93	372.94
272.162	380.94
272.394	370.94
272.626	366.94
272.858	371.94
273.09	362.94
273.322	387.94
273.553	375.94
273.785	375.94
274.017	357.94
274.249	379.94
274.481	382.94
274.713	399.94
274.945	392.94
275.176	390.94
275.408	380.94
275.64	394.94
275.872	405.94
276.104	401.94
276.335	401.94
276.567	412.94
276.799	403.94
277.031	411.94
277.262	395.94
277.494	403.94
277.726	394.94
277.957	409.94
278.189	431.94
278.421	394.94
278.652	410.94
278.884	433.94
279.115	403.94
279.347	412.94
279.579	429.94
279.81	435.94
280.042	417.94
280.273	424.94
280.505	421.94
280.736	443.94
280.968	408.94
281.199	422.94
281.431	450.94
281.662	421.94
281.894	441.94
282.125	438.94
282.356	442.94
282.588	462.94
282.819	456.94
283.051	451.94
283.282	454.94
283.513	457.94
283.745	443.94
283.976	455.94
284.207	443.94
284.439	462.94
284.67	459.94
284.901	460.94
285.132	462.94
285.364	443.94
285.595	462.94
285.826	469.94
286.057	464.94
286.288	459.94
286.52	465.94
286.751	479.94
286.982	464.94
287.213	466.94
287.444	475.94
287.675	471.94
287.906	482.94
288.138	480.94
288.369	475.94
288.6	479.94
288.831	475.94
289.062	495.94
289.293	493.94
289.524	474.94
289.755	493.94
289.986	475.94
290.217	469.94
290.448	475.94
290.679	489.94
290.91	493.94
291.141	499.94
291.371	496.94
291.602	510.94
291.833	498.94
292.064	507.94
292.295	511.94
292.526	495.94
292.757	492.94
292.987	495.94
293.218	506.94
293.449	523.94
293.68	498.94
293.91	479.94
294.141	495.94
294.372	484.94
294.603	519.94
294.833	515.94
295.064	513.94
295.295	520.94
295.525	501.94
295.756	499.94
295.987	526.94
296.217	494.94
296.448	502.94
296.679	505.94
296.909	521.94
297.14	511.94
297.37	526.94
297.601	510.94
297.831	549.94
298.062	535.94
298.292	545.94
298.523	548.94
298.753	570.94
298.984	541.94
299.214	546.94
299.445	544.94
299.675	545.94
299.905	542.94
300.136	558.94
300.366	560.94
300.597	573.94
300.827	567.94
301.057	571.94
301.288	578.94
301.518	552.94
301.748	569.94
301.979	564.94
302.209	588.94
302.439	584.94
302.669	563.94
302.9	565.94
303.13	558.94
303.36	563.94
303.59	569.94
303.82	583.94
304.051	581.94
304.281	568.94
304.511	568.94
304.741	571.94
304.971	576.94
305.201	583.94
305.431	579.94
305.661	591.94
305.891	561.94
306.121	588.94
306.352	585.94
306.582	573.94
306.812	569.94
307.042	585.94
307.272	564.94
307.502	549.94
307.731	557.94
307.961	565.94
308.191	553.94
308.421	561.94
308.651	573.94
308.881	559.94
309.111	549.94
309.341	583.94
309.571	586.94
309.8	565.94
310.03	584.94
310.26	587.94
310.49	591.94
310.72	594.94
310.949	597.94
311.179	582.94
311.409	575.94
311.639	577.94
311.868	597.94
312.098	603.94
312.328	596.94
312.557	596.94
312.787	608.94
313.017	600.94
313.246	612.94
313.476	598.94
313.706	626.94
313.935	633.94
314.165	602.94
314.394	582.94
314.624	615.94
314.853	618.94
315.083	622.94
315.312	610.94
315.542	620.94
315.771	595.94
316.001	624.94
316.23	610.94
316.46	617.94
316.689	618.94
316.919	603.94
317.148	615.94
317.377	621.94
317.607	599.94
317.836	614.94
318.065	603.94
318.295	600.94
318.524	599.94
318.753	608.94
318.983	613.94
319.212	617.94
319.441	618.94
319.67	620.94
319.9	603.94
320.129	610.94
320.358	606.94
320.587	625.94
320.816	615.94
321.046	615.94
321.275	608.94
321.504	651.94
321.733	621.94
321.962	618.94
322.191	647.94
322.42	612.94
322.649	645.94
322.878	611.94
323.108	637.94
323.337	629.94
323.566	642.94
323.795	644.94
324.024	633.94
324.253	638.94
324.482	637.94
324.71	639.94
324.939	640.94
325.168	650.94
325.397	665.94
325.626	659.94
325.855	649.94
326.084	680.94
326.313	675.94
326.542	644.94
326.77	645.94
326.999	642.94
327.228	657.94
327.457	650.94
327.686	658.94
327.914	681.94
328.143	653.94
328.372	663.94
328.6	671.94
328.829	640.94
329.058	669.94
329.287	678.94
329.515	668.94
329.744	672.94
329.972	672.94
330.201	659.94
330.43	710.94
330.658	680.94
330.887	687.94
331.115	682.94
331.344	682.94
331.572	718.94
331.801	706.94
332.03	713.94
332.258	731.94
332.486	734.94
332.715	756.94
332.943	747.94
333.172	793.94
333.4	798.94
333.629	817.94
333.857	839.94
334.085	845.94
334.314	827.94
334.542	825.94
334.771	823.94
334.999	778.94
335.227	789.94
335.455	813.94
335.684	821.94
335.912	808.94
336.14	806.94
336.369	810.94
336.597	821.94
336.825	793.94
337.053	800.94
337.281	823.94
337.51	780.94
337.738	756.94
337.966	770.94
338.194	734.94
338.422	741.94
338.65	728.94
338.878	734.94
339.106	728.94
339.334	720.94
339.562	740.94
339.79	702.94
340.018	702.94
340.246	677.94
340.474	715.94
340.702	669.94
340.93	691.94
341.158	703.94
341.386	691.94
341.614	717.94
341.842	737.94
342.07	715.94
342.298	693.94
342.526	701.94
342.754	698.94
342.981	687.94
343.209	714.94
343.437	732.94
343.665	791.94
343.893	799.94
344.12	782.94
344.348	775.94
344.576	747.94
344.804	763.94
345.031	730.94
345.259	728.94
345.487	710.94
345.714	702.94
345.942	707.94
346.17	736.94
346.397	713.94
346.625	677.94
346.853	703.94
347.08	642.94
347.308	685.94
347.535	691.94
347.763	679.94
347.99	673.94
348.218	662.94
348.445	667.94
348.673	687.94
348.9	669.94
349.128	665.94
349.355	661.94
349.583	669.94
349.81	667.94
350.037	649.94
350.265	645.94
350.492	662.94
350.72	656.94
350.947	671.94
351.174	678.94
351.402	666.94
351.629	696.94
351.856	680.94
352.083	657.94
352.311	683.94
352.538	660.94
352.765	701.94
352.992	658.94
353.22	637.94
353.447	641.94
353.674	631.94
353.901	656.94
354.128	625.94
354.355	644.94
354.583	640.94
354.81	618.94
355.037	651.94
355.264	650.94
355.491	654.94
355.718	631.94
355.945	646.94
356.172	649.94
356.399	630.94
356.626	640.94
356.853	677.94
357.08	671.94
357.307	626.94
357.534	628.94
357.761	623.94
357.988	650.94
358.215	647.94
358.441	637.94
358.668	651.94
358.895	646.94
359.122	637.94
359.349	673.94
359.576	634.94
359.802	650.94
360.029	639.94
360.256	652.94
360.483	625.94
360.709	629.94
360.936	647.94
361.163	645.94
361.39	644.94
361.616	642.94
361.843	631.94
362.07	671.94
362.296	664.94
362.523	625.94
362.749	626.94
362.976	605.94
363.203	633.94
363.429	628.94
363.656	628.94
363.882	633.94
364.109	651.94
364.335	623.94
364.562	635.94
364.788	632.94
365.015	634.94
365.241	634.94
365.468	616.94
365.694	611.94
365.92	630.94
366.147	633.94
366.373	631.94
366.599	635.94
366.826	621.94
367.052	615.94
367.278	618.94
367.505	618.94
367.731	648.94
367.957	629.94
368.184	652.94
368.41	629.94
368.636	641.94
368.862	629.94
369.089	647.94
369.315	656.94
369.541	641.94
369.767	646.94
369.993	649.94
370.219	637.94
370.445	632.94
370.672	667.94
370.898	665.94
371.124	673.94
371.35	680.94
371.576	659.94
371.802	663.94
372.028	671.94
372.254	682.94
372.48	676.94
372.706	704.94
372.932	696.94
373.158	673.94
373.384	689.94
373.61	672.94
373.835	692.94
374.061	645.94
374.287	680.94
374.513	679.94
374.739	706.94
374.965	691.94
375.191	707.94
375.416	712.94
375.642	702.94
375.868	720.94
376.094	688.94
376.319	685.94
376.545	676.94
376.771	685.94
376.997	687.94
377.222	674.94
377.448	680.94
377.674	677.94
377.899	669.94
378.125	679.94
378.35	643.94
378.576	651.94
378.802	661.94
379.027	656.94
379.253	642.94
379.478	644.94
379.704	654.94
379.929	657.94
380.155	658.94
380.38	647.94
380.606	667.94
380.831	642.94
381.057	650.94
381.282	656.94
381.507	652.94
381.733	650.94
381.958	670.94
382.184	682.94
382.409	681.94
382.634	669.94
382.86	711.94
383.085	692.94
383.31	686.94
383.535	713.94
383.761	717.94
383.986	718.94
384.211	712.94
384.436	728.94
384.662	759.94
384.887	759.94
385.112	761.94
385.337	785.94
385.562	751.94
385.787	767.94
386.013	790.94
386.238	765.94
386.463	744.94
386.688	752.94
386.913	753.94
387.138	787.94
387.363	746.94
387.588	733.94
387.813	753.94
388.038	778.94
388.263	786.94
388.488	773.94
388.713	783.94
388.938	757.94
389.163	763.94
389.387	745.94
389.612	765.94
389.837	782.94
390.062	771.94
390.287	765.94
390.512	772.94
390.736	787.94
390.961	769.94
391.186	799.94
391.411	801.94
391.636	837.94
391.86	836.94
392.085	824.94
392.31	851.94
392.534	826.94
392.759	829.94
392.984	805.94
393.208	805.94
393.433	809.94
393.658	800.94
393.882	833.94
394.107	815.94
394.331	813.94
394.556	815.94
394.78	820.94
395.005	841.94
395.229	845.94
395.454	847.94
395.678	824.94
395.903	827.94
396.127	814.94
396.352	820.94
396.576	848.94
396.801	826.94
397.025	813.94
397.249	853.94
397.474	842.94
397.698	871.94
397.922	868.94
398.147	884.94
398.371	899.94
398.595	913.94
398.82	915.94
399.044	954.94
399.268	1030.94
399.492	1171.94
399.717	1243.94
399.941	1216.94
400.165	1185.94
400.389	1087.94
400.613	1032.94
400.837	1012.94
401.062	992.94
401.286	936.94
401.51	942.94
401.734	921.94
401.958	928.94
402.182	943.94
402.406	945.94
402.63	949.94
402.854	980.94
403.078	965.94
403.302	999.94
403.526	994.94
403.75	1019.94
403.974	1027.94
404.198	1045.94
404.422	1040.94
404.645	1012.94
404.869	983.94
405.093	987.94
405.317	984.94
405.541	985.94
405.765	994.94
405.988	1017.94
406.212	994.94
406.436	1027.94
406.66	1060.94
406.883	1051.94
407.107	1089.94
407.331	1120.94
407.555	1133.94
407.778	1153.94
408.002	1147.94
408.226	1123.94
408.449	1114.94
408.673	1065.94
408.896	1061.94
409.12	1048.94
409.344	1042.94
409.567	1040.94
409.791	1066.94
410.014	1045.94
410.238	1013.94
410.461	1064.94
410.685	1028.94
410.908	1018.94
411.132	1022.94
411.355	971.94
411.578	1002.94
411.802	963.94
412.025	1001.94
412.249	994.94
412.472	1010.94
412.695	977.94
412.919	943.94
413.142	967.94
413.365	945.94
413.589	987.94
413.812	960.94
414.035	935.94
414.258	932.94
414.482	967.94
414.705	951.94
414.928	979.94
415.151	951.94
415.374	960.94
415.597	966.94
415.821	948.94
416.044	930.94
416.267	950.94
416.49	956.94
416.713	928.94
416.936	955.94
417.159	940.94
417.382	951.94
417.605	910.94
417.828	919.94
418.051	947.94
418.274	951.94
418.497	959.94
418.72	951.94
418.943	939.94
419.166	1016.94
419.389	1089.94
419.611	1049.94
419.834	1003.94
420.057	993.94
420.28	975.94
420.503	935.94
420.726	952.94
420.948	925.94
421.171	922.94
421.394	941.94
421.617	940.94
421.839	950.94
422.062	960.94
422.285	932.94
422.507	927.94
422.73	923.94
422.953	941.94
423.175	961.94
423.398	954.94
423.621	943.94
423.843	990.94
424.066	997.94
424.288	968.94
424.511	985.94
424.733	950.94
424.956	929.94
425.178	976.94
425.401	959.94
425.623	951.94
425.846	910.94
426.068	927.94
426.291	922.94
426.513	907.94
426.735	899.94
426.958	905.94
427.18	891.94
427.402	877.94
427.625	925.94
427.847	898.94
428.069	882.94
428.292	875.94
428.514	890.94
428.736	865.94
428.958	892.94
429.181	840.94
429.403	874.94
429.625	905.94
429.847	854.94
430.069	866.94
430.292	906.94
430.514	857.94
430.736	870.94
430.958	867.94
431.18	874.94
431.402	883.94
431.624	870.94
431.846	842.94
432.068	879.94
432.29	880.94
432.512	888.94
432.734	892.94
432.956	872.94
433.178	916.94
433.4	902.94
433.622	870.94
433.844	906.94
434.066	924.94
434.287	921.94
434.509	935.94
434.731	938.94
434.953	965.94
435.175	950.94
435.397	970.94
435.618	938.94
435.84	899.94
436.062	890.94
436.284	913.94
436.505	881.94
436.727	877.94
436.949	906.94
437.17	899.94
437.392	882.94
437.614	883.94
437.835	850.94
438.057	862.94
438.278	860.94
438.5	855.94
438.721	875.94
438.943	871.94
439.165	837.94
439.386	867.94
439.608	886.94
439.829	902.94
440.05	893.94
440.272	891.94
440.493	880.94
440.715	932.94
440.936	924.94
441.158	934.94
441.379	929.94
441.6	974.94
441.822	966.94
442.043	1014.94
442.264	965.94
442.486	935.94
442.707	944.94
442.928	973.94
443.149	981.94
443.371	1008.94
443.592	977.94
443.813	1005.94
444.034	986.94
444.255	1039.94
444.476	1066.94
444.698	1082.94
444.919	1089.94
445.14	1155.94
445.361	1095.94
445.582	1011.94
445.803	949.94
446.024	952.94
446.245	986.94
446.466	905.94
446.687	906.94
446.908	913.94
447.129	890.94
447.35	885.94
447.571	864.94
447.792	886.94
448.013	867.94
448.234	815.94
448.455	836.94
448.675	822.94
448.896	854.94
449.117	827.94
449.338	825.94
449.559	842.94
449.779	831.94
450	826.94
450.221	836.94
450.442	837.94
450.662	848.94
450.883	837.94
451.104	842.94
451.324	822.94
451.545	855.94
451.766	846.94
451.986	843.94
452.207	806.94
452.428	815.94
452.648	825.94
452.869	814.94
453.089	797.94
453.31	805.94
453.53	799.94
453.751	801.94
453.971	795.94
454.192	807.94
454.412	805.94
454.633	790.94
454.853	805.94
455.073	783.94
455.294	799.94
455.514	795.94
455.734	802.94
455.955	819.94
456.175	802.94
456.395	808.94
456.616	770.94
456.836	775.94
457.056	764.94
457.276	790.94
457.497	806.94
457.717	790.94
457.937	796.94
458.157	783.94
458.377	819.94
458.598	844.94
458.818	858.94
459.038	894.94
459.258	887.94
459.478	912.94
459.698	937.94
459.918	961.94
460.138	975.94
460.358	1007.94
460.578	1022.94
460.798	1010.94
461.018	1069.94
461.238	1065.94
461.458	1029.94
461.678	1033.94
461.898	1015.94
462.118	1043.94
462.338	1115.94
462.558	1133.94
462.777	1150.94
462.997	1235.94
463.217	1238.94
463.437	1234.94
463.657	1209.94
463.876	1166.94
464.096	1178.94
464.316	1148.94
464.536	1139.94
464.755	1124.94
464.975	1105.94
465.195	1069.94
465.414	1012.94
465.634	952.94
465.854	965.94
466.073	951.94
466.293	925.94
466.512	890.94
466.732	906.94
466.951	903.94
467.171	893.94
467.391	894.94
467.61	884.94
467.829	865.94
468.049	849.94
468.268	856.94
468.488	843.94
468.707	865.94
468.927	853.94
469.146	851.94
469.365	855.94
469.585	875.94
469.804	884.94
470.023	903.94
470.243	893.94
470.462	869.94
470.681	901.94
470.901	890.94
471.12	906.94
471.339	889.94
471.558	890.94
471.777	872.94
471.997	877.94
472.216	869.94
472.435	840.94
472.654	835.94
472.873	836.94
473.092	840.94
473.311	854.94
473.53	875.94
473.749	840.94
473.968	834.94
474.187	838.94
474.406	829.94
474.625	868.94
474.844	857.94
475.063	846.94
475.282	865.94
475.501	886.94
475.72	877.94
475.939	874.94
476.158	895.94
476.377	909.94
476.596	891.94
476.814	889.94
477.033	893.94
477.252	913.94
477.471	906.94
477.69	968.94
477.908	975.94
478.127	969.94
478.346	997.94
478.564	978.94
478.783	1034.94
479.002	1043.94
479.22	1013.94
479.439	1030.94
479.658	1009.94
479.876	1023.94
480.095	1025.94
480.313	1057.94
480.532	1091.94
480.751	1080.94
480.969	1050.94
481.188	1029.94
481.406	1008.94
481.624	997.94
481.843	1006.94
482.061	975.94
482.28	987.94
482.498	991.94
482.717	967.94
482.935	989.94
483.153	1007.94
483.372	991.94
483.59	1006.94
483.808	971.94
484.027	972.94
484.245	975.94
484.463	996.94
484.681	1010.94
484.9	1023.94
485.118	999.94
485.336	1017.94
485.554	1001.94
485.772	1007.94
485.99	994.94
486.209	1023.94
486.427	1015.94
486.645	1011.94
486.863	1019.94
487.081	1024.94
487.299	1003.94
487.517	991.94
487.735	1041.94
487.953	1045.94
488.171	1012.94
488.389	1020.94
488.607	1012.94
488.825	996.94
489.043	1017.94
489.261	1022.94
489.479	996.94
489.696	1026.94
489.914	1032.94
490.132	1029.94
490.35	1043.94
490.568	1011.94
490.786	1032.94
491.003	1042.94
491.221	1022.94
491.439	1081.94
491.657	1030.94
491.874	1065.94
492.092	1083.94
492.31	1083.94
492.527	1072.94
492.745	1089.94
492.963	1090.94
493.18	1057.94
493.398	1102.94
493.615	1088.94
493.833	1099.94
494.05	1073.94
494.268	1082.94
494.485	1098.94
494.703	1101.94
494.92	1085.94
495.138	1085.94
495.355	1111.94
495.573	1113.94
495.79	1126.94
496.008	1117.94
496.225	1126.94
496.442	1137.94
496.66	1133.94
496.877	1139.94
497.094	1219.94
497.312	1194.94
497.529	1221.94
497.746	1245.94
497.963	1309.94
498.181	1297.94
498.398	1371.94
498.615	1437.94
498.832	1485.94
499.049	1601.94
499.267	1681.94
499.484	1743.94
499.701	1913.94
499.918	2045.94
500.135	2272.94
500.352	2396.94
500.569	2488.94
500.786	2489.94
501.003	2359.94
501.22	2244.94
501.437	2024.94
501.654	1906.94
501.871	1767.94
502.088	1667.94
502.305	1579.94
502.522	1514.94
502.739	1438.94
502.956	1384.94
503.172	1339.94
503.389	1310.94
503.606	1280.94
503.823	1274.94
504.04	1249.94
504.256	1218.94
504.473	1227.94
504.69	1240.94
504.907	1225.94
505.123	1178.94
505.34	1106.94
505.557	1054.94
505.773	1084.94
505.99	1074.94
506.207	1021.94
506.423	993.94
506.64	1003.94
506.856	976.94
507.073	982.94
507.289	963.94
507.506	981.94
507.722	957.94
507.939	971.94
508.155	927.94
508.372	936.94
508.588	954.94
508.805	929.94
509.021	931.94
509.238	899.94
509.454	885.94
509.67	886.94
509.887	889.94
510.103	895.94
510.319	882.94
510.536	893.94
510.752	878.94
510.968	880.94
511.184	857.94
511.401	874.94
511.617	851.94
511.833	893.94
512.049	867.94
512.265	853.94
512.481	856.94
512.698	862.94
512.914	858.94
513.13	878.94
513.346	875.94
513.562	873.94
513.778	865.94
513.994	876.94
514.21	868.94
514.426	887.94
514.642	867.94
514.858	877.94
515.074	897.94
515.29	905.94
515.506	917.94
515.721	923.94
515.937	929.94
516.153	949.94
516.369	946.94
516.585	957.94
516.801	986.94
517.016	1010.94
517.232	1057.94
517.448	1083.94
517.664	1105.94
517.879	1110.94
518.095	1082.94
518.311	1060.94
518.527	1056.94
518.742	1008.94
518.958	1000.94
519.173	982.94
519.389	970.94
519.605	930.94
519.82	899.94
520.036	925.94
520.251	874.94
520.467	871.94
520.682	893.94
520.898	880.94
521.113	838.94
521.329	858.94
521.544	872.94
521.76	861.94
521.975	849.94
522.19	836.94
522.406	808.94
522.621	854.94
522.836	807.94
523.052	804.94
523.267	819.94
523.482	795.94
523.698	810.94
523.913	791.94
524.128	838.94
524.343	806.94
524.559	790.94
524.774	790.94
524.989	777.94
525.204	790.94
525.419	791.94
525.634	781.94
525.849	810.94
526.064	793.94
526.28	750.94
526.495	781.94
526.71	786.94
526.925	777.94
527.14	750.94
527.355	757.94
527.57	755.94
527.785	768.94
527.999	807.94
528.214	784.94
528.429	777.94
528.644	771.94
528.859	763.94
529.074	779.94
529.289	785.94
529.503	774.94
529.718	751.94
529.933	760.94
530.148	755.94
530.363	754.94
530.577	745.94
530.792	785.94
531.007	739.94
531.221	763.94
531.436	785.94
531.651	755.94
531.865	736.94
532.08	763.94
532.295	762.94
532.509	746.94
532.724	758.94
532.938	755.94
533.153	754.94
533.367	750.94
533.582	742.94
533.796	737.94
534.011	772.94
534.225	761.94
534.44	762.94
534.654	741.94
534.868	726.94
535.083	746.94
535.297	751.94
535.511	713.94
535.726	721.94
535.94	714.94
536.154	730.94
536.369	704.94
536.583	699.94
536.797	712.94
537.011	699.94
537.225	712.94
537.44	697.94
537.654	702.94
537.868	697.94
538.082	687.94
538.296	693.94
538.51	696.94
538.724	729.94
538.938	677.94
539.153	710.94
539.367	724.94
539.581	691.94
539.795	675.94
540.009	699.94
540.222	685.94
540.436	697.94
540.65	664.94
540.864	691.94
541.078	678.94
541.292	690.94
541.506	699.94
541.72	694.94
541.934	704.94
542.147	713.94
542.361	721.94
542.575	689.94
542.789	678.94
543.002	690.94
543.216	689.94
543.43	681.94
543.644	678.94
543.857	701.94
544.071	697.94
544.285	713.94
544.498	686.94
544.712	693.94
544.925	703.94
545.139	699.94
545.352	709.94
545.566	721.94
545.779	703.94
545.993	709.94
546.206	709.94
546.42	697.94
546.633	707.94
546.847	698.94
547.06	703.94
547.274	714.94
547.487	714.94
547.7	714.94
547.914	731.94
548.127	755.94
548.34	730.94
548.554	685.94
548.767	689.94
548.98	705.94
549.193	696.94
549.407	695.94
549.62	703.94
549.833	727.94
550.046	710.94
550.259	708.94
550.473	695.94
550.686	693.94
550.899	693.94
551.112	691.94
551.325	669.94
551.538	682.94
551.751	667.94
551.964	672.94
552.177	675.94
552.39	694.94
552.603	720.94
552.816	713.94
553.029	697.94
553.242	737.94
553.455	754.94
553.667	733.94
553.88	737.94
554.093	712.94
554.306	723.94
554.519	685.94
554.732	682.94
554.944	652.94
555.157	664.94
555.37	681.94
555.583	661.94
555.795	658.94
556.008	623.94
556.221	602.94
556.433	639.94
556.646	628.94
556.859	630.94
557.071	587.94
557.284	593.94
557.496	609.94
557.709	577.94
557.921	580.94
558.134	604.94
558.346	592.94
558.559	596.94
558.771	586.94
558.984	576.94
559.196	615.94
559.409	578.94
559.621	572.94
559.833	600.94
560.046	585.94
560.258	573.94
560.47	591.94
560.683	573.94
560.895	597.94
561.107	560.94
561.32	567.94
561.532	581.94
561.744	562.94
561.956	573.94
562.168	581.94
562.381	589.94
562.593	553.94
562.805	569.94
563.017	581.94
563.229	576.94
563.441	587.94
563.653	593.94
563.865	592.94
564.077	608.94
564.289	607.94
564.501	588.94
564.713	628.94
564.925	639.94
565.137	625.94
565.349	650.94
565.561	651.94
565.773	685.94
565.985	705.94
566.197	698.94
566.408	732.94
566.62	763.94
566.832	817.94
567.044	826.94
567.255	838.94
567.467	850.94
567.679	842.94
567.891	898.94
568.102	893.94
568.314	895.94
568.526	828.94
568.737	778.94
568.949	710.94
569.161	665.94
569.372	642.94
569.584	629.94
569.795	607.94
570.007	601.94
570.218	600.94
570.43	595.94
570.641	570.94
570.853	601.94
571.064	574.94
571.276	566.94
571.487	568.94
571.698	533.94
571.91	518.94
572.121	534.94
572.333	518.94
572.544	502.94
572.755	519.94
572.966	508.94
573.178	471.94
573.389	509.94
573.6	493.94
573.811	470.94
574.023	479.94
574.234	487.94
574.445	487.94
574.656	460.94
574.867	471.94
575.078	469.94
575.289	479.94
575.501	465.94
575.712	460.94
575.923	439.94
576.134	441.94
576.345	451.94
576.556	433.94
576.767	453.94
576.978	433.94
577.188	452.94
577.399	429.94
577.61	440.94
577.821	437.94
578.032	446.94
578.243	426.94
578.454	415.94
578.665	423.94
578.875	423.94
579.086	410.94
579.297	423.94
579.508	413.94
579.718	416.94
579.929	424.94
580.14	411.94
580.35	409.94
580.561	390.94
580.772	406.94
580.982	397.94
581.193	398.94
581.403	402.94
581.614	401.94
581.825	422.94
582.035	395.94
582.246	409.94
582.456	403.94
582.667	409.94
582.877	405.94
583.087	385.94
583.298	382.94
583.508	384.94
583.719	387.94
583.929	374.94
584.139	387.94
584.35	379.94
584.56	372.94
584.77	391.94
584.981	392.94
585.191	389.94
585.401	359.94
585.611	358.94
585.821	391.94
586.032	386.94
586.242	386.94
586.452	381.94
586.662	386.94
586.872	383.94
587.082	399.94
587.292	380.94
587.502	389.94
587.713	385.94
587.923	372.94
588.133	375.94
588.343	377.94
588.553	365.94
588.762	385.94
588.972	396.94
589.182	399.94
589.392	427.94
589.602	396.94
589.812	413.94
590.022	399.94
590.232	377.94
590.441	378.94
590.651	397.94
590.861	385.94
591.071	372.94
591.281	386.94
591.49	383.94
591.7	390.94
591.91	404.94
592.119	394.94
592.329	399.94
592.539	404.94
592.748	422.94
592.958	424.94
593.167	430.94
593.377	435.94
593.587	455.94
593.796	413.94
594.006	434.94
594.215	419.94
594.424	424.94
594.634	416.94
594.843	416.94
595.053	404.94
595.262	390.94
595.472	399.94
595.681	369.94
595.89	362.94
596.1	381.94
596.309	359.94
596.518	366.94
596.727	348.94
596.937	346.94
597.146	344.94
597.355	352.94
597.564	341.94
597.774	352.94
597.983	347.94
598.192	322.94
598.401	322.94
598.61	329.94
598.819	330.94
599.028	335.94
599.237	330.94
599.446	335.94
599.655	324.94
599.864	304.94
600.073	304.94
600.282	329.94
600.491	318.94
600.7	333.94
600.909	296.94
601.118	305.94
601.327	280.94
601.536	299.94
601.745	304.94
601.953	309.94
602.162	312.94
602.371	306.94
602.58	295.94
602.789	300.94
602.997	294.94
603.206	315.94
603.415	321.94
603.623	305.94
603.832	312.94
604.041	282.94
604.249	295.94
604.458	299.94
604.666	304.94
604.875	295.94
605.084	286.94
605.292	293.94
605.501	283.94
605.709	297.94
605.918	293.94
606.126	295.94
606.334	287.94
606.543	284.94
606.751	289.94
606.96	285.94
607.168	297.94
607.376	282.94
607.585	286.94
607.793	278.94
608.001	290.94
608.21	276.94
608.418	289.94
608.626	286.94
608.834	279.94
609.043	290.94
609.251	286.94
609.459	280.94
609.667	263.94
609.875	286.94
610.083	266.94
610.291	281.94
610.499	271.94
610.707	282.94
610.916	271.94
611.124	277.94
611.332	301.94
611.54	272.94
611.748	267.94
611.955	270.94
612.163	259.94
612.371	281.94
612.579	275.94
612.787	282.94
612.995	282.94
613.203	279.94
613.411	273.94
613.618	279.94
613.826	271.94
614.034	264.94
614.242	294.94
614.449	274.94
614.657	264.94
614.865	269.94
615.072	284.94
615.28	269.94
615.488	286.94
615.695	269.94
615.903	247.94
616.111	262.94
616.318	271.94
616.526	269.94
616.733	277.94
616.941	266.94
617.148	254.94
617.356	256.94
617.563	258.94
617.771	256.94
617.978	265.94
618.185	264.94
618.393	274.94
618.6	266.94
618.807	253.94
619.015	250.94
619.222	242.94
619.429	258.94
619.637	255.94
619.844	256.94
620.051	245.94
620.258	256.94
620.466	238.94
620.673	250.94
620.88	257.94
621.087	249.94
621.294	243.94
621.501	258.94
621.708	235.94
621.915	241.94
622.122	253.94
622.329	245.94
622.536	243.94
622.743	233.94
622.95	228.94
623.157	260.94
623.364	240.94
623.571	232.94
623.778	243.94
623.985	254.94
624.192	234.94
624.399	227.94
624.606	233.94
624.812	220.94
625.019	225.94
625.226	231.94
625.433	238.94
625.639	217.94
625.846	209.94
626.053	239.94
626.259	246.94
626.466	228.94
626.673	222.94
626.879	222.94
627.086	228.94
627.293	237.94
627.499	217.94
627.706	226.94
627.912	229.94
628.119	224.94
628.325	239.94
628.532	209.94
628.738	239.94
628.945	223.94
629.151	221.94
629.357	221.94
629.564	215.94
629.77	226.94
629.976	226.94
630.183	196.94
630.389	202.94
630.595	218.94
630.802	207.94
631.008	208.94
631.214	200.94
631.42	211.94
631.627	222.94
631.833	212.94
632.039	206.94
632.245	215.94
632.451	212.94
632.657	208.94
632.863	212.94
633.069	204.94
633.275	212.94
633.481	214.94
633.688	204.94
633.893	195.94
634.099	203.94
634.305	213.94
634.511	212.94
634.717	207.94
634.923	194.94
635.129	202.94
635.335	197.94
635.541	191.94
635.747	199.94
635.952	187.94
636.158	190.94
636.364	190.94
636.57	190.94
636.775	200.94
636.981	204.94
637.187	199.94
637.392	189.94
637.598	201.94
637.804	198.94
638.009	199.94
638.215	196.94
638.421	209.94
638.626	189.94
638.832	197.94
639.037	200.94
639.243	188.94
639.448	206.94
639.654	192.94
639.859	202.94
640.065	179.94
640.27	193.94
640.475	189.94
640.681	197.94
640.886	197.94
641.091	203.94
641.297	163.94
641.502	171.94
641.707	184.94
641.913	171.94
642.118	185.94
642.323	183.94
642.528	180.94
642.733	165.94
642.939	177.94
643.144	161.94
643.349	174.94
643.554	175.94
643.759	198.94
643.964	187.94
644.169	164.94
644.374	151.94
644.579	175.94
644.784	182.94
644.989	184.94
645.194	184.94
645.399	182.94
645.604	186.94
645.809	185.94
646.014	177.94
646.219	187.94
646.423	183.94
646.628	184.94
646.833	191.94
647.038	188.94
647.243	181.94
647.447	181.94
647.652	178.94
647.857	191.94
648.062	194.94
648.266	191.94
648.471	194.94
648.676	187.94
648.88	184.94
649.085	177.94
649.289	182.94
649.494	189.94
649.698	178.94
649.903	176.94
650.107	182.94
650.312	179.94
650.516	170.94
650.721	170.94
650.925	166.94
651.13	165.94
651.334	167.94
651.539	171.94
651.743	168.94
651.947	167.94
652.152	162.94
652.356	133.94
652.56	153.94
652.764	149.94
652.969	153.94
653.173	150.94
653.377	155.94
653.581	145.94
653.785	134.94
653.99	149.94
654.194	157.94
654.398	152.94
654.602	150.94
654.806	156.94
655.01	148.94
655.214	138.94
655.418	161.94
655.622	127.94
655.826	133.94
656.03	142.94
656.234	149.94
656.438	145.94
656.642	130.94
656.846	133.94
657.049	145.94
657.253	130.94
657.457	136.94
657.661	122.94
657.865	130.94
658.068	110.94
658.272	116.94
658.476	109.94
658.68	119.94
658.883	106.94
659.087	104.94
659.291	97.94
659.494	94.94
659.698	102.94
659.901	110.94
660.105	99.94
660.309	101.94
660.512	101.94
660.716	98.94
660.919	105.94
661.123	92.94
661.326	110.94
661.53	93.94
661.733	102.94
661.936	79.94
662.14	88.94
662.343	92.94
662.546	80.94
662.75	80.94
662.953	74.94
663.156	74.94
663.36	79.94
663.563	74.94
663.766	80.94
663.969	79.94
664.173	87.94
664.376	99.94
664.579	80.94
664.782	83.94
664.985	75.94
665.188	80.94
665.391	56.94
665.594	75.94
665.797	81.94
666	81.94
666.203	85.94
666.406	79.94
666.609	84.94
666.812	80.94
667.015	78.94
667.218	79.94
667.421	74.94
667.624	80.94
667.827	84.94
668.03	85.94
668.232	80.94
668.435	76.94
668.638	72.94
668.841	85.94
669.043	82.94
669.246	72.94
669.449	64.94
669.651	75.94
669.854	78.94
670.057	77.94
670.259	80.94
670.462	86.94
670.665	77.94
670.867	80.94
671.07	80.94
671.272	82.94
671.475	82.94
671.677	67.94
671.88	82.94
672.082	84.94
672.284	66.94
672.487	63.94
672.689	79.94
672.892	85.94
