Data from NiCl2@0.25M.TitratingCurve.Agarose3%dH2O.NegLispCup.LampEnergy10.LIBS07252019_HRD10591_18-26-11-573.txt Node
Date: Thu Jul 25 18:26:11 EDT 2019
User: cochatt
Spectrometer: HR+D1059
Trigger mode: 1
Integration Time (sec): 1.000000E-1
Scans to average: 1
Electric dark correction enabled: true
Nonlinearity correction enabled: false
Boxcar width: 0
XAxis mode: Wavelengths
Number of Pixels in Spectrum: 2048
>>>>>Begin Spectral Data<<<<<
223.165	-6.75
223.4	-6.75
223.635	-6.75
223.869	-0.75
224.104	-5.75
224.338	-22.75
224.573	-10.75
224.808	-14.75
225.042	-18.75
225.277	1.25
225.511	-5.75
225.746	-1.75
225.98	5.25
226.215	8.25
226.449	4.25
226.683	14.25
226.918	24.25
227.152	30.25
227.387	31.25
227.621	39.25
227.856	43.25
228.09	59.25
228.324	52.25
228.559	60.25
228.793	73.25
229.027	114.25
229.262	102.25
229.496	102.25
229.73	133.25
229.964	135.25
230.199	133.25
230.433	138.25
230.667	148.25
230.901	131.25
231.136	132.25
231.37	149.25
231.604	137.25
231.838	149.25
232.072	161.25
232.306	127.25
232.541	150.25
232.775	157.25
233.009	145.25
233.243	144.25
233.477	150.25
233.711	145.25
233.945	147.25
234.179	165.25
234.413	149.25
234.647	156.25
234.881	151.25
235.115	148.25
235.349	161.25
235.583	137.25
235.817	170.25
236.051	154.25
236.285	165.25
236.519	170.25
236.753	178.25
236.987	157.25
237.221	152.25
237.455	158.25
237.689	166.25
237.922	167.25
238.156	157.25
238.39	170.25
238.624	188.25
238.858	177.25
239.091	181.25
239.325	162.25
239.559	188.25
239.793	185.25
240.027	185.25
240.26	189.25
240.494	186.25
240.728	177.25
240.961	200.25
241.195	188.25
241.429	197.25
241.662	183.25
241.896	198.25
242.13	190.25
242.363	218.25
242.597	205.25
242.83	212.25
243.064	197.25
243.298	200.25
243.531	215.25
243.765	226.25
243.998	218.25
244.232	200.25
244.465	213.25
244.699	220.25
244.932	215.25
245.166	207.25
245.399	202.25
245.633	231.25
245.866	233.25
246.099	228.25
246.333	232.25
246.566	222.25
246.8	234.25
247.033	244.25
247.266	230.25
247.5	227.25
247.733	249.25
247.966	226.25
248.2	245.25
248.433	236.25
248.666	246.25
248.899	246.25
249.133	264.25
249.366	248.25
249.599	258.25
249.832	244.25
250.066	257.25
250.299	268.25
250.532	249.25
250.765	254.25
250.998	253.25
251.231	265.25
251.465	260.25
251.698	262.25
251.931	271.25
252.164	262.25
252.397	274.25
252.63	280.25
252.863	284.25
253.096	266.25
253.329	267.25
253.562	281.25
253.795	269.25
254.028	287.25
254.261	281.25
254.494	272.25
254.727	283.25
254.96	291.25
255.193	287.25
255.426	298.25
255.659	281.25
255.892	301.25
256.124	307.25
256.357	300.25
256.59	301.25
256.823	286.25
257.056	292.25
257.289	301.25
257.521	315.25
257.754	296.25
257.987	314.25
258.22	319.25
258.452	312.25
258.685	320.25
258.918	327.25
259.151	324.25
259.383	300.25
259.616	317.25
259.849	317.25
260.081	316.25
260.314	318.25
260.547	326.25
260.779	322.25
261.012	343.25
261.244	326.25
261.477	326.25
261.71	341.25
261.942	334.25
262.175	333.25
262.407	333.25
262.64	333.25
262.872	352.25
263.105	343.25
263.337	367.25
263.57	342.25
263.802	349.25
264.035	342.25
264.267	334.25
264.499	336.25
264.732	362.25
264.964	362.25
265.197	358.25
265.429	370.25
265.661	349.25
265.894	341.25
266.126	373.25
266.358	352.25
266.591	363.25
266.823	371.25
267.055	364.25
267.287	347.25
267.52	363.25
267.752	370.25
267.984	383.25
268.216	372.25
268.448	389.25
268.681	375.25
268.913	383.25
269.145	363.25
269.377	381.25
269.609	381.25
269.841	395.25
270.073	378.25
270.306	379.25
270.538	379.25
270.77	389.25
271.002	403.25
271.234	414.25
271.466	392.25
271.698	407.25
271.93	399.25
272.162	386.25
272.394	389.25
272.626	439.25
272.858	390.25
273.09	403.25
273.322	425.25
273.553	411.25
273.785	406.25
274.017	430.25
274.249	414.25
274.481	410.25
274.713	424.25
274.945	429.25
275.176	417.25
275.408	429.25
275.64	434.25
275.872	433.25
276.104	413.25
276.335	438.25
276.567	424.25
276.799	427.25
277.031	432.25
277.262	429.25
277.494	421.25
277.726	445.25
277.957	418.25
278.189	452.25
278.421	446.25
278.652	447.25
278.884	444.25
279.115	451.25
279.347	446.25
279.579	464.25
279.81	466.25
280.042	453.25
280.273	481.25
280.505	475.25
280.736	459.25
280.968	453.25
281.199	478.25
281.431	465.25
281.662	463.25
281.894	475.25
282.125	492.25
282.356	469.25
282.588	466.25
282.819	475.25
283.051	469.25
283.282	492.25
283.513	477.25
283.745	477.25
283.976	464.25
284.207	461.25
284.439	481.25
284.67	521.25
284.901	497.25
285.132	500.25
285.364	502.25
285.595	506.25
285.826	511.25
286.057	505.25
286.288	519.25
286.52	497.25
286.751	517.25
286.982	526.25
287.213	524.25
287.444	516.25
287.675	540.25
287.906	494.25
288.138	536.25
288.369	531.25
288.6	533.25
288.831	531.25
289.062	545.25
289.293	523.25
289.524	550.25
289.755	527.25
289.986	506.25
290.217	546.25
290.448	538.25
290.679	514.25
290.91	506.25
291.141	537.25
291.371	523.25
291.602	547.25
291.833	513.25
292.064	545.25
292.295	532.25
292.526	540.25
292.757	516.25
292.987	511.25
293.218	531.25
293.449	558.25
293.68	541.25
293.91	531.25
294.141	551.25
294.372	539.25
294.603	539.25
294.833	533.25
295.064	516.25
295.295	550.25
295.525	559.25
295.756	541.25
295.987	561.25
296.217	577.25
296.448	555.25
296.679	554.25
296.909	548.25
297.14	555.25
297.37	570.25
297.601	573.25
297.831	566.25
298.062	588.25
298.292	588.25
298.523	601.25
298.753	598.25
298.984	589.25
299.214	599.25
299.445	587.25
299.675	582.25
299.905	578.25
300.136	595.25
300.366	594.25
300.597	573.25
300.827	567.25
301.057	592.25
301.288	637.25
301.518	591.25
301.748	648.25
301.979	581.25
302.209	627.25
302.439	615.25
302.669	583.25
302.9	598.25
303.13	602.25
303.36	615.25
303.59	610.25
303.82	628.25
304.051	620.25
304.281	613.25
304.511	601.25
304.741	609.25
304.971	589.25
305.201	585.25
305.431	615.25
305.661	597.25
305.891	605.25
306.121	586.25
306.352	611.25
306.582	609.25
306.812	601.25
307.042	593.25
307.272	597.25
307.502	607.25
307.731	599.25
307.961	600.25
308.191	585.25
308.421	594.25
308.651	586.25
308.881	553.25
309.111	605.25
309.341	580.25
309.571	604.25
309.8	603.25
310.03	599.25
310.26	610.25
310.49	603.25
310.72	598.25
310.949	595.25
311.179	631.25
311.409	597.25
311.639	604.25
311.868	628.25
312.098	609.25
312.328	605.25
312.557	622.25
312.787	615.25
313.017	590.25
313.246	640.25
313.476	629.25
313.706	635.25
313.935	628.25
314.165	644.25
314.394	625.25
314.624	642.25
314.853	627.25
315.083	635.25
315.312	637.25
315.542	650.25
315.771	643.25
316.001	627.25
316.23	661.25
316.46	628.25
316.689	622.25
316.919	639.25
317.148	627.25
317.377	625.25
317.607	610.25
317.836	609.25
318.065	638.25
318.295	637.25
318.524	613.25
318.753	637.25
318.983	637.25
319.212	634.25
319.441	617.25
319.67	632.25
319.9	645.25
320.129	630.25
320.358	638.25
320.587	627.25
320.816	629.25
321.046	635.25
321.275	631.25
321.504	623.25
321.733	646.25
321.962	659.25
322.191	632.25
322.42	643.25
322.649	668.25
322.878	652.25
323.108	639.25
323.337	647.25
323.566	673.25
323.795	665.25
324.024	666.25
324.253	633.25
324.482	659.25
324.71	658.25
324.939	668.25
325.168	669.25
325.397	638.25
325.626	661.25
325.855	663.25
326.084	679.25
326.313	691.25
326.542	695.25
326.77	726.25
326.999	681.25
327.228	674.25
327.457	685.25
327.686	695.25
327.914	677.25
328.143	701.25
328.372	703.25
328.6	701.25
328.829	703.25
329.058	679.25
329.287	689.25
329.515	705.25
329.744	718.25
329.972	741.25
330.201	706.25
330.43	692.25
330.658	707.25
330.887	714.25
331.115	715.25
331.344	693.25
331.572	719.25
331.801	748.25
332.03	765.25
332.258	755.25
332.486	784.25
332.715	824.25
332.943	845.25
333.172	892.25
333.4	893.25
333.629	935.25
333.857	934.25
334.085	898.25
334.314	884.25
334.542	878.25
334.771	861.25
334.999	855.25
335.227	862.25
335.455	871.25
335.684	864.25
335.912	835.25
336.14	856.25
336.369	817.25
336.597	831.25
336.825	835.25
337.053	808.25
337.281	815.25
337.51	797.25
337.738	780.25
337.966	781.25
338.194	772.25
338.422	737.25
338.65	760.25
338.878	730.25
339.106	766.25
339.334	771.25
339.562	757.25
339.79	723.25
340.018	721.25
340.246	745.25
340.474	730.25
340.702	732.25
340.93	748.25
341.158	733.25
341.386	727.25
341.614	724.25
341.842	746.25
342.07	731.25
342.298	713.25
342.526	736.25
342.754	736.25
342.981	696.25
343.209	738.25
343.437	787.25
343.665	829.25
343.893	851.25
344.12	886.25
344.348	870.25
344.576	824.25
344.804	789.25
345.031	778.25
345.259	753.25
345.487	702.25
345.714	711.25
345.942	720.25
346.17	717.25
346.397	723.25
346.625	725.25
346.853	720.25
347.08	709.25
347.308	694.25
347.535	691.25
347.763	718.25
347.99	705.25
348.218	716.25
348.445	723.25
348.673	705.25
348.9	692.25
349.128	705.25
349.355	673.25
349.583	677.25
349.81	691.25
350.037	676.25
350.265	669.25
350.492	673.25
350.72	644.25
350.947	675.25
351.174	676.25
351.402	674.25
351.629	677.25
351.856	670.25
352.083	666.25
352.311	675.25
352.538	686.25
352.765	674.25
352.992	682.25
353.22	668.25
353.447	659.25
353.674	659.25
353.901	682.25
354.128	689.25
354.355	689.25
354.583	685.25
354.81	674.25
355.037	669.25
355.264	669.25
355.491	683.25
355.718	669.25
355.945	663.25
356.172	650.25
356.399	702.25
356.626	664.25
356.853	662.25
357.08	689.25
357.307	677.25
357.534	655.25
357.761	664.25
357.988	675.25
358.215	672.25
358.441	700.25
358.668	673.25
358.895	675.25
359.122	678.25
359.349	679.25
359.576	692.25
359.802	661.25
360.029	673.25
360.256	660.25
360.483	687.25
360.709	662.25
360.936	684.25
361.163	661.25
361.39	682.25
361.616	659.25
361.843	675.25
362.07	677.25
362.296	658.25
362.523	681.25
362.749	709.25
362.976	694.25
363.203	677.25
363.429	655.25
363.656	652.25
363.882	671.25
364.109	683.25
364.335	686.25
364.562	689.25
364.788	670.25
365.015	668.25
365.241	671.25
365.468	679.25
365.694	680.25
365.92	652.25
366.147	674.25
366.373	669.25
366.599	663.25
366.826	669.25
367.052	670.25
367.278	663.25
367.505	666.25
367.731	683.25
367.957	662.25
368.184	663.25
368.41	686.25
368.636	707.25
368.862	697.25
369.089	707.25
369.315	705.25
369.541	713.25
369.767	717.25
369.993	723.25
370.219	694.25
370.445	745.25
370.672	715.25
370.898	695.25
371.124	715.25
371.35	735.25
371.576	726.25
371.802	726.25
372.028	739.25
372.254	729.25
372.48	753.25
372.706	767.25
372.932	773.25
373.158	753.25
373.384	749.25
373.61	741.25
373.835	734.25
374.061	722.25
374.287	767.25
374.513	756.25
374.739	798.25
374.965	811.25
375.191	829.25
375.416	830.25
375.642	790.25
375.868	772.25
376.094	766.25
376.319	754.25
376.545	772.25
376.771	754.25
376.997	768.25
377.222	745.25
377.448	720.25
377.674	743.25
377.899	735.25
378.125	727.25
378.35	737.25
378.576	715.25
378.802	702.25
379.027	727.25
379.253	716.25
379.478	742.25
379.704	747.25
379.929	738.25
380.155	737.25
380.38	717.25
380.606	717.25
380.831	723.25
381.057	725.25
381.282	724.25
381.507	713.25
381.733	750.25
381.958	749.25
382.184	721.25
382.409	735.25
382.634	764.25
382.86	760.25
383.085	779.25
383.31	784.25
383.535	789.25
383.761	797.25
383.986	819.25
384.211	842.25
384.436	847.25
384.662	880.25
384.887	876.25
385.112	855.25
385.337	855.25
385.562	878.25
385.787	910.25
386.013	893.25
386.238	897.25
386.463	875.25
386.688	916.25
386.913	853.25
387.138	870.25
387.363	892.25
387.588	857.25
387.813	854.25
388.038	874.25
388.263	861.25
388.488	845.25
388.713	894.25
388.938	885.25
389.163	865.25
389.387	838.25
389.612	846.25
389.837	866.25
390.062	850.25
390.287	866.25
390.512	867.25
390.736	867.25
390.961	894.25
391.186	895.25
391.411	885.25
391.636	940.25
391.86	989.25
392.085	974.25
392.31	995.25
392.534	956.25
392.759	937.25
392.984	920.25
393.208	917.25
393.433	927.25
393.658	927.25
393.882	926.25
394.107	925.25
394.331	925.25
394.556	932.25
394.78	948.25
395.005	955.25
395.229	925.25
395.454	963.25
395.678	966.25
395.903	958.25
396.127	981.25
396.352	956.25
396.576	926.25
396.801	911.25
397.025	922.25
397.249	961.25
397.474	985.25
397.698	989.25
397.922	952.25
398.147	967.25
398.371	985.25
398.595	1017.25
398.82	1064.25
399.044	1131.25
399.268	1252.25
399.492	1447.25
399.717	1603.25
399.941	1583.25
400.165	1447.25
400.389	1304.25
400.613	1207.25
400.837	1123.25
401.062	1103.25
401.286	1092.25
401.51	1081.25
401.734	1086.25
401.958	1099.25
402.182	1113.25
402.406	1115.25
402.63	1103.25
402.854	1157.25
403.078	1167.25
403.302	1190.25
403.526	1207.25
403.75	1243.25
403.974	1270.25
404.198	1281.25
404.422	1271.25
404.645	1225.25
404.869	1247.25
405.093	1185.25
405.317	1213.25
405.541	1165.25
405.765	1157.25
405.988	1183.25
406.212	1171.25
406.436	1184.25
406.66	1222.25
406.883	1235.25
407.107	1279.25
407.331	1356.25
407.555	1402.25
407.778	1393.25
408.002	1350.25
408.226	1341.25
408.449	1314.25
408.673	1272.25
408.896	1229.25
409.12	1237.25
409.344	1246.25
409.567	1206.25
409.791	1235.25
410.014	1228.25
410.238	1213.25
410.461	1172.25
410.685	1182.25
410.908	1198.25
411.132	1140.25
411.355	1113.25
411.578	1139.25
411.802	1122.25
412.025	1128.25
412.249	1134.25
412.472	1120.25
412.695	1096.25
412.919	1073.25
413.142	1054.25
413.365	1087.25
413.589	1127.25
413.812	1067.25
414.035	1054.25
414.258	1053.25
414.482	1084.25
414.705	1089.25
414.928	1113.25
415.151	1081.25
415.374	1099.25
415.597	1087.25
415.821	1053.25
416.044	1068.25
416.267	1046.25
416.49	1052.25
416.713	1082.25
416.936	1102.25
417.159	1047.25
417.382	1053.25
417.605	1070.25
417.828	1062.25
418.051	1093.25
418.274	1083.25
418.497	1095.25
418.72	1075.25
418.943	1090.25
419.166	1185.25
419.389	1227.25
419.611	1175.25
419.834	1151.25
420.057	1143.25
420.28	1092.25
420.503	1055.25
420.726	1027.25
420.948	1065.25
421.171	1042.25
421.394	1041.25
421.617	1043.25
421.839	1062.25
422.062	1075.25
422.285	1055.25
422.507	1086.25
422.73	1084.25
422.953	1083.25
423.175	1105.25
423.398	1103.25
423.621	1107.25
423.843	1144.25
424.066	1131.25
424.288	1122.25
424.511	1106.25
424.733	1102.25
424.956	1082.25
425.178	1103.25
425.401	1105.25
425.623	1038.25
425.846	1065.25
426.068	1033.25
426.291	1039.25
426.513	1013.25
426.735	979.25
426.958	1009.25
427.18	976.25
427.402	945.25
427.625	943.25
427.847	920.25
428.069	963.25
428.292	961.25
428.514	951.25
428.736	939.25
428.958	953.25
429.181	932.25
429.403	902.25
429.625	930.25
429.847	926.25
430.069	921.25
430.292	933.25
430.514	933.25
430.736	923.25
430.958	933.25
431.18	934.25
431.402	932.25
431.624	921.25
431.846	949.25
432.068	967.25
432.29	1004.25
432.512	936.25
432.734	928.25
432.956	942.25
433.178	965.25
433.4	959.25
433.622	949.25
433.844	957.25
434.066	956.25
434.287	970.25
434.509	997.25
434.731	1049.25
434.953	1057.25
435.175	1089.25
435.397	1063.25
435.618	1006.25
435.84	980.25
436.062	955.25
436.284	935.25
436.505	945.25
436.727	951.25
436.949	963.25
437.17	931.25
437.392	910.25
437.614	971.25
437.835	902.25
438.057	893.25
438.278	900.25
438.5	886.25
438.721	925.25
438.943	921.25
439.165	916.25
439.386	904.25
439.608	923.25
439.829	952.25
440.05	933.25
440.272	906.25
440.493	951.25
440.715	961.25
440.936	971.25
441.158	986.25
441.379	1015.25
441.6	1086.25
441.822	1083.25
442.043	1054.25
442.264	1041.25
442.486	1021.25
442.707	1019.25
442.928	1018.25
443.149	1050.25
443.371	1029.25
443.592	1041.25
443.813	1081.25
444.034	1034.25
444.255	1071.25
444.476	1151.25
444.698	1187.25
444.919	1289.25
445.14	1308.25
445.361	1164.25
445.582	1081.25
445.803	1027.25
446.024	998.25
446.245	990.25
446.466	952.25
446.687	953.25
446.908	918.25
447.129	938.25
447.35	905.25
447.571	921.25
447.792	893.25
448.013	890.25
448.234	912.25
448.455	878.25
448.675	867.25
448.896	861.25
449.117	871.25
449.338	884.25
449.559	853.25
449.779	841.25
450	860.25
450.221	873.25
450.442	872.25
450.662	862.25
450.883	876.25
451.104	904.25
451.324	911.25
451.545	891.25
451.766	891.25
451.986	873.25
452.207	897.25
452.428	875.25
452.648	892.25
452.869	864.25
453.089	851.25
453.31	856.25
453.53	863.25
453.751	851.25
453.971	866.25
454.192	837.25
454.412	841.25
454.633	824.25
454.853	809.25
455.073	817.25
455.294	825.25
455.514	821.25
455.734	843.25
455.955	821.25
456.175	816.25
456.395	807.25
456.616	793.25
456.836	803.25
457.056	821.25
457.276	806.25
457.497	810.25
457.717	820.25
457.937	781.25
458.157	841.25
458.377	866.25
458.598	841.25
458.818	894.25
459.038	923.25
459.258	947.25
459.478	967.25
459.698	970.25
459.918	992.25
460.138	1038.25
460.358	1080.25
460.578	1100.25
460.798	1110.25
461.018	1116.25
461.238	1110.25
461.458	1115.25
461.678	1087.25
461.898	1086.25
462.118	1110.25
462.338	1171.25
462.558	1193.25
462.777	1248.25
462.997	1323.25
463.217	1463.25
463.437	1449.25
463.657	1348.25
463.876	1318.25
464.096	1272.25
464.316	1309.25
464.536	1305.25
464.755	1238.25
464.975	1205.25
465.195	1147.25
465.414	1094.25
465.634	1023.25
465.854	994.25
466.073	971.25
466.293	962.25
466.512	917.25
466.732	910.25
466.951	929.25
467.171	940.25
467.391	923.25
467.61	907.25
467.829	919.25
468.049	908.25
468.268	873.25
468.488	894.25
468.707	855.25
468.927	897.25
469.146	885.25
469.365	907.25
469.585	890.25
469.804	908.25
470.023	904.25
470.243	945.25
470.462	922.25
470.681	963.25
470.901	915.25
471.12	930.25
471.339	916.25
471.558	881.25
471.777	890.25
471.997	860.25
472.216	867.25
472.435	865.25
472.654	844.25
472.873	849.25
473.092	874.25
473.311	884.25
473.53	851.25
473.749	833.25
473.968	871.25
474.187	881.25
474.406	867.25
474.625	850.25
474.844	885.25
475.063	874.25
475.282	857.25
475.501	863.25
475.72	874.25
475.939	875.25
476.158	914.25
476.377	886.25
476.596	876.25
476.814	897.25
477.033	910.25
477.252	940.25
477.471	940.25
477.69	984.25
477.908	967.25
478.127	1012.25
478.346	1021.25
478.564	1025.25
478.783	1058.25
479.002	1057.25
479.22	1074.25
479.439	1033.25
479.658	1031.25
479.876	1045.25
480.095	1081.25
480.313	1109.25
480.532	1133.25
480.751	1161.25
480.969	1132.25
481.188	1063.25
481.406	1030.25
481.624	1023.25
481.843	994.25
482.061	1029.25
482.28	993.25
482.498	1003.25
482.717	988.25
482.935	1009.25
483.153	971.25
483.372	1011.25
483.59	1000.25
483.808	1019.25
484.027	1029.25
484.245	1005.25
484.463	995.25
484.681	1044.25
484.9	1029.25
485.118	995.25
485.336	1042.25
485.554	1029.25
485.772	1057.25
485.99	1045.25
486.209	1066.25
486.427	1067.25
486.645	1057.25
486.863	1068.25
487.081	1058.25
487.299	1051.25
487.517	1062.25
487.735	1043.25
487.953	1035.25
488.171	1049.25
488.389	1026.25
488.607	1053.25
488.825	1015.25
489.043	1040.25
489.261	1054.25
489.479	1037.25
489.696	1023.25
489.914	1039.25
490.132	1002.25
490.35	1049.25
490.568	1053.25
490.786	1023.25
491.003	1024.25
491.221	1034.25
491.439	1044.25
491.657	1065.25
491.874	1086.25
492.092	1063.25
492.31	1096.25
492.527	1058.25
492.745	1070.25
492.963	1051.25
493.18	1092.25
493.398	1095.25
493.615	1090.25
493.833	1088.25
494.05	1115.25
494.268	1081.25
494.485	1119.25
494.703	1123.25
494.92	1101.25
495.138	1099.25
495.355	1126.25
495.573	1080.25
495.79	1118.25
496.008	1129.25
496.225	1123.25
496.442	1146.25
496.66	1193.25
496.877	1153.25
497.094	1179.25
497.312	1183.25
497.529	1219.25
497.746	1265.25
497.963	1261.25
498.181	1316.25
498.398	1366.25
498.615	1433.25
498.832	1553.25
499.049	1649.25
499.267	1780.25
499.484	1931.25
499.701	2103.25
499.918	2354.25
500.135	2732.25
500.352	3059.25
500.569	3234.25
500.786	3166.25
501.003	2963.25
501.22	2614.25
501.437	2337.25
501.654	2055.25
501.871	1867.25
502.088	1779.25
502.305	1632.25
502.522	1539.25
502.739	1480.25
502.956	1452.25
503.172	1356.25
503.389	1308.25
503.606	1284.25
503.823	1254.25
504.04	1244.25
504.256	1270.25
504.473	1291.25
504.69	1316.25
504.907	1315.25
505.123	1203.25
505.34	1151.25
505.557	1124.25
505.773	1089.25
505.99	1071.25
506.207	1024.25
506.423	1017.25
506.64	989.25
506.856	1000.25
507.073	981.25
507.289	965.25
507.506	978.25
507.722	979.25
507.939	1001.25
508.155	955.25
508.372	961.25
508.588	930.25
508.805	967.25
509.021	955.25
509.238	922.25
509.454	921.25
509.67	935.25
509.887	906.25
510.103	883.25
510.319	888.25
510.536	905.25
510.752	898.25
510.968	897.25
511.184	891.25
511.401	877.25
511.617	896.25
511.833	883.25
512.049	876.25
512.265	903.25
512.481	889.25
512.698	885.25
512.914	873.25
513.13	915.25
513.346	895.25
513.562	915.25
513.778	879.25
513.994	899.25
514.21	884.25
514.426	908.25
514.642	915.25
514.858	917.25
515.074	905.25
515.29	943.25
515.506	948.25
515.721	940.25
515.937	965.25
516.153	946.25
516.369	959.25
516.585	997.25
516.801	1027.25
517.016	1062.25
517.232	1124.25
517.448	1191.25
517.664	1231.25
517.879	1205.25
518.095	1194.25
518.311	1193.25
518.527	1151.25
518.742	1123.25
518.958	1070.25
519.173	1045.25
519.389	994.25
519.605	969.25
519.82	951.25
520.036	928.25
520.251	921.25
520.467	906.25
520.682	918.25
520.898	891.25
521.113	889.25
521.329	868.25
521.544	845.25
521.76	885.25
521.975	846.25
522.19	851.25
522.406	870.25
522.621	844.25
522.836	847.25
523.052	842.25
523.267	817.25
523.482	841.25
523.698	845.25
523.913	834.25
524.128	829.25
524.343	849.25
524.559	823.25
524.774	814.25
524.989	825.25
525.204	817.25
525.419	823.25
525.634	805.25
525.849	814.25
526.064	813.25
526.28	797.25
526.495	779.25
526.71	821.25
526.925	794.25
527.14	789.25
527.355	789.25
527.57	826.25
527.785	790.25
527.999	798.25
528.214	806.25
528.429	814.25
528.644	810.25
528.859	818.25
529.074	823.25
529.289	813.25
529.503	830.25
529.718	792.25
529.933	815.25
530.148	811.25
530.363	777.25
530.577	797.25
530.792	813.25
531.007	791.25
531.221	814.25
531.436	805.25
531.651	793.25
531.865	785.25
532.08	804.25
532.295	792.25
532.509	789.25
532.724	789.25
532.938	803.25
533.153	790.25
533.367	825.25
533.582	803.25
533.796	789.25
534.011	801.25
534.225	792.25
534.44	773.25
534.654	780.25
534.868	797.25
535.083	743.25
535.297	750.25
535.511	771.25
535.726	767.25
535.94	791.25
536.154	758.25
536.369	747.25
536.583	761.25
536.797	742.25
537.011	744.25
537.225	739.25
537.44	735.25
537.654	747.25
537.868	746.25
538.082	731.25
538.296	732.25
538.51	735.25
538.724	734.25
538.938	738.25
539.153	727.25
539.367	727.25
539.581	721.25
539.795	725.25
540.009	714.25
540.222	705.25
540.436	734.25
540.65	721.25
540.864	725.25
541.078	730.25
541.292	729.25
541.506	725.25
541.72	710.25
541.934	714.25
542.147	709.25
542.361	731.25
542.575	723.25
542.789	715.25
543.002	731.25
543.216	705.25
543.43	719.25
543.644	678.25
543.857	709.25
544.071	724.25
544.285	714.25
544.498	736.25
544.712	692.25
544.925	721.25
545.139	740.25
545.352	713.25
545.566	719.25
545.779	745.25
545.993	724.25
546.206	742.25
546.42	754.25
546.633	725.25
546.847	733.25
547.06	727.25
547.274	709.25
547.487	713.25
547.7	735.25
547.914	728.25
548.127	741.25
548.34	730.25
548.554	735.25
548.767	730.25
548.98	727.25
549.193	741.25
549.407	754.25
549.62	737.25
549.833	738.25
550.046	743.25
550.259	756.25
550.473	726.25
550.686	726.25
550.899	705.25
551.112	697.25
551.325	709.25
551.538	727.25
551.751	702.25
551.964	709.25
552.177	758.25
552.39	742.25
552.603	774.25
552.816	760.25
553.029	792.25
553.242	789.25
553.455	787.25
553.667	775.25
553.88	774.25
554.093	751.25
554.306	742.25
554.519	730.25
554.732	702.25
554.944	700.25
555.157	699.25
555.37	692.25
555.583	686.25
555.795	659.25
556.008	661.25
556.221	643.25
556.433	655.25
556.646	639.25
556.859	641.25
557.071	605.25
557.284	631.25
557.496	622.25
557.709	614.25
557.921	628.25
558.134	607.25
558.346	604.25
558.559	614.25
558.771	617.25
558.984	605.25
559.196	599.25
559.409	604.25
559.621	609.25
559.833	606.25
560.046	612.25
560.258	595.25
560.47	627.25
560.683	589.25
560.895	614.25
561.107	597.25
561.32	585.25
561.532	590.25
561.744	598.25
561.956	589.25
562.168	590.25
562.381	602.25
562.593	611.25
562.805	618.25
563.017	586.25
563.229	611.25
563.441	622.25
563.653	611.25
563.865	607.25
564.077	611.25
564.289	622.25
564.501	628.25
564.713	643.25
564.925	658.25
565.137	646.25
565.349	659.25
565.561	676.25
565.773	701.25
565.985	741.25
566.197	750.25
566.408	802.25
566.62	863.25
566.832	937.25
567.044	968.25
567.255	938.25
567.467	966.25
567.679	1026.25
567.891	1117.25
568.102	1141.25
568.314	1071.25
568.526	935.25
568.737	884.25
568.949	817.25
569.161	755.25
569.372	718.25
569.584	661.25
569.795	653.25
570.007	630.25
570.218	633.25
570.43	620.25
570.641	606.25
570.853	616.25
571.064	617.25
571.276	604.25
571.487	604.25
571.698	601.25
571.91	567.25
572.121	546.25
572.333	531.25
572.544	532.25
572.755	534.25
572.966	545.25
573.178	510.25
573.389	508.25
573.6	516.25
573.811	498.25
574.023	499.25
574.234	498.25
574.445	492.25
574.656	497.25
574.867	483.25
575.078	497.25
575.289	508.25
575.501	478.25
575.712	482.25
575.923	473.25
576.134	461.25
576.345	457.25
576.556	461.25
576.767	482.25
576.978	469.25
577.188	468.25
577.399	458.25
577.61	446.25
577.821	472.25
578.032	441.25
578.243	445.25
578.454	470.25
578.665	449.25
578.875	438.25
579.086	463.25
579.297	459.25
579.508	431.25
579.718	438.25
579.929	430.25
580.14	424.25
580.35	449.25
580.561	421.25
580.772	418.25
580.982	427.25
581.193	411.25
581.403	417.25
581.614	411.25
581.825	420.25
582.035	421.25
582.246	412.25
582.456	418.25
582.667	440.25
582.877	414.25
583.087	402.25
583.298	417.25
583.508	409.25
583.719	421.25
583.929	419.25
584.139	390.25
584.35	417.25
584.56	417.25
584.77	413.25
584.981	410.25
585.191	405.25
585.401	399.25
585.611	409.25
585.821	411.25
586.032	402.25
586.242	398.25
586.452	409.25
586.662	390.25
586.872	397.25
587.082	378.25
587.292	401.25
587.502	403.25
587.713	373.25
587.923	378.25
588.133	415.25
588.343	386.25
588.553	387.25
588.762	411.25
588.972	395.25
589.182	418.25
589.392	406.25
589.602	400.25
589.812	414.25
590.022	386.25
590.232	399.25
590.441	409.25
590.651	385.25
590.861	387.25
591.071	422.25
591.281	407.25
591.49	425.25
591.7	417.25
591.91	394.25
592.119	428.25
592.329	429.25
592.539	439.25
592.748	457.25
592.958	479.25
593.167	478.25
593.377	484.25
593.587	489.25
593.796	496.25
594.006	484.25
594.215	502.25
594.424	526.25
594.634	487.25
594.843	475.25
595.053	461.25
595.262	455.25
595.472	434.25
595.681	420.25
595.89	395.25
596.1	396.25
596.309	388.25
596.518	382.25
596.727	387.25
596.937	409.25
597.146	375.25
597.355	382.25
597.564	357.25
597.774	358.25
597.983	357.25
598.192	374.25
598.401	342.25
598.61	361.25
598.819	351.25
599.028	346.25
599.237	341.25
599.446	333.25
599.655	333.25
599.864	344.25
600.073	330.25
600.282	348.25
600.491	325.25
600.7	331.25
600.909	353.25
601.118	329.25
601.327	342.25
601.536	312.25
601.745	326.25
601.953	327.25
602.162	322.25
602.371	328.25
602.58	340.25
602.789	330.25
602.997	315.25
603.206	322.25
603.415	326.25
603.623	329.25
603.832	316.25
604.041	333.25
604.249	333.25
604.458	314.25
604.666	306.25
604.875	307.25
605.084	307.25
605.292	310.25
605.501	315.25
605.709	315.25
605.918	314.25
606.126	326.25
606.334	300.25
606.543	314.25
606.751	313.25
606.96	324.25
607.168	309.25
607.376	299.25
607.585	311.25
607.793	317.25
608.001	289.25
608.21	295.25
608.418	319.25
608.626	311.25
608.834	309.25
609.043	300.25
609.251	307.25
609.459	291.25
609.667	325.25
609.875	290.25
610.083	294.25
610.291	297.25
610.499	298.25
610.707	291.25
610.916	294.25
611.124	308.25
611.332	300.25
611.54	291.25
611.748	305.25
611.955	307.25
612.163	277.25
612.371	295.25
612.579	290.25
612.787	294.25
612.995	289.25
613.203	293.25
613.411	294.25
613.618	315.25
613.826	286.25
614.034	285.25
614.242	283.25
614.449	297.25
614.657	294.25
614.865	284.25
615.072	283.25
615.28	272.25
615.488	288.25
615.695	279.25
615.903	282.25
616.111	280.25
616.318	289.25
616.526	286.25
616.733	283.25
616.941	296.25
617.148	288.25
617.356	281.25
617.563	294.25
617.771	296.25
617.978	286.25
618.185	293.25
618.393	293.25
618.6	282.25
618.807	275.25
619.015	281.25
619.222	282.25
619.429	268.25
619.637	279.25
619.844	297.25
620.051	292.25
620.258	274.25
620.466	289.25
620.673	268.25
620.88	239.25
621.087	255.25
621.294	269.25
621.501	258.25
621.708	270.25
621.915	264.25
622.122	248.25
622.329	255.25
622.536	270.25
622.743	267.25
622.95	269.25
623.157	247.25
623.364	259.25
623.571	274.25
623.778	245.25
623.985	247.25
624.192	279.25
624.399	234.25
624.606	250.25
624.812	261.25
625.019	243.25
625.226	256.25
625.433	255.25
625.639	261.25
625.846	238.25
626.053	258.25
626.259	255.25
626.466	237.25
626.673	255.25
626.879	250.25
627.086	259.25
627.293	238.25
627.499	232.25
627.706	242.25
627.912	263.25
628.119	257.25
628.325	254.25
628.532	236.25
628.738	233.25
628.945	257.25
629.151	231.25
629.357	223.25
629.564	223.25
629.77	240.25
629.976	217.25
630.183	227.25
630.389	223.25
630.595	224.25
630.802	221.25
631.008	215.25
631.214	237.25
631.42	218.25
631.627	215.25
631.833	231.25
632.039	229.25
632.245	221.25
632.451	228.25
632.657	217.25
632.863	218.25
633.069	207.25
633.275	225.25
633.481	213.25
633.688	215.25
633.893	217.25
634.099	233.25
634.305	225.25
634.511	206.25
634.717	207.25
634.923	218.25
635.129	222.25
635.335	205.25
635.541	211.25
635.747	217.25
635.952	198.25
636.158	202.25
636.364	221.25
636.57	200.25
636.775	215.25
636.981	214.25
637.187	213.25
637.392	199.25
637.598	223.25
637.804	229.25
638.009	209.25
638.215	213.25
638.421	209.25
638.626	208.25
638.832	198.25
639.037	200.25
639.243	202.25
639.448	203.25
639.654	210.25
639.859	217.25
640.065	183.25
640.27	193.25
640.475	218.25
640.681	193.25
640.886	195.25
641.091	194.25
641.297	227.25
641.502	185.25
641.707	206.25
641.913	206.25
642.118	210.25
642.323	202.25
642.528	190.25
642.733	192.25
642.939	205.25
643.144	199.25
643.349	208.25
643.554	206.25
643.759	196.25
643.964	197.25
644.169	181.25
644.374	188.25
644.579	186.25
644.784	180.25
644.989	195.25
645.194	175.25
645.399	210.25
645.604	185.25
645.809	197.25
646.014	185.25
646.219	189.25
646.423	190.25
646.628	202.25
646.833	197.25
647.038	185.25
647.243	196.25
647.447	200.25
647.652	209.25
647.857	210.25
648.062	207.25
648.266	210.25
648.471	213.25
648.676	216.25
648.88	217.25
649.085	210.25
649.289	189.25
649.494	188.25
649.698	179.25
649.903	185.25
650.107	199.25
650.312	192.25
650.516	173.25
650.721	182.25
650.925	178.25
651.13	192.25
651.334	193.25
651.539	190.25
651.743	166.25
651.947	159.25
652.152	168.25
652.356	172.25
652.56	161.25
652.764	169.25
652.969	162.25
653.173	157.25
653.377	161.25
653.581	171.25
653.785	170.25
653.99	162.25
654.194	165.25
654.398	163.25
654.602	166.25
654.806	161.25
655.01	153.25
655.214	140.25
655.418	155.25
655.622	150.25
655.826	133.25
656.03	149.25
656.234	154.25
656.438	141.25
656.642	153.25
656.846	153.25
657.049	143.25
657.253	137.25
657.457	141.25
657.661	133.25
657.865	128.25
658.068	125.25
658.272	122.25
658.476	106.25
658.68	117.25
658.883	119.25
659.087	103.25
659.291	111.25
659.494	115.25
659.698	113.25
659.901	112.25
660.105	111.25
660.309	116.25
660.512	101.25
660.716	97.25
660.919	94.25
661.123	116.25
661.326	95.25
661.53	75.25
661.733	87.25
661.936	100.25
662.14	97.25
662.343	85.25
662.546	93.25
662.75	101.25
662.953	105.25
663.156	82.25
663.36	82.25
663.563	81.25
663.766	87.25
663.969	102.25
664.173	71.25
664.376	82.25
664.579	75.25
664.782	86.25
664.985	83.25
665.188	94.25
665.391	85.25
665.594	82.25
665.797	95.25
666	88.25
666.203	84.25
666.406	109.25
666.609	92.25
666.812	83.25
667.015	84.25
667.218	84.25
667.421	90.25
667.624	82.25
667.827	86.25
668.03	83.25
668.232	84.25
668.435	84.25
668.638	89.25
668.841	93.25
669.043	78.25
669.246	91.25
669.449	95.25
669.651	87.25
669.854	80.25
670.057	95.25
670.259	79.25
670.462	78.25
670.665	83.25
670.867	75.25
671.07	83.25
671.272	77.25
671.475	84.25
671.677	75.25
671.88	83.25
672.082	84.25
672.284	83.25
672.487	86.25
672.689	81.25
672.892	75.25
