Data from NiCl2@0.25M.TitratingCurve.Agarose3%dH2O.NegLispCup.LampEnergy10.LIBS07252019_HRD10591_18-23-30-572.txt Node
Date: Thu Jul 25 18:23:30 EDT 2019
User: cochatt
Spectrometer: HR+D1059
Trigger mode: 1
Integration Time (sec): 1.000000E-1
Scans to average: 1
Electric dark correction enabled: true
Nonlinearity correction enabled: false
Boxcar width: 0
XAxis mode: Wavelengths
Number of Pixels in Spectrum: 2048
>>>>>Begin Spectral Data<<<<<
223.165	-21.12
223.4	-21.12
223.635	-21.12
223.869	-22.12
224.104	-12.12
224.338	-21.12
224.573	-17.12
224.808	-0.12
225.042	-14.12
225.277	-0.12
225.511	-5.12
225.746	-1.12
225.98	8.88
226.215	17.88
226.449	12.88
226.683	18.88
226.918	22.88
227.152	32.88
227.387	28.88
227.621	38.88
227.856	53.88
228.09	39.88
228.324	58.88
228.559	56.88
228.793	79.88
229.027	92.88
229.262	105.88
229.496	103.88
229.73	122.88
229.964	104.88
230.199	122.88
230.433	130.88
230.667	143.88
230.901	126.88
231.136	121.88
231.37	127.88
231.604	129.88
231.838	140.88
232.072	143.88
232.306	134.88
232.541	126.88
232.775	138.88
233.009	135.88
233.243	146.88
233.477	144.88
233.711	139.88
233.945	131.88
234.179	146.88
234.413	139.88
234.647	154.88
234.881	136.88
235.115	151.88
235.349	136.88
235.583	134.88
235.817	155.88
236.051	146.88
236.285	148.88
236.519	143.88
236.753	164.88
236.987	141.88
237.221	148.88
237.455	158.88
237.689	147.88
237.922	144.88
238.156	151.88
238.39	160.88
238.624	162.88
238.858	158.88
239.091	174.88
239.325	149.88
239.559	159.88
239.793	167.88
240.027	191.88
240.26	186.88
240.494	164.88
240.728	180.88
240.961	178.88
241.195	170.88
241.429	187.88
241.662	170.88
241.896	192.88
242.13	178.88
242.363	187.88
242.597	176.88
242.83	182.88
243.064	187.88
243.298	186.88
243.531	186.88
243.765	192.88
243.998	196.88
244.232	189.88
244.465	190.88
244.699	199.88
244.932	199.88
245.166	206.88
245.399	204.88
245.633	208.88
245.866	210.88
246.099	198.88
246.333	206.88
246.566	201.88
246.8	196.88
247.033	201.88
247.266	212.88
247.5	202.88
247.733	208.88
247.966	232.88
248.2	212.88
248.433	222.88
248.666	222.88
248.899	229.88
249.133	229.88
249.366	222.88
249.599	237.88
249.832	223.88
250.066	230.88
250.299	238.88
250.532	233.88
250.765	236.88
250.998	241.88
251.231	246.88
251.465	255.88
251.698	252.88
251.931	248.88
252.164	247.88
252.397	260.88
252.63	246.88
252.863	260.88
253.096	254.88
253.329	259.88
253.562	261.88
253.795	238.88
254.028	258.88
254.261	258.88
254.494	264.88
254.727	257.88
254.96	267.88
255.193	253.88
255.426	260.88
255.659	276.88
255.892	274.88
256.124	275.88
256.357	306.88
256.59	269.88
256.823	268.88
257.056	272.88
257.289	282.88
257.521	285.88
257.754	279.88
257.987	290.88
258.22	280.88
258.452	299.88
258.685	272.88
258.918	284.88
259.151	283.88
259.383	287.88
259.616	283.88
259.849	291.88
260.081	294.88
260.314	281.88
260.547	297.88
260.779	293.88
261.012	312.88
261.244	312.88
261.477	295.88
261.71	314.88
261.942	311.88
262.175	303.88
262.407	311.88
262.64	304.88
262.872	300.88
263.105	303.88
263.337	310.88
263.57	318.88
263.802	320.88
264.035	310.88
264.267	328.88
264.499	304.88
264.732	324.88
264.964	318.88
265.197	318.88
265.429	316.88
265.661	324.88
265.894	310.88
266.126	342.88
266.358	311.88
266.591	328.88
266.823	338.88
267.055	332.88
267.287	332.88
267.52	339.88
267.752	346.88
267.984	336.88
268.216	340.88
268.448	336.88
268.681	343.88
268.913	347.88
269.145	348.88
269.377	364.88
269.609	358.88
269.841	365.88
270.073	358.88
270.306	351.88
270.538	356.88
270.77	338.88
271.002	346.88
271.234	380.88
271.466	367.88
271.698	363.88
271.93	361.88
272.162	364.88
272.394	371.88
272.626	376.88
272.858	359.88
273.09	368.88
273.322	376.88
273.553	375.88
273.785	383.88
274.017	380.88
274.249	375.88
274.481	389.88
274.713	384.88
274.945	386.88
275.176	384.88
275.408	387.88
275.64	382.88
275.872	388.88
276.104	388.88
276.335	411.88
276.567	370.88
276.799	396.88
277.031	382.88
277.262	400.88
277.494	384.88
277.726	412.88
277.957	402.88
278.189	411.88
278.421	396.88
278.652	414.88
278.884	410.88
279.115	405.88
279.347	414.88
279.579	404.88
279.81	428.88
280.042	434.88
280.273	416.88
280.505	417.88
280.736	427.88
280.968	425.88
281.199	422.88
281.431	431.88
281.662	436.88
281.894	406.88
282.125	427.88
282.356	438.88
282.588	452.88
282.819	430.88
283.051	448.88
283.282	431.88
283.513	426.88
283.745	435.88
283.976	452.88
284.207	446.88
284.439	443.88
284.67	436.88
284.901	441.88
285.132	447.88
285.364	475.88
285.595	455.88
285.826	455.88
286.057	452.88
286.288	468.88
286.52	470.88
286.751	484.88
286.982	479.88
287.213	458.88
287.444	476.88
287.675	486.88
287.906	464.88
288.138	475.88
288.369	484.88
288.6	478.88
288.831	487.88
289.062	468.88
289.293	487.88
289.524	455.88
289.755	474.88
289.986	483.88
290.217	471.88
290.448	474.88
290.679	466.88
290.91	475.88
291.141	482.88
291.371	495.88
291.602	488.88
291.833	491.88
292.064	473.88
292.295	486.88
292.526	508.88
292.757	491.88
292.987	499.88
293.218	463.88
293.449	502.88
293.68	484.88
293.91	481.88
294.141	496.88
294.372	496.88
294.603	482.88
294.833	483.88
295.064	487.88
295.295	481.88
295.525	512.88
295.756	507.88
295.987	497.88
296.217	496.88
296.448	501.88
296.679	518.88
296.909	491.88
297.14	534.88
297.37	513.88
297.601	524.88
297.831	516.88
298.062	533.88
298.292	522.88
298.523	543.88
298.753	536.88
298.984	531.88
299.214	514.88
299.445	542.88
299.675	532.88
299.905	522.88
300.136	550.88
300.366	544.88
300.597	559.88
300.827	562.88
301.057	563.88
301.288	568.88
301.518	538.88
301.748	566.88
301.979	561.88
302.209	583.88
302.439	562.88
302.669	531.88
302.9	571.88
303.13	563.88
303.36	572.88
303.59	559.88
303.82	564.88
304.051	582.88
304.281	555.88
304.511	535.88
304.741	574.88
304.971	576.88
305.201	578.88
305.431	552.88
305.661	542.88
305.891	540.88
306.121	560.88
306.352	536.88
306.582	553.88
306.812	548.88
307.042	545.88
307.272	552.88
307.502	536.88
307.731	554.88
307.961	551.88
308.191	567.88
308.421	562.88
308.651	529.88
308.881	532.88
309.111	564.88
309.341	572.88
309.571	553.88
309.8	534.88
310.03	540.88
310.26	537.88
310.49	568.88
310.72	537.88
310.949	590.88
311.179	559.88
311.409	568.88
311.639	582.88
311.868	575.88
312.098	576.88
312.328	571.88
312.557	571.88
312.787	586.88
313.017	579.88
313.246	591.88
313.476	596.88
313.706	571.88
313.935	581.88
314.165	605.88
314.394	598.88
314.624	575.88
314.853	594.88
315.083	600.88
315.312	589.88
315.542	583.88
315.771	575.88
316.001	577.88
316.23	575.88
316.46	556.88
316.689	578.88
316.919	587.88
317.148	574.88
317.377	587.88
317.607	587.88
317.836	567.88
318.065	576.88
318.295	583.88
318.524	572.88
318.753	585.88
318.983	564.88
319.212	560.88
319.441	600.88
319.67	573.88
319.9	587.88
320.129	569.88
320.358	585.88
320.587	577.88
320.816	556.88
321.046	580.88
321.275	610.88
321.504	598.88
321.733	583.88
321.962	591.88
322.191	568.88
322.42	582.88
322.649	583.88
322.878	595.88
323.108	603.88
323.337	635.88
323.566	591.88
323.795	600.88
324.024	630.88
324.253	606.88
324.482	595.88
324.71	595.88
324.939	613.88
325.168	611.88
325.397	599.88
325.626	631.88
325.855	613.88
326.084	640.88
326.313	629.88
326.542	636.88
326.77	640.88
326.999	632.88
327.228	631.88
327.457	608.88
327.686	613.88
327.914	632.88
328.143	656.88
328.372	628.88
328.6	624.88
328.829	628.88
329.058	624.88
329.287	647.88
329.515	652.88
329.744	641.88
329.972	628.88
330.201	681.88
330.43	678.88
330.658	672.88
330.887	658.88
331.115	644.88
331.344	666.88
331.572	670.88
331.801	667.88
332.03	702.88
332.258	704.88
332.486	738.88
332.715	734.88
332.943	774.88
333.172	818.88
333.4	834.88
333.629	830.88
333.857	849.88
334.085	847.88
334.314	845.88
334.542	818.88
334.771	809.88
334.999	824.88
335.227	818.88
335.455	813.88
335.684	778.88
335.912	797.88
336.14	777.88
336.369	779.88
336.597	780.88
336.825	791.88
337.053	771.88
337.281	755.88
337.51	751.88
337.738	741.88
337.966	701.88
338.194	722.88
338.422	720.88
338.65	682.88
338.878	708.88
339.106	712.88
339.334	722.88
339.562	682.88
339.79	667.88
340.018	683.88
340.246	667.88
340.474	670.88
340.702	682.88
340.93	683.88
341.158	690.88
341.386	692.88
341.614	700.88
341.842	678.88
342.07	676.88
342.298	661.88
342.526	674.88
342.754	667.88
342.981	687.88
343.209	693.88
343.437	727.88
343.665	773.88
343.893	790.88
344.12	804.88
344.348	802.88
344.576	738.88
344.804	739.88
345.031	715.88
345.259	689.88
345.487	685.88
345.714	689.88
345.942	676.88
346.17	658.88
346.397	665.88
346.625	667.88
346.853	652.88
347.08	627.88
347.308	651.88
347.535	627.88
347.763	665.88
347.99	657.88
348.218	641.88
348.445	634.88
348.673	635.88
348.9	657.88
349.128	666.88
349.355	647.88
349.583	656.88
349.81	643.88
350.037	598.88
350.265	656.88
350.492	628.88
350.72	647.88
350.947	647.88
351.174	620.88
351.402	628.88
351.629	643.88
351.856	636.88
352.083	643.88
352.311	631.88
352.538	640.88
352.765	640.88
352.992	634.88
353.22	608.88
353.447	624.88
353.674	619.88
353.901	612.88
354.128	606.88
354.355	636.88
354.583	629.88
354.81	611.88
355.037	643.88
355.264	619.88
355.491	628.88
355.718	631.88
355.945	617.88
356.172	619.88
356.399	624.88
356.626	626.88
356.853	633.88
357.08	636.88
357.307	643.88
357.534	651.88
357.761	618.88
357.988	632.88
358.215	631.88
358.441	623.88
358.668	622.88
358.895	634.88
359.122	644.88
359.349	622.88
359.576	654.88
359.802	640.88
360.029	648.88
360.256	635.88
360.483	630.88
360.709	632.88
360.936	621.88
361.163	641.88
361.39	638.88
361.616	608.88
361.843	611.88
362.07	633.88
362.296	631.88
362.523	616.88
362.749	649.88
362.976	634.88
363.203	631.88
363.429	619.88
363.656	609.88
363.882	644.88
364.109	636.88
364.335	627.88
364.562	624.88
364.788	605.88
365.015	638.88
365.241	611.88
365.468	636.88
365.694	631.88
365.92	617.88
366.147	626.88
366.373	611.88
366.599	632.88
366.826	632.88
367.052	655.88
367.278	626.88
367.505	636.88
367.731	643.88
367.957	636.88
368.184	634.88
368.41	651.88
368.636	644.88
368.862	643.88
369.089	627.88
369.315	657.88
369.541	656.88
369.767	659.88
369.993	655.88
370.219	680.88
370.445	653.88
370.672	676.88
370.898	682.88
371.124	682.88
371.35	703.88
371.576	670.88
371.802	688.88
372.028	708.88
372.254	693.88
372.48	695.88
372.706	655.88
372.932	703.88
373.158	715.88
373.384	718.88
373.61	675.88
373.835	687.88
374.061	649.88
374.287	702.88
374.513	716.88
374.739	738.88
374.965	727.88
375.191	768.88
375.416	745.88
375.642	764.88
375.868	721.88
376.094	714.88
376.319	689.88
376.545	696.88
376.771	680.88
376.997	684.88
377.222	678.88
377.448	728.88
377.674	706.88
377.899	687.88
378.125	688.88
378.35	690.88
378.576	674.88
378.802	665.88
379.027	670.88
379.253	702.88
379.478	675.88
379.704	649.88
379.929	668.88
380.155	654.88
380.38	684.88
380.606	700.88
380.831	689.88
381.057	684.88
381.282	695.88
381.507	691.88
381.733	678.88
381.958	693.88
382.184	658.88
382.409	699.88
382.634	714.88
382.86	706.88
383.085	701.88
383.31	734.88
383.535	754.88
383.761	746.88
383.986	747.88
384.211	771.88
384.436	775.88
384.662	784.88
384.887	814.88
385.112	801.88
385.337	811.88
385.562	823.88
385.787	828.88
386.013	842.88
386.238	813.88
386.463	819.88
386.688	808.88
386.913	798.88
387.138	788.88
387.363	815.88
387.588	792.88
387.813	791.88
388.038	831.88
388.263	823.88
388.488	801.88
388.713	799.88
388.938	775.88
389.163	792.88
389.387	801.88
389.612	791.88
389.837	817.88
390.062	780.88
390.287	810.88
390.512	810.88
390.736	814.88
390.961	850.88
391.186	860.88
391.411	863.88
391.636	896.88
391.86	903.88
392.085	922.88
392.31	888.88
392.534	900.88
392.759	890.88
392.984	857.88
393.208	855.88
393.433	852.88
393.658	859.88
393.882	867.88
394.107	873.88
394.331	866.88
394.556	886.88
394.78	852.88
395.005	878.88
395.229	895.88
395.454	903.88
395.678	916.88
395.903	895.88
396.127	903.88
396.352	884.88
396.576	843.88
396.801	866.88
397.025	871.88
397.249	925.88
397.474	909.88
397.698	895.88
397.922	903.88
398.147	926.88
398.371	924.88
398.595	984.88
398.82	996.88
399.044	1086.88
399.268	1182.88
399.492	1375.88
399.717	1454.88
399.941	1508.88
400.165	1378.88
400.389	1216.88
400.613	1151.88
400.837	1086.88
401.062	1054.88
401.286	1034.88
401.51	1029.88
401.734	1019.88
401.958	1046.88
402.182	1067.88
402.406	1056.88
402.63	1061.88
402.854	1082.88
403.078	1080.88
403.302	1111.88
403.526	1116.88
403.75	1157.88
403.974	1182.88
404.198	1160.88
404.422	1178.88
404.645	1158.88
404.869	1161.88
405.093	1161.88
405.317	1118.88
405.541	1116.88
405.765	1106.88
405.988	1105.88
406.212	1120.88
406.436	1142.88
406.66	1149.88
406.883	1160.88
407.107	1178.88
407.331	1241.88
407.555	1321.88
407.778	1300.88
408.002	1274.88
408.226	1241.88
408.449	1227.88
408.673	1203.88
408.896	1157.88
409.12	1160.88
409.344	1147.88
409.567	1113.88
409.791	1164.88
410.014	1094.88
410.238	1122.88
410.461	1099.88
410.685	1097.88
410.908	1099.88
411.132	1100.88
411.355	1047.88
411.578	1054.88
411.802	1068.88
412.025	1071.88
412.249	1087.88
412.472	1092.88
412.695	1042.88
412.919	1001.88
413.142	1016.88
413.365	1024.88
413.589	1029.88
413.812	1041.88
414.035	1023.88
414.258	990.88
414.482	1011.88
414.705	1050.88
414.928	1046.88
415.151	1034.88
415.374	1039.88
415.597	1025.88
415.821	1032.88
416.044	996.88
416.267	979.88
416.49	976.88
416.713	1002.88
416.936	986.88
417.159	1008.88
417.382	1018.88
417.605	983.88
417.828	1038.88
418.051	1003.88
418.274	1005.88
418.497	1018.88
418.72	1047.88
418.943	1015.88
419.166	1068.88
419.389	1149.88
419.611	1144.88
419.834	1079.88
420.057	1040.88
420.28	1027.88
420.503	1033.88
420.726	1000.88
420.948	993.88
421.171	1009.88
421.394	1040.88
421.617	1009.88
421.839	991.88
422.062	999.88
422.285	969.88
422.507	1033.88
422.73	1010.88
422.953	1030.88
423.175	1045.88
423.398	1048.88
423.621	1062.88
423.843	1063.88
424.066	1072.88
424.288	1027.88
424.511	1028.88
424.733	1023.88
424.956	1036.88
425.178	1008.88
425.401	1008.88
425.623	1006.88
425.846	961.88
426.068	964.88
426.291	963.88
426.513	927.88
426.735	963.88
426.958	943.88
427.18	933.88
427.402	920.88
427.625	914.88
427.847	918.88
428.069	904.88
428.292	905.88
428.514	889.88
428.736	915.88
428.958	912.88
429.181	878.88
429.403	878.88
429.625	904.88
429.847	879.88
430.069	852.88
430.292	862.88
430.514	831.88
430.736	890.88
430.958	884.88
431.18	910.88
431.402	870.88
431.624	871.88
431.846	896.88
432.068	891.88
432.29	916.88
432.512	899.88
432.734	909.88
432.956	887.88
433.178	934.88
433.4	914.88
433.622	918.88
433.844	912.88
434.066	923.88
434.287	944.88
434.509	933.88
434.731	969.88
434.953	991.88
435.175	1014.88
435.397	984.88
435.618	949.88
435.84	936.88
436.062	927.88
436.284	894.88
436.505	894.88
436.727	887.88
436.949	883.88
437.17	903.88
437.392	884.88
437.614	851.88
437.835	851.88
438.057	834.88
438.278	837.88
438.5	840.88
438.721	874.88
438.943	901.88
439.165	861.88
439.386	878.88
439.608	873.88
439.829	885.88
440.05	898.88
440.272	919.88
440.493	919.88
440.715	919.88
440.936	937.88
441.158	924.88
441.379	966.88
441.6	1016.88
441.822	1022.88
442.043	987.88
442.264	991.88
442.486	968.88
442.707	972.88
442.928	966.88
443.149	978.88
443.371	957.88
443.592	1003.88
443.813	1000.88
444.034	1007.88
444.255	1092.88
444.476	1086.88
444.698	1109.88
444.919	1170.88
445.14	1272.88
445.361	1157.88
445.582	1056.88
445.803	992.88
446.024	950.88
446.245	920.88
446.466	920.88
446.687	898.88
446.908	921.88
447.129	896.88
447.35	866.88
447.571	890.88
447.792	860.88
448.013	852.88
448.234	863.88
448.455	837.88
448.675	817.88
448.896	804.88
449.117	794.88
449.338	830.88
449.559	788.88
449.779	801.88
450	810.88
450.221	793.88
450.442	841.88
450.662	833.88
450.883	849.88
451.104	846.88
451.324	816.88
451.545	821.88
451.766	830.88
451.986	824.88
452.207	837.88
452.428	818.88
452.648	799.88
452.869	795.88
453.089	779.88
453.31	806.88
453.53	786.88
453.751	803.88
453.971	785.88
454.192	786.88
454.412	757.88
454.633	770.88
454.853	792.88
455.073	755.88
455.294	754.88
455.514	754.88
455.734	770.88
455.955	754.88
456.175	774.88
456.395	748.88
456.616	761.88
456.836	755.88
457.056	762.88
457.276	763.88
457.497	805.88
457.717	768.88
457.937	772.88
458.157	781.88
458.377	798.88
458.598	792.88
458.818	827.88
459.038	851.88
459.258	870.88
459.478	906.88
459.698	908.88
459.918	955.88
460.138	967.88
460.358	1031.88
460.578	1076.88
460.798	1060.88
461.018	1100.88
461.238	1048.88
461.458	1057.88
461.678	1054.88
461.898	1053.88
462.118	1062.88
462.338	1114.88
462.558	1147.88
462.777	1211.88
462.997	1280.88
463.217	1382.88
463.437	1383.88
463.657	1279.88
463.876	1225.88
464.096	1210.88
464.316	1207.88
464.536	1219.88
464.755	1191.88
464.975	1127.88
465.195	1070.88
465.414	1020.88
465.634	977.88
465.854	951.88
466.073	919.88
466.293	912.88
466.512	896.88
466.732	888.88
466.951	869.88
467.171	834.88
467.391	845.88
467.61	830.88
467.829	826.88
468.049	873.88
468.268	839.88
468.488	822.88
468.707	844.88
468.927	835.88
469.146	839.88
469.365	843.88
469.585	839.88
469.804	854.88
470.023	873.88
470.243	883.88
470.462	888.88
470.681	900.88
470.901	893.88
471.12	891.88
471.339	884.88
471.558	843.88
471.777	846.88
471.997	826.88
472.216	812.88
472.435	828.88
472.654	844.88
472.873	823.88
473.092	819.88
473.311	803.88
473.53	805.88
473.749	791.88
473.968	798.88
474.187	787.88
474.406	779.88
474.625	784.88
474.844	781.88
475.063	826.88
475.282	820.88
475.501	788.88
475.72	832.88
475.939	824.88
476.158	830.88
476.377	851.88
476.596	830.88
476.814	847.88
477.033	868.88
477.252	863.88
477.471	891.88
477.69	900.88
477.908	934.88
478.127	954.88
478.346	963.88
478.564	967.88
478.783	993.88
479.002	1020.88
479.22	998.88
479.439	1020.88
479.658	983.88
479.876	1011.88
480.095	1006.88
480.313	1051.88
480.532	1060.88
480.751	1073.88
480.969	992.88
481.188	988.88
481.406	990.88
481.624	927.88
481.843	960.88
482.061	941.88
482.28	916.88
482.498	939.88
482.717	931.88
482.935	934.88
483.153	915.88
483.372	944.88
483.59	950.88
483.808	943.88
484.027	951.88
484.245	948.88
484.463	970.88
484.681	972.88
484.9	955.88
485.118	969.88
485.336	943.88
485.554	989.88
485.772	964.88
485.99	951.88
486.209	952.88
486.427	991.88
486.645	972.88
486.863	982.88
487.081	999.88
487.299	949.88
487.517	971.88
487.735	970.88
487.953	984.88
488.171	996.88
488.389	971.88
488.607	986.88
488.825	952.88
489.043	960.88
489.261	965.88
489.479	977.88
489.696	986.88
489.914	1003.88
490.132	975.88
490.35	992.88
490.568	996.88
490.786	975.88
491.003	990.88
491.221	997.88
491.439	993.88
491.657	986.88
491.874	996.88
492.092	1022.88
492.31	1042.88
492.527	976.88
492.745	1014.88
492.963	1010.88
493.18	995.88
493.398	1031.88
493.615	997.88
493.833	1040.88
494.05	1043.88
494.268	1032.88
494.485	1046.88
494.703	1060.88
494.92	1034.88
495.138	1026.88
495.355	1063.88
495.573	1050.88
495.79	1049.88
496.008	1039.88
496.225	1064.88
496.442	1064.88
496.66	1074.88
496.877	1081.88
497.094	1128.88
497.312	1182.88
497.529	1148.88
497.746	1174.88
497.963	1208.88
498.181	1280.88
498.398	1305.88
498.615	1345.88
498.832	1452.88
499.049	1586.88
499.267	1722.88
499.484	1856.88
499.701	2056.88
499.918	2278.88
500.135	2621.88
500.352	2842.88
500.569	2952.88
500.786	2957.88
501.003	2809.88
501.22	2502.88
501.437	2204.88
501.654	2000.88
501.871	1824.88
502.088	1688.88
502.305	1564.88
502.522	1510.88
502.739	1456.88
502.956	1353.88
503.172	1302.88
503.389	1262.88
503.606	1186.88
503.823	1192.88
504.04	1195.88
504.256	1188.88
504.473	1219.88
504.69	1220.88
504.907	1200.88
505.123	1134.88
505.34	1082.88
505.557	1042.88
505.773	1009.88
505.99	984.88
506.207	991.88
506.423	975.88
506.64	922.88
506.856	923.88
507.073	953.88
507.289	930.88
507.506	901.88
507.722	892.88
507.939	895.88
508.155	922.88
508.372	873.88
508.588	887.88
508.805	890.88
509.021	887.88
509.238	882.88
509.454	870.88
509.67	842.88
509.887	853.88
510.103	851.88
510.319	835.88
510.536	847.88
510.752	863.88
510.968	848.88
511.184	847.88
511.401	845.88
511.617	849.88
511.833	821.88
512.049	829.88
512.265	819.88
512.481	825.88
512.698	836.88
512.914	851.88
513.13	833.88
513.346	841.88
513.562	847.88
513.778	828.88
513.994	811.88
514.21	839.88
514.426	878.88
514.642	851.88
514.858	863.88
515.074	867.88
515.29	868.88
515.506	864.88
515.721	902.88
515.937	902.88
516.153	925.88
516.369	929.88
516.585	962.88
516.801	987.88
517.016	1035.88
517.232	1082.88
517.448	1098.88
517.664	1106.88
517.879	1171.88
518.095	1169.88
518.311	1146.88
518.527	1059.88
518.742	1026.88
518.958	989.88
519.173	963.88
519.389	962.88
519.605	938.88
519.82	898.88
520.036	888.88
520.251	882.88
520.467	862.88
520.682	855.88
520.898	855.88
521.113	852.88
521.329	809.88
521.544	814.88
521.76	836.88
521.975	785.88
522.19	790.88
522.406	812.88
522.621	824.88
522.836	776.88
523.052	807.88
523.267	793.88
523.482	801.88
523.698	776.88
523.913	786.88
524.128	774.88
524.343	776.88
524.559	782.88
524.774	769.88
524.989	785.88
525.204	779.88
525.419	756.88
525.634	791.88
525.849	766.88
526.064	776.88
526.28	779.88
526.495	771.88
526.71	764.88
526.925	752.88
527.14	743.88
527.355	739.88
527.57	729.88
527.785	753.88
527.999	743.88
528.214	747.88
528.429	744.88
528.644	749.88
528.859	746.88
529.074	778.88
529.289	779.88
529.503	733.88
529.718	774.88
529.933	746.88
530.148	752.88
530.363	746.88
530.577	737.88
530.792	724.88
531.007	728.88
531.221	753.88
531.436	744.88
531.651	732.88
531.865	786.88
532.08	728.88
532.295	776.88
532.509	754.88
532.724	772.88
532.938	748.88
533.153	731.88
533.367	730.88
533.582	775.88
533.796	732.88
534.011	738.88
534.225	761.88
534.44	719.88
534.654	722.88
534.868	741.88
535.083	734.88
535.297	721.88
535.511	721.88
535.726	734.88
535.94	721.88
536.154	699.88
536.369	731.88
536.583	693.88
536.797	719.88
537.011	706.88
537.225	702.88
537.44	683.88
537.654	702.88
537.868	681.88
538.082	681.88
538.296	696.88
538.51	660.88
538.724	682.88
538.938	704.88
539.153	685.88
539.367	689.88
539.581	687.88
539.795	650.88
540.009	670.88
540.222	672.88
540.436	684.88
540.65	679.88
540.864	664.88
541.078	689.88
541.292	680.88
541.506	680.88
541.72	663.88
541.934	666.88
542.147	682.88
542.361	660.88
542.575	648.88
542.789	644.88
543.002	664.88
543.216	668.88
543.43	666.88
543.644	671.88
543.857	676.88
544.071	659.88
544.285	681.88
544.498	678.88
544.712	665.88
544.925	692.88
545.139	696.88
545.352	676.88
545.566	682.88
545.779	675.88
545.993	704.88
546.206	691.88
546.42	698.88
546.633	690.88
546.847	688.88
547.06	692.88
547.274	693.88
547.487	677.88
547.7	691.88
547.914	686.88
548.127	700.88
548.34	691.88
548.554	707.88
548.767	703.88
548.98	710.88
549.193	698.88
549.407	704.88
549.62	724.88
549.833	720.88
550.046	719.88
550.259	689.88
550.473	694.88
550.686	706.88
550.899	662.88
551.112	668.88
551.325	666.88
551.538	658.88
551.751	672.88
551.964	677.88
552.177	692.88
552.39	713.88
552.603	733.88
552.816	707.88
553.029	730.88
553.242	764.88
553.455	784.88
553.667	778.88
553.88	751.88
554.093	718.88
554.306	696.88
554.519	702.88
554.732	693.88
554.944	643.88
555.157	667.88
555.37	641.88
555.583	633.88
555.795	647.88
556.008	614.88
556.221	616.88
556.433	597.88
556.646	613.88
556.859	599.88
557.071	607.88
557.284	627.88
557.496	602.88
557.709	571.88
557.921	601.88
558.134	601.88
558.346	579.88
558.559	619.88
558.771	582.88
558.984	570.88
559.196	581.88
559.409	581.88
559.621	570.88
559.833	561.88
560.046	563.88
560.258	585.88
560.47	578.88
560.683	568.88
560.895	570.88
561.107	560.88
561.32	561.88
561.532	569.88
561.744	581.88
561.956	579.88
562.168	560.88
562.381	572.88
562.593	552.88
562.805	564.88
563.017	587.88
563.229	571.88
563.441	575.88
563.653	579.88
563.865	572.88
564.077	593.88
564.289	593.88
564.501	602.88
564.713	595.88
564.925	616.88
565.137	622.88
565.349	619.88
565.561	640.88
565.773	669.88
565.985	714.88
566.197	719.88
566.408	771.88
566.62	839.88
566.832	915.88
567.044	913.88
567.255	895.88
567.467	946.88
567.679	1006.88
567.891	1038.88
568.102	1034.88
568.314	1018.88
568.526	892.88
568.737	832.88
568.949	759.88
569.161	732.88
569.372	687.88
569.584	644.88
569.795	639.88
570.007	600.88
570.218	602.88
570.43	600.88
570.641	576.88
570.853	570.88
571.064	592.88
571.276	577.88
571.487	566.88
571.698	554.88
571.91	530.88
572.121	527.88
572.333	520.88
572.544	500.88
572.755	507.88
572.966	475.88
573.178	470.88
573.389	490.88
573.6	489.88
573.811	479.88
574.023	474.88
574.234	461.88
574.445	449.88
574.656	464.88
574.867	472.88
575.078	466.88
575.289	456.88
575.501	459.88
575.712	459.88
575.923	455.88
576.134	445.88
576.345	433.88
576.556	442.88
576.767	443.88
576.978	456.88
577.188	436.88
577.399	433.88
577.61	432.88
577.821	429.88
578.032	428.88
578.243	394.88
578.454	431.88
578.665	426.88
578.875	419.88
579.086	424.88
579.297	420.88
579.508	414.88
579.718	396.88
579.929	418.88
580.14	396.88
580.35	404.88
580.561	408.88
580.772	399.88
580.982	381.88
581.193	392.88
581.403	395.88
581.614	409.88
581.825	407.88
582.035	387.88
582.246	404.88
582.456	409.88
582.667	387.88
582.877	382.88
583.087	396.88
583.298	376.88
583.508	387.88
583.719	386.88
583.929	395.88
584.139	390.88
584.35	385.88
584.56	396.88
584.77	388.88
584.981	381.88
585.191	373.88
585.401	374.88
585.611	370.88
585.821	367.88
586.032	375.88
586.242	355.88
586.452	389.88
586.662	368.88
586.872	352.88
587.082	355.88
587.292	378.88
587.502	386.88
587.713	379.88
587.923	371.88
588.133	371.88
588.343	350.88
588.553	378.88
588.762	360.88
588.972	384.88
589.182	418.88
589.392	406.88
589.602	383.88
589.812	392.88
590.022	381.88
590.232	374.88
590.441	387.88
590.651	382.88
590.861	374.88
591.071	393.88
591.281	392.88
591.49	398.88
591.7	397.88
591.91	394.88
592.119	403.88
592.329	387.88
592.539	406.88
592.748	447.88
592.958	471.88
593.167	473.88
593.377	447.88
593.587	458.88
593.796	475.88
594.006	462.88
594.215	469.88
594.424	453.88
594.634	464.88
594.843	428.88
595.053	418.88
595.262	410.88
595.472	405.88
595.681	387.88
595.89	384.88
596.1	380.88
596.309	370.88
596.518	352.88
596.727	350.88
596.937	352.88
597.146	358.88
597.355	356.88
597.564	342.88
597.774	344.88
597.983	333.88
598.192	337.88
598.401	318.88
598.61	335.88
598.819	310.88
599.028	316.88
599.237	307.88
599.446	326.88
599.655	324.88
599.864	329.88
600.073	305.88
600.282	313.88
600.491	328.88
600.7	323.88
600.909	310.88
601.118	319.88
601.327	319.88
601.536	319.88
601.745	331.88
601.953	319.88
602.162	315.88
602.371	297.88
602.58	303.88
602.789	311.88
602.997	313.88
603.206	310.88
603.415	306.88
603.623	299.88
603.832	315.88
604.041	291.88
604.249	286.88
604.458	295.88
604.666	314.88
604.875	279.88
605.084	286.88
605.292	306.88
605.501	294.88
605.709	310.88
605.918	299.88
606.126	282.88
606.334	292.88
606.543	306.88
606.751	283.88
606.96	288.88
607.168	281.88
607.376	257.88
607.585	287.88
607.793	301.88
608.001	283.88
608.21	299.88
608.418	281.88
608.626	269.88
608.834	278.88
609.043	281.88
609.251	283.88
609.459	279.88
609.667	286.88
609.875	275.88
610.083	280.88
610.291	289.88
610.499	296.88
610.707	286.88
610.916	284.88
611.124	279.88
611.332	289.88
611.54	291.88
611.748	283.88
611.955	283.88
612.163	281.88
612.371	251.88
612.579	274.88
612.787	270.88
612.995	268.88
613.203	288.88
613.411	275.88
613.618	269.88
613.826	279.88
614.034	294.88
614.242	276.88
614.449	270.88
614.657	280.88
614.865	270.88
615.072	265.88
615.28	274.88
615.488	281.88
615.695	282.88
615.903	259.88
616.111	268.88
616.318	253.88
616.526	278.88
616.733	264.88
616.941	280.88
617.148	283.88
617.356	267.88
617.563	288.88
617.771	264.88
617.978	269.88
618.185	285.88
618.393	275.88
618.6	266.88
618.807	280.88
619.015	273.88
619.222	244.88
619.429	256.88
619.637	272.88
619.844	246.88
620.051	274.88
620.258	259.88
620.466	234.88
620.673	241.88
620.88	247.88
621.087	246.88
621.294	262.88
621.501	253.88
621.708	261.88
621.915	265.88
622.122	259.88
622.329	250.88
622.536	250.88
622.743	247.88
622.95	243.88
623.157	245.88
623.364	250.88
623.571	259.88
623.778	251.88
623.985	226.88
624.192	246.88
624.399	227.88
624.606	243.88
624.812	242.88
625.019	246.88
625.226	250.88
625.433	251.88
625.639	239.88
625.846	229.88
626.053	216.88
626.259	241.88
626.466	226.88
626.673	226.88
626.879	238.88
627.086	244.88
627.293	232.88
627.499	232.88
627.706	238.88
627.912	213.88
628.119	226.88
628.325	216.88
628.532	231.88
628.738	213.88
628.945	247.88
629.151	229.88
629.357	221.88
629.564	218.88
629.77	208.88
629.976	214.88
630.183	226.88
630.389	220.88
630.595	235.88
630.802	199.88
631.008	214.88
631.214	203.88
631.42	222.88
631.627	219.88
631.833	211.88
632.039	201.88
632.245	190.88
632.451	208.88
632.657	208.88
632.863	205.88
633.069	222.88
633.275	215.88
633.481	212.88
633.688	201.88
633.893	215.88
634.099	199.88
634.305	214.88
634.511	221.88
634.717	206.88
634.923	199.88
635.129	204.88
635.335	196.88
635.541	207.88
635.747	224.88
635.952	182.88
636.158	198.88
636.364	193.88
636.57	206.88
636.775	209.88
636.981	206.88
637.187	203.88
637.392	203.88
637.598	206.88
637.804	211.88
638.009	201.88
638.215	204.88
638.421	204.88
638.626	189.88
638.832	208.88
639.037	196.88
639.243	196.88
639.448	184.88
639.654	194.88
639.859	168.88
640.065	202.88
640.27	201.88
640.475	183.88
640.681	188.88
640.886	180.88
641.091	176.88
641.297	188.88
641.502	192.88
641.707	198.88
641.913	181.88
642.118	182.88
642.323	180.88
642.528	186.88
642.733	175.88
642.939	171.88
643.144	190.88
643.349	190.88
643.554	178.88
643.759	185.88
643.964	165.88
644.169	171.88
644.374	191.88
644.579	192.88
644.784	177.88
644.989	190.88
645.194	202.88
645.399	191.88
645.604	183.88
645.809	176.88
646.014	170.88
646.219	186.88
646.423	200.88
646.628	189.88
646.833	186.88
647.038	178.88
647.243	185.88
647.447	187.88
647.652	175.88
647.857	187.88
648.062	185.88
648.266	203.88
648.471	202.88
648.676	187.88
648.88	186.88
649.085	181.88
649.289	167.88
649.494	188.88
649.698	166.88
649.903	169.88
650.107	169.88
650.312	186.88
650.516	170.88
650.721	176.88
650.925	171.88
651.13	169.88
651.334	170.88
651.539	159.88
651.743	168.88
651.947	159.88
652.152	164.88
652.356	168.88
652.56	142.88
652.764	154.88
652.969	159.88
653.173	147.88
653.377	135.88
653.581	147.88
653.785	146.88
653.99	151.88
654.194	147.88
654.398	134.88
654.602	137.88
654.806	157.88
655.01	148.88
655.214	147.88
655.418	137.88
655.622	158.88
655.826	135.88
656.03	142.88
656.234	133.88
656.438	142.88
656.642	142.88
656.846	139.88
657.049	138.88
657.253	122.88
657.457	135.88
657.661	119.88
657.865	114.88
658.068	130.88
658.272	103.88
658.476	117.88
658.68	111.88
658.883	93.88
659.087	101.88
659.291	106.88
659.494	100.88
659.698	116.88
659.901	106.88
660.105	104.88
660.309	98.88
660.512	96.88
660.716	105.88
660.919	104.88
661.123	109.88
661.326	104.88
661.53	96.88
661.733	89.88
661.936	104.88
662.14	75.88
662.343	93.88
662.546	83.88
662.75	78.88
662.953	104.88
663.156	83.88
663.36	81.88
663.563	89.88
663.766	86.88
663.969	81.88
664.173	83.88
664.376	64.88
664.579	88.88
664.782	90.88
664.985	86.88
665.188	87.88
665.391	85.88
665.594	67.88
665.797	74.88
666	85.88
666.203	81.88
666.406	71.88
666.609	78.88
666.812	91.88
667.015	85.88
667.218	94.88
667.421	85.88
667.624	75.88
667.827	84.88
668.03	82.88
668.232	76.88
668.435	77.88
668.638	84.88
668.841	80.88
669.043	84.88
669.246	76.88
669.449	79.88
669.651	70.88
669.854	82.88
670.057	90.88
670.259	88.88
670.462	89.88
670.665	89.88
670.867	90.88
671.07	78.88
671.272	80.88
671.475	85.88
671.677	73.88
671.88	84.88
672.082	84.88
672.284	88.88
672.487	76.88
672.689	73.88
672.892	87.88
