Data from NiCl2@0.125M.TitratingCurve.Agarose3%dH2O.NegLispCup.LampEnergy10.LIBS07252019_HRD10591_18-27-59-576.txt Node
Date: Thu Jul 25 18:27:59 EDT 2019
User: cochatt
Spectrometer: HR+D1059
Trigger mode: 1
Integration Time (sec): 1.000000E-1
Scans to average: 1
Electric dark correction enabled: true
Nonlinearity correction enabled: false
Boxcar width: 0
XAxis mode: Wavelengths
Number of Pixels in Spectrum: 2048
>>>>>Begin Spectral Data<<<<<
223.165	-20.56
223.4	-20.56
223.635	-20.56
223.869	-25.56
224.104	-15.56
224.338	-26.56
224.573	-16.56
224.808	3.44
225.042	-5.56
225.277	-5.56
225.511	-9.56
225.746	0.44
225.98	14.44
226.215	14.44
226.449	25.44
226.683	10.44
226.918	21.44
227.152	35.44
227.387	25.44
227.621	31.44
227.856	40.44
228.09	43.44
228.324	49.44
228.559	59.44
228.793	72.44
229.027	112.44
229.262	131.44
229.496	128.44
229.73	128.44
229.964	134.44
230.199	142.44
230.433	134.44
230.667	141.44
230.901	145.44
231.136	148.44
231.37	158.44
231.604	139.44
231.838	175.44
232.072	174.44
232.306	163.44
232.541	178.44
232.775	171.44
233.009	159.44
233.243	158.44
233.477	187.44
233.711	187.44
233.945	196.44
234.179	182.44
234.413	177.44
234.647	167.44
234.881	159.44
235.115	182.44
235.349	177.44
235.583	173.44
235.817	170.44
236.051	175.44
236.285	195.44
236.519	163.44
236.753	174.44
236.987	179.44
237.221	178.44
237.455	201.44
237.689	196.44
237.922	217.44
238.156	195.44
238.39	201.44
238.624	207.44
238.858	202.44
239.091	204.44
239.325	215.44
239.559	188.44
239.793	204.44
240.027	216.44
240.26	221.44
240.494	219.44
240.728	232.44
240.961	223.44
241.195	239.44
241.429	223.44
241.662	242.44
241.896	222.44
242.13	245.44
242.363	223.44
242.597	224.44
242.83	255.44
243.064	255.44
243.298	245.44
243.531	247.44
243.765	247.44
243.998	248.44
244.232	253.44
244.465	248.44
244.699	257.44
244.932	255.44
245.166	275.44
245.399	270.44
245.633	259.44
245.866	273.44
246.099	273.44
246.333	277.44
246.566	278.44
246.8	272.44
247.033	256.44
247.266	273.44
247.5	278.44
247.733	275.44
247.966	296.44
248.2	307.44
248.433	297.44
248.666	315.44
248.899	301.44
249.133	319.44
249.366	308.44
249.599	309.44
249.832	300.44
250.066	307.44
250.299	297.44
250.532	322.44
250.765	308.44
250.998	330.44
251.231	322.44
251.465	330.44
251.698	339.44
251.931	320.44
252.164	342.44
252.397	326.44
252.63	347.44
252.863	355.44
253.096	344.44
253.329	344.44
253.562	338.44
253.795	332.44
254.028	364.44
254.261	327.44
254.494	343.44
254.727	361.44
254.96	339.44
255.193	363.44
255.426	351.44
255.659	358.44
255.892	360.44
256.124	378.44
256.357	367.44
256.59	375.44
256.823	363.44
257.056	367.44
257.289	380.44
257.521	381.44
257.754	379.44
257.987	368.44
258.22	370.44
258.452	375.44
258.685	391.44
258.918	383.44
259.151	365.44
259.383	385.44
259.616	405.44
259.849	395.44
260.081	381.44
260.314	387.44
260.547	393.44
260.779	404.44
261.012	394.44
261.244	407.44
261.477	393.44
261.71	395.44
261.942	397.44
262.175	397.44
262.407	420.44
262.64	419.44
262.872	428.44
263.105	421.44
263.337	426.44
263.57	439.44
263.802	439.44
264.035	432.44
264.267	420.44
264.499	426.44
264.732	433.44
264.964	443.44
265.197	455.44
265.429	451.44
265.661	432.44
265.894	448.44
266.126	432.44
266.358	446.44
266.591	451.44
266.823	440.44
267.055	467.44
267.287	467.44
267.52	443.44
267.752	450.44
267.984	451.44
268.216	471.44
268.448	457.44
268.681	468.44
268.913	457.44
269.145	459.44
269.377	458.44
269.609	477.44
269.841	462.44
270.073	474.44
270.306	470.44
270.538	468.44
270.77	486.44
271.002	483.44
271.234	474.44
271.466	485.44
271.698	482.44
271.93	490.44
272.162	495.44
272.394	501.44
272.626	489.44
272.858	500.44
273.09	500.44
273.322	506.44
273.553	517.44
273.785	517.44
274.017	523.44
274.249	519.44
274.481	522.44
274.713	522.44
274.945	516.44
275.176	519.44
275.408	534.44
275.64	544.44
275.872	525.44
276.104	561.44
276.335	546.44
276.567	528.44
276.799	535.44
277.031	532.44
277.262	529.44
277.494	536.44
277.726	539.44
277.957	546.44
278.189	538.44
278.421	543.44
278.652	548.44
278.884	542.44
279.115	558.44
279.347	539.44
279.579	573.44
279.81	569.44
280.042	584.44
280.273	596.44
280.505	578.44
280.736	568.44
280.968	579.44
281.199	583.44
281.431	600.44
281.662	574.44
281.894	600.44
282.125	598.44
282.356	589.44
282.588	587.44
282.819	597.44
283.051	597.44
283.282	571.44
283.513	614.44
283.745	608.44
283.976	603.44
284.207	597.44
284.439	606.44
284.67	617.44
284.901	618.44
285.132	630.44
285.364	634.44
285.595	628.44
285.826	635.44
286.057	646.44
286.288	633.44
286.52	621.44
286.751	606.44
286.982	647.44
287.213	662.44
287.444	658.44
287.675	656.44
287.906	652.44
288.138	648.44
288.369	649.44
288.6	651.44
288.831	668.44
289.062	663.44
289.293	667.44
289.524	668.44
289.755	683.44
289.986	676.44
290.217	655.44
290.448	652.44
290.679	639.44
290.91	670.44
291.141	683.44
291.371	661.44
291.602	682.44
291.833	687.44
292.064	683.44
292.295	657.44
292.526	672.44
292.757	645.44
292.987	658.44
293.218	662.44
293.449	697.44
293.68	705.44
293.91	666.44
294.141	657.44
294.372	682.44
294.603	675.44
294.833	704.44
295.064	699.44
295.295	708.44
295.525	673.44
295.756	716.44
295.987	677.44
296.217	673.44
296.448	707.44
296.679	717.44
296.909	664.44
297.14	683.44
297.37	708.44
297.601	732.44
297.831	721.44
298.062	731.44
298.292	732.44
298.523	751.44
298.753	737.44
298.984	740.44
299.214	728.44
299.445	720.44
299.675	719.44
299.905	737.44
300.136	735.44
300.366	736.44
300.597	720.44
300.827	769.44
301.057	755.44
301.288	774.44
301.518	776.44
301.748	759.44
301.979	774.44
302.209	775.44
302.439	779.44
302.669	771.44
302.9	766.44
303.13	738.44
303.36	760.44
303.59	752.44
303.82	770.44
304.051	764.44
304.281	781.44
304.511	711.44
304.741	755.44
304.971	739.44
305.201	748.44
305.431	732.44
305.661	740.44
305.891	773.44
306.121	775.44
306.352	778.44
306.582	743.44
306.812	746.44
307.042	742.44
307.272	742.44
307.502	749.44
307.731	744.44
307.961	752.44
308.191	725.44
308.421	735.44
308.651	752.44
308.881	733.44
309.111	746.44
309.341	743.44
309.571	734.44
309.8	732.44
310.03	739.44
310.26	769.44
310.49	754.44
310.72	765.44
310.949	762.44
311.179	744.44
311.409	751.44
311.639	772.44
311.868	769.44
312.098	770.44
312.328	796.44
312.557	790.44
312.787	793.44
313.017	771.44
313.246	779.44
313.476	818.44
313.706	779.44
313.935	817.44
314.165	827.44
314.394	801.44
314.624	794.44
314.853	781.44
315.083	793.44
315.312	820.44
315.542	808.44
315.771	778.44
316.001	814.44
316.23	786.44
316.46	788.44
316.689	782.44
316.919	794.44
317.148	788.44
317.377	799.44
317.607	766.44
317.836	780.44
318.065	802.44
318.295	767.44
318.524	819.44
318.753	782.44
318.983	789.44
319.212	770.44
319.441	783.44
319.67	773.44
319.9	762.44
320.129	773.44
320.358	777.44
320.587	793.44
320.816	791.44
321.046	775.44
321.275	778.44
321.504	800.44
321.733	788.44
321.962	799.44
322.191	775.44
322.42	791.44
322.649	797.44
322.878	792.44
323.108	790.44
323.337	817.44
323.566	793.44
323.795	775.44
324.024	826.44
324.253	823.44
324.482	815.44
324.71	820.44
324.939	843.44
325.168	814.44
325.397	840.44
325.626	837.44
325.855	844.44
326.084	856.44
326.313	879.44
326.542	869.44
326.77	899.44
326.999	875.44
327.228	852.44
327.457	828.44
327.686	855.44
327.914	831.44
328.143	852.44
328.372	871.44
328.6	857.44
328.829	852.44
329.058	877.44
329.287	890.44
329.515	864.44
329.744	856.44
329.972	871.44
330.201	875.44
330.43	879.44
330.658	883.44
330.887	889.44
331.115	915.44
331.344	923.44
331.572	893.44
331.801	921.44
332.03	950.44
332.258	963.44
332.486	1011.44
332.715	1041.44
332.943	1073.44
333.172	1129.44
333.4	1146.44
333.629	1217.44
333.857	1215.44
334.085	1151.44
334.314	1161.44
334.542	1112.44
334.771	1135.44
334.999	1085.44
335.227	1059.44
335.455	1079.44
335.684	1077.44
335.912	1037.44
336.14	1034.44
336.369	1080.44
336.597	1068.44
336.825	1057.44
337.053	1021.44
337.281	1019.44
337.51	976.44
337.738	983.44
337.966	955.44
338.194	985.44
338.422	968.44
338.65	946.44
338.878	948.44
339.106	927.44
339.334	916.44
339.562	931.44
339.79	934.44
340.018	896.44
340.246	905.44
340.474	898.44
340.702	896.44
340.93	932.44
341.158	930.44
341.386	921.44
341.614	891.44
341.842	912.44
342.07	896.44
342.298	908.44
342.526	884.44
342.754	876.44
342.981	905.44
343.209	931.44
343.437	922.44
343.665	1015.44
343.893	1101.44
344.12	1145.44
344.348	1047.44
344.576	1053.44
344.804	995.44
345.031	931.44
345.259	915.44
345.487	901.44
345.714	936.44
345.942	890.44
346.17	901.44
346.397	907.44
346.625	904.44
346.853	867.44
347.08	874.44
347.308	857.44
347.535	889.44
347.763	891.44
347.99	885.44
348.218	870.44
348.445	893.44
348.673	873.44
348.9	868.44
349.128	853.44
349.355	852.44
349.583	855.44
349.81	865.44
350.037	840.44
350.265	843.44
350.492	869.44
350.72	846.44
350.947	832.44
351.174	819.44
351.402	849.44
351.629	854.44
351.856	860.44
352.083	837.44
352.311	817.44
352.538	824.44
352.765	804.44
352.992	845.44
353.22	844.44
353.447	842.44
353.674	823.44
353.901	823.44
354.128	793.44
354.355	839.44
354.583	841.44
354.81	821.44
355.037	835.44
355.264	823.44
355.491	810.44
355.718	858.44
355.945	833.44
356.172	835.44
356.399	820.44
356.626	830.44
356.853	827.44
357.08	844.44
357.307	853.44
357.534	832.44
357.761	841.44
357.988	835.44
358.215	848.44
358.441	833.44
358.668	871.44
358.895	829.44
359.122	824.44
359.349	833.44
359.576	857.44
359.802	845.44
360.029	842.44
360.256	857.44
360.483	839.44
360.709	845.44
360.936	842.44
361.163	835.44
361.39	830.44
361.616	843.44
361.843	828.44
362.07	839.44
362.296	859.44
362.523	825.44
362.749	837.44
362.976	829.44
363.203	831.44
363.429	819.44
363.656	827.44
363.882	845.44
364.109	836.44
364.335	816.44
364.562	850.44
364.788	822.44
365.015	830.44
365.241	821.44
365.468	826.44
365.694	837.44
365.92	823.44
366.147	808.44
366.373	824.44
366.599	833.44
366.826	831.44
367.052	837.44
367.278	827.44
367.505	843.44
367.731	836.44
367.957	866.44
368.184	851.44
368.41	845.44
368.636	847.44
368.862	877.44
369.089	875.44
369.315	856.44
369.541	839.44
369.767	859.44
369.993	869.44
370.219	866.44
370.445	908.44
370.672	895.44
370.898	888.44
371.124	872.44
371.35	907.44
371.576	889.44
371.802	922.44
372.028	879.44
372.254	910.44
372.48	913.44
372.706	920.44
372.932	906.44
373.158	923.44
373.384	939.44
373.61	908.44
373.835	885.44
374.061	899.44
374.287	945.44
374.513	924.44
374.739	960.44
374.965	1035.44
375.191	1020.44
375.416	1000.44
375.642	979.44
375.868	988.44
376.094	937.44
376.319	931.44
376.545	915.44
376.771	942.44
376.997	905.44
377.222	940.44
377.448	930.44
377.674	896.44
377.899	887.44
378.125	891.44
378.35	895.44
378.576	895.44
378.802	897.44
379.027	888.44
379.253	911.44
379.478	899.44
379.704	902.44
379.929	915.44
380.155	876.44
380.38	913.44
380.606	919.44
380.831	904.44
381.057	883.44
381.282	906.44
381.507	902.44
381.733	934.44
381.958	916.44
382.184	940.44
382.409	943.44
382.634	946.44
382.86	929.44
383.085	994.44
383.31	964.44
383.535	989.44
383.761	1032.44
383.986	1018.44
384.211	1064.44
384.436	1077.44
384.662	1071.44
384.887	1075.44
385.112	1097.44
385.337	1123.44
385.562	1120.44
385.787	1120.44
386.013	1098.44
386.238	1132.44
386.463	1129.44
386.688	1140.44
386.913	1117.44
387.138	1093.44
387.363	1071.44
387.588	1100.44
387.813	1081.44
388.038	1087.44
388.263	1082.44
388.488	1115.44
388.713	1087.44
388.938	1071.44
389.163	1092.44
389.387	1052.44
389.612	1083.44
389.837	1054.44
390.062	1077.44
390.287	1069.44
390.512	1060.44
390.736	1119.44
390.961	1125.44
391.186	1122.44
391.411	1163.44
391.636	1161.44
391.86	1212.44
392.085	1273.44
392.31	1252.44
392.534	1228.44
392.759	1188.44
392.984	1170.44
393.208	1169.44
393.433	1163.44
393.658	1162.44
393.882	1133.44
394.107	1183.44
394.331	1186.44
394.556	1180.44
394.78	1208.44
395.005	1221.44
395.229	1181.44
395.454	1244.44
395.678	1254.44
395.903	1227.44
396.127	1211.44
396.352	1173.44
396.576	1156.44
396.801	1157.44
397.025	1174.44
397.249	1165.44
397.474	1246.44
397.698	1228.44
397.922	1239.44
398.147	1223.44
398.371	1267.44
398.595	1291.44
398.82	1366.44
399.044	1417.44
399.268	1618.44
399.492	1905.44
399.717	2181.44
399.941	2147.44
400.165	1903.44
400.389	1681.44
400.613	1529.44
400.837	1443.44
401.062	1418.44
401.286	1379.44
401.51	1359.44
401.734	1392.44
401.958	1419.44
402.182	1434.44
402.406	1421.44
402.63	1453.44
402.854	1487.44
403.078	1508.44
403.302	1572.44
403.526	1579.44
403.75	1604.44
403.974	1644.44
404.198	1629.44
404.422	1639.44
404.645	1627.44
404.869	1605.44
405.093	1643.44
405.317	1571.44
405.541	1510.44
405.765	1500.44
405.988	1507.44
406.212	1540.44
406.436	1536.44
406.66	1565.44
406.883	1569.44
407.107	1671.44
407.331	1770.44
407.555	1821.44
407.778	1837.44
408.002	1764.44
408.226	1710.44
408.449	1707.44
408.673	1647.44
408.896	1573.44
409.12	1580.44
409.344	1580.44
409.567	1572.44
409.791	1572.44
410.014	1578.44
410.238	1569.44
410.461	1577.44
410.685	1503.44
410.908	1499.44
411.132	1473.44
411.355	1441.44
411.578	1454.44
411.802	1415.44
412.025	1417.44
412.249	1477.44
412.472	1447.44
412.695	1405.44
412.919	1374.44
413.142	1394.44
413.365	1356.44
413.589	1401.44
413.812	1359.44
414.035	1359.44
414.258	1338.44
414.482	1368.44
414.705	1425.44
414.928	1422.44
415.151	1405.44
415.374	1403.44
415.597	1387.44
415.821	1370.44
416.044	1360.44
416.267	1341.44
416.49	1336.44
416.713	1347.44
416.936	1356.44
417.159	1350.44
417.382	1342.44
417.605	1349.44
417.828	1361.44
418.051	1399.44
418.274	1370.44
418.497	1373.44
418.72	1436.44
418.943	1409.44
419.166	1497.44
419.389	1581.44
419.611	1574.44
419.834	1494.44
420.057	1453.44
420.28	1378.44
420.503	1339.44
420.726	1337.44
420.948	1327.44
421.171	1364.44
421.394	1358.44
421.617	1342.44
421.839	1377.44
422.062	1403.44
422.285	1378.44
422.507	1417.44
422.73	1388.44
422.953	1401.44
423.175	1439.44
423.398	1448.44
423.621	1451.44
423.843	1466.44
424.066	1473.44
424.288	1444.44
424.511	1445.44
424.733	1432.44
424.956	1417.44
425.178	1388.44
425.401	1364.44
425.623	1343.44
425.846	1317.44
426.068	1303.44
426.291	1348.44
426.513	1268.44
426.735	1280.44
426.958	1270.44
427.18	1247.44
427.402	1263.44
427.625	1247.44
427.847	1227.44
428.069	1199.44
428.292	1223.44
428.514	1193.44
428.736	1184.44
428.958	1210.44
429.181	1198.44
429.403	1180.44
429.625	1193.44
429.847	1165.44
430.069	1179.44
430.292	1170.44
430.514	1172.44
430.736	1181.44
430.958	1179.44
431.18	1194.44
431.402	1186.44
431.624	1176.44
431.846	1199.44
432.068	1230.44
432.29	1239.44
432.512	1209.44
432.734	1218.44
432.956	1192.44
433.178	1205.44
433.4	1213.44
433.622	1234.44
433.844	1223.44
434.066	1209.44
434.287	1210.44
434.509	1281.44
434.731	1311.44
434.953	1346.44
435.175	1375.44
435.397	1371.44
435.618	1279.44
435.84	1277.44
436.062	1212.44
436.284	1184.44
436.505	1190.44
436.727	1192.44
436.949	1228.44
437.17	1217.44
437.392	1196.44
437.614	1173.44
437.835	1150.44
438.057	1146.44
438.278	1103.44
438.5	1117.44
438.721	1148.44
438.943	1173.44
439.165	1136.44
439.386	1141.44
439.608	1204.44
439.829	1226.44
440.05	1230.44
440.272	1213.44
440.493	1202.44
440.715	1237.44
440.936	1251.44
441.158	1247.44
441.379	1303.44
441.6	1367.44
441.822	1395.44
442.043	1383.44
442.264	1333.44
442.486	1345.44
442.707	1358.44
442.928	1325.44
443.149	1330.44
443.371	1360.44
443.592	1352.44
443.813	1380.44
444.034	1372.44
444.255	1399.44
444.476	1503.44
444.698	1606.44
444.919	1669.44
445.14	1737.44
445.361	1586.44
445.582	1431.44
445.803	1353.44
446.024	1308.44
446.245	1283.44
446.466	1235.44
446.687	1211.44
446.908	1215.44
447.129	1205.44
447.35	1172.44
447.571	1152.44
447.792	1147.44
448.013	1153.44
448.234	1119.44
448.455	1111.44
448.675	1125.44
448.896	1116.44
449.117	1071.44
449.338	1099.44
449.559	1077.44
449.779	1077.44
450	1105.44
450.221	1062.44
450.442	1164.44
450.662	1118.44
450.883	1109.44
451.104	1127.44
451.324	1148.44
451.545	1151.44
451.766	1127.44
451.986	1119.44
452.207	1123.44
452.428	1108.44
452.648	1112.44
452.869	1105.44
453.089	1088.44
453.31	1084.44
453.53	1097.44
453.751	1077.44
453.971	1103.44
454.192	1041.44
454.412	1059.44
454.633	1026.44
454.853	1043.44
455.073	1023.44
455.294	1041.44
455.514	1037.44
455.734	1026.44
455.955	1041.44
456.175	1025.44
456.395	983.44
456.616	1012.44
456.836	1035.44
457.056	1003.44
457.276	1015.44
457.497	1039.44
457.717	1010.44
457.937	1053.44
458.157	1053.44
458.377	1050.44
458.598	1075.44
458.818	1080.44
459.038	1105.44
459.258	1196.44
459.478	1205.44
459.698	1244.44
459.918	1300.44
460.138	1338.44
460.358	1438.44
460.578	1429.44
460.798	1442.44
461.018	1475.44
461.238	1463.44
461.458	1462.44
461.678	1416.44
461.898	1442.44
462.118	1431.44
462.338	1559.44
462.558	1545.44
462.777	1616.44
462.997	1779.44
463.217	1962.44
463.437	1979.44
463.657	1824.44
463.876	1679.44
464.096	1715.44
464.316	1706.44
464.536	1717.44
464.755	1600.44
464.975	1565.44
465.195	1531.44
465.414	1382.44
465.634	1299.44
465.854	1286.44
466.073	1272.44
466.293	1245.44
466.512	1203.44
466.732	1211.44
466.951	1161.44
467.171	1157.44
467.391	1194.44
467.61	1129.44
467.829	1157.44
468.049	1163.44
468.268	1118.44
468.488	1115.44
468.707	1088.44
468.927	1098.44
469.146	1100.44
469.365	1129.44
469.585	1123.44
469.804	1148.44
470.023	1186.44
470.243	1204.44
470.462	1192.44
470.681	1179.44
470.901	1201.44
471.12	1158.44
471.339	1138.44
471.558	1135.44
471.777	1131.44
471.997	1121.44
472.216	1092.44
472.435	1123.44
472.654	1075.44
472.873	1041.44
473.092	1075.44
473.311	1059.44
473.53	1069.44
473.749	1085.44
473.968	1083.44
474.187	1053.44
474.406	1051.44
474.625	1066.44
474.844	1060.44
475.063	1065.44
475.282	1089.44
475.501	1098.44
475.72	1079.44
475.939	1079.44
476.158	1098.44
476.377	1112.44
476.596	1108.44
476.814	1159.44
477.033	1151.44
477.252	1192.44
477.471	1187.44
477.69	1199.44
477.908	1244.44
478.127	1268.44
478.346	1281.44
478.564	1308.44
478.783	1327.44
479.002	1363.44
479.22	1409.44
479.439	1317.44
479.658	1341.44
479.876	1327.44
480.095	1323.44
480.313	1420.44
480.532	1485.44
480.751	1508.44
480.969	1426.44
481.188	1347.44
481.406	1288.44
481.624	1275.44
481.843	1250.44
482.061	1217.44
482.28	1224.44
482.498	1223.44
482.717	1180.44
482.935	1186.44
483.153	1224.44
483.372	1222.44
483.59	1196.44
483.808	1202.44
484.027	1204.44
484.245	1235.44
484.463	1231.44
484.681	1249.44
484.9	1267.44
485.118	1270.44
485.336	1276.44
485.554	1238.44
485.772	1267.44
485.99	1338.44
486.209	1312.44
486.427	1301.44
486.645	1287.44
486.863	1289.44
487.081	1271.44
487.299	1263.44
487.517	1251.44
487.735	1259.44
487.953	1256.44
488.171	1242.44
488.389	1309.44
488.607	1242.44
488.825	1239.44
489.043	1258.44
489.261	1237.44
489.479	1292.44
489.696	1288.44
489.914	1266.44
490.132	1274.44
490.35	1247.44
490.568	1267.44
490.786	1279.44
491.003	1284.44
491.221	1256.44
491.439	1311.44
491.657	1257.44
491.874	1305.44
492.092	1267.44
492.31	1290.44
492.527	1299.44
492.745	1321.44
492.963	1311.44
493.18	1338.44
493.398	1324.44
493.615	1301.44
493.833	1339.44
494.05	1335.44
494.268	1388.44
494.485	1367.44
494.703	1357.44
494.92	1364.44
495.138	1302.44
495.355	1340.44
495.573	1362.44
495.79	1372.44
496.008	1385.44
496.225	1379.44
496.442	1410.44
496.66	1381.44
496.877	1417.44
497.094	1447.44
497.312	1466.44
497.529	1495.44
497.746	1535.44
497.963	1568.44
498.181	1635.44
498.398	1695.44
498.615	1802.44
498.832	1987.44
499.049	2103.44
499.267	2283.44
499.484	2551.44
499.701	2803.44
499.918	3108.44
500.135	3570.44
500.352	4130.44
500.569	4301.44
500.786	4280.44
501.003	3975.44
501.22	3521.44
501.437	3079.44
501.654	2681.44
501.871	2432.44
502.088	2235.44
502.305	2081.44
502.522	1966.44
502.739	1875.44
502.956	1779.44
503.172	1698.44
503.389	1648.44
503.606	1579.44
503.823	1565.44
504.04	1546.44
504.256	1589.44
504.473	1631.44
504.69	1663.44
504.907	1679.44
505.123	1501.44
505.34	1392.44
505.557	1347.44
505.773	1337.44
505.99	1311.44
506.207	1228.44
506.423	1254.44
506.64	1224.44
506.856	1228.44
507.073	1210.44
507.289	1192.44
507.506	1204.44
507.722	1188.44
507.939	1180.44
508.155	1139.44
508.372	1147.44
508.588	1156.44
508.805	1139.44
509.021	1157.44
509.238	1133.44
509.454	1111.44
509.67	1114.44
509.887	1117.44
510.103	1111.44
510.319	1119.44
510.536	1092.44
510.752	1056.44
510.968	1089.44
511.184	1093.44
511.401	1085.44
511.617	1077.44
511.833	1069.44
512.049	1057.44
512.265	1053.44
512.481	1094.44
512.698	1067.44
512.914	1048.44
513.13	1076.44
513.346	1083.44
513.562	1072.44
513.778	1086.44
513.994	1089.44
514.21	1099.44
514.426	1083.44
514.642	1084.44
514.858	1113.44
515.074	1136.44
515.29	1141.44
515.506	1119.44
515.721	1165.44
515.937	1185.44
516.153	1189.44
516.369	1218.44
516.585	1235.44
516.801	1285.44
517.016	1343.44
517.232	1427.44
517.448	1495.44
517.664	1513.44
517.879	1555.44
518.095	1559.44
518.311	1512.44
518.527	1461.44
518.742	1380.44
518.958	1334.44
519.173	1258.44
519.389	1272.44
519.605	1201.44
519.82	1167.44
520.036	1136.44
520.251	1132.44
520.467	1114.44
520.682	1091.44
520.898	1100.44
521.113	1068.44
521.329	1068.44
521.544	1043.44
521.76	1033.44
521.975	1066.44
522.19	1043.44
522.406	1032.44
522.621	1031.44
522.836	996.44
523.052	1031.44
523.267	992.44
523.482	1009.44
523.698	986.44
523.913	993.44
524.128	1003.44
524.343	1006.44
524.559	996.44
524.774	999.44
524.989	979.44
525.204	1002.44
525.419	977.44
525.634	982.44
525.849	999.44
526.064	966.44
526.28	992.44
526.495	981.44
526.71	977.44
526.925	984.44
527.14	1001.44
527.355	969.44
527.57	979.44
527.785	998.44
527.999	996.44
528.214	983.44
528.429	990.44
528.644	976.44
528.859	991.44
529.074	945.44
529.289	972.44
529.503	1017.44
529.718	984.44
529.933	960.44
530.148	970.44
530.363	965.44
530.577	970.44
530.792	956.44
531.007	980.44
531.221	979.44
531.436	962.44
531.651	956.44
531.865	961.44
532.08	974.44
532.295	991.44
532.509	972.44
532.724	977.44
532.938	998.44
533.153	1002.44
533.367	983.44
533.582	1009.44
533.796	962.44
534.011	986.44
534.225	944.44
534.44	956.44
534.654	969.44
534.868	968.44
535.083	944.44
535.297	932.44
535.511	939.44
535.726	965.44
535.94	903.44
536.154	947.44
536.369	929.44
536.583	933.44
536.797	901.44
537.011	914.44
537.225	905.44
537.44	910.44
537.654	887.44
537.868	891.44
538.082	864.44
538.296	876.44
538.51	888.44
538.724	892.44
538.938	864.44
539.153	871.44
539.367	888.44
539.581	865.44
539.795	839.44
540.009	871.44
540.222	869.44
540.436	882.44
540.65	877.44
540.864	860.44
541.078	835.44
541.292	879.44
541.506	897.44
541.72	883.44
541.934	871.44
542.147	880.44
542.361	892.44
542.575	883.44
542.789	871.44
543.002	865.44
543.216	866.44
543.43	872.44
543.644	869.44
543.857	887.44
544.071	883.44
544.285	867.44
544.498	859.44
544.712	870.44
544.925	879.44
545.139	899.44
545.352	844.44
545.566	925.44
545.779	895.44
545.993	909.44
546.206	891.44
546.42	890.44
546.633	888.44
546.847	879.44
547.06	870.44
547.274	881.44
547.487	878.44
547.7	903.44
547.914	908.44
548.127	880.44
548.34	911.44
548.554	865.44
548.767	905.44
548.98	873.44
549.193	907.44
549.407	871.44
549.62	939.44
549.833	935.44
550.046	941.44
550.259	899.44
550.473	844.44
550.686	906.44
550.899	866.44
551.112	864.44
551.325	873.44
551.538	888.44
551.751	884.44
551.964	870.44
552.177	899.44
552.39	903.44
552.603	955.44
552.816	936.44
553.029	967.44
553.242	966.44
553.455	994.44
553.667	990.44
553.88	973.44
554.093	932.44
554.306	912.44
554.519	893.44
554.732	881.44
554.944	853.44
555.157	869.44
555.37	862.44
555.583	844.44
555.795	834.44
556.008	778.44
556.221	785.44
556.433	783.44
556.646	774.44
556.859	786.44
557.071	763.44
557.284	775.44
557.496	771.44
557.709	763.44
557.921	740.44
558.134	751.44
558.346	738.44
558.559	765.44
558.771	725.44
558.984	769.44
559.196	747.44
559.409	762.44
559.621	740.44
559.833	726.44
560.046	730.44
560.258	727.44
560.47	745.44
560.683	735.44
560.895	702.44
561.107	710.44
561.32	696.44
561.532	718.44
561.744	740.44
561.956	734.44
562.168	717.44
562.381	707.44
562.593	715.44
562.805	705.44
563.017	712.44
563.229	738.44
563.441	715.44
563.653	721.44
563.865	723.44
564.077	754.44
564.289	786.44
564.501	781.44
564.713	788.44
564.925	772.44
565.137	803.44
565.349	835.44
565.561	815.44
565.773	855.44
565.985	909.44
566.197	964.44
566.408	1027.44
566.62	1119.44
566.832	1192.44
567.044	1254.44
567.255	1229.44
567.467	1295.44
567.679	1345.44
567.891	1468.44
568.102	1508.44
568.314	1433.44
568.526	1281.44
568.737	1145.44
568.949	1047.44
569.161	975.44
569.372	882.44
569.584	833.44
569.795	807.44
570.007	781.44
570.218	750.44
570.43	739.44
570.641	735.44
570.853	784.44
571.064	785.44
571.276	763.44
571.487	747.44
571.698	711.44
571.91	698.44
572.121	652.44
572.333	651.44
572.544	642.44
572.755	628.44
572.966	625.44
573.178	616.44
573.389	607.44
573.6	602.44
573.811	622.44
574.023	626.44
574.234	629.44
574.445	614.44
574.656	598.44
574.867	600.44
575.078	597.44
575.289	597.44
575.501	582.44
575.712	561.44
575.923	550.44
576.134	581.44
576.345	555.44
576.556	573.44
576.767	575.44
576.978	550.44
577.188	572.44
577.399	570.44
577.61	555.44
577.821	527.44
578.032	540.44
578.243	543.44
578.454	532.44
578.665	544.44
578.875	520.44
579.086	523.44
579.297	523.44
579.508	519.44
579.718	551.44
579.929	543.44
580.14	499.44
580.35	512.44
580.561	551.44
580.772	529.44
580.982	495.44
581.193	509.44
581.403	491.44
581.614	497.44
581.825	526.44
582.035	503.44
582.246	508.44
582.456	484.44
582.667	497.44
582.877	492.44
583.087	512.44
583.298	513.44
583.508	487.44
583.719	499.44
583.929	495.44
584.139	485.44
584.35	500.44
584.56	499.44
584.77	484.44
584.981	493.44
585.191	457.44
585.401	474.44
585.611	502.44
585.821	479.44
586.032	489.44
586.242	483.44
586.452	478.44
586.662	480.44
586.872	478.44
587.082	477.44
587.292	467.44
587.502	466.44
587.713	478.44
587.923	465.44
588.133	479.44
588.343	469.44
588.553	459.44
588.762	477.44
588.972	473.44
589.182	488.44
589.392	472.44
589.602	452.44
589.812	487.44
590.022	485.44
590.232	479.44
590.441	514.44
590.651	501.44
590.861	471.44
591.071	479.44
591.281	503.44
591.49	469.44
591.7	494.44
591.91	523.44
592.119	499.44
592.329	516.44
592.539	523.44
592.748	560.44
592.958	601.44
593.167	617.44
593.377	627.44
593.587	635.44
593.796	633.44
594.006	649.44
594.215	653.44
594.424	629.44
594.634	633.44
594.843	585.44
595.053	561.44
595.262	540.44
595.472	515.44
595.681	515.44
595.89	497.44
596.1	481.44
596.309	483.44
596.518	474.44
596.727	472.44
596.937	436.44
597.146	440.44
597.355	444.44
597.564	436.44
597.774	445.44
597.983	435.44
598.192	428.44
598.401	432.44
598.61	420.44
598.819	404.44
599.028	420.44
599.237	421.44
599.446	405.44
599.655	411.44
599.864	411.44
600.073	401.44
600.282	387.44
600.491	387.44
600.7	396.44
600.909	390.44
601.118	416.44
601.327	421.44
601.536	424.44
601.745	380.44
601.953	402.44
602.162	380.44
602.371	373.44
602.58	393.44
602.789	387.44
602.997	389.44
603.206	371.44
603.415	391.44
603.623	395.44
603.832	373.44
604.041	399.44
604.249	379.44
604.458	372.44
604.666	369.44
604.875	394.44
605.084	364.44
605.292	360.44
605.501	372.44
605.709	371.44
605.918	368.44
606.126	361.44
606.334	376.44
606.543	379.44
606.751	378.44
606.96	375.44
607.168	363.44
607.376	351.44
607.585	358.44
607.793	358.44
608.001	346.44
608.21	360.44
608.418	352.44
608.626	350.44
608.834	358.44
609.043	356.44
609.251	343.44
609.459	345.44
609.667	361.44
609.875	357.44
610.083	337.44
610.291	370.44
610.499	345.44
610.707	342.44
610.916	349.44
611.124	367.44
611.332	348.44
611.54	355.44
611.748	345.44
611.955	360.44
612.163	357.44
612.371	336.44
612.579	342.44
612.787	342.44
612.995	331.44
613.203	343.44
613.411	342.44
613.618	338.44
613.826	345.44
614.034	345.44
614.242	332.44
614.449	340.44
614.657	344.44
614.865	334.44
615.072	343.44
615.28	352.44
615.488	351.44
615.695	332.44
615.903	344.44
616.111	351.44
616.318	352.44
616.526	344.44
616.733	343.44
616.941	337.44
617.148	346.44
617.356	342.44
617.563	355.44
617.771	339.44
617.978	339.44
618.185	338.44
618.393	352.44
618.6	343.44
618.807	360.44
619.015	341.44
619.222	323.44
619.429	345.44
619.637	327.44
619.844	339.44
620.051	333.44
620.258	315.44
620.466	307.44
620.673	322.44
620.88	317.44
621.087	310.44
621.294	304.44
621.501	316.44
621.708	317.44
621.915	301.44
622.122	306.44
622.329	323.44
622.536	309.44
622.743	308.44
622.95	311.44
623.157	303.44
623.364	315.44
623.571	314.44
623.778	307.44
623.985	296.44
624.192	308.44
624.399	281.44
624.606	293.44
624.812	298.44
625.019	288.44
625.226	323.44
625.433	305.44
625.639	289.44
625.846	295.44
626.053	289.44
626.259	290.44
626.466	283.44
626.673	271.44
626.879	280.44
627.086	293.44
627.293	283.44
627.499	299.44
627.706	283.44
627.912	293.44
628.119	286.44
628.325	288.44
628.532	276.44
628.738	281.44
628.945	280.44
629.151	274.44
629.357	257.44
629.564	274.44
629.77	274.44
629.976	271.44
630.183	261.44
630.389	260.44
630.595	266.44
630.802	275.44
631.008	273.44
631.214	249.44
631.42	268.44
631.627	264.44
631.833	251.44
632.039	274.44
632.245	258.44
632.451	270.44
632.657	260.44
632.863	258.44
633.069	249.44
633.275	244.44
633.481	255.44
633.688	277.44
633.893	242.44
634.099	268.44
634.305	249.44
634.511	233.44
634.717	234.44
634.923	245.44
635.129	253.44
635.335	247.44
635.541	240.44
635.747	251.44
635.952	239.44
636.158	233.44
636.364	257.44
636.57	230.44
636.775	217.44
636.981	232.44
637.187	255.44
637.392	226.44
637.598	255.44
637.804	232.44
638.009	239.44
638.215	236.44
638.421	243.44
638.626	245.44
638.832	237.44
639.037	239.44
639.243	234.44
639.448	239.44
639.654	260.44
639.859	224.44
640.065	212.44
640.27	227.44
640.475	224.44
640.681	215.44
640.886	239.44
641.091	244.44
641.297	215.44
641.502	226.44
641.707	214.44
641.913	236.44
642.118	211.44
642.323	241.44
642.528	231.44
642.733	204.44
642.939	215.44
643.144	216.44
643.349	212.44
643.554	228.44
643.759	220.44
643.964	214.44
644.169	205.44
644.374	215.44
644.579	210.44
644.784	225.44
644.989	207.44
645.194	226.44
645.399	214.44
645.604	219.44
645.809	218.44
646.014	218.44
646.219	205.44
646.423	204.44
646.628	220.44
646.833	205.44
647.038	216.44
647.243	212.44
647.447	208.44
647.652	223.44
647.857	217.44
648.062	248.44
648.266	243.44
648.471	257.44
648.676	245.44
648.88	232.44
649.085	225.44
649.289	229.44
649.494	228.44
649.698	216.44
649.903	209.44
650.107	198.44
650.312	205.44
650.516	189.44
650.721	208.44
650.925	184.44
651.13	187.44
651.334	188.44
651.539	199.44
651.743	182.44
651.947	191.44
652.152	177.44
652.356	179.44
652.56	192.44
652.764	181.44
652.969	190.44
653.173	172.44
653.377	167.44
653.581	184.44
653.785	162.44
653.99	169.44
654.194	165.44
654.398	169.44
654.602	147.44
654.806	157.44
655.01	160.44
655.214	161.44
655.418	162.44
655.622	140.44
655.826	152.44
656.03	148.44
656.234	147.44
656.438	152.44
656.642	161.44
656.846	153.44
657.049	126.44
657.253	142.44
657.457	138.44
657.661	131.44
657.865	117.44
658.068	127.44
658.272	117.44
658.476	117.44
658.68	122.44
658.883	95.44
659.087	101.44
659.291	96.44
659.494	107.44
659.698	118.44
659.901	119.44
660.105	100.44
660.309	96.44
660.512	89.44
660.716	98.44
660.919	89.44
661.123	111.44
661.326	102.44
661.53	103.44
661.733	87.44
661.936	97.44
662.14	74.44
662.343	84.44
662.546	80.44
662.75	94.44
662.953	106.44
663.156	90.44
663.36	105.44
663.563	87.44
663.766	74.44
663.969	85.44
664.173	77.44
664.376	77.44
664.579	86.44
664.782	81.44
664.985	83.44
665.188	87.44
665.391	73.44
665.594	84.44
665.797	103.44
666	81.44
666.203	82.44
666.406	85.44
666.609	80.44
666.812	85.44
667.015	75.44
667.218	71.44
667.421	90.44
667.624	77.44
667.827	90.44
668.03	92.44
668.232	83.44
668.435	80.44
668.638	89.44
668.841	87.44
669.043	84.44
669.246	73.44
669.449	68.44
669.651	89.44
669.854	75.44
670.057	71.44
670.259	76.44
670.462	80.44
670.665	74.44
670.867	71.44
671.07	75.44
671.272	79.44
671.475	80.44
671.677	63.44
671.88	84.44
672.082	69.44
672.284	76.44
672.487	77.44
672.689	94.44
672.892	89.44
