Data from NiCl2@0.5M.TitratingCurve.Agarose3%dH2O.NegLispCup.LampEnergy10.LIBS07252019_HRD10591_18-20-59-571.txt Node
Date: Thu Jul 25 18:20:59 EDT 2019
User: cochatt
Spectrometer: HR+D1059
Trigger mode: 1
Integration Time (sec): 1.000000E-1
Scans to average: 1
Electric dark correction enabled: true
Nonlinearity correction enabled: false
Boxcar width: 0
XAxis mode: Wavelengths
Number of Pixels in Spectrum: 2048
>>>>>Begin Spectral Data<<<<<
223.165	-15.06
223.4	-15.06
223.635	-15.06
223.869	-20.06
224.104	-20.06
224.338	-13.06
224.573	-10.06
224.808	-19.06
225.042	-11.06
225.277	1.94
225.511	1.94
225.746	8.94
225.98	8.94
226.215	12.94
226.449	8.94
226.683	12.94
226.918	25.94
227.152	25.94
227.387	42.94
227.621	36.94
227.856	39.94
228.09	59.94
228.324	54.94
228.559	64.94
228.793	65.94
229.027	99.94
229.262	119.94
229.496	127.94
229.73	139.94
229.964	126.94
230.199	140.94
230.433	129.94
230.667	155.94
230.901	139.94
231.136	142.94
231.37	143.94
231.604	141.94
231.838	147.94
232.072	166.94
232.306	157.94
232.541	172.94
232.775	154.94
233.009	156.94
233.243	160.94
233.477	153.94
233.711	141.94
233.945	153.94
234.179	151.94
234.413	157.94
234.647	161.94
234.881	164.94
235.115	154.94
235.349	152.94
235.583	162.94
235.817	182.94
236.051	149.94
236.285	162.94
236.519	153.94
236.753	163.94
236.987	143.94
237.221	165.94
237.455	170.94
237.689	168.94
237.922	164.94
238.156	172.94
238.39	169.94
238.624	166.94
238.858	168.94
239.091	176.94
239.325	170.94
239.559	190.94
239.793	198.94
240.027	198.94
240.26	194.94
240.494	188.94
240.728	192.94
240.961	192.94
241.195	193.94
241.429	179.94
241.662	193.94
241.896	211.94
242.13	223.94
242.363	212.94
242.597	205.94
242.83	196.94
243.064	205.94
243.298	203.94
243.531	194.94
243.765	222.94
243.998	219.94
244.232	229.94
244.465	225.94
244.699	222.94
244.932	233.94
245.166	230.94
245.399	222.94
245.633	200.94
245.866	226.94
246.099	226.94
246.333	204.94
246.566	229.94
246.8	235.94
247.033	241.94
247.266	230.94
247.5	243.94
247.733	238.94
247.966	253.94
248.2	253.94
248.433	249.94
248.666	230.94
248.899	261.94
249.133	263.94
249.366	248.94
249.599	261.94
249.832	233.94
250.066	246.94
250.299	252.94
250.532	263.94
250.765	277.94
250.998	249.94
251.231	280.94
251.465	269.94
251.698	292.94
251.931	269.94
252.164	287.94
252.397	294.94
252.63	277.94
252.863	292.94
253.096	285.94
253.329	285.94
253.562	263.94
253.795	291.94
254.028	291.94
254.261	274.94
254.494	291.94
254.727	284.94
254.96	295.94
255.193	287.94
255.426	291.94
255.659	298.94
255.892	299.94
256.124	298.94
256.357	311.94
256.59	316.94
256.823	299.94
257.056	317.94
257.289	319.94
257.521	310.94
257.754	293.94
257.987	317.94
258.22	316.94
258.452	324.94
258.685	323.94
258.918	330.94
259.151	330.94
259.383	341.94
259.616	324.94
259.849	332.94
260.081	332.94
260.314	332.94
260.547	342.94
260.779	333.94
261.012	339.94
261.244	325.94
261.477	345.94
261.71	341.94
261.942	337.94
262.175	342.94
262.407	342.94
262.64	333.94
262.872	350.94
263.105	351.94
263.337	355.94
263.57	341.94
263.802	354.94
264.035	348.94
264.267	353.94
264.499	375.94
264.732	364.94
264.964	353.94
265.197	360.94
265.429	381.94
265.661	365.94
265.894	373.94
266.126	373.94
266.358	375.94
266.591	372.94
266.823	364.94
267.055	366.94
267.287	373.94
267.52	373.94
267.752	395.94
267.984	374.94
268.216	396.94
268.448	391.94
268.681	403.94
268.913	395.94
269.145	405.94
269.377	378.94
269.609	398.94
269.841	391.94
270.073	377.94
270.306	409.94
270.538	387.94
270.77	407.94
271.002	389.94
271.234	427.94
271.466	389.94
271.698	399.94
271.93	410.94
272.162	395.94
272.394	417.94
272.626	389.94
272.858	422.94
273.09	424.94
273.322	422.94
273.553	433.94
273.785	441.94
274.017	417.94
274.249	429.94
274.481	443.94
274.713	419.94
274.945	445.94
275.176	429.94
275.408	441.94
275.64	445.94
275.872	447.94
276.104	421.94
276.335	426.94
276.567	437.94
276.799	453.94
277.031	473.94
277.262	450.94
277.494	451.94
277.726	458.94
277.957	470.94
278.189	456.94
278.421	451.94
278.652	461.94
278.884	474.94
279.115	471.94
279.347	466.94
279.579	473.94
279.81	464.94
280.042	467.94
280.273	471.94
280.505	486.94
280.736	469.94
280.968	484.94
281.199	479.94
281.431	495.94
281.662	491.94
281.894	480.94
282.125	488.94
282.356	503.94
282.588	494.94
282.819	504.94
283.051	487.94
283.282	494.94
283.513	505.94
283.745	515.94
283.976	504.94
284.207	501.94
284.439	503.94
284.67	505.94
284.901	508.94
285.132	528.94
285.364	523.94
285.595	522.94
285.826	514.94
286.057	541.94
286.288	534.94
286.52	536.94
286.751	549.94
286.982	523.94
287.213	526.94
287.444	550.94
287.675	546.94
287.906	546.94
288.138	549.94
288.369	556.94
288.6	533.94
288.831	552.94
289.062	526.94
289.293	552.94
289.524	553.94
289.755	551.94
289.986	552.94
290.217	565.94
290.448	568.94
290.679	550.94
290.91	571.94
291.141	554.94
291.371	532.94
291.602	568.94
291.833	577.94
292.064	553.94
292.295	551.94
292.526	568.94
292.757	563.94
292.987	538.94
293.218	536.94
293.449	553.94
293.68	559.94
293.91	562.94
294.141	561.94
294.372	560.94
294.603	595.94
294.833	580.94
295.064	575.94
295.295	584.94
295.525	561.94
295.756	583.94
295.987	566.94
296.217	593.94
296.448	573.94
296.679	556.94
296.909	612.94
297.14	586.94
297.37	599.94
297.601	590.94
297.831	624.94
298.062	597.94
298.292	611.94
298.523	633.94
298.753	613.94
298.984	606.94
299.214	617.94
299.445	611.94
299.675	629.94
299.905	621.94
300.136	630.94
300.366	645.94
300.597	647.94
300.827	649.94
301.057	639.94
301.288	642.94
301.518	643.94
301.748	676.94
301.979	635.94
302.209	645.94
302.439	630.94
302.669	631.94
302.9	661.94
303.13	626.94
303.36	614.94
303.59	632.94
303.82	637.94
304.051	654.94
304.281	639.94
304.511	650.94
304.741	631.94
304.971	629.94
305.201	668.94
305.431	681.94
305.661	665.94
305.891	671.94
306.121	654.94
306.352	632.94
306.582	629.94
306.812	617.94
307.042	615.94
307.272	632.94
307.502	637.94
307.731	593.94
307.961	607.94
308.191	630.94
308.421	612.94
308.651	632.94
308.881	623.94
309.111	634.94
309.341	634.94
309.571	623.94
309.8	643.94
310.03	656.94
310.26	659.94
310.49	663.94
310.72	621.94
310.949	626.94
311.179	633.94
311.409	636.94
311.639	636.94
311.868	646.94
312.098	657.94
312.328	656.94
312.557	675.94
312.787	661.94
313.017	674.94
313.246	662.94
313.476	662.94
313.706	702.94
313.935	690.94
314.165	686.94
314.394	685.94
314.624	673.94
314.853	673.94
315.083	662.94
315.312	702.94
315.542	685.94
315.771	666.94
316.001	676.94
316.23	661.94
316.46	661.94
316.689	660.94
316.919	689.94
317.148	682.94
317.377	676.94
317.607	657.94
317.836	641.94
318.065	662.94
318.295	693.94
318.524	679.94
318.753	673.94
318.983	671.94
319.212	665.94
319.441	672.94
319.67	685.94
319.9	691.94
320.129	657.94
320.358	668.94
320.587	658.94
320.816	675.94
321.046	671.94
321.275	683.94
321.504	663.94
321.733	696.94
321.962	659.94
322.191	685.94
322.42	689.94
322.649	689.94
322.878	675.94
323.108	686.94
323.337	718.94
323.566	695.94
323.795	711.94
324.024	692.94
324.253	709.94
324.482	708.94
324.71	690.94
324.939	698.94
325.168	709.94
325.397	697.94
325.626	721.94
325.855	707.94
326.084	734.94
326.313	734.94
326.542	754.94
326.77	763.94
326.999	755.94
327.228	729.94
327.457	735.94
327.686	731.94
327.914	745.94
328.143	740.94
328.372	708.94
328.6	743.94
328.829	721.94
329.058	712.94
329.287	720.94
329.515	727.94
329.744	709.94
329.972	730.94
330.201	754.94
330.43	772.94
330.658	748.94
330.887	763.94
331.115	759.94
331.344	775.94
331.572	781.94
331.801	794.94
332.03	801.94
332.258	803.94
332.486	809.94
332.715	820.94
332.943	867.94
333.172	871.94
333.4	919.94
333.629	909.94
333.857	923.94
334.085	917.94
334.314	948.94
334.542	926.94
334.771	927.94
334.999	932.94
335.227	929.94
335.455	939.94
335.684	902.94
335.912	913.94
336.14	921.94
336.369	940.94
336.597	893.94
336.825	901.94
337.053	910.94
337.281	865.94
337.51	882.94
337.738	874.94
337.966	855.94
338.194	874.94
338.422	829.94
338.65	812.94
338.878	827.94
339.106	825.94
339.334	840.94
339.562	796.94
339.79	777.94
340.018	802.94
340.246	775.94
340.474	767.94
340.702	791.94
340.93	770.94
341.158	779.94
341.386	806.94
341.614	831.94
341.842	825.94
342.07	771.94
342.298	781.94
342.526	784.94
342.754	779.94
342.981	763.94
343.209	805.94
343.437	845.94
343.665	874.94
343.893	861.94
344.12	906.94
344.348	870.94
344.576	846.94
344.804	883.94
345.031	807.94
345.259	822.94
345.487	802.94
345.714	819.94
345.942	785.94
346.17	846.94
346.397	815.94
346.625	781.94
346.853	759.94
347.08	753.94
347.308	780.94
347.535	783.94
347.763	735.94
347.99	750.94
348.218	756.94
348.445	738.94
348.673	730.94
348.9	741.94
349.128	740.94
349.355	758.94
349.583	783.94
349.81	739.94
350.037	710.94
350.265	729.94
350.492	706.94
350.72	728.94
350.947	717.94
351.174	713.94
351.402	764.94
351.629	761.94
351.856	729.94
352.083	727.94
352.311	728.94
352.538	761.94
352.765	797.94
352.992	711.94
353.22	693.94
353.447	675.94
353.674	718.94
353.901	710.94
354.128	707.94
354.355	702.94
354.583	696.94
354.81	689.94
355.037	696.94
355.264	695.94
355.491	702.94
355.718	709.94
355.945	710.94
356.172	708.94
356.399	727.94
356.626	738.94
356.853	769.94
357.08	713.94
357.307	695.94
357.534	713.94
357.761	694.94
357.988	721.94
358.215	703.94
358.441	702.94
358.668	706.94
358.895	693.94
359.122	699.94
359.349	700.94
359.576	701.94
359.802	708.94
360.029	718.94
360.256	720.94
360.483	723.94
360.709	723.94
360.936	716.94
361.163	715.94
361.39	724.94
361.616	739.94
361.843	717.94
362.07	753.94
362.296	727.94
362.523	707.94
362.749	699.94
362.976	675.94
363.203	686.94
363.429	689.94
363.656	687.94
363.882	702.94
364.109	697.94
364.335	704.94
364.562	690.94
364.788	694.94
365.015	692.94
365.241	669.94
365.468	700.94
365.694	700.94
365.92	701.94
366.147	693.94
366.373	695.94
366.599	680.94
366.826	679.94
367.052	682.94
367.278	707.94
367.505	705.94
367.731	724.94
367.957	706.94
368.184	709.94
368.41	700.94
368.636	705.94
368.862	699.94
369.089	693.94
369.315	707.94
369.541	712.94
369.767	720.94
369.993	697.94
370.219	714.94
370.445	734.94
370.672	734.94
370.898	722.94
371.124	722.94
371.35	729.94
371.576	746.94
371.802	745.94
372.028	739.94
372.254	744.94
372.48	747.94
372.706	777.94
372.932	756.94
373.158	765.94
373.384	776.94
373.61	731.94
373.835	746.94
374.061	748.94
374.287	776.94
374.513	771.94
374.739	778.94
374.965	791.94
375.191	813.94
375.416	839.94
375.642	789.94
375.868	762.94
376.094	772.94
376.319	748.94
376.545	747.94
376.771	763.94
376.997	748.94
377.222	733.94
377.448	735.94
377.674	769.94
377.899	741.94
378.125	744.94
378.35	725.94
378.576	722.94
378.802	729.94
379.027	725.94
379.253	719.94
379.478	729.94
379.704	727.94
379.929	736.94
380.155	730.94
380.38	731.94
380.606	756.94
380.831	736.94
381.057	748.94
381.282	733.94
381.507	719.94
381.733	767.94
381.958	737.94
382.184	770.94
382.409	749.94
382.634	781.94
382.86	754.94
383.085	747.94
383.31	766.94
383.535	780.94
383.761	819.94
383.986	803.94
384.211	807.94
384.436	809.94
384.662	835.94
384.887	847.94
385.112	848.94
385.337	851.94
385.562	852.94
385.787	854.94
386.013	893.94
386.238	865.94
386.463	874.94
386.688	873.94
386.913	866.94
387.138	882.94
387.363	875.94
387.588	874.94
387.813	862.94
388.038	863.94
388.263	866.94
388.488	865.94
388.713	867.94
388.938	874.94
389.163	882.94
389.387	863.94
389.612	876.94
389.837	857.94
390.062	881.94
390.287	863.94
390.512	868.94
390.736	857.94
390.961	906.94
391.186	897.94
391.411	945.94
391.636	930.94
391.86	939.94
392.085	983.94
392.31	980.94
392.534	964.94
392.759	960.94
392.984	951.94
393.208	922.94
393.433	953.94
393.658	951.94
393.882	931.94
394.107	938.94
394.331	917.94
394.556	900.94
394.78	953.94
395.005	930.94
395.229	910.94
395.454	956.94
395.678	972.94
395.903	986.94
396.127	980.94
396.352	947.94
396.576	953.94
396.801	938.94
397.025	947.94
397.249	955.94
397.474	986.94
397.698	1000.94
397.922	987.94
398.147	1009.94
398.371	1015.94
398.595	1056.94
398.82	1095.94
399.044	1122.94
399.268	1241.94
399.492	1371.94
399.717	1445.94
399.941	1426.94
400.165	1354.94
400.389	1306.94
400.613	1235.94
400.837	1167.94
401.062	1104.94
401.286	1119.94
401.51	1095.94
401.734	1083.94
401.958	1093.94
402.182	1102.94
402.406	1131.94
402.63	1128.94
402.854	1127.94
403.078	1116.94
403.302	1141.94
403.526	1173.94
403.75	1157.94
403.974	1173.94
404.198	1179.94
404.422	1205.94
404.645	1193.94
404.869	1158.94
405.093	1172.94
405.317	1153.94
405.541	1152.94
405.765	1167.94
405.988	1182.94
406.212	1168.94
406.436	1206.94
406.66	1213.94
406.883	1205.94
407.107	1299.94
407.331	1338.94
407.555	1348.94
407.778	1315.94
408.002	1314.94
408.226	1291.94
408.449	1294.94
408.673	1238.94
408.896	1242.94
409.12	1247.94
409.344	1267.94
409.567	1224.94
409.791	1231.94
410.014	1214.94
410.238	1206.94
410.461	1203.94
410.685	1217.94
410.908	1179.94
411.132	1157.94
411.355	1137.94
411.578	1162.94
411.802	1149.94
412.025	1147.94
412.249	1170.94
412.472	1148.94
412.695	1132.94
412.919	1132.94
413.142	1146.94
413.365	1115.94
413.589	1106.94
413.812	1090.94
414.035	1122.94
414.258	1100.94
414.482	1126.94
414.705	1103.94
414.928	1120.94
415.151	1078.94
415.374	1119.94
415.597	1099.94
415.821	1037.94
416.044	1093.94
416.267	1084.94
416.49	1079.94
416.713	1071.94
416.936	1087.94
417.159	1070.94
417.382	1064.94
417.605	1053.94
417.828	1055.94
418.051	1083.94
418.274	1072.94
418.497	1065.94
418.72	1113.94
418.943	1125.94
419.166	1154.94
419.389	1237.94
419.611	1223.94
419.834	1161.94
420.057	1143.94
420.28	1095.94
420.503	1071.94
420.726	1077.94
420.948	1018.94
421.171	1092.94
421.394	1061.94
421.617	1090.94
421.839	1064.94
422.062	1093.94
422.285	1059.94
422.507	1082.94
422.73	1098.94
422.953	1091.94
423.175	1120.94
423.398	1132.94
423.621	1087.94
423.843	1101.94
424.066	1094.94
424.288	1114.94
424.511	1114.94
424.733	1104.94
424.956	1090.94
425.178	1065.94
425.401	1099.94
425.623	1083.94
425.846	1052.94
426.068	1060.94
426.291	1047.94
426.513	1075.94
426.735	1042.94
426.958	1042.94
427.18	1028.94
427.402	1010.94
427.625	1048.94
427.847	1001.94
428.069	999.94
428.292	1002.94
428.514	1011.94
428.736	993.94
428.958	1021.94
429.181	990.94
429.403	993.94
429.625	984.94
429.847	978.94
430.069	964.94
430.292	967.94
430.514	963.94
430.736	972.94
430.958	1023.94
431.18	980.94
431.402	1021.94
431.624	1001.94
431.846	982.94
432.068	999.94
432.29	1021.94
432.512	1017.94
432.734	1010.94
432.956	991.94
433.178	1013.94
433.4	1011.94
433.622	1004.94
433.844	1051.94
434.066	1006.94
434.287	1041.94
434.509	1061.94
434.731	1074.94
434.953	1105.94
435.175	1113.94
435.397	1117.94
435.618	1056.94
435.84	1068.94
436.062	1024.94
436.284	1012.94
436.505	1023.94
436.727	1015.94
436.949	1029.94
437.17	1019.94
437.392	991.94
437.614	996.94
437.835	958.94
438.057	971.94
438.278	977.94
438.5	952.94
438.721	988.94
438.943	981.94
439.165	967.94
439.386	965.94
439.608	1021.94
439.829	1007.94
440.05	988.94
440.272	1027.94
440.493	1001.94
440.715	1027.94
440.936	1049.94
441.158	1046.94
441.379	1087.94
441.6	1068.94
441.822	1097.94
442.043	1085.94
442.264	1107.94
442.486	1099.94
442.707	1081.94
442.928	1079.94
443.149	1099.94
443.371	1087.94
443.592	1117.94
443.813	1110.94
444.034	1124.94
444.255	1117.94
444.476	1172.94
444.698	1212.94
444.919	1237.94
445.14	1329.94
445.361	1223.94
445.582	1153.94
445.803	1074.94
446.024	1090.94
446.245	1068.94
446.466	1064.94
446.687	1055.94
446.908	1046.94
447.129	1011.94
447.35	1026.94
447.571	981.94
447.792	958.94
448.013	949.94
448.234	951.94
448.455	921.94
448.675	933.94
448.896	977.94
449.117	933.94
449.338	932.94
449.559	926.94
449.779	945.94
450	917.94
450.221	912.94
450.442	903.94
450.662	951.94
450.883	956.94
451.104	986.94
451.324	950.94
451.545	950.94
451.766	938.94
451.986	942.94
452.207	941.94
452.428	909.94
452.648	923.94
452.869	918.94
453.089	908.94
453.31	911.94
453.53	912.94
453.751	898.94
453.971	890.94
454.192	891.94
454.412	902.94
454.633	863.94
454.853	874.94
455.073	855.94
455.294	885.94
455.514	865.94
455.734	869.94
455.955	862.94
456.175	889.94
456.395	859.94
456.616	867.94
456.836	876.94
457.056	868.94
457.276	872.94
457.497	889.94
457.717	888.94
457.937	929.94
458.157	905.94
458.377	914.94
458.598	921.94
458.818	948.94
459.038	965.94
459.258	978.94
459.478	1031.94
459.698	1054.94
459.918	1057.94
460.138	1107.94
460.358	1109.94
460.578	1147.94
460.798	1185.94
461.018	1177.94
461.238	1140.94
461.458	1181.94
461.678	1147.94
461.898	1185.94
462.118	1212.94
462.338	1238.94
462.558	1249.94
462.777	1316.94
462.997	1383.94
463.217	1423.94
463.437	1461.94
463.657	1414.94
463.876	1355.94
464.096	1349.94
464.316	1310.94
464.536	1345.94
464.755	1312.94
464.975	1230.94
465.195	1175.94
465.414	1169.94
465.634	1112.94
465.854	1085.94
466.073	1047.94
466.293	977.94
466.512	1006.94
466.732	995.94
466.951	987.94
467.171	991.94
467.391	967.94
467.61	955.94
467.829	957.94
468.049	949.94
468.268	954.94
468.488	937.94
468.707	943.94
468.927	965.94
469.146	951.94
469.365	986.94
469.585	943.94
469.804	975.94
470.023	997.94
470.243	999.94
470.462	972.94
470.681	1022.94
470.901	987.94
471.12	1001.94
471.339	982.94
471.558	974.94
471.777	981.94
471.997	967.94
472.216	935.94
472.435	960.94
472.654	929.94
472.873	954.94
473.092	945.94
473.311	964.94
473.53	924.94
473.749	927.94
473.968	904.94
474.187	929.94
474.406	924.94
474.625	937.94
474.844	936.94
475.063	942.94
475.282	931.94
475.501	946.94
475.72	959.94
475.939	951.94
476.158	964.94
476.377	958.94
476.596	964.94
476.814	1004.94
477.033	980.94
477.252	998.94
477.471	1010.94
477.69	1039.94
477.908	1064.94
478.127	1083.94
478.346	1112.94
478.564	1155.94
478.783	1117.94
479.002	1126.94
479.22	1191.94
479.439	1144.94
479.658	1139.94
479.876	1173.94
480.095	1163.94
480.313	1183.94
480.532	1215.94
480.751	1146.94
480.969	1153.94
481.188	1133.94
481.406	1094.94
481.624	1097.94
481.843	1107.94
482.061	1079.94
482.28	1101.94
482.498	1061.94
482.717	1085.94
482.935	1071.94
483.153	1116.94
483.372	1107.94
483.59	1117.94
483.808	1082.94
484.027	1099.94
484.245	1087.94
484.463	1100.94
484.681	1132.94
484.9	1122.94
485.118	1137.94
485.336	1149.94
485.554	1122.94
485.772	1158.94
485.99	1119.94
486.209	1154.94
486.427	1157.94
486.645	1167.94
486.863	1128.94
487.081	1153.94
487.299	1137.94
487.517	1146.94
487.735	1154.94
487.953	1176.94
488.171	1122.94
488.389	1107.94
488.607	1132.94
488.825	1124.94
489.043	1147.94
489.261	1119.94
489.479	1121.94
489.696	1125.94
489.914	1126.94
490.132	1126.94
490.35	1148.94
490.568	1137.94
490.786	1135.94
491.003	1115.94
491.221	1147.94
491.439	1158.94
491.657	1164.94
491.874	1185.94
492.092	1177.94
492.31	1203.94
492.527	1177.94
492.745	1178.94
492.963	1183.94
493.18	1166.94
493.398	1195.94
493.615	1167.94
493.833	1163.94
494.05	1182.94
494.268	1180.94
494.485	1216.94
494.703	1208.94
494.92	1222.94
495.138	1174.94
495.355	1220.94
495.573	1218.94
495.79	1203.94
496.008	1223.94
496.225	1227.94
496.442	1258.94
496.66	1274.94
496.877	1298.94
497.094	1295.94
497.312	1330.94
497.529	1334.94
497.746	1364.94
497.963	1385.94
498.181	1453.94
498.398	1477.94
498.615	1631.94
498.832	1677.94
499.049	1767.94
499.267	1911.94
499.484	2042.94
499.701	2214.94
499.918	2449.94
500.135	2575.94
500.352	2827.94
500.569	2932.94
500.786	2882.94
501.003	2739.94
501.22	2559.94
501.437	2360.94
501.654	2155.94
501.871	2018.94
502.088	1923.94
502.305	1773.94
502.522	1651.94
502.739	1642.94
502.956	1556.94
503.172	1493.94
503.389	1461.94
503.606	1411.94
503.823	1370.94
504.04	1340.94
504.256	1349.94
504.473	1325.94
504.69	1336.94
504.907	1287.94
505.123	1305.94
505.34	1243.94
505.557	1165.94
505.773	1178.94
505.99	1123.94
506.207	1117.94
506.423	1102.94
506.64	1078.94
506.856	1077.94
507.073	1081.94
507.289	1053.94
507.506	1074.94
507.722	1043.94
507.939	1033.94
508.155	1053.94
508.372	1050.94
508.588	1013.94
508.805	975.94
509.021	1000.94
509.238	1003.94
509.454	981.94
509.67	956.94
509.887	966.94
510.103	983.94
510.319	963.94
510.536	974.94
510.752	949.94
510.968	948.94
511.184	945.94
511.401	947.94
511.617	938.94
511.833	939.94
512.049	935.94
512.265	946.94
512.481	937.94
512.698	910.94
512.914	919.94
513.13	926.94
513.346	938.94
513.562	944.94
513.778	941.94
513.994	968.94
514.21	952.94
514.426	947.94
514.642	943.94
514.858	936.94
515.074	975.94
515.29	966.94
515.506	997.94
515.721	1013.94
515.937	1038.94
516.153	1013.94
516.369	1043.94
516.585	1086.94
516.801	1103.94
517.016	1116.94
517.232	1171.94
517.448	1211.94
517.664	1225.94
517.879	1241.94
518.095	1220.94
518.311	1203.94
518.527	1157.94
518.742	1159.94
518.958	1098.94
519.173	1079.94
519.389	1058.94
519.605	1037.94
519.82	1009.94
520.036	1002.94
520.251	959.94
520.467	962.94
520.682	953.94
520.898	911.94
521.113	923.94
521.329	921.94
521.544	906.94
521.76	924.94
521.975	917.94
522.19	895.94
522.406	888.94
522.621	895.94
522.836	889.94
523.052	865.94
523.267	871.94
523.482	860.94
523.698	898.94
523.913	883.94
524.128	891.94
524.343	862.94
524.559	868.94
524.774	848.94
524.989	885.94
525.204	845.94
525.419	859.94
525.634	849.94
525.849	842.94
526.064	850.94
526.28	850.94
526.495	867.94
526.71	851.94
526.925	858.94
527.14	824.94
527.355	821.94
527.57	840.94
527.785	855.94
527.999	843.94
528.214	837.94
528.429	837.94
528.644	847.94
528.859	832.94
529.074	855.94
529.289	840.94
529.503	839.94
529.718	825.94
529.933	826.94
530.148	836.94
530.363	830.94
530.577	830.94
530.792	830.94
531.007	850.94
531.221	830.94
531.436	838.94
531.651	813.94
531.865	835.94
532.08	827.94
532.295	814.94
532.509	840.94
532.724	809.94
532.938	809.94
533.153	792.94
533.367	821.94
533.582	830.94
533.796	817.94
534.011	841.94
534.225	782.94
534.44	796.94
534.654	812.94
534.868	797.94
535.083	824.94
535.297	798.94
535.511	792.94
535.726	823.94
535.94	789.94
536.154	788.94
536.369	785.94
536.583	765.94
536.797	783.94
537.011	769.94
537.225	771.94
537.44	774.94
537.654	773.94
537.868	753.94
538.082	743.94
538.296	735.94
538.51	753.94
538.724	766.94
538.938	775.94
539.153	755.94
539.367	779.94
539.581	736.94
539.795	749.94
540.009	726.94
540.222	743.94
540.436	744.94
540.65	741.94
540.864	751.94
541.078	728.94
541.292	769.94
541.506	750.94
541.72	742.94
541.934	733.94
542.147	750.94
542.361	711.94
542.575	742.94
542.789	727.94
543.002	717.94
543.216	732.94
543.43	746.94
543.644	726.94
543.857	727.94
544.071	738.94
544.285	719.94
544.498	747.94
544.712	748.94
544.925	753.94
545.139	759.94
545.352	769.94
545.566	762.94
545.779	748.94
545.993	758.94
546.206	762.94
546.42	757.94
546.633	774.94
546.847	762.94
547.06	759.94
547.274	754.94
547.487	764.94
547.7	780.94
547.914	779.94
548.127	768.94
548.34	769.94
548.554	773.94
548.767	741.94
548.98	770.94
549.193	735.94
549.407	754.94
549.62	793.94
549.833	790.94
550.046	767.94
550.259	758.94
550.473	782.94
550.686	761.94
550.899	743.94
551.112	759.94
551.325	749.94
551.538	772.94
551.751	741.94
551.964	740.94
552.177	755.94
552.39	766.94
552.603	792.94
552.816	772.94
553.029	802.94
553.242	839.94
553.455	790.94
553.667	804.94
553.88	802.94
554.093	811.94
554.306	769.94
554.519	787.94
554.732	744.94
554.944	742.94
555.157	714.94
555.37	701.94
555.583	699.94
555.795	719.94
556.008	671.94
556.221	699.94
556.433	695.94
556.646	680.94
556.859	671.94
557.071	655.94
557.284	673.94
557.496	663.94
557.709	669.94
557.921	656.94
558.134	640.94
558.346	641.94
558.559	667.94
558.771	636.94
558.984	630.94
559.196	641.94
559.409	635.94
559.621	629.94
559.833	617.94
560.046	629.94
560.258	623.94
560.47	633.94
560.683	625.94
560.895	631.94
561.107	625.94
561.32	648.94
561.532	626.94
561.744	630.94
561.956	610.94
562.168	628.94
562.381	636.94
562.593	642.94
562.805	652.94
563.017	649.94
563.229	649.94
563.441	646.94
563.653	660.94
563.865	648.94
564.077	677.94
564.289	664.94
564.501	669.94
564.713	685.94
564.925	697.94
565.137	700.94
565.349	688.94
565.561	737.94
565.773	742.94
565.985	806.94
566.197	810.94
566.408	844.94
566.62	895.94
566.832	936.94
567.044	923.94
567.255	976.94
567.467	938.94
567.679	967.94
567.891	1012.94
568.102	1020.94
568.314	971.94
568.526	921.94
568.737	861.94
568.949	840.94
569.161	749.94
569.372	725.94
569.584	711.94
569.795	687.94
570.007	673.94
570.218	630.94
570.43	655.94
570.641	622.94
570.853	649.94
571.064	656.94
571.276	639.94
571.487	591.94
571.698	589.94
571.91	574.94
572.121	551.94
572.333	559.94
572.544	530.94
572.755	527.94
572.966	544.94
573.178	545.94
573.389	550.94
573.6	524.94
573.811	508.94
574.023	535.94
574.234	535.94
574.445	500.94
574.656	499.94
574.867	507.94
575.078	503.94
575.289	518.94
575.501	509.94
575.712	490.94
575.923	473.94
576.134	510.94
576.345	504.94
576.556	493.94
576.767	489.94
576.978	485.94
577.188	467.94
577.399	461.94
577.61	483.94
577.821	463.94
578.032	447.94
578.243	455.94
578.454	463.94
578.665	453.94
578.875	450.94
579.086	438.94
579.297	437.94
579.508	454.94
579.718	438.94
579.929	446.94
580.14	437.94
580.35	429.94
580.561	435.94
580.772	460.94
580.982	430.94
581.193	455.94
581.403	439.94
581.614	425.94
581.825	456.94
582.035	441.94
582.246	433.94
582.456	418.94
582.667	433.94
582.877	431.94
583.087	451.94
583.298	414.94
583.508	437.94
583.719	431.94
583.929	430.94
584.139	420.94
584.35	419.94
584.56	430.94
584.77	424.94
584.981	420.94
585.191	412.94
585.401	424.94
585.611	398.94
585.821	406.94
586.032	435.94
586.242	426.94
586.452	410.94
586.662	422.94
586.872	404.94
587.082	415.94
587.292	421.94
587.502	398.94
587.713	405.94
587.923	410.94
588.133	401.94
588.343	413.94
588.553	425.94
588.762	389.94
588.972	414.94
589.182	452.94
589.392	461.94
589.602	443.94
589.812	457.94
590.022	440.94
590.232	423.94
590.441	399.94
590.651	407.94
590.861	398.94
591.071	438.94
591.281	409.94
591.49	437.94
591.7	421.94
591.91	434.94
592.119	446.94
592.329	454.94
592.539	457.94
592.748	449.94
592.958	453.94
593.167	483.94
593.377	473.94
593.587	476.94
593.796	463.94
594.006	481.94
594.215	466.94
594.424	474.94
594.634	476.94
594.843	474.94
595.053	462.94
595.262	457.94
595.472	442.94
595.681	437.94
595.89	429.94
596.1	409.94
596.309	396.94
596.518	408.94
596.727	395.94
596.937	401.94
597.146	383.94
597.355	380.94
597.564	369.94
597.774	377.94
597.983	362.94
598.192	351.94
598.401	371.94
598.61	365.94
598.819	371.94
599.028	347.94
599.237	351.94
599.446	360.94
599.655	353.94
599.864	343.94
600.073	330.94
600.282	357.94
600.491	337.94
600.7	332.94
600.909	344.94
601.118	335.94
601.327	347.94
601.536	334.94
601.745	333.94
601.953	343.94
602.162	327.94
602.371	336.94
602.58	351.94
602.789	330.94
602.997	336.94
603.206	313.94
603.415	333.94
603.623	305.94
603.832	332.94
604.041	324.94
604.249	328.94
604.458	314.94
604.666	318.94
604.875	321.94
605.084	308.94
605.292	313.94
605.501	316.94
605.709	321.94
605.918	316.94
606.126	298.94
606.334	317.94
606.543	304.94
606.751	285.94
606.96	299.94
607.168	299.94
607.376	297.94
607.585	309.94
607.793	306.94
608.001	312.94
608.21	325.94
608.418	307.94
608.626	310.94
608.834	307.94
609.043	308.94
609.251	320.94
609.459	306.94
609.667	321.94
609.875	304.94
610.083	299.94
610.291	296.94
610.499	297.94
610.707	295.94
610.916	291.94
611.124	298.94
611.332	303.94
611.54	284.94
611.748	297.94
611.955	293.94
612.163	311.94
612.371	292.94
612.579	295.94
612.787	299.94
612.995	286.94
613.203	288.94
613.411	297.94
613.618	287.94
613.826	286.94
614.034	286.94
614.242	277.94
614.449	283.94
614.657	279.94
614.865	294.94
615.072	279.94
615.28	273.94
615.488	274.94
615.695	295.94
615.903	281.94
616.111	301.94
616.318	301.94
616.526	298.94
616.733	289.94
616.941	281.94
617.148	297.94
617.356	279.94
617.563	298.94
617.771	272.94
617.978	282.94
618.185	284.94
618.393	259.94
618.6	271.94
618.807	282.94
619.015	291.94
619.222	278.94
619.429	273.94
619.637	277.94
619.844	289.94
620.051	280.94
620.258	266.94
620.466	274.94
620.673	255.94
620.88	267.94
621.087	268.94
621.294	261.94
621.501	260.94
621.708	262.94
621.915	278.94
622.122	246.94
622.329	272.94
622.536	262.94
622.743	276.94
622.95	275.94
623.157	270.94
623.364	273.94
623.571	258.94
623.778	258.94
623.985	252.94
624.192	254.94
624.399	263.94
624.606	233.94
624.812	260.94
625.019	232.94
625.226	254.94
625.433	252.94
625.639	241.94
625.846	240.94
626.053	242.94
626.259	237.94
626.466	249.94
626.673	253.94
626.879	243.94
627.086	236.94
627.293	242.94
627.499	258.94
627.706	242.94
627.912	251.94
628.119	235.94
628.325	241.94
628.532	220.94
628.738	235.94
628.945	247.94
629.151	257.94
629.357	247.94
629.564	247.94
629.77	225.94
629.976	221.94
630.183	220.94
630.389	256.94
630.595	240.94
630.802	236.94
631.008	222.94
631.214	216.94
631.42	217.94
631.627	232.94
631.833	234.94
632.039	211.94
632.245	224.94
632.451	218.94
632.657	214.94
632.863	218.94
633.069	220.94
633.275	217.94
633.481	202.94
633.688	214.94
633.893	225.94
634.099	212.94
634.305	195.94
634.511	209.94
634.717	222.94
634.923	213.94
635.129	216.94
635.335	202.94
635.541	217.94
635.747	211.94
635.952	223.94
636.158	217.94
636.364	202.94
636.57	221.94
636.775	208.94
636.981	218.94
637.187	212.94
637.392	210.94
637.598	214.94
637.804	210.94
638.009	213.94
638.215	200.94
638.421	197.94
638.626	214.94
638.832	197.94
639.037	193.94
639.243	198.94
639.448	195.94
639.654	193.94
639.859	182.94
640.065	190.94
640.27	199.94
640.475	196.94
640.681	199.94
640.886	193.94
641.091	191.94
641.297	194.94
641.502	190.94
641.707	196.94
641.913	173.94
642.118	195.94
642.323	202.94
642.528	183.94
642.733	199.94
642.939	195.94
643.144	195.94
643.349	186.94
643.554	213.94
643.759	197.94
643.964	195.94
644.169	195.94
644.374	185.94
644.579	187.94
644.784	179.94
644.989	183.94
645.194	180.94
645.399	194.94
645.604	201.94
645.809	182.94
646.014	185.94
646.219	181.94
646.423	201.94
646.628	205.94
646.833	198.94
647.038	184.94
647.243	197.94
647.447	195.94
647.652	206.94
647.857	192.94
648.062	206.94
648.266	206.94
648.471	199.94
648.676	184.94
648.88	183.94
649.085	187.94
649.289	190.94
649.494	191.94
649.698	185.94
649.903	197.94
650.107	178.94
650.312	195.94
650.516	186.94
650.721	188.94
650.925	180.94
651.13	183.94
651.334	170.94
651.539	181.94
651.743	181.94
651.947	174.94
652.152	172.94
652.356	169.94
652.56	167.94
652.764	173.94
652.969	157.94
653.173	175.94
653.377	152.94
653.581	151.94
653.785	155.94
653.99	151.94
654.194	170.94
654.398	158.94
654.602	153.94
654.806	147.94
655.01	165.94
655.214	163.94
655.418	155.94
655.622	155.94
655.826	160.94
656.03	161.94
656.234	173.94
656.438	160.94
656.642	181.94
656.846	171.94
657.049	181.94
657.253	149.94
657.457	149.94
657.661	137.94
657.865	131.94
658.068	140.94
658.272	122.94
658.476	125.94
658.68	120.94
658.883	120.94
659.087	113.94
659.291	109.94
659.494	99.94
659.698	115.94
659.901	105.94
660.105	96.94
660.309	89.94
660.512	103.94
660.716	127.94
660.919	113.94
661.123	105.94
661.326	103.94
661.53	103.94
661.733	96.94
661.936	94.94
662.14	79.94
662.343	92.94
662.546	83.94
662.75	88.94
662.953	85.94
663.156	94.94
663.36	89.94
663.563	100.94
663.766	90.94
663.969	96.94
664.173	90.94
664.376	92.94
664.579	90.94
664.782	91.94
664.985	77.94
665.188	88.94
665.391	76.94
665.594	69.94
665.797	73.94
666	84.94
666.203	83.94
666.406	83.94
666.609	87.94
666.812	74.94
667.015	80.94
667.218	78.94
667.421	84.94
667.624	81.94
667.827	93.94
668.03	83.94
668.232	88.94
668.435	98.94
668.638	99.94
668.841	89.94
669.043	77.94
669.246	83.94
669.449	76.94
669.651	83.94
669.854	71.94
670.057	103.94
670.259	91.94
670.462	77.94
670.665	90.94
670.867	89.94
671.07	75.94
671.272	97.94
671.475	84.94
671.677	87.94
671.88	78.94
672.082	89.94
672.284	80.94
672.487	85.94
672.689	81.94
672.892	92.94
