Data from NiCl2@0.25M.TitratingCurve.Agarose3%dH2O.NegLispCup.LampEnergy10.LIBS07252019_HRD10591_18-25-28-575.txt Node
Date: Thu Jul 25 18:25:28 EDT 2019
User: cochatt
Spectrometer: HR+D1059
Trigger mode: 1
Integration Time (sec): 1.000000E-1
Scans to average: 1
Electric dark correction enabled: true
Nonlinearity correction enabled: false
Boxcar width: 0
XAxis mode: Wavelengths
Number of Pixels in Spectrum: 2048
>>>>>Begin Spectral Data<<<<<
223.165	-6.94
223.4	-6.94
223.635	-6.94
223.869	-21.94
224.104	-28.94
224.338	-15.94
224.573	-4.94
224.808	-19.94
225.042	-10.94
225.277	-5.94
225.511	-0.94
225.746	10.06
225.98	13.06
226.215	9.06
226.449	15.06
226.683	20.06
226.918	17.06
227.152	32.06
227.387	38.06
227.621	50.06
227.856	40.06
228.09	38.06
228.324	16.06
228.559	54.06
228.793	72.06
229.027	96.06
229.262	127.06
229.496	111.06
229.73	113.06
229.964	104.06
230.199	118.06
230.433	128.06
230.667	138.06
230.901	124.06
231.136	128.06
231.37	140.06
231.604	146.06
231.838	148.06
232.072	140.06
232.306	145.06
232.541	136.06
232.775	129.06
233.009	135.06
233.243	139.06
233.477	146.06
233.711	144.06
233.945	142.06
234.179	151.06
234.413	138.06
234.647	140.06
234.881	130.06
235.115	150.06
235.349	142.06
235.583	158.06
235.817	140.06
236.051	164.06
236.285	166.06
236.519	166.06
236.753	155.06
236.987	151.06
237.221	166.06
237.455	148.06
237.689	161.06
237.922	152.06
238.156	159.06
238.39	172.06
238.624	163.06
238.858	162.06
239.091	162.06
239.325	156.06
239.559	177.06
239.793	171.06
240.027	177.06
240.26	173.06
240.494	185.06
240.728	176.06
240.961	164.06
241.195	172.06
241.429	178.06
241.662	178.06
241.896	181.06
242.13	196.06
242.363	187.06
242.597	191.06
242.83	187.06
243.064	188.06
243.298	183.06
243.531	194.06
243.765	187.06
243.998	208.06
244.232	204.06
244.465	202.06
244.699	208.06
244.932	219.06
245.166	232.06
245.399	214.06
245.633	215.06
245.866	219.06
246.099	212.06
246.333	210.06
246.566	214.06
246.8	202.06
247.033	225.06
247.266	234.06
247.5	217.06
247.733	217.06
247.966	231.06
248.2	240.06
248.433	242.06
248.666	233.06
248.899	235.06
249.133	235.06
249.366	246.06
249.599	251.06
249.832	242.06
250.066	256.06
250.299	253.06
250.532	236.06
250.765	250.06
250.998	251.06
251.231	242.06
251.465	262.06
251.698	248.06
251.931	250.06
252.164	266.06
252.397	269.06
252.63	271.06
252.863	286.06
253.096	258.06
253.329	262.06
253.562	280.06
253.795	263.06
254.028	274.06
254.261	265.06
254.494	271.06
254.727	277.06
254.96	258.06
255.193	258.06
255.426	283.06
255.659	284.06
255.892	292.06
256.124	269.06
256.357	275.06
256.59	266.06
256.823	282.06
257.056	271.06
257.289	280.06
257.521	290.06
257.754	282.06
257.987	279.06
258.22	305.06
258.452	297.06
258.685	295.06
258.918	292.06
259.151	306.06
259.383	293.06
259.616	292.06
259.849	304.06
260.081	318.06
260.314	320.06
260.547	322.06
260.779	333.06
261.012	312.06
261.244	313.06
261.477	326.06
261.71	327.06
261.942	330.06
262.175	320.06
262.407	327.06
262.64	332.06
262.872	314.06
263.105	327.06
263.337	323.06
263.57	316.06
263.802	330.06
264.035	330.06
264.267	357.06
264.499	352.06
264.732	330.06
264.964	334.06
265.197	339.06
265.429	346.06
265.661	334.06
265.894	340.06
266.126	372.06
266.358	355.06
266.591	352.06
266.823	353.06
267.055	343.06
267.287	354.06
267.52	340.06
267.752	357.06
267.984	358.06
268.216	360.06
268.448	362.06
268.681	368.06
268.913	376.06
269.145	358.06
269.377	351.06
269.609	378.06
269.841	345.06
270.073	356.06
270.306	363.06
270.538	382.06
270.77	384.06
271.002	385.06
271.234	372.06
271.466	384.06
271.698	371.06
271.93	380.06
272.162	388.06
272.394	390.06
272.626	404.06
272.858	374.06
273.09	395.06
273.322	418.06
273.553	395.06
273.785	393.06
274.017	397.06
274.249	403.06
274.481	392.06
274.713	394.06
274.945	404.06
275.176	396.06
275.408	401.06
275.64	406.06
275.872	415.06
276.104	413.06
276.335	394.06
276.567	387.06
276.799	420.06
277.031	419.06
277.262	407.06
277.494	414.06
277.726	408.06
277.957	411.06
278.189	433.06
278.421	414.06
278.652	409.06
278.884	418.06
279.115	422.06
279.347	437.06
279.579	434.06
279.81	430.06
280.042	453.06
280.273	439.06
280.505	454.06
280.736	442.06
280.968	432.06
281.199	431.06
281.431	451.06
281.662	454.06
281.894	447.06
282.125	455.06
282.356	458.06
282.588	471.06
282.819	463.06
283.051	457.06
283.282	476.06
283.513	460.06
283.745	461.06
283.976	472.06
284.207	471.06
284.439	463.06
284.67	482.06
284.901	471.06
285.132	479.06
285.364	472.06
285.595	469.06
285.826	470.06
286.057	471.06
286.288	477.06
286.52	460.06
286.751	484.06
286.982	487.06
287.213	486.06
287.444	494.06
287.675	490.06
287.906	497.06
288.138	491.06
288.369	514.06
288.6	491.06
288.831	479.06
289.062	521.06
289.293	503.06
289.524	520.06
289.755	504.06
289.986	515.06
290.217	503.06
290.448	508.06
290.679	502.06
290.91	515.06
291.141	517.06
291.371	513.06
291.602	510.06
291.833	514.06
292.064	485.06
292.295	527.06
292.526	513.06
292.757	528.06
292.987	510.06
293.218	496.06
293.449	529.06
293.68	500.06
293.91	530.06
294.141	518.06
294.372	509.06
294.603	541.06
294.833	513.06
295.064	524.06
295.295	521.06
295.525	520.06
295.756	537.06
295.987	537.06
296.217	537.06
296.448	545.06
296.679	523.06
296.909	542.06
297.14	545.06
297.37	564.06
297.601	554.06
297.831	538.06
298.062	534.06
298.292	554.06
298.523	546.06
298.753	579.06
298.984	562.06
299.214	562.06
299.445	533.06
299.675	563.06
299.905	580.06
300.136	560.06
300.366	567.06
300.597	581.06
300.827	567.06
301.057	593.06
301.288	589.06
301.518	605.06
301.748	600.06
301.979	607.06
302.209	602.06
302.439	590.06
302.669	586.06
302.9	580.06
303.13	587.06
303.36	611.06
303.59	573.06
303.82	607.06
304.051	590.06
304.281	575.06
304.511	600.06
304.741	589.06
304.971	570.06
305.201	578.06
305.431	601.06
305.661	570.06
305.891	590.06
306.121	574.06
306.352	555.06
306.582	570.06
306.812	563.06
307.042	603.06
307.272	606.06
307.502	572.06
307.731	558.06
307.961	582.06
308.191	579.06
308.421	566.06
308.651	587.06
308.881	587.06
309.111	570.06
309.341	548.06
309.571	574.06
309.8	598.06
310.03	561.06
310.26	579.06
310.49	564.06
310.72	555.06
310.949	567.06
311.179	587.06
311.409	595.06
311.639	587.06
311.868	578.06
312.098	586.06
312.328	587.06
312.557	591.06
312.787	601.06
313.017	602.06
313.246	610.06
313.476	579.06
313.706	615.06
313.935	614.06
314.165	612.06
314.394	618.06
314.624	626.06
314.853	611.06
315.083	592.06
315.312	611.06
315.542	626.06
315.771	608.06
316.001	616.06
316.23	614.06
316.46	580.06
316.689	607.06
316.919	596.06
317.148	612.06
317.377	606.06
317.607	636.06
317.836	598.06
318.065	604.06
318.295	602.06
318.524	617.06
318.753	599.06
318.983	610.06
319.212	569.06
319.441	570.06
319.67	629.06
319.9	622.06
320.129	613.06
320.358	601.06
320.587	617.06
320.816	615.06
321.046	617.06
321.275	594.06
321.504	613.06
321.733	623.06
321.962	615.06
322.191	616.06
322.42	618.06
322.649	606.06
322.878	596.06
323.108	585.06
323.337	615.06
323.566	628.06
323.795	633.06
324.024	617.06
324.253	615.06
324.482	610.06
324.71	614.06
324.939	636.06
325.168	614.06
325.397	631.06
325.626	634.06
325.855	658.06
326.084	644.06
326.313	659.06
326.542	641.06
326.77	666.06
326.999	653.06
327.228	667.06
327.457	653.06
327.686	665.06
327.914	655.06
328.143	673.06
328.372	654.06
328.6	652.06
328.829	679.06
329.058	666.06
329.287	680.06
329.515	664.06
329.744	671.06
329.972	672.06
330.201	688.06
330.43	683.06
330.658	672.06
330.887	678.06
331.115	690.06
331.344	715.06
331.572	698.06
331.801	722.06
332.03	732.06
332.258	742.06
332.486	774.06
332.715	804.06
332.943	826.06
333.172	844.06
333.4	894.06
333.629	898.06
333.857	924.06
334.085	884.06
334.314	914.06
334.542	878.06
334.771	862.06
334.999	823.06
335.227	851.06
335.455	856.06
335.684	815.06
335.912	841.06
336.14	826.06
336.369	811.06
336.597	804.06
336.825	827.06
337.053	808.06
337.281	795.06
337.51	786.06
337.738	758.06
337.966	748.06
338.194	753.06
338.422	720.06
338.65	729.06
338.878	713.06
339.106	744.06
339.334	736.06
339.562	713.06
339.79	728.06
340.018	688.06
340.246	679.06
340.474	674.06
340.702	693.06
340.93	716.06
341.158	703.06
341.386	683.06
341.614	703.06
341.842	682.06
342.07	688.06
342.298	700.06
342.526	705.06
342.754	686.06
342.981	691.06
343.209	710.06
343.437	754.06
343.665	786.06
343.893	862.06
344.12	881.06
344.348	818.06
344.576	780.06
344.804	770.06
345.031	720.06
345.259	722.06
345.487	702.06
345.714	671.06
345.942	688.06
346.17	684.06
346.397	672.06
346.625	680.06
346.853	662.06
347.08	633.06
347.308	671.06
347.535	693.06
347.763	690.06
347.99	683.06
348.218	678.06
348.445	672.06
348.673	692.06
348.9	658.06
349.128	672.06
349.355	663.06
349.583	631.06
349.81	650.06
350.037	646.06
350.265	658.06
350.492	680.06
350.72	654.06
350.947	633.06
351.174	628.06
351.402	659.06
351.629	647.06
351.856	619.06
352.083	646.06
352.311	682.06
352.538	657.06
352.765	623.06
352.992	630.06
353.22	627.06
353.447	656.06
353.674	650.06
353.901	634.06
354.128	644.06
354.355	631.06
354.583	648.06
354.81	646.06
355.037	650.06
355.264	662.06
355.491	653.06
355.718	644.06
355.945	651.06
356.172	667.06
356.399	659.06
356.626	661.06
356.853	673.06
357.08	668.06
357.307	662.06
357.534	655.06
357.761	640.06
357.988	680.06
358.215	646.06
358.441	648.06
358.668	639.06
358.895	644.06
359.122	659.06
359.349	634.06
359.576	647.06
359.802	665.06
360.029	636.06
360.256	661.06
360.483	648.06
360.709	654.06
360.936	656.06
361.163	641.06
361.39	678.06
361.616	665.06
361.843	659.06
362.07	648.06
362.296	653.06
362.523	648.06
362.749	653.06
362.976	652.06
363.203	637.06
363.429	634.06
363.656	640.06
363.882	658.06
364.109	642.06
364.335	643.06
364.562	646.06
364.788	644.06
365.015	629.06
365.241	650.06
365.468	643.06
365.694	647.06
365.92	645.06
366.147	651.06
366.373	651.06
366.599	648.06
366.826	618.06
367.052	639.06
367.278	675.06
367.505	652.06
367.731	658.06
367.957	631.06
368.184	638.06
368.41	652.06
368.636	648.06
368.862	646.06
369.089	659.06
369.315	655.06
369.541	647.06
369.767	686.06
369.993	665.06
370.219	680.06
370.445	687.06
370.672	694.06
370.898	678.06
371.124	679.06
371.35	702.06
371.576	714.06
371.802	707.06
372.028	714.06
372.254	715.06
372.48	729.06
372.706	738.06
372.932	756.06
373.158	749.06
373.384	699.06
373.61	697.06
373.835	720.06
374.061	706.06
374.287	726.06
374.513	745.06
374.739	730.06
374.965	760.06
375.191	788.06
375.416	776.06
375.642	770.06
375.868	768.06
376.094	728.06
376.319	712.06
376.545	713.06
376.771	698.06
376.997	709.06
377.222	710.06
377.448	707.06
377.674	730.06
377.899	699.06
378.125	710.06
378.35	706.06
378.576	688.06
378.802	698.06
379.027	710.06
379.253	674.06
379.478	691.06
379.704	704.06
379.929	686.06
380.155	687.06
380.38	699.06
380.606	712.06
380.831	690.06
381.057	698.06
381.282	694.06
381.507	705.06
381.733	698.06
381.958	715.06
382.184	699.06
382.409	731.06
382.634	742.06
382.86	728.06
383.085	724.06
383.31	764.06
383.535	770.06
383.761	796.06
383.986	829.06
384.211	773.06
384.436	808.06
384.662	848.06
384.887	863.06
385.112	834.06
385.337	864.06
385.562	861.06
385.787	884.06
386.013	880.06
386.238	856.06
386.463	866.06
386.688	871.06
386.913	847.06
387.138	849.06
387.363	842.06
387.588	824.06
387.813	807.06
388.038	844.06
388.263	856.06
388.488	860.06
388.713	851.06
388.938	826.06
389.163	834.06
389.387	834.06
389.612	839.06
389.837	850.06
390.062	824.06
390.287	837.06
390.512	809.06
390.736	842.06
390.961	852.06
391.186	873.06
391.411	892.06
391.636	902.06
391.86	957.06
392.085	968.06
392.31	976.06
392.534	932.06
392.759	923.06
392.984	922.06
393.208	914.06
393.433	911.06
393.658	896.06
393.882	894.06
394.107	903.06
394.331	921.06
394.556	913.06
394.78	916.06
395.005	897.06
395.229	902.06
395.454	937.06
395.678	964.06
395.903	958.06
396.127	952.06
396.352	911.06
396.576	894.06
396.801	914.06
397.025	899.06
397.249	923.06
397.474	970.06
397.698	935.06
397.922	960.06
398.147	971.06
398.371	970.06
398.595	1011.06
398.82	1084.06
399.044	1123.06
399.268	1268.06
399.492	1456.06
399.717	1678.06
399.941	1610.06
400.165	1450.06
400.389	1282.06
400.613	1168.06
400.837	1110.06
401.062	1123.06
401.286	1094.06
401.51	1076.06
401.734	1066.06
401.958	1090.06
402.182	1107.06
402.406	1110.06
402.63	1123.06
402.854	1179.06
403.078	1153.06
403.302	1177.06
403.526	1209.06
403.75	1222.06
403.974	1251.06
404.198	1246.06
404.422	1239.06
404.645	1211.06
404.869	1237.06
405.093	1226.06
405.317	1171.06
405.541	1191.06
405.765	1162.06
405.988	1164.06
406.212	1179.06
406.436	1159.06
406.66	1202.06
406.883	1246.06
407.107	1292.06
407.331	1367.06
407.555	1416.06
407.778	1414.06
408.002	1355.06
408.226	1347.06
408.449	1290.06
408.673	1231.06
408.896	1234.06
409.12	1238.06
409.344	1222.06
409.567	1219.06
409.791	1240.06
410.014	1191.06
410.238	1202.06
410.461	1198.06
410.685	1184.06
410.908	1151.06
411.132	1168.06
411.355	1101.06
411.578	1124.06
411.802	1089.06
412.025	1118.06
412.249	1156.06
412.472	1146.06
412.695	1098.06
412.919	1064.06
413.142	1040.06
413.365	1064.06
413.589	1079.06
413.812	1023.06
414.035	1060.06
414.258	1056.06
414.482	1075.06
414.705	1097.06
414.928	1098.06
415.151	1057.06
415.374	1076.06
415.597	1060.06
415.821	1058.06
416.044	1056.06
416.267	1031.06
416.49	1040.06
416.713	1003.06
416.936	1067.06
417.159	1051.06
417.382	1042.06
417.605	1062.06
417.828	1062.06
418.051	1095.06
418.274	1081.06
418.497	1055.06
418.72	1088.06
418.943	1095.06
419.166	1176.06
419.389	1224.06
419.611	1177.06
419.834	1156.06
420.057	1127.06
420.28	1091.06
420.503	1045.06
420.726	1058.06
420.948	1028.06
421.171	1029.06
421.394	1047.06
421.617	1056.06
421.839	1095.06
422.062	1075.06
422.285	1034.06
422.507	1065.06
422.73	1051.06
422.953	1097.06
423.175	1127.06
423.398	1153.06
423.621	1105.06
423.843	1131.06
424.066	1131.06
424.288	1108.06
424.511	1106.06
424.733	1106.06
424.956	1073.06
425.178	1066.06
425.401	1093.06
425.623	1061.06
425.846	1020.06
426.068	1005.06
426.291	1018.06
426.513	1000.06
426.735	964.06
426.958	981.06
427.18	950.06
427.402	973.06
427.625	928.06
427.847	917.06
428.069	930.06
428.292	947.06
428.514	956.06
428.736	926.06
428.958	959.06
429.181	911.06
429.403	913.06
429.625	925.06
429.847	938.06
430.069	918.06
430.292	919.06
430.514	904.06
430.736	927.06
430.958	918.06
431.18	939.06
431.402	904.06
431.624	914.06
431.846	928.06
432.068	950.06
432.29	951.06
432.512	922.06
432.734	935.06
432.956	893.06
433.178	914.06
433.4	914.06
433.622	940.06
433.844	942.06
434.066	999.06
434.287	962.06
434.509	1001.06
434.731	1028.06
434.953	1059.06
435.175	1068.06
435.397	1033.06
435.618	983.06
435.84	959.06
436.062	932.06
436.284	933.06
436.505	920.06
436.727	934.06
436.949	946.06
437.17	940.06
437.392	931.06
437.614	926.06
437.835	890.06
438.057	892.06
438.278	904.06
438.5	889.06
438.721	888.06
438.943	895.06
439.165	891.06
439.386	897.06
439.608	902.06
439.829	937.06
440.05	927.06
440.272	923.06
440.493	944.06
440.715	955.06
440.936	971.06
441.158	969.06
441.379	1022.06
441.6	1048.06
441.822	1076.06
442.043	1055.06
442.264	1000.06
442.486	1023.06
442.707	1043.06
442.928	1017.06
443.149	1042.06
443.371	1025.06
443.592	1049.06
443.813	1044.06
444.034	1046.06
444.255	1099.06
444.476	1125.06
444.698	1229.06
444.919	1289.06
445.14	1304.06
445.361	1164.06
445.582	1083.06
445.803	1052.06
446.024	1008.06
446.245	972.06
446.466	945.06
446.687	938.06
446.908	931.06
447.129	891.06
447.35	887.06
447.571	863.06
447.792	880.06
448.013	874.06
448.234	837.06
448.455	878.06
448.675	887.06
448.896	860.06
449.117	818.06
449.338	844.06
449.559	833.06
449.779	848.06
450	845.06
450.221	838.06
450.442	854.06
450.662	858.06
450.883	864.06
451.104	904.06
451.324	875.06
451.545	857.06
451.766	888.06
451.986	864.06
452.207	867.06
452.428	864.06
452.648	848.06
452.869	832.06
453.089	860.06
453.31	834.06
453.53	822.06
453.751	818.06
453.971	824.06
454.192	846.06
454.412	829.06
454.633	822.06
454.853	795.06
455.073	810.06
455.294	795.06
455.514	806.06
455.734	818.06
455.955	787.06
456.175	789.06
456.395	786.06
456.616	790.06
456.836	820.06
457.056	821.06
457.276	771.06
457.497	817.06
457.717	808.06
457.937	831.06
458.157	799.06
458.377	804.06
458.598	840.06
458.818	856.06
459.038	898.06
459.258	910.06
459.478	923.06
459.698	970.06
459.918	995.06
460.138	1028.06
460.358	1083.06
460.578	1102.06
460.798	1147.06
461.018	1146.06
461.238	1092.06
461.458	1077.06
461.678	1095.06
461.898	1143.06
462.118	1127.06
462.338	1165.06
462.558	1222.06
462.777	1285.06
462.997	1377.06
463.217	1512.06
463.437	1507.06
463.657	1352.06
463.876	1310.06
464.096	1268.06
464.316	1307.06
464.536	1302.06
464.755	1237.06
464.975	1227.06
465.195	1138.06
465.414	1091.06
465.634	996.06
465.854	956.06
466.073	934.06
466.293	908.06
466.512	931.06
466.732	906.06
466.951	892.06
467.171	917.06
467.391	894.06
467.61	911.06
467.829	879.06
468.049	883.06
468.268	875.06
468.488	876.06
468.707	871.06
468.927	892.06
469.146	859.06
469.365	865.06
469.585	868.06
469.804	901.06
470.023	903.06
470.243	900.06
470.462	943.06
470.681	919.06
470.901	936.06
471.12	919.06
471.339	913.06
471.558	867.06
471.777	847.06
471.997	890.06
472.216	860.06
472.435	860.06
472.654	857.06
472.873	855.06
473.092	839.06
473.311	853.06
473.53	855.06
473.749	855.06
473.968	839.06
474.187	832.06
474.406	823.06
474.625	829.06
474.844	837.06
475.063	839.06
475.282	863.06
475.501	856.06
475.72	827.06
475.939	849.06
476.158	842.06
476.377	859.06
476.596	837.06
476.814	878.06
477.033	868.06
477.252	907.06
477.471	910.06
477.69	921.06
477.908	958.06
478.127	969.06
478.346	1000.06
478.564	996.06
478.783	1046.06
479.002	1048.06
479.22	1042.06
479.439	1017.06
479.658	1020.06
479.876	1057.06
480.095	1077.06
480.313	1122.06
480.532	1141.06
480.751	1123.06
480.969	1054.06
481.188	1054.06
481.406	978.06
481.624	995.06
481.843	971.06
482.061	969.06
482.28	977.06
482.498	946.06
482.717	937.06
482.935	981.06
483.153	973.06
483.372	962.06
483.59	923.06
483.808	973.06
484.027	958.06
484.245	983.06
484.463	960.06
484.681	990.06
484.9	1003.06
485.118	990.06
485.336	982.06
485.554	994.06
485.772	997.06
485.99	1010.06
486.209	999.06
486.427	1022.06
486.645	1001.06
486.863	1005.06
487.081	1003.06
487.299	1002.06
487.517	978.06
487.735	1005.06
487.953	1003.06
488.171	1031.06
488.389	967.06
488.607	1000.06
488.825	993.06
489.043	990.06
489.261	977.06
489.479	997.06
489.696	985.06
489.914	988.06
490.132	1001.06
490.35	980.06
490.568	1006.06
490.786	996.06
491.003	998.06
491.221	1032.06
491.439	1038.06
491.657	1005.06
491.874	1023.06
492.092	1058.06
492.31	1042.06
492.527	1027.06
492.745	1035.06
492.963	1042.06
493.18	1064.06
493.398	1025.06
493.615	1029.06
493.833	1043.06
494.05	1033.06
494.268	1073.06
494.485	1076.06
494.703	1084.06
494.92	1073.06
495.138	1088.06
495.355	1059.06
495.573	1061.06
495.79	1079.06
496.008	1067.06
496.225	1088.06
496.442	1110.06
496.66	1140.06
496.877	1104.06
497.094	1153.06
497.312	1186.06
497.529	1183.06
497.746	1209.06
497.963	1223.06
498.181	1307.06
498.398	1367.06
498.615	1417.06
498.832	1531.06
499.049	1702.06
499.267	1842.06
499.484	1998.06
499.701	2258.06
499.918	2450.06
500.135	2832.06
500.352	3242.06
500.569	3404.06
500.786	3414.06
501.003	3135.06
501.22	2766.06
501.437	2430.06
501.654	2111.06
501.871	1920.06
502.088	1780.06
502.305	1635.06
502.522	1556.06
502.739	1537.06
502.956	1400.06
503.172	1362.06
503.389	1282.06
503.606	1255.06
503.823	1224.06
504.04	1223.06
504.256	1245.06
504.473	1265.06
504.69	1312.06
504.907	1265.06
505.123	1181.06
505.34	1138.06
505.557	1070.06
505.773	1047.06
505.99	1014.06
506.207	978.06
506.423	987.06
506.64	967.06
506.856	977.06
507.073	934.06
507.289	926.06
507.506	954.06
507.722	966.06
507.939	921.06
508.155	914.06
508.372	914.06
508.588	902.06
508.805	898.06
509.021	902.06
509.238	899.06
509.454	866.06
509.67	888.06
509.887	872.06
510.103	866.06
510.319	870.06
510.536	872.06
510.752	875.06
510.968	837.06
511.184	843.06
511.401	879.06
511.617	836.06
511.833	837.06
512.049	851.06
512.265	866.06
512.481	862.06
512.698	848.06
512.914	839.06
513.13	866.06
513.346	850.06
513.562	822.06
513.778	873.06
513.994	867.06
514.21	878.06
514.426	871.06
514.642	871.06
514.858	900.06
515.074	890.06
515.29	905.06
515.506	886.06
515.721	916.06
515.937	922.06
516.153	915.06
516.369	949.06
516.585	1003.06
516.801	1022.06
517.016	1082.06
517.232	1133.06
517.448	1200.06
517.664	1191.06
517.879	1222.06
518.095	1219.06
518.311	1219.06
518.527	1120.06
518.742	1091.06
518.958	1022.06
519.173	1003.06
519.389	1006.06
519.605	956.06
519.82	952.06
520.036	929.06
520.251	874.06
520.467	867.06
520.682	869.06
520.898	861.06
521.113	855.06
521.329	834.06
521.544	849.06
521.76	837.06
521.975	813.06
522.19	842.06
522.406	826.06
522.621	818.06
522.836	808.06
523.052	814.06
523.267	812.06
523.482	807.06
523.698	783.06
523.913	775.06
524.128	816.06
524.343	805.06
524.559	800.06
524.774	807.06
524.989	786.06
525.204	822.06
525.419	803.06
525.634	778.06
525.849	784.06
526.064	778.06
526.28	776.06
526.495	796.06
526.71	795.06
526.925	760.06
527.14	771.06
527.355	790.06
527.57	770.06
527.785	779.06
527.999	773.06
528.214	778.06
528.429	795.06
528.644	784.06
528.859	778.06
529.074	777.06
529.289	785.06
529.503	777.06
529.718	774.06
529.933	752.06
530.148	750.06
530.363	798.06
530.577	764.06
530.792	763.06
531.007	788.06
531.221	760.06
531.436	757.06
531.651	794.06
531.865	766.06
532.08	752.06
532.295	770.06
532.509	759.06
532.724	775.06
532.938	763.06
533.153	750.06
533.367	761.06
533.582	759.06
533.796	786.06
534.011	774.06
534.225	745.06
534.44	746.06
534.654	745.06
534.868	776.06
535.083	761.06
535.297	778.06
535.511	754.06
535.726	739.06
535.94	695.06
536.154	717.06
536.369	733.06
536.583	695.06
536.797	734.06
537.011	715.06
537.225	698.06
537.44	710.06
537.654	724.06
537.868	692.06
538.082	663.06
538.296	683.06
538.51	686.06
538.724	724.06
538.938	704.06
539.153	703.06
539.367	702.06
539.581	695.06
539.795	670.06
540.009	677.06
540.222	664.06
540.436	681.06
540.65	682.06
540.864	676.06
541.078	668.06
541.292	694.06
541.506	668.06
541.72	704.06
541.934	694.06
542.147	706.06
542.361	683.06
542.575	682.06
542.789	688.06
543.002	652.06
543.216	708.06
543.43	675.06
543.644	706.06
543.857	670.06
544.071	692.06
544.285	698.06
544.498	695.06
544.712	695.06
544.925	687.06
545.139	699.06
545.352	727.06
545.566	751.06
545.779	723.06
545.993	729.06
546.206	711.06
546.42	710.06
546.633	719.06
546.847	688.06
547.06	694.06
547.274	702.06
547.487	714.06
547.7	700.06
547.914	694.06
548.127	722.06
548.34	692.06
548.554	692.06
548.767	722.06
548.98	731.06
549.193	739.06
549.407	699.06
549.62	734.06
549.833	733.06
550.046	722.06
550.259	721.06
550.473	713.06
550.686	722.06
550.899	698.06
551.112	711.06
551.325	659.06
551.538	674.06
551.751	683.06
551.964	689.06
552.177	689.06
552.39	754.06
552.603	729.06
552.816	752.06
553.029	748.06
553.242	792.06
553.455	766.06
553.667	824.06
553.88	772.06
554.093	744.06
554.306	724.06
554.519	712.06
554.732	708.06
554.944	710.06
555.157	665.06
555.37	665.06
555.583	671.06
555.795	642.06
556.008	652.06
556.221	623.06
556.433	634.06
556.646	628.06
556.859	625.06
557.071	589.06
557.284	612.06
557.496	626.06
557.709	609.06
557.921	594.06
558.134	608.06
558.346	596.06
558.559	593.06
558.771	599.06
558.984	590.06
559.196	588.06
559.409	593.06
559.621	583.06
559.833	585.06
560.046	601.06
560.258	581.06
560.47	563.06
560.683	604.06
560.895	586.06
561.107	605.06
561.32	577.06
561.532	588.06
561.744	576.06
561.956	602.06
562.168	561.06
562.381	578.06
562.593	594.06
562.805	596.06
563.017	580.06
563.229	609.06
563.441	587.06
563.653	576.06
563.865	588.06
564.077	583.06
564.289	603.06
564.501	625.06
564.713	634.06
564.925	635.06
565.137	625.06
565.349	644.06
565.561	662.06
565.773	696.06
565.985	718.06
566.197	766.06
566.408	813.06
566.62	879.06
566.832	956.06
567.044	982.06
567.255	992.06
567.467	1002.06
567.679	1083.06
567.891	1156.06
568.102	1183.06
568.314	1126.06
568.526	1008.06
568.737	914.06
568.949	824.06
569.161	760.06
569.372	706.06
569.584	666.06
569.795	670.06
570.007	633.06
570.218	613.06
570.43	598.06
570.641	600.06
570.853	602.06
571.064	627.06
571.276	614.06
571.487	596.06
571.698	569.06
571.91	546.06
572.121	537.06
572.333	505.06
572.544	523.06
572.755	507.06
572.966	520.06
573.178	507.06
573.389	481.06
573.6	484.06
573.811	491.06
574.023	491.06
574.234	474.06
574.445	471.06
574.656	481.06
574.867	484.06
575.078	496.06
575.289	475.06
575.501	464.06
575.712	448.06
575.923	457.06
576.134	460.06
576.345	462.06
576.556	442.06
576.767	452.06
576.978	457.06
577.188	466.06
577.399	453.06
577.61	434.06
577.821	439.06
578.032	441.06
578.243	438.06
578.454	437.06
578.665	431.06
578.875	436.06
579.086	432.06
579.297	426.06
579.508	432.06
579.718	414.06
579.929	407.06
580.14	422.06
580.35	414.06
580.561	425.06
580.772	386.06
580.982	430.06
581.193	394.06
581.403	399.06
581.614	423.06
581.825	417.06
582.035	404.06
582.246	380.06
582.456	390.06
582.667	420.06
582.877	414.06
583.087	387.06
583.298	380.06
583.508	389.06
583.719	402.06
583.929	397.06
584.139	387.06
584.35	396.06
584.56	408.06
584.77	384.06
584.981	384.06
585.191	392.06
585.401	410.06
585.611	380.06
585.821	389.06
586.032	385.06
586.242	379.06
586.452	393.06
586.662	379.06
586.872	379.06
587.082	391.06
587.292	383.06
587.502	390.06
587.713	385.06
587.923	376.06
588.133	380.06
588.343	389.06
588.553	377.06
588.762	386.06
588.972	387.06
589.182	386.06
589.392	385.06
589.602	382.06
589.812	384.06
590.022	387.06
590.232	376.06
590.441	386.06
590.651	404.06
590.861	394.06
591.071	394.06
591.281	398.06
591.49	379.06
591.7	404.06
591.91	436.06
592.119	416.06
592.329	436.06
592.539	437.06
592.748	454.06
592.958	450.06
593.167	473.06
593.377	495.06
593.587	496.06
593.796	522.06
594.006	491.06
594.215	501.06
594.424	514.06
594.634	499.06
594.843	459.06
595.053	456.06
595.262	441.06
595.472	431.06
595.681	406.06
595.89	418.06
596.1	397.06
596.309	381.06
596.518	372.06
596.727	370.06
596.937	354.06
597.146	345.06
597.355	360.06
597.564	361.06
597.774	339.06
597.983	348.06
598.192	339.06
598.401	342.06
598.61	355.06
598.819	343.06
599.028	332.06
599.237	317.06
599.446	318.06
599.655	328.06
599.864	334.06
600.073	340.06
600.282	323.06
600.491	322.06
600.7	332.06
600.909	329.06
601.118	319.06
601.327	327.06
601.536	322.06
601.745	329.06
601.953	309.06
602.162	321.06
602.371	313.06
602.58	303.06
602.789	304.06
602.997	327.06
603.206	331.06
603.415	309.06
603.623	326.06
603.832	306.06
604.041	311.06
604.249	311.06
604.458	303.06
604.666	316.06
604.875	310.06
605.084	312.06
605.292	296.06
605.501	316.06
605.709	305.06
605.918	296.06
606.126	302.06
606.334	292.06
606.543	295.06
606.751	306.06
606.96	298.06
607.168	288.06
607.376	283.06
607.585	288.06
607.793	290.06
608.001	292.06
608.21	295.06
608.418	303.06
608.626	299.06
608.834	278.06
609.043	305.06
609.251	287.06
609.459	276.06
609.667	294.06
609.875	295.06
610.083	295.06
610.291	291.06
610.499	293.06
610.707	293.06
610.916	300.06
611.124	308.06
611.332	258.06
611.54	258.06
611.748	284.06
611.955	273.06
612.163	282.06
612.371	276.06
612.579	284.06
612.787	280.06
612.995	271.06
613.203	286.06
613.411	270.06
613.618	262.06
613.826	269.06
614.034	281.06
614.242	285.06
614.449	283.06
614.657	282.06
614.865	263.06
615.072	258.06
615.28	283.06
615.488	272.06
615.695	280.06
615.903	276.06
616.111	280.06
616.318	284.06
616.526	271.06
616.733	266.06
616.941	303.06
617.148	274.06
617.356	282.06
617.563	280.06
617.771	279.06
617.978	260.06
618.185	281.06
618.393	286.06
618.6	306.06
618.807	274.06
619.015	267.06
619.222	271.06
619.429	282.06
619.637	282.06
619.844	277.06
620.051	274.06
620.258	274.06
620.466	258.06
620.673	247.06
620.88	252.06
621.087	259.06
621.294	260.06
621.501	264.06
621.708	254.06
621.915	251.06
622.122	240.06
622.329	259.06
622.536	241.06
622.743	245.06
622.95	243.06
623.157	268.06
623.364	262.06
623.571	271.06
623.778	238.06
623.985	245.06
624.192	249.06
624.399	246.06
624.606	246.06
624.812	255.06
625.019	248.06
625.226	250.06
625.433	223.06
625.639	247.06
625.846	238.06
626.053	235.06
626.259	230.06
626.466	238.06
626.673	244.06
626.879	232.06
627.086	238.06
627.293	215.06
627.499	232.06
627.706	221.06
627.912	241.06
628.119	236.06
628.325	230.06
628.532	225.06
628.738	247.06
628.945	225.06
629.151	217.06
629.357	233.06
629.564	230.06
629.77	219.06
629.976	230.06
630.183	219.06
630.389	206.06
630.595	212.06
630.802	213.06
631.008	208.06
631.214	209.06
631.42	201.06
631.627	218.06
631.833	210.06
632.039	210.06
632.245	217.06
632.451	213.06
632.657	214.06
632.863	226.06
633.069	216.06
633.275	220.06
633.481	223.06
633.688	193.06
633.893	202.06
634.099	205.06
634.305	204.06
634.511	199.06
634.717	193.06
634.923	211.06
635.129	207.06
635.335	195.06
635.541	202.06
635.747	209.06
635.952	212.06
636.158	198.06
636.364	192.06
636.57	218.06
636.775	202.06
636.981	212.06
637.187	195.06
637.392	187.06
637.598	210.06
637.804	195.06
638.009	209.06
638.215	194.06
638.421	190.06
638.626	191.06
638.832	200.06
639.037	186.06
639.243	192.06
639.448	198.06
639.654	186.06
639.859	185.06
640.065	195.06
640.27	204.06
640.475	197.06
640.681	195.06
640.886	198.06
641.091	179.06
641.297	178.06
641.502	178.06
641.707	181.06
641.913	187.06
642.118	186.06
642.323	196.06
642.528	187.06
642.733	192.06
642.939	184.06
643.144	178.06
643.349	182.06
643.554	190.06
643.759	179.06
643.964	184.06
644.169	185.06
644.374	175.06
644.579	192.06
644.784	193.06
644.989	184.06
645.194	181.06
645.399	182.06
645.604	168.06
645.809	189.06
646.014	190.06
646.219	164.06
646.423	186.06
646.628	176.06
646.833	187.06
647.038	183.06
647.243	178.06
647.447	188.06
647.652	185.06
647.857	187.06
648.062	191.06
648.266	201.06
648.471	193.06
648.676	211.06
648.88	181.06
649.085	174.06
649.289	181.06
649.494	184.06
649.698	180.06
649.903	181.06
650.107	176.06
650.312	188.06
650.516	158.06
650.721	176.06
650.925	186.06
651.13	169.06
651.334	163.06
651.539	159.06
651.743	162.06
651.947	156.06
652.152	162.06
652.356	152.06
652.56	158.06
652.764	158.06
652.969	156.06
653.173	148.06
653.377	156.06
653.581	140.06
653.785	154.06
653.99	152.06
654.194	162.06
654.398	141.06
654.602	137.06
654.806	135.06
655.01	138.06
655.214	146.06
655.418	133.06
655.622	148.06
655.826	135.06
656.03	138.06
656.234	130.06
656.438	134.06
656.642	136.06
656.846	123.06
657.049	126.06
657.253	141.06
657.457	104.06
657.661	115.06
657.865	127.06
658.068	112.06
658.272	116.06
658.476	115.06
658.68	104.06
658.883	97.06
659.087	102.06
659.291	90.06
659.494	100.06
659.698	96.06
659.901	112.06
660.105	91.06
660.309	90.06
660.512	86.06
660.716	96.06
660.919	94.06
661.123	99.06
661.326	98.06
661.53	96.06
661.733	89.06
661.936	83.06
662.14	90.06
662.343	94.06
662.546	94.06
662.75	82.06
662.953	101.06
663.156	83.06
663.36	82.06
663.563	99.06
663.766	91.06
663.969	66.06
664.173	78.06
664.376	92.06
664.579	86.06
664.782	75.06
664.985	70.06
665.188	79.06
665.391	82.06
665.594	85.06
665.797	80.06
666	79.06
666.203	74.06
666.406	73.06
666.609	80.06
666.812	86.06
667.015	81.06
667.218	85.06
667.421	78.06
667.624	79.06
667.827	82.06
668.03	76.06
668.232	69.06
668.435	81.06
668.638	79.06
668.841	86.06
669.043	85.06
669.246	75.06
669.449	89.06
669.651	76.06
669.854	99.06
670.057	94.06
670.259	86.06
670.462	88.06
670.665	77.06
670.867	78.06
671.07	63.06
671.272	86.06
671.475	71.06
671.677	76.06
671.88	84.06
672.082	84.06
672.284	75.06
672.487	92.06
672.689	76.06
672.892	96.06
