Data from NiCl2@0.125M.TitratingCurve.Agarose3%dH2O.NegLispCup.LampEnergy10.LIBS07252019_HRD10591_18-27-48-574.txt Node
Date: Thu Jul 25 18:27:48 EDT 2019
User: cochatt
Spectrometer: HR+D1059
Trigger mode: 1
Integration Time (sec): 1.000000E-1
Scans to average: 1
Electric dark correction enabled: true
Nonlinearity correction enabled: false
Boxcar width: 0
XAxis mode: Wavelengths
Number of Pixels in Spectrum: 2048
>>>>>Begin Spectral Data<<<<<
223.165	-14.75
223.4	-14.75
223.635	-14.75
223.869	-20.75
224.104	-23.75
224.338	-17.75
224.573	-4.75
224.808	-13.75
225.042	-15.75
225.277	-8.75
225.511	1.25
225.746	2.25
225.98	11.25
226.215	6.25
226.449	22.25
226.683	21.25
226.918	30.25
227.152	25.25
227.387	34.25
227.621	40.25
227.856	54.25
228.09	60.25
228.324	46.25
228.559	67.25
228.793	60.25
229.027	113.25
229.262	112.25
229.496	102.25
229.73	114.25
229.964	124.25
230.199	121.25
230.433	126.25
230.667	143.25
230.901	146.25
231.136	139.25
231.37	140.25
231.604	134.25
231.838	153.25
232.072	150.25
232.306	136.25
232.541	151.25
232.775	158.25
233.009	146.25
233.243	149.25
233.477	169.25
233.711	152.25
233.945	165.25
234.179	156.25
234.413	143.25
234.647	146.25
234.881	157.25
235.115	146.25
235.349	157.25
235.583	156.25
235.817	158.25
236.051	172.25
236.285	158.25
236.519	149.25
236.753	150.25
236.987	161.25
237.221	170.25
237.455	170.25
237.689	168.25
237.922	183.25
238.156	153.25
238.39	163.25
238.624	168.25
238.858	165.25
239.091	170.25
239.325	178.25
239.559	188.25
239.793	173.25
240.027	181.25
240.26	189.25
240.494	181.25
240.728	184.25
240.961	195.25
241.195	194.25
241.429	194.25
241.662	197.25
241.896	193.25
242.13	206.25
242.363	216.25
242.597	203.25
242.83	201.25
243.064	199.25
243.298	203.25
243.531	185.25
243.765	205.25
243.998	207.25
244.232	215.25
244.465	213.25
244.699	230.25
244.932	214.25
245.166	231.25
245.399	222.25
245.633	218.25
245.866	244.25
246.099	242.25
246.333	218.25
246.566	233.25
246.8	240.25
247.033	240.25
247.266	231.25
247.5	241.25
247.733	256.25
247.966	234.25
248.2	248.25
248.433	251.25
248.666	249.25
248.899	252.25
249.133	269.25
249.366	257.25
249.599	246.25
249.832	259.25
250.066	280.25
250.299	255.25
250.532	247.25
250.765	264.25
250.998	248.25
251.231	274.25
251.465	248.25
251.698	276.25
251.931	275.25
252.164	291.25
252.397	300.25
252.63	306.25
252.863	281.25
253.096	274.25
253.329	279.25
253.562	285.25
253.795	289.25
254.028	288.25
254.261	274.25
254.494	293.25
254.727	300.25
254.96	298.25
255.193	291.25
255.426	289.25
255.659	299.25
255.892	330.25
256.124	304.25
256.357	316.25
256.59	310.25
256.823	313.25
257.056	317.25
257.289	296.25
257.521	307.25
257.754	322.25
257.987	323.25
258.22	320.25
258.452	314.25
258.685	329.25
258.918	340.25
259.151	336.25
259.383	331.25
259.616	327.25
259.849	336.25
260.081	324.25
260.314	334.25
260.547	314.25
260.779	335.25
261.012	353.25
261.244	346.25
261.477	341.25
261.71	350.25
261.942	345.25
262.175	370.25
262.407	334.25
262.64	333.25
262.872	336.25
263.105	348.25
263.337	357.25
263.57	350.25
263.802	361.25
264.035	349.25
264.267	358.25
264.499	350.25
264.732	369.25
264.964	378.25
265.197	376.25
265.429	362.25
265.661	368.25
265.894	361.25
266.126	360.25
266.358	378.25
266.591	382.25
266.823	388.25
267.055	373.25
267.287	378.25
267.52	385.25
267.752	380.25
267.984	383.25
268.216	386.25
268.448	408.25
268.681	384.25
268.913	393.25
269.145	394.25
269.377	369.25
269.609	393.25
269.841	389.25
270.073	382.25
270.306	389.25
270.538	394.25
270.77	402.25
271.002	397.25
271.234	399.25
271.466	414.25
271.698	406.25
271.93	405.25
272.162	411.25
272.394	408.25
272.626	425.25
272.858	421.25
273.09	398.25
273.322	418.25
273.553	419.25
273.785	412.25
274.017	434.25
274.249	419.25
274.481	441.25
274.713	419.25
274.945	430.25
275.176	434.25
275.408	430.25
275.64	444.25
275.872	414.25
276.104	441.25
276.335	436.25
276.567	459.25
276.799	445.25
277.031	450.25
277.262	437.25
277.494	444.25
277.726	449.25
277.957	448.25
278.189	480.25
278.421	461.25
278.652	447.25
278.884	466.25
279.115	459.25
279.347	473.25
279.579	464.25
279.81	483.25
280.042	478.25
280.273	450.25
280.505	484.25
280.736	469.25
280.968	490.25
281.199	483.25
281.431	495.25
281.662	506.25
281.894	482.25
282.125	492.25
282.356	496.25
282.588	500.25
282.819	520.25
283.051	503.25
283.282	508.25
283.513	504.25
283.745	491.25
283.976	482.25
284.207	518.25
284.439	535.25
284.67	507.25
284.901	511.25
285.132	491.25
285.364	520.25
285.595	536.25
285.826	525.25
286.057	526.25
286.288	501.25
286.52	523.25
286.751	537.25
286.982	532.25
287.213	527.25
287.444	523.25
287.675	530.25
287.906	533.25
288.138	544.25
288.369	529.25
288.6	535.25
288.831	516.25
289.062	560.25
289.293	552.25
289.524	530.25
289.755	567.25
289.986	532.25
290.217	553.25
290.448	560.25
290.679	545.25
290.91	563.25
291.141	576.25
291.371	564.25
291.602	554.25
291.833	550.25
292.064	550.25
292.295	522.25
292.526	536.25
292.757	549.25
292.987	564.25
293.218	545.25
293.449	564.25
293.68	546.25
293.91	569.25
294.141	547.25
294.372	567.25
294.603	567.25
294.833	554.25
295.064	560.25
295.295	576.25
295.525	578.25
295.756	599.25
295.987	560.25
296.217	573.25
296.448	581.25
296.679	585.25
296.909	582.25
297.14	602.25
297.37	591.25
297.601	601.25
297.831	595.25
298.062	601.25
298.292	618.25
298.523	624.25
298.753	620.25
298.984	608.25
299.214	613.25
299.445	576.25
299.675	583.25
299.905	594.25
300.136	607.25
300.366	574.25
300.597	610.25
300.827	619.25
301.057	634.25
301.288	616.25
301.518	626.25
301.748	617.25
301.979	637.25
302.209	653.25
302.439	633.25
302.669	652.25
302.9	631.25
303.13	619.25
303.36	604.25
303.59	609.25
303.82	633.25
304.051	635.25
304.281	641.25
304.511	605.25
304.741	620.25
304.971	638.25
305.201	627.25
305.431	630.25
305.661	620.25
305.891	618.25
306.121	609.25
306.352	620.25
306.582	604.25
306.812	614.25
307.042	621.25
307.272	630.25
307.502	631.25
307.731	612.25
307.961	611.25
308.191	619.25
308.421	616.25
308.651	608.25
308.881	605.25
309.111	606.25
309.341	595.25
309.571	596.25
309.8	616.25
310.03	631.25
310.26	589.25
310.49	597.25
310.72	607.25
310.949	617.25
311.179	618.25
311.409	616.25
311.639	626.25
311.868	628.25
312.098	632.25
312.328	641.25
312.557	642.25
312.787	634.25
313.017	661.25
313.246	672.25
313.476	644.25
313.706	657.25
313.935	665.25
314.165	670.25
314.394	655.25
314.624	674.25
314.853	663.25
315.083	642.25
315.312	670.25
315.542	644.25
315.771	644.25
316.001	677.25
316.23	634.25
316.46	648.25
316.689	657.25
316.919	624.25
317.148	635.25
317.377	628.25
317.607	631.25
317.836	650.25
318.065	640.25
318.295	617.25
318.524	640.25
318.753	632.25
318.983	648.25
319.212	640.25
319.441	632.25
319.67	636.25
319.9	642.25
320.129	640.25
320.358	636.25
320.587	651.25
320.816	640.25
321.046	644.25
321.275	641.25
321.504	655.25
321.733	647.25
321.962	642.25
322.191	653.25
322.42	618.25
322.649	648.25
322.878	668.25
323.108	651.25
323.337	650.25
323.566	651.25
323.795	661.25
324.024	669.25
324.253	684.25
324.482	658.25
324.71	692.25
324.939	668.25
325.168	670.25
325.397	650.25
325.626	695.25
325.855	701.25
326.084	712.25
326.313	741.25
326.542	706.25
326.77	733.25
326.999	705.25
327.228	698.25
327.457	717.25
327.686	709.25
327.914	713.25
328.143	708.25
328.372	706.25
328.6	733.25
328.829	718.25
329.058	697.25
329.287	710.25
329.515	731.25
329.744	724.25
329.972	702.25
330.201	714.25
330.43	721.25
330.658	706.25
330.887	706.25
331.115	738.25
331.344	742.25
331.572	745.25
331.801	770.25
332.03	779.25
332.258	797.25
332.486	820.25
332.715	833.25
332.943	908.25
333.172	913.25
333.4	968.25
333.629	981.25
333.857	980.25
334.085	962.25
334.314	945.25
334.542	932.25
334.771	933.25
334.999	882.25
335.227	885.25
335.455	908.25
335.684	878.25
335.912	889.25
336.14	873.25
336.369	825.25
336.597	834.25
336.825	853.25
337.053	838.25
337.281	837.25
337.51	853.25
337.738	787.25
337.966	802.25
338.194	759.25
338.422	757.25
338.65	743.25
338.878	774.25
339.106	759.25
339.334	805.25
339.562	766.25
339.79	754.25
340.018	738.25
340.246	741.25
340.474	747.25
340.702	719.25
340.93	752.25
341.158	733.25
341.386	722.25
341.614	750.25
341.842	739.25
342.07	717.25
342.298	724.25
342.526	740.25
342.754	715.25
342.981	741.25
343.209	737.25
343.437	794.25
343.665	846.25
343.893	934.25
344.12	932.25
344.348	859.25
344.576	830.25
344.804	833.25
345.031	777.25
345.259	759.25
345.487	743.25
345.714	740.25
345.942	709.25
346.17	737.25
346.397	707.25
346.625	717.25
346.853	703.25
347.08	737.25
347.308	700.25
347.535	713.25
347.763	733.25
347.99	705.25
348.218	748.25
348.445	718.25
348.673	698.25
348.9	726.25
349.128	693.25
349.355	712.25
349.583	662.25
349.81	707.25
350.037	696.25
350.265	694.25
350.492	694.25
350.72	696.25
350.947	694.25
351.174	666.25
351.402	689.25
351.629	672.25
351.856	704.25
352.083	679.25
352.311	689.25
352.538	688.25
352.765	700.25
352.992	697.25
353.22	678.25
353.447	679.25
353.674	676.25
353.901	668.25
354.128	684.25
354.355	664.25
354.583	693.25
354.81	713.25
355.037	696.25
355.264	686.25
355.491	702.25
355.718	679.25
355.945	666.25
356.172	696.25
356.399	691.25
356.626	690.25
356.853	715.25
357.08	683.25
357.307	700.25
357.534	698.25
357.761	663.25
357.988	685.25
358.215	670.25
358.441	664.25
358.668	700.25
358.895	673.25
359.122	713.25
359.349	690.25
359.576	670.25
359.802	690.25
360.029	678.25
360.256	708.25
360.483	668.25
360.709	690.25
360.936	694.25
361.163	707.25
361.39	695.25
361.616	680.25
361.843	702.25
362.07	683.25
362.296	709.25
362.523	685.25
362.749	656.25
362.976	702.25
363.203	691.25
363.429	668.25
363.656	719.25
363.882	704.25
364.109	647.25
364.335	678.25
364.562	654.25
364.788	668.25
365.015	702.25
365.241	673.25
365.468	678.25
365.694	681.25
365.92	691.25
366.147	683.25
366.373	695.25
366.599	669.25
366.826	702.25
367.052	678.25
367.278	678.25
367.505	683.25
367.731	671.25
367.957	702.25
368.184	704.25
368.41	690.25
368.636	707.25
368.862	723.25
369.089	692.25
369.315	694.25
369.541	697.25
369.767	730.25
369.993	712.25
370.219	715.25
370.445	738.25
370.672	717.25
370.898	715.25
371.124	765.25
371.35	756.25
371.576	745.25
371.802	770.25
372.028	755.25
372.254	730.25
372.48	757.25
372.706	770.25
372.932	796.25
373.158	770.25
373.384	757.25
373.61	761.25
373.835	748.25
374.061	762.25
374.287	776.25
374.513	780.25
374.739	797.25
374.965	816.25
375.191	841.25
375.416	858.25
375.642	808.25
375.868	808.25
376.094	774.25
376.319	774.25
376.545	742.25
376.771	772.25
376.997	774.25
377.222	774.25
377.448	752.25
377.674	754.25
377.899	752.25
378.125	728.25
378.35	713.25
378.576	726.25
378.802	738.25
379.027	727.25
379.253	762.25
379.478	744.25
379.704	747.25
379.929	747.25
380.155	722.25
380.38	729.25
380.606	748.25
380.831	724.25
381.057	735.25
381.282	755.25
381.507	750.25
381.733	753.25
381.958	759.25
382.184	769.25
382.409	797.25
382.634	800.25
382.86	768.25
383.085	804.25
383.31	820.25
383.535	856.25
383.761	844.25
383.986	859.25
384.211	872.25
384.436	877.25
384.662	898.25
384.887	902.25
385.112	906.25
385.337	908.25
385.562	916.25
385.787	881.25
386.013	914.25
386.238	904.25
386.463	915.25
386.688	923.25
386.913	893.25
387.138	906.25
387.363	892.25
387.588	871.25
387.813	881.25
388.038	884.25
388.263	882.25
388.488	916.25
388.713	918.25
388.938	905.25
389.163	869.25
389.387	895.25
389.612	901.25
389.837	877.25
390.062	875.25
390.287	888.25
390.512	912.25
390.736	877.25
390.961	908.25
391.186	912.25
391.411	953.25
391.636	945.25
391.86	1008.25
392.085	1036.25
392.31	1011.25
392.534	965.25
392.759	964.25
392.984	954.25
393.208	947.25
393.433	947.25
393.658	971.25
393.882	978.25
394.107	961.25
394.331	940.25
394.556	967.25
394.78	976.25
395.005	974.25
395.229	991.25
395.454	995.25
395.678	1043.25
395.903	1003.25
396.127	1012.25
396.352	968.25
396.576	940.25
396.801	950.25
397.025	960.25
397.249	984.25
397.474	1014.25
397.698	1003.25
397.922	1012.25
398.147	992.25
398.371	1050.25
398.595	1084.25
398.82	1102.25
399.044	1204.25
399.268	1289.25
399.492	1546.25
399.717	1821.25
399.941	1759.25
400.165	1552.25
400.389	1383.25
400.613	1251.25
400.837	1187.25
401.062	1148.25
401.286	1128.25
401.51	1145.25
401.734	1110.25
401.958	1171.25
402.182	1186.25
402.406	1200.25
402.63	1192.25
402.854	1238.25
403.078	1264.25
403.302	1286.25
403.526	1309.25
403.75	1332.25
403.974	1348.25
404.198	1366.25
404.422	1358.25
404.645	1360.25
404.869	1304.25
405.093	1290.25
405.317	1289.25
405.541	1264.25
405.765	1240.25
405.988	1219.25
406.212	1228.25
406.436	1242.25
406.66	1284.25
406.883	1301.25
407.107	1414.25
407.331	1432.25
407.555	1517.25
407.778	1491.25
408.002	1436.25
408.226	1376.25
408.449	1339.25
408.673	1335.25
408.896	1303.25
409.12	1302.25
409.344	1289.25
409.567	1286.25
409.791	1320.25
410.014	1324.25
410.238	1284.25
410.461	1274.25
410.685	1255.25
410.908	1187.25
411.132	1253.25
411.355	1168.25
411.578	1177.25
411.802	1174.25
412.025	1168.25
412.249	1205.25
412.472	1220.25
412.695	1138.25
412.919	1152.25
413.142	1116.25
413.365	1122.25
413.589	1161.25
413.812	1108.25
414.035	1128.25
414.258	1167.25
414.482	1144.25
414.705	1166.25
414.928	1173.25
415.151	1149.25
415.374	1160.25
415.597	1164.25
415.821	1101.25
416.044	1104.25
416.267	1118.25
416.49	1126.25
416.713	1109.25
416.936	1149.25
417.159	1179.25
417.382	1146.25
417.605	1120.25
417.828	1116.25
418.051	1155.25
418.274	1152.25
418.497	1160.25
418.72	1166.25
418.943	1174.25
419.166	1236.25
419.389	1345.25
419.611	1298.25
419.834	1218.25
420.057	1188.25
420.28	1146.25
420.503	1127.25
420.726	1131.25
420.948	1107.25
421.171	1123.25
421.394	1131.25
421.617	1103.25
421.839	1106.25
422.062	1136.25
422.285	1108.25
422.507	1148.25
422.73	1131.25
422.953	1180.25
423.175	1180.25
423.398	1191.25
423.621	1182.25
423.843	1237.25
424.066	1231.25
424.288	1241.25
424.511	1236.25
424.733	1200.25
424.956	1163.25
425.178	1148.25
425.401	1116.25
425.623	1120.25
425.846	1090.25
426.068	1119.25
426.291	1058.25
426.513	1074.25
426.735	1072.25
426.958	1043.25
427.18	1037.25
427.402	1037.25
427.625	1014.25
427.847	1013.25
428.069	995.25
428.292	997.25
428.514	1012.25
428.736	978.25
428.958	1011.25
429.181	973.25
429.403	944.25
429.625	996.25
429.847	987.25
430.069	986.25
430.292	968.25
430.514	958.25
430.736	995.25
430.958	961.25
431.18	991.25
431.402	1005.25
431.624	994.25
431.846	1009.25
432.068	1029.25
432.29	994.25
432.512	971.25
432.734	998.25
432.956	1012.25
433.178	998.25
433.4	1025.25
433.622	1026.25
433.844	1026.25
434.066	1019.25
434.287	1029.25
434.509	1038.25
434.731	1081.25
434.953	1128.25
435.175	1163.25
435.397	1133.25
435.618	1046.25
435.84	1028.25
436.062	1033.25
436.284	989.25
436.505	988.25
436.727	1016.25
436.949	1008.25
437.17	1009.25
437.392	988.25
437.614	969.25
437.835	954.25
438.057	966.25
438.278	953.25
438.5	951.25
438.721	985.25
438.943	980.25
439.165	975.25
439.386	1000.25
439.608	993.25
439.829	1013.25
440.05	1012.25
440.272	1013.25
440.493	1001.25
440.715	1014.25
440.936	1042.25
441.158	1062.25
441.379	1101.25
441.6	1140.25
441.822	1164.25
442.043	1189.25
442.264	1153.25
442.486	1125.25
442.707	1123.25
442.928	1097.25
443.149	1126.25
443.371	1103.25
443.592	1128.25
443.813	1140.25
444.034	1156.25
444.255	1182.25
444.476	1235.25
444.698	1337.25
444.919	1404.25
445.14	1424.25
445.361	1308.25
445.582	1176.25
445.803	1108.25
446.024	1045.25
446.245	1087.25
446.466	1056.25
446.687	1021.25
446.908	1056.25
447.129	977.25
447.35	977.25
447.571	945.25
447.792	941.25
448.013	983.25
448.234	916.25
448.455	925.25
448.675	917.25
448.896	930.25
449.117	913.25
449.338	922.25
449.559	923.25
449.779	920.25
450	906.25
450.221	948.25
450.442	918.25
450.662	935.25
450.883	966.25
451.104	954.25
451.324	967.25
451.545	928.25
451.766	926.25
451.986	949.25
452.207	933.25
452.428	928.25
452.648	910.25
452.869	914.25
453.089	911.25
453.31	901.25
453.53	908.25
453.751	887.25
453.971	891.25
454.192	894.25
454.412	886.25
454.633	885.25
454.853	887.25
455.073	868.25
455.294	866.25
455.514	861.25
455.734	857.25
455.955	859.25
456.175	845.25
456.395	850.25
456.616	831.25
456.836	848.25
457.056	844.25
457.276	833.25
457.497	854.25
457.717	860.25
457.937	865.25
458.157	865.25
458.377	870.25
458.598	909.25
458.818	924.25
459.038	944.25
459.258	975.25
459.478	968.25
459.698	998.25
459.918	1081.25
460.138	1120.25
460.358	1197.25
460.578	1203.25
460.798	1186.25
461.018	1197.25
461.238	1167.25
461.458	1172.25
461.678	1187.25
461.898	1165.25
462.118	1202.25
462.338	1278.25
462.558	1294.25
462.777	1371.25
462.997	1467.25
463.217	1626.25
463.437	1639.25
463.657	1495.25
463.876	1415.25
464.096	1401.25
464.316	1377.25
464.536	1402.25
464.755	1357.25
464.975	1290.25
465.195	1245.25
465.414	1164.25
465.634	1096.25
465.854	1038.25
466.073	1047.25
466.293	1031.25
466.512	982.25
466.732	954.25
466.951	956.25
467.171	968.25
467.391	963.25
467.61	964.25
467.829	982.25
468.049	965.25
468.268	914.25
468.488	908.25
468.707	942.25
468.927	946.25
469.146	928.25
469.365	913.25
469.585	933.25
469.804	950.25
470.023	995.25
470.243	1004.25
470.462	1009.25
470.681	1005.25
470.901	1003.25
471.12	989.25
471.339	968.25
471.558	954.25
471.777	944.25
471.997	906.25
472.216	888.25
472.435	904.25
472.654	887.25
472.873	889.25
473.092	896.25
473.311	886.25
473.53	893.25
473.749	905.25
473.968	866.25
474.187	894.25
474.406	881.25
474.625	889.25
474.844	911.25
475.063	892.25
475.282	899.25
475.501	884.25
475.72	884.25
475.939	915.25
476.158	901.25
476.377	925.25
476.596	911.25
476.814	929.25
477.033	944.25
477.252	939.25
477.471	980.25
477.69	984.25
477.908	1041.25
478.127	1084.25
478.346	1084.25
478.564	1074.25
478.783	1092.25
479.002	1147.25
479.22	1094.25
479.439	1138.25
479.658	1115.25
479.876	1076.25
480.095	1099.25
480.313	1197.25
480.532	1207.25
480.751	1222.25
480.969	1170.25
481.188	1094.25
481.406	1076.25
481.624	1062.25
481.843	1050.25
482.061	1012.25
482.28	1011.25
482.498	1008.25
482.717	991.25
482.935	997.25
483.153	1036.25
483.372	996.25
483.59	992.25
483.808	1036.25
484.027	1030.25
484.245	1013.25
484.463	1048.25
484.681	1056.25
484.9	1052.25
485.118	1069.25
485.336	1060.25
485.554	1084.25
485.772	1121.25
485.99	1067.25
486.209	1091.25
486.427	1098.25
486.645	1094.25
486.863	1092.25
487.081	1079.25
487.299	1092.25
487.517	1059.25
487.735	1068.25
487.953	1058.25
488.171	1060.25
488.389	1050.25
488.607	1044.25
488.825	1017.25
489.043	1052.25
489.261	1042.25
489.479	1053.25
489.696	1028.25
489.914	1047.25
490.132	1036.25
490.35	1073.25
490.568	1055.25
490.786	1050.25
491.003	1054.25
491.221	1087.25
491.439	1058.25
491.657	1085.25
491.874	1090.25
492.092	1094.25
492.31	1109.25
492.527	1078.25
492.745	1085.25
492.963	1126.25
493.18	1121.25
493.398	1123.25
493.615	1094.25
493.833	1102.25
494.05	1097.25
494.268	1118.25
494.485	1143.25
494.703	1132.25
494.92	1136.25
495.138	1138.25
495.355	1130.25
495.573	1139.25
495.79	1123.25
496.008	1148.25
496.225	1124.25
496.442	1143.25
496.66	1186.25
496.877	1173.25
497.094	1219.25
497.312	1216.25
497.529	1232.25
497.746	1258.25
497.963	1282.25
498.181	1333.25
498.398	1406.25
498.615	1490.25
498.832	1599.25
499.049	1734.25
499.267	1859.25
499.484	2062.25
499.701	2302.25
499.918	2561.25
500.135	2983.25
500.352	3406.25
500.569	3694.25
500.786	3548.25
501.003	3267.25
501.22	2934.25
501.437	2509.25
501.654	2239.25
501.871	1970.25
502.088	1815.25
502.305	1675.25
502.522	1586.25
502.739	1571.25
502.956	1504.25
503.172	1371.25
503.389	1355.25
503.606	1276.25
503.823	1257.25
504.04	1269.25
504.256	1268.25
504.473	1302.25
504.69	1357.25
504.907	1338.25
505.123	1243.25
505.34	1176.25
505.557	1121.25
505.773	1080.25
505.99	1039.25
506.207	1042.25
506.423	1032.25
506.64	1015.25
506.856	1003.25
507.073	989.25
507.289	993.25
507.506	983.25
507.722	988.25
507.939	988.25
508.155	973.25
508.372	984.25
508.588	946.25
508.805	900.25
509.021	937.25
509.238	939.25
509.454	920.25
509.67	946.25
509.887	901.25
510.103	896.25
510.319	911.25
510.536	925.25
510.752	891.25
510.968	894.25
511.184	903.25
511.401	920.25
511.617	882.25
511.833	891.25
512.049	859.25
512.265	885.25
512.481	888.25
512.698	885.25
512.914	896.25
513.13	910.25
513.346	890.25
513.562	890.25
513.778	877.25
513.994	898.25
514.21	898.25
514.426	903.25
514.642	920.25
514.858	920.25
515.074	930.25
515.29	910.25
515.506	925.25
515.721	938.25
515.937	983.25
516.153	982.25
516.369	1002.25
516.585	1029.25
516.801	1066.25
517.016	1125.25
517.232	1150.25
517.448	1236.25
517.664	1285.25
517.879	1314.25
518.095	1307.25
518.311	1288.25
518.527	1200.25
518.742	1115.25
518.958	1097.25
519.173	1052.25
519.389	1045.25
519.605	982.25
519.82	953.25
520.036	967.25
520.251	937.25
520.467	912.25
520.682	921.25
520.898	901.25
521.113	925.25
521.329	906.25
521.544	881.25
521.76	874.25
521.975	872.25
522.19	872.25
522.406	858.25
522.621	841.25
522.836	804.25
523.052	846.25
523.267	835.25
523.482	828.25
523.698	831.25
523.913	840.25
524.128	835.25
524.343	854.25
524.559	820.25
524.774	834.25
524.989	848.25
525.204	824.25
525.419	820.25
525.634	832.25
525.849	825.25
526.064	813.25
526.28	803.25
526.495	813.25
526.71	808.25
526.925	811.25
527.14	820.25
527.355	828.25
527.57	825.25
527.785	817.25
527.999	818.25
528.214	797.25
528.429	816.25
528.644	812.25
528.859	788.25
529.074	811.25
529.289	818.25
529.503	835.25
529.718	816.25
529.933	834.25
530.148	800.25
530.363	789.25
530.577	788.25
530.792	810.25
531.007	766.25
531.221	804.25
531.436	800.25
531.651	836.25
531.865	825.25
532.08	799.25
532.295	796.25
532.509	816.25
532.724	788.25
532.938	797.25
533.153	797.25
533.367	795.25
533.582	843.25
533.796	816.25
534.011	795.25
534.225	784.25
534.44	804.25
534.654	800.25
534.868	776.25
535.083	790.25
535.297	793.25
535.511	813.25
535.726	794.25
535.94	769.25
536.154	743.25
536.369	772.25
536.583	749.25
536.797	750.25
537.011	764.25
537.225	745.25
537.44	760.25
537.654	743.25
537.868	738.25
538.082	728.25
538.296	715.25
538.51	747.25
538.724	752.25
538.938	734.25
539.153	730.25
539.367	746.25
539.581	736.25
539.795	720.25
540.009	731.25
540.222	732.25
540.436	717.25
540.65	714.25
540.864	718.25
541.078	740.25
541.292	752.25
541.506	722.25
541.72	727.25
541.934	746.25
542.147	734.25
542.361	718.25
542.575	721.25
542.789	706.25
543.002	720.25
543.216	696.25
543.43	718.25
543.644	728.25
543.857	720.25
544.071	736.25
544.285	710.25
544.498	730.25
544.712	740.25
544.925	747.25
545.139	760.25
545.352	736.25
545.566	746.25
545.779	741.25
545.993	740.25
546.206	745.25
546.42	763.25
546.633	744.25
546.847	748.25
547.06	746.25
547.274	731.25
547.487	722.25
547.7	730.25
547.914	744.25
548.127	753.25
548.34	750.25
548.554	741.25
548.767	742.25
548.98	759.25
549.193	781.25
549.407	747.25
549.62	772.25
549.833	803.25
550.046	783.25
550.259	761.25
550.473	756.25
550.686	724.25
550.899	754.25
551.112	702.25
551.325	709.25
551.538	736.25
551.751	717.25
551.964	745.25
552.177	754.25
552.39	768.25
552.603	751.25
552.816	808.25
553.029	804.25
553.242	835.25
553.455	804.25
553.667	848.25
553.88	823.25
554.093	781.25
554.306	774.25
554.519	765.25
554.732	713.25
554.944	720.25
555.157	704.25
555.37	695.25
555.583	716.25
555.795	711.25
556.008	665.25
556.221	656.25
556.433	675.25
556.646	672.25
556.859	648.25
557.071	659.25
557.284	637.25
557.496	638.25
557.709	626.25
557.921	637.25
558.134	630.25
558.346	627.25
558.559	627.25
558.771	615.25
558.984	620.25
559.196	618.25
559.409	621.25
559.621	633.25
559.833	608.25
560.046	612.25
560.258	604.25
560.47	602.25
560.683	609.25
560.895	610.25
561.107	594.25
561.32	617.25
561.532	611.25
561.744	608.25
561.956	604.25
562.168	612.25
562.381	597.25
562.593	616.25
562.805	607.25
563.017	610.25
563.229	609.25
563.441	611.25
563.653	633.25
563.865	630.25
564.077	627.25
564.289	637.25
564.501	629.25
564.713	659.25
564.925	659.25
565.137	688.25
565.349	690.25
565.561	716.25
565.773	737.25
565.985	778.25
566.197	799.25
566.408	864.25
566.62	951.25
566.832	1029.25
567.044	1056.25
567.255	1031.25
567.467	1056.25
567.679	1122.25
567.891	1237.25
568.102	1278.25
568.314	1218.25
568.526	1058.25
568.737	976.25
568.949	857.25
569.161	788.25
569.372	718.25
569.584	706.25
569.795	673.25
570.007	670.25
570.218	629.25
570.43	638.25
570.641	599.25
570.853	640.25
571.064	668.25
571.276	647.25
571.487	607.25
571.698	608.25
571.91	563.25
572.121	566.25
572.333	584.25
572.544	548.25
572.755	550.25
572.966	527.25
573.178	523.25
573.389	513.25
573.6	502.25
573.811	523.25
574.023	505.25
574.234	491.25
574.445	508.25
574.656	530.25
574.867	520.25
575.078	534.25
575.289	496.25
575.501	493.25
575.712	490.25
575.923	464.25
576.134	472.25
576.345	489.25
576.556	476.25
576.767	477.25
576.978	479.25
577.188	484.25
577.399	477.25
577.61	450.25
577.821	471.25
578.032	449.25
578.243	452.25
578.454	462.25
578.665	442.25
578.875	462.25
579.086	448.25
579.297	450.25
579.508	422.25
579.718	456.25
579.929	457.25
580.14	424.25
580.35	422.25
580.561	438.25
580.772	417.25
580.982	425.25
581.193	408.25
581.403	436.25
581.614	454.25
581.825	431.25
582.035	432.25
582.246	441.25
582.456	415.25
582.667	422.25
582.877	412.25
583.087	422.25
583.298	404.25
583.508	440.25
583.719	407.25
583.929	410.25
584.139	428.25
584.35	413.25
584.56	419.25
584.77	412.25
584.981	423.25
585.191	385.25
585.401	410.25
585.611	408.25
585.821	413.25
586.032	421.25
586.242	409.25
586.452	410.25
586.662	393.25
586.872	408.25
587.082	389.25
587.292	413.25
587.502	428.25
587.713	389.25
587.923	386.25
588.133	406.25
588.343	402.25
588.553	405.25
588.762	396.25
588.972	422.25
589.182	421.25
589.392	410.25
589.602	413.25
589.812	414.25
590.022	385.25
590.232	404.25
590.441	404.25
590.651	405.25
590.861	415.25
591.071	408.25
591.281	419.25
591.49	417.25
591.7	450.25
591.91	470.25
592.119	440.25
592.329	444.25
592.539	462.25
592.748	484.25
592.958	485.25
593.167	518.25
593.377	537.25
593.587	527.25
593.796	548.25
594.006	520.25
594.215	536.25
594.424	554.25
594.634	529.25
594.843	524.25
595.053	466.25
595.262	446.25
595.472	454.25
595.681	416.25
595.89	432.25
596.1	406.25
596.309	402.25
596.518	399.25
596.727	372.25
596.937	393.25
597.146	378.25
597.355	385.25
597.564	392.25
597.774	374.25
597.983	366.25
598.192	369.25
598.401	354.25
598.61	354.25
598.819	366.25
599.028	350.25
599.237	339.25
599.446	366.25
599.655	356.25
599.864	346.25
600.073	321.25
600.282	327.25
600.491	343.25
600.7	354.25
600.909	338.25
601.118	347.25
601.327	346.25
601.536	333.25
601.745	329.25
601.953	339.25
602.162	332.25
602.371	326.25
602.58	337.25
602.789	333.25
602.997	335.25
603.206	352.25
603.415	339.25
603.623	334.25
603.832	321.25
604.041	338.25
604.249	342.25
604.458	344.25
604.666	323.25
604.875	310.25
605.084	330.25
605.292	327.25
605.501	323.25
605.709	324.25
605.918	310.25
606.126	307.25
606.334	322.25
606.543	327.25
606.751	297.25
606.96	311.25
607.168	296.25
607.376	302.25
607.585	314.25
607.793	313.25
608.001	319.25
608.21	308.25
608.418	320.25
608.626	300.25
608.834	337.25
609.043	308.25
609.251	298.25
609.459	313.25
609.667	316.25
609.875	311.25
610.083	310.25
610.291	320.25
610.499	314.25
610.707	318.25
610.916	309.25
611.124	292.25
611.332	297.25
611.54	311.25
611.748	293.25
611.955	312.25
612.163	302.25
612.371	291.25
612.579	297.25
612.787	289.25
612.995	289.25
613.203	323.25
613.411	293.25
613.618	290.25
613.826	271.25
614.034	294.25
614.242	298.25
614.449	300.25
614.657	309.25
614.865	274.25
615.072	294.25
615.28	297.25
615.488	297.25
615.695	299.25
615.903	312.25
616.111	292.25
616.318	320.25
616.526	293.25
616.733	295.25
616.941	293.25
617.148	295.25
617.356	311.25
617.563	299.25
617.771	318.25
617.978	293.25
618.185	299.25
618.393	306.25
618.6	290.25
618.807	300.25
619.015	287.25
619.222	305.25
619.429	292.25
619.637	300.25
619.844	275.25
620.051	289.25
620.258	295.25
620.466	279.25
620.673	275.25
620.88	243.25
621.087	273.25
621.294	285.25
621.501	254.25
621.708	270.25
621.915	284.25
622.122	272.25
622.329	280.25
622.536	273.25
622.743	256.25
622.95	277.25
623.157	274.25
623.364	286.25
623.571	250.25
623.778	262.25
623.985	261.25
624.192	263.25
624.399	269.25
624.606	263.25
624.812	266.25
625.019	265.25
625.226	265.25
625.433	259.25
625.639	265.25
625.846	242.25
626.053	252.25
626.259	250.25
626.466	238.25
626.673	261.25
626.879	256.25
627.086	250.25
627.293	268.25
627.499	244.25
627.706	247.25
627.912	236.25
628.119	258.25
628.325	261.25
628.532	247.25
628.738	248.25
628.945	254.25
629.151	238.25
629.357	227.25
629.564	247.25
629.77	251.25
629.976	244.25
630.183	236.25
630.389	244.25
630.595	243.25
630.802	227.25
631.008	234.25
631.214	239.25
631.42	243.25
631.627	230.25
631.833	227.25
632.039	241.25
632.245	233.25
632.451	214.25
632.657	228.25
632.863	250.25
633.069	212.25
633.275	215.25
633.481	233.25
633.688	220.25
633.893	224.25
634.099	219.25
634.305	210.25
634.511	219.25
634.717	218.25
634.923	210.25
635.129	233.25
635.335	210.25
635.541	211.25
635.747	222.25
635.952	230.25
636.158	202.25
636.364	220.25
636.57	201.25
636.775	217.25
636.981	221.25
637.187	224.25
637.392	223.25
637.598	225.25
637.804	228.25
638.009	216.25
638.215	216.25
638.421	210.25
638.626	211.25
638.832	216.25
639.037	208.25
639.243	189.25
639.448	209.25
639.654	203.25
639.859	201.25
640.065	210.25
640.27	208.25
640.475	211.25
640.681	218.25
640.886	213.25
641.091	203.25
641.297	207.25
641.502	204.25
641.707	198.25
641.913	202.25
642.118	200.25
642.323	182.25
642.528	204.25
642.733	199.25
642.939	182.25
643.144	173.25
643.349	205.25
643.554	195.25
643.759	185.25
643.964	199.25
644.169	195.25
644.374	205.25
644.579	197.25
644.784	195.25
644.989	204.25
645.194	192.25
645.399	188.25
645.604	198.25
645.809	196.25
646.014	201.25
646.219	207.25
646.423	208.25
646.628	209.25
646.833	180.25
647.038	186.25
647.243	188.25
647.447	206.25
647.652	195.25
647.857	185.25
648.062	212.25
648.266	206.25
648.471	203.25
648.676	197.25
648.88	210.25
649.085	203.25
649.289	206.25
649.494	217.25
649.698	187.25
649.903	200.25
650.107	187.25
650.312	166.25
650.516	188.25
650.721	202.25
650.925	166.25
651.13	178.25
651.334	187.25
651.539	177.25
651.743	168.25
651.947	187.25
652.152	169.25
652.356	156.25
652.56	161.25
652.764	166.25
652.969	171.25
653.173	164.25
653.377	170.25
653.581	156.25
653.785	154.25
653.99	170.25
654.194	142.25
654.398	158.25
654.602	158.25
654.806	134.25
655.01	150.25
655.214	141.25
655.418	134.25
655.622	145.25
655.826	144.25
656.03	132.25
656.234	138.25
656.438	146.25
656.642	142.25
656.846	132.25
657.049	151.25
657.253	115.25
657.457	137.25
657.661	136.25
657.865	107.25
658.068	126.25
658.272	122.25
658.476	118.25
658.68	113.25
658.883	131.25
659.087	108.25
659.291	100.25
659.494	90.25
659.698	99.25
659.901	108.25
660.105	105.25
660.309	102.25
660.512	96.25
660.716	102.25
660.919	107.25
661.123	96.25
661.326	100.25
661.53	95.25
661.733	97.25
661.936	97.25
662.14	94.25
662.343	82.25
662.546	85.25
662.75	73.25
662.953	99.25
663.156	68.25
663.36	92.25
663.563	92.25
663.766	90.25
663.969	75.25
664.173	84.25
664.376	90.25
664.579	91.25
664.782	84.25
664.985	77.25
665.188	82.25
665.391	86.25
665.594	81.25
665.797	77.25
666	75.25
666.203	81.25
666.406	91.25
666.609	96.25
666.812	84.25
667.015	81.25
667.218	96.25
667.421	94.25
667.624	77.25
667.827	90.25
668.03	80.25
668.232	74.25
668.435	80.25
668.638	87.25
668.841	94.25
669.043	85.25
669.246	75.25
669.449	78.25
669.651	83.25
669.854	89.25
670.057	78.25
670.259	88.25
670.462	90.25
670.665	71.25
670.867	86.25
671.07	91.25
671.272	74.25
671.475	83.25
671.677	87.25
671.88	82.25
672.082	94.25
672.284	86.25
672.487	86.25
672.689	75.25
672.892	71.25
