Data from NiCl2@0.125M.TitratingCurve.Agarose3%dH2O.NegLispCup.LampEnergy10.LIBS07252019_HRD10591_18-30-11-575.txt Node
Date: Thu Jul 25 18:30:11 EDT 2019
User: cochatt
Spectrometer: HR+D1059
Trigger mode: 1
Integration Time (sec): 1.000000E-1
Scans to average: 1
Electric dark correction enabled: true
Nonlinearity correction enabled: false
Boxcar width: 0
XAxis mode: Wavelengths
Number of Pixels in Spectrum: 2048
>>>>>Begin Spectral Data<<<<<
223.165	-16.31
223.4	-16.31
223.635	-16.31
223.869	-22.31
224.104	-7.31
224.338	-14.31
224.573	-18.31
224.808	-11.31
225.042	-21.31
225.277	-9.31
225.511	11.69
225.746	10.69
225.98	12.69
226.215	5.69
226.449	-0.31
226.683	24.69
226.918	23.69
227.152	31.69
227.387	49.69
227.621	51.69
227.856	39.69
228.09	52.69
228.324	40.69
228.559	44.69
228.793	60.69
229.027	108.69
229.262	123.69
229.496	123.69
229.73	119.69
229.964	127.69
230.199	130.69
230.433	115.69
230.667	121.69
230.901	134.69
231.136	132.69
231.37	149.69
231.604	126.69
231.838	145.69
232.072	145.69
232.306	142.69
232.541	151.69
232.775	140.69
233.009	128.69
233.243	127.69
233.477	141.69
233.711	160.69
233.945	149.69
234.179	151.69
234.413	145.69
234.647	151.69
234.881	130.69
235.115	145.69
235.349	156.69
235.583	149.69
235.817	137.69
236.051	155.69
236.285	139.69
236.519	146.69
236.753	147.69
236.987	149.69
237.221	170.69
237.455	159.69
237.689	159.69
237.922	158.69
238.156	176.69
238.39	148.69
238.624	163.69
238.858	157.69
239.091	162.69
239.325	165.69
239.559	174.69
239.793	180.69
240.027	175.69
240.26	160.69
240.494	169.69
240.728	166.69
240.961	161.69
241.195	161.69
241.429	196.69
241.662	183.69
241.896	177.69
242.13	183.69
242.363	191.69
242.597	196.69
242.83	185.69
243.064	197.69
243.298	192.69
243.531	202.69
243.765	191.69
243.998	189.69
244.232	207.69
244.465	203.69
244.699	208.69
244.932	206.69
245.166	204.69
245.399	206.69
245.633	185.69
245.866	204.69
246.099	205.69
246.333	217.69
246.566	217.69
246.8	217.69
247.033	234.69
247.266	210.69
247.5	218.69
247.733	219.69
247.966	217.69
248.2	209.69
248.433	231.69
248.666	217.69
248.899	240.69
249.133	238.69
249.366	240.69
249.599	259.69
249.832	236.69
250.066	253.69
250.299	242.69
250.532	254.69
250.765	252.69
250.998	239.69
251.231	236.69
251.465	271.69
251.698	265.69
251.931	234.69
252.164	251.69
252.397	274.69
252.63	257.69
252.863	270.69
253.096	262.69
253.329	283.69
253.562	258.69
253.795	287.69
254.028	286.69
254.261	270.69
254.494	274.69
254.727	269.69
254.96	273.69
255.193	266.69
255.426	257.69
255.659	285.69
255.892	276.69
256.124	273.69
256.357	277.69
256.59	296.69
256.823	297.69
257.056	293.69
257.289	304.69
257.521	297.69
257.754	291.69
257.987	304.69
258.22	294.69
258.452	293.69
258.685	310.69
258.918	288.69
259.151	314.69
259.383	316.69
259.616	302.69
259.849	311.69
260.081	327.69
260.314	300.69
260.547	313.69
260.779	328.69
261.012	299.69
261.244	309.69
261.477	321.69
261.71	306.69
261.942	327.69
262.175	319.69
262.407	314.69
262.64	332.69
262.872	327.69
263.105	314.69
263.337	330.69
263.57	315.69
263.802	324.69
264.035	340.69
264.267	339.69
264.499	315.69
264.732	339.69
264.964	320.69
265.197	351.69
265.429	340.69
265.661	328.69
265.894	327.69
266.126	346.69
266.358	367.69
266.591	352.69
266.823	345.69
267.055	344.69
267.287	344.69
267.52	343.69
267.752	343.69
267.984	362.69
268.216	329.69
268.448	351.69
268.681	360.69
268.913	367.69
269.145	351.69
269.377	341.69
269.609	360.69
269.841	356.69
270.073	360.69
270.306	357.69
270.538	370.69
270.77	346.69
271.002	357.69
271.234	367.69
271.466	367.69
271.698	377.69
271.93	378.69
272.162	409.69
272.394	390.69
272.626	364.69
272.858	374.69
273.09	381.69
273.322	401.69
273.553	394.69
273.785	391.69
274.017	384.69
274.249	399.69
274.481	380.69
274.713	394.69
274.945	403.69
275.176	391.69
275.408	394.69
275.64	396.69
275.872	404.69
276.104	397.69
276.335	405.69
276.567	410.69
276.799	420.69
277.031	424.69
277.262	402.69
277.494	405.69
277.726	407.69
277.957	403.69
278.189	405.69
278.421	411.69
278.652	423.69
278.884	457.69
279.115	453.69
279.347	429.69
279.579	431.69
279.81	424.69
280.042	431.69
280.273	421.69
280.505	422.69
280.736	417.69
280.968	445.69
281.199	461.69
281.431	454.69
281.662	444.69
281.894	445.69
282.125	443.69
282.356	471.69
282.588	478.69
282.819	444.69
283.051	438.69
283.282	465.69
283.513	461.69
283.745	440.69
283.976	468.69
284.207	475.69
284.439	469.69
284.67	477.69
284.901	476.69
285.132	476.69
285.364	480.69
285.595	480.69
285.826	485.69
286.057	495.69
286.288	462.69
286.52	473.69
286.751	490.69
286.982	479.69
287.213	489.69
287.444	488.69
287.675	491.69
287.906	506.69
288.138	478.69
288.369	491.69
288.6	509.69
288.831	508.69
289.062	501.69
289.293	511.69
289.524	501.69
289.755	507.69
289.986	505.69
290.217	500.69
290.448	518.69
290.679	510.69
290.91	496.69
291.141	512.69
291.371	518.69
291.602	510.69
291.833	524.69
292.064	529.69
292.295	495.69
292.526	500.69
292.757	512.69
292.987	504.69
293.218	490.69
293.449	507.69
293.68	519.69
293.91	503.69
294.141	522.69
294.372	503.69
294.603	523.69
294.833	542.69
295.064	535.69
295.295	509.69
295.525	531.69
295.756	533.69
295.987	530.69
296.217	531.69
296.448	521.69
296.679	523.69
296.909	534.69
297.14	553.69
297.37	552.69
297.601	561.69
297.831	572.69
298.062	559.69
298.292	554.69
298.523	591.69
298.753	569.69
298.984	561.69
299.214	571.69
299.445	563.69
299.675	540.69
299.905	571.69
300.136	567.69
300.366	551.69
300.597	567.69
300.827	571.69
301.057	583.69
301.288	601.69
301.518	600.69
301.748	588.69
301.979	601.69
302.209	598.69
302.439	561.69
302.669	591.69
302.9	590.69
303.13	550.69
303.36	571.69
303.59	591.69
303.82	559.69
304.051	587.69
304.281	594.69
304.511	559.69
304.741	562.69
304.971	584.69
305.201	582.69
305.431	573.69
305.661	577.69
305.891	566.69
306.121	562.69
306.352	565.69
306.582	572.69
306.812	572.69
307.042	562.69
307.272	568.69
307.502	570.69
307.731	551.69
307.961	579.69
308.191	549.69
308.421	555.69
308.651	573.69
308.881	564.69
309.111	556.69
309.341	587.69
309.571	572.69
309.8	553.69
310.03	565.69
310.26	571.69
310.49	573.69
310.72	591.69
310.949	575.69
311.179	587.69
311.409	582.69
311.639	584.69
311.868	565.69
312.098	580.69
312.328	598.69
312.557	586.69
312.787	607.69
313.017	600.69
313.246	601.69
313.476	592.69
313.706	609.69
313.935	605.69
314.165	618.69
314.394	619.69
314.624	606.69
314.853	596.69
315.083	593.69
315.312	626.69
315.542	627.69
315.771	601.69
316.001	591.69
316.23	593.69
316.46	600.69
316.689	636.69
316.919	587.69
317.148	577.69
317.377	602.69
317.607	599.69
317.836	588.69
318.065	604.69
318.295	578.69
318.524	579.69
318.753	610.69
318.983	597.69
319.212	570.69
319.441	597.69
319.67	576.69
319.9	581.69
320.129	614.69
320.358	594.69
320.587	602.69
320.816	625.69
321.046	611.69
321.275	585.69
321.504	607.69
321.733	601.69
321.962	584.69
322.191	619.69
322.42	586.69
322.649	594.69
322.878	584.69
323.108	597.69
323.337	588.69
323.566	586.69
323.795	606.69
324.024	590.69
324.253	608.69
324.482	589.69
324.71	605.69
324.939	596.69
325.168	635.69
325.397	607.69
325.626	613.69
325.855	635.69
326.084	644.69
326.313	657.69
326.542	657.69
326.77	648.69
326.999	667.69
327.228	633.69
327.457	642.69
327.686	649.69
327.914	660.69
328.143	645.69
328.372	644.69
328.6	641.69
328.829	645.69
329.058	671.69
329.287	658.69
329.515	654.69
329.744	650.69
329.972	649.69
330.201	652.69
330.43	682.69
330.658	652.69
330.887	649.69
331.115	653.69
331.344	680.69
331.572	710.69
331.801	707.69
332.03	725.69
332.258	742.69
332.486	755.69
332.715	782.69
332.943	794.69
333.172	830.69
333.4	881.69
333.629	889.69
333.857	889.69
334.085	876.69
334.314	853.69
334.542	834.69
334.771	849.69
334.999	812.69
335.227	812.69
335.455	797.69
335.684	805.69
335.912	798.69
336.14	769.69
336.369	800.69
336.597	747.69
336.825	767.69
337.053	769.69
337.281	770.69
337.51	753.69
337.738	754.69
337.966	716.69
338.194	728.69
338.422	708.69
338.65	708.69
338.878	709.69
339.106	687.69
339.334	721.69
339.562	700.69
339.79	675.69
340.018	660.69
340.246	683.69
340.474	675.69
340.702	689.69
340.93	703.69
341.158	676.69
341.386	710.69
341.614	675.69
341.842	686.69
342.07	690.69
342.298	668.69
342.526	679.69
342.754	654.69
342.981	672.69
343.209	697.69
343.437	728.69
343.665	752.69
343.893	845.69
344.12	856.69
344.348	834.69
344.576	780.69
344.804	747.69
345.031	702.69
345.259	687.69
345.487	697.69
345.714	676.69
345.942	672.69
346.17	697.69
346.397	690.69
346.625	660.69
346.853	666.69
347.08	673.69
347.308	672.69
347.535	682.69
347.763	666.69
347.99	666.69
348.218	665.69
348.445	673.69
348.673	654.69
348.9	648.69
349.128	641.69
349.355	645.69
349.583	658.69
349.81	652.69
350.037	643.69
350.265	641.69
350.492	662.69
350.72	618.69
350.947	642.69
351.174	643.69
351.402	633.69
351.629	625.69
351.856	648.69
352.083	618.69
352.311	636.69
352.538	629.69
352.765	635.69
352.992	634.69
353.22	615.69
353.447	623.69
353.674	631.69
353.901	645.69
354.128	643.69
354.355	616.69
354.583	619.69
354.81	632.69
355.037	639.69
355.264	651.69
355.491	638.69
355.718	651.69
355.945	674.69
356.172	627.69
356.399	647.69
356.626	661.69
356.853	651.69
357.08	647.69
357.307	636.69
357.534	639.69
357.761	631.69
357.988	644.69
358.215	633.69
358.441	633.69
358.668	639.69
358.895	642.69
359.122	633.69
359.349	643.69
359.576	641.69
359.802	647.69
360.029	641.69
360.256	646.69
360.483	638.69
360.709	615.69
360.936	637.69
361.163	620.69
361.39	645.69
361.616	643.69
361.843	641.69
362.07	642.69
362.296	657.69
362.523	636.69
362.749	644.69
362.976	636.69
363.203	627.69
363.429	619.69
363.656	627.69
363.882	671.69
364.109	633.69
364.335	626.69
364.562	641.69
364.788	608.69
365.015	639.69
365.241	635.69
365.468	614.69
365.694	625.69
365.92	641.69
366.147	638.69
366.373	620.69
366.599	650.69
366.826	650.69
367.052	619.69
367.278	627.69
367.505	631.69
367.731	643.69
367.957	644.69
368.184	634.69
368.41	652.69
368.636	619.69
368.862	657.69
369.089	657.69
369.315	645.69
369.541	666.69
369.767	669.69
369.993	654.69
370.219	636.69
370.445	697.69
370.672	659.69
370.898	675.69
371.124	687.69
371.35	675.69
371.576	715.69
371.802	707.69
372.028	691.69
372.254	692.69
372.48	707.69
372.706	732.69
372.932	742.69
373.158	716.69
373.384	705.69
373.61	722.69
373.835	707.69
374.061	701.69
374.287	705.69
374.513	708.69
374.739	738.69
374.965	746.69
375.191	784.69
375.416	773.69
375.642	748.69
375.868	740.69
376.094	728.69
376.319	701.69
376.545	694.69
376.771	732.69
376.997	693.69
377.222	731.69
377.448	717.69
377.674	714.69
377.899	695.69
378.125	705.69
378.35	707.69
378.576	676.69
378.802	703.69
379.027	699.69
379.253	694.69
379.478	657.69
379.704	689.69
379.929	705.69
380.155	703.69
380.38	687.69
380.606	700.69
380.831	677.69
381.057	689.69
381.282	683.69
381.507	704.69
381.733	692.69
381.958	703.69
382.184	740.69
382.409	755.69
382.634	727.69
382.86	722.69
383.085	720.69
383.31	739.69
383.535	774.69
383.761	791.69
383.986	787.69
384.211	795.69
384.436	802.69
384.662	819.69
384.887	843.69
385.112	809.69
385.337	841.69
385.562	852.69
385.787	841.69
386.013	857.69
386.238	840.69
386.463	852.69
386.688	855.69
386.913	836.69
387.138	857.69
387.363	849.69
387.588	823.69
387.813	855.69
388.038	836.69
388.263	812.69
388.488	866.69
388.713	842.69
388.938	842.69
389.163	837.69
389.387	827.69
389.612	812.69
389.837	821.69
390.062	797.69
390.287	807.69
390.512	820.69
390.736	798.69
390.961	838.69
391.186	858.69
391.411	892.69
391.636	902.69
391.86	927.69
392.085	931.69
392.31	915.69
392.534	948.69
392.759	925.69
392.984	901.69
393.208	891.69
393.433	897.69
393.658	883.69
393.882	889.69
394.107	895.69
394.331	885.69
394.556	904.69
394.78	888.69
395.005	903.69
395.229	918.69
395.454	946.69
395.678	966.69
395.903	924.69
396.127	928.69
396.352	897.69
396.576	897.69
396.801	880.69
397.025	865.69
397.249	936.69
397.474	947.69
397.698	943.69
397.922	932.69
398.147	935.69
398.371	971.69
398.595	983.69
398.82	1022.69
399.044	1097.69
399.268	1202.69
399.492	1437.69
399.717	1629.69
399.941	1643.69
400.165	1424.69
400.389	1258.69
400.613	1178.69
400.837	1111.69
401.062	1074.69
401.286	1043.69
401.51	1061.69
401.734	1044.69
401.958	1090.69
402.182	1052.69
402.406	1075.69
402.63	1077.69
402.854	1145.69
403.078	1179.69
403.302	1153.69
403.526	1201.69
403.75	1187.69
403.974	1215.69
404.198	1207.69
404.422	1238.69
404.645	1213.69
404.869	1168.69
405.093	1222.69
405.317	1187.69
405.541	1203.69
405.765	1181.69
405.988	1143.69
406.212	1174.69
406.436	1171.69
406.66	1189.69
406.883	1209.69
407.107	1280.69
407.331	1319.69
407.555	1403.69
407.778	1353.69
408.002	1337.69
408.226	1312.69
408.449	1271.69
408.673	1230.69
408.896	1231.69
409.12	1226.69
409.344	1207.69
409.567	1196.69
409.791	1197.69
410.014	1204.69
410.238	1194.69
410.461	1179.69
410.685	1150.69
410.908	1161.69
411.132	1138.69
411.355	1105.69
411.578	1095.69
411.802	1093.69
412.025	1157.69
412.249	1148.69
412.472	1116.69
412.695	1077.69
412.919	1058.69
413.142	1043.69
413.365	1025.69
413.589	1083.69
413.812	1035.69
414.035	1029.69
414.258	1036.69
414.482	1018.69
414.705	1076.69
414.928	1057.69
415.151	1089.69
415.374	1063.69
415.597	1041.69
415.821	1039.69
416.044	1061.69
416.267	1039.69
416.49	1021.69
416.713	1017.69
416.936	1031.69
417.159	1044.69
417.382	1019.69
417.605	1051.69
417.828	1061.69
418.051	1048.69
418.274	1080.69
418.497	1018.69
418.72	1090.69
418.943	1067.69
419.166	1138.69
419.389	1199.69
419.611	1202.69
419.834	1141.69
420.057	1112.69
420.28	1023.69
420.503	1017.69
420.726	1025.69
420.948	1020.69
421.171	1012.69
421.394	1028.69
421.617	1026.69
421.839	1060.69
422.062	1046.69
422.285	1019.69
422.507	1061.69
422.73	1066.69
422.953	1082.69
423.175	1060.69
423.398	1114.69
423.621	1132.69
423.843	1119.69
424.066	1131.69
424.288	1115.69
424.511	1114.69
424.733	1092.69
424.956	1083.69
425.178	1054.69
425.401	1052.69
425.623	1058.69
425.846	999.69
426.068	995.69
426.291	1003.69
426.513	1007.69
426.735	1004.69
426.958	978.69
427.18	953.69
427.402	973.69
427.625	944.69
427.847	931.69
428.069	949.69
428.292	951.69
428.514	933.69
428.736	930.69
428.958	940.69
429.181	939.69
429.403	908.69
429.625	928.69
429.847	898.69
430.069	909.69
430.292	915.69
430.514	905.69
430.736	924.69
430.958	951.69
431.18	917.69
431.402	919.69
431.624	914.69
431.846	932.69
432.068	977.69
432.29	975.69
432.512	931.69
432.734	935.69
432.956	944.69
433.178	932.69
433.4	952.69
433.622	967.69
433.844	950.69
434.066	952.69
434.287	969.69
434.509	999.69
434.731	1021.69
434.953	1060.69
435.175	1074.69
435.397	1068.69
435.618	1023.69
435.84	962.69
436.062	975.69
436.284	953.69
436.505	940.69
436.727	964.69
436.949	947.69
437.17	936.69
437.392	930.69
437.614	914.69
437.835	925.69
438.057	892.69
438.278	905.69
438.5	892.69
438.721	911.69
438.943	909.69
439.165	907.69
439.386	948.69
439.608	949.69
439.829	922.69
440.05	943.69
440.272	963.69
440.493	938.69
440.715	989.69
440.936	977.69
441.158	976.69
441.379	1036.69
441.6	1067.69
441.822	1081.69
442.043	1075.69
442.264	1045.69
442.486	1035.69
442.707	1048.69
442.928	1042.69
443.149	1050.69
443.371	1034.69
443.592	1065.69
443.813	1073.69
444.034	1095.69
444.255	1120.69
444.476	1158.69
444.698	1233.69
444.919	1299.69
445.14	1369.69
445.361	1203.69
445.582	1139.69
445.803	1051.69
446.024	1033.69
446.245	1002.69
446.466	996.69
446.687	977.69
446.908	994.69
447.129	957.69
447.35	948.69
447.571	916.69
447.792	895.69
448.013	895.69
448.234	911.69
448.455	901.69
448.675	888.69
448.896	867.69
449.117	877.69
449.338	859.69
449.559	860.69
449.779	872.69
450	839.69
450.221	855.69
450.442	847.69
450.662	857.69
450.883	886.69
451.104	891.69
451.324	895.69
451.545	901.69
451.766	901.69
451.986	869.69
452.207	888.69
452.428	895.69
452.648	860.69
452.869	846.69
453.089	855.69
453.31	881.69
453.53	811.69
453.751	855.69
453.971	854.69
454.192	871.69
454.412	841.69
454.633	823.69
454.853	834.69
455.073	848.69
455.294	818.69
455.514	832.69
455.734	811.69
455.955	793.69
456.175	801.69
456.395	816.69
456.616	818.69
456.836	828.69
457.056	783.69
457.276	801.69
457.497	826.69
457.717	820.69
457.937	823.69
458.157	831.69
458.377	876.69
458.598	868.69
458.818	882.69
459.038	905.69
459.258	913.69
459.478	972.69
459.698	1011.69
459.918	1035.69
460.138	1065.69
460.358	1124.69
460.578	1126.69
460.798	1146.69
461.018	1135.69
461.238	1122.69
461.458	1087.69
461.678	1099.69
461.898	1139.69
462.118	1146.69
462.338	1234.69
462.558	1243.69
462.777	1290.69
462.997	1407.69
463.217	1539.69
463.437	1553.69
463.657	1419.69
463.876	1341.69
464.096	1337.69
464.316	1355.69
464.536	1320.69
464.755	1257.69
464.975	1233.69
465.195	1193.69
465.414	1090.69
465.634	1063.69
465.854	1020.69
466.073	994.69
466.293	977.69
466.512	940.69
466.732	937.69
466.951	930.69
467.171	928.69
467.391	944.69
467.61	931.69
467.829	930.69
468.049	917.69
468.268	908.69
468.488	898.69
468.707	871.69
468.927	878.69
469.146	884.69
469.365	895.69
469.585	885.69
469.804	904.69
470.023	925.69
470.243	932.69
470.462	958.69
470.681	936.69
470.901	947.69
471.12	917.69
471.339	909.69
471.558	871.69
471.777	888.69
471.997	897.69
472.216	857.69
472.435	856.69
472.654	864.69
472.873	845.69
473.092	880.69
473.311	868.69
473.53	879.69
473.749	868.69
473.968	857.69
474.187	848.69
474.406	853.69
474.625	895.69
474.844	867.69
475.063	858.69
475.282	885.69
475.501	855.69
475.72	876.69
475.939	890.69
476.158	905.69
476.377	885.69
476.596	890.69
476.814	899.69
477.033	907.69
477.252	923.69
477.471	919.69
477.69	941.69
477.908	985.69
478.127	994.69
478.346	1023.69
478.564	1045.69
478.783	1062.69
479.002	1047.69
479.22	1065.69
479.439	1092.69
479.658	1064.69
479.876	1056.69
480.095	1054.69
480.313	1145.69
480.532	1188.69
480.751	1178.69
480.969	1100.69
481.188	1103.69
481.406	1059.69
481.624	1020.69
481.843	1023.69
482.061	993.69
482.28	979.69
482.498	957.69
482.717	973.69
482.935	995.69
483.153	990.69
483.372	991.69
483.59	1019.69
483.808	1001.69
484.027	1002.69
484.245	998.69
484.463	1002.69
484.681	1027.69
484.9	991.69
485.118	1017.69
485.336	1027.69
485.554	1004.69
485.772	1043.69
485.99	1051.69
486.209	1059.69
486.427	1056.69
486.645	1083.69
486.863	1047.69
487.081	1039.69
487.299	1013.69
487.517	1043.69
487.735	1042.69
487.953	1030.69
488.171	1046.69
488.389	1038.69
488.607	1031.69
488.825	1013.69
489.043	1013.69
489.261	1009.69
489.479	1011.69
489.696	1018.69
489.914	1033.69
490.132	1026.69
490.35	1035.69
490.568	1029.69
490.786	1014.69
491.003	1038.69
491.221	1041.69
491.439	1036.69
491.657	1036.69
491.874	1016.69
492.092	1023.69
492.31	1033.69
492.527	1032.69
492.745	1065.69
492.963	1087.69
493.18	1060.69
493.398	1053.69
493.615	1071.69
493.833	1085.69
494.05	1073.69
494.268	1088.69
494.485	1087.69
494.703	1108.69
494.92	1105.69
495.138	1077.69
495.355	1085.69
495.573	1097.69
495.79	1110.69
496.008	1098.69
496.225	1127.69
496.442	1116.69
496.66	1133.69
496.877	1139.69
497.094	1155.69
497.312	1204.69
497.529	1183.69
497.746	1208.69
497.963	1265.69
498.181	1292.69
498.398	1351.69
498.615	1442.69
498.832	1537.69
499.049	1626.69
499.267	1791.69
499.484	1970.69
499.701	2205.69
499.918	2411.69
500.135	2748.69
500.352	3152.69
500.569	3286.69
500.786	3336.69
501.003	3057.69
501.22	2777.69
501.437	2429.69
501.654	2137.69
501.871	1925.69
502.088	1762.69
502.305	1649.69
502.522	1557.69
502.739	1517.69
502.956	1428.69
503.172	1368.69
503.389	1302.69
503.606	1275.69
503.823	1265.69
504.04	1242.69
504.256	1228.69
504.473	1280.69
504.69	1319.69
504.907	1329.69
505.123	1205.69
505.34	1132.69
505.557	1073.69
505.773	1043.69
505.99	1046.69
506.207	1017.69
506.423	979.69
506.64	991.69
506.856	987.69
507.073	967.69
507.289	982.69
507.506	951.69
507.722	954.69
507.939	967.69
508.155	949.69
508.372	923.69
508.588	923.69
508.805	944.69
509.021	907.69
509.238	917.69
509.454	875.69
509.67	874.69
509.887	898.69
510.103	888.69
510.319	899.69
510.536	885.69
510.752	882.69
510.968	890.69
511.184	859.69
511.401	887.69
511.617	866.69
511.833	891.69
512.049	891.69
512.265	848.69
512.481	895.69
512.698	867.69
512.914	870.69
513.13	863.69
513.346	895.69
513.562	889.69
513.778	892.69
513.994	867.69
514.21	890.69
514.426	895.69
514.642	900.69
514.858	896.69
515.074	902.69
515.29	912.69
515.506	885.69
515.721	920.69
515.937	946.69
516.153	945.69
516.369	971.69
516.585	1035.69
516.801	1039.69
517.016	1065.69
517.232	1154.69
517.448	1194.69
517.664	1204.69
517.879	1238.69
518.095	1219.69
518.311	1235.69
518.527	1173.69
518.742	1112.69
518.958	1060.69
519.173	1020.69
519.389	1011.69
519.605	976.69
519.82	942.69
520.036	926.69
520.251	916.69
520.467	916.69
520.682	881.69
520.898	872.69
521.113	884.69
521.329	867.69
521.544	853.69
521.76	861.69
521.975	859.69
522.19	837.69
522.406	840.69
522.621	857.69
522.836	834.69
523.052	849.69
523.267	827.69
523.482	826.69
523.698	844.69
523.913	800.69
524.128	802.69
524.343	805.69
524.559	804.69
524.774	811.69
524.989	807.69
525.204	858.69
525.419	803.69
525.634	805.69
525.849	796.69
526.064	810.69
526.28	804.69
526.495	827.69
526.71	805.69
526.925	795.69
527.14	793.69
527.355	810.69
527.57	794.69
527.785	789.69
527.999	796.69
528.214	787.69
528.429	789.69
528.644	816.69
528.859	793.69
529.074	789.69
529.289	789.69
529.503	795.69
529.718	812.69
529.933	801.69
530.148	803.69
530.363	790.69
530.577	807.69
530.792	796.69
531.007	797.69
531.221	803.69
531.436	784.69
531.651	799.69
531.865	805.69
532.08	785.69
532.295	799.69
532.509	792.69
532.724	802.69
532.938	794.69
533.153	777.69
533.367	808.69
533.582	794.69
533.796	810.69
534.011	788.69
534.225	783.69
534.44	771.69
534.654	791.69
534.868	779.69
535.083	761.69
535.297	785.69
535.511	787.69
535.726	801.69
535.94	791.69
536.154	770.69
536.369	739.69
536.583	775.69
536.797	756.69
537.011	755.69
537.225	718.69
537.44	742.69
537.654	739.69
537.868	724.69
538.082	713.69
538.296	705.69
538.51	717.69
538.724	697.69
538.938	724.69
539.153	713.69
539.367	731.69
539.581	698.69
539.795	693.69
540.009	703.69
540.222	710.69
540.436	721.69
540.65	705.69
540.864	716.69
541.078	718.69
541.292	707.69
541.506	728.69
541.72	708.69
541.934	693.69
542.147	712.69
542.361	725.69
542.575	691.69
542.789	683.69
543.002	703.69
543.216	704.69
543.43	713.69
543.644	706.69
543.857	687.69
544.071	688.69
544.285	698.69
544.498	674.69
544.712	722.69
544.925	737.69
545.139	732.69
545.352	724.69
545.566	745.69
545.779	743.69
545.993	720.69
546.206	739.69
546.42	736.69
546.633	711.69
546.847	727.69
547.06	721.69
547.274	723.69
547.487	721.69
547.7	709.69
547.914	730.69
548.127	744.69
548.34	752.69
548.554	735.69
548.767	724.69
548.98	723.69
549.193	745.69
549.407	738.69
549.62	741.69
549.833	730.69
550.046	746.69
550.259	741.69
550.473	730.69
550.686	731.69
550.899	709.69
551.112	697.69
551.325	728.69
551.538	704.69
551.751	699.69
551.964	716.69
552.177	715.69
552.39	735.69
552.603	757.69
552.816	774.69
553.029	804.69
553.242	813.69
553.455	813.69
553.667	795.69
553.88	787.69
554.093	785.69
554.306	740.69
554.519	735.69
554.732	728.69
554.944	709.69
555.157	709.69
555.37	697.69
555.583	672.69
555.795	708.69
556.008	660.69
556.221	672.69
556.433	661.69
556.646	674.69
556.859	628.69
557.071	604.69
557.284	639.69
557.496	631.69
557.709	632.69
557.921	623.69
558.134	616.69
558.346	631.69
558.559	613.69
558.771	625.69
558.984	630.69
559.196	605.69
559.409	585.69
559.621	615.69
559.833	619.69
560.046	598.69
560.258	607.69
560.47	626.69
560.683	601.69
560.895	604.69
561.107	611.69
561.32	620.69
561.532	602.69
561.744	616.69
561.956	604.69
562.168	592.69
562.381	594.69
562.593	611.69
562.805	601.69
563.017	604.69
563.229	599.69
563.441	649.69
563.653	623.69
563.865	600.69
564.077	602.69
564.289	645.69
564.501	647.69
564.713	665.69
564.925	644.69
565.137	650.69
565.349	681.69
565.561	707.69
565.773	732.69
565.985	748.69
566.197	789.69
566.408	862.69
566.62	906.69
566.832	972.69
567.044	1004.69
567.255	987.69
567.467	1048.69
567.679	1099.69
567.891	1151.69
568.102	1198.69
568.314	1151.69
568.526	1000.69
568.737	948.69
568.949	853.69
569.161	784.69
569.372	734.69
569.584	693.69
569.795	688.69
570.007	657.69
570.218	638.69
570.43	628.69
570.641	624.69
570.853	627.69
571.064	628.69
571.276	639.69
571.487	628.69
571.698	592.69
571.91	575.69
572.121	579.69
572.333	545.69
572.544	557.69
572.755	533.69
572.966	554.69
573.178	526.69
573.389	498.69
573.6	496.69
573.811	511.69
574.023	524.69
574.234	528.69
574.445	532.69
574.656	505.69
574.867	488.69
575.078	516.69
575.289	503.69
575.501	513.69
575.712	471.69
575.923	520.69
576.134	469.69
576.345	473.69
576.556	478.69
576.767	460.69
576.978	473.69
577.188	459.69
577.399	473.69
577.61	460.69
577.821	479.69
578.032	459.69
578.243	465.69
578.454	473.69
578.665	457.69
578.875	456.69
579.086	483.69
579.297	477.69
579.508	454.69
579.718	447.69
579.929	460.69
580.14	445.69
580.35	468.69
580.561	456.69
580.772	444.69
580.982	443.69
581.193	420.69
581.403	428.69
581.614	452.69
581.825	446.69
582.035	447.69
582.246	432.69
582.456	428.69
582.667	441.69
582.877	403.69
583.087	424.69
583.298	429.69
583.508	440.69
583.719	412.69
583.929	411.69
584.139	434.69
584.35	410.69
584.56	427.69
584.77	408.69
584.981	424.69
585.191	407.69
585.401	416.69
585.611	414.69
585.821	428.69
586.032	414.69
586.242	401.69
586.452	407.69
586.662	404.69
586.872	404.69
587.082	429.69
587.292	414.69
587.502	421.69
587.713	403.69
587.923	392.69
588.133	415.69
588.343	419.69
588.553	412.69
588.762	412.69
588.972	391.69
589.182	418.69
589.392	428.69
589.602	429.69
589.812	404.69
590.022	424.69
590.232	394.69
590.441	404.69
590.651	434.69
590.861	407.69
591.071	420.69
591.281	426.69
591.49	440.69
591.7	442.69
591.91	450.69
592.119	452.69
592.329	443.69
592.539	468.69
592.748	479.69
592.958	489.69
593.167	496.69
593.377	519.69
593.587	536.69
593.796	535.69
594.006	530.69
594.215	531.69
594.424	565.69
594.634	526.69
594.843	535.69
595.053	488.69
595.262	455.69
595.472	455.69
595.681	459.69
595.89	419.69
596.1	426.69
596.309	421.69
596.518	392.69
596.727	403.69
596.937	387.69
597.146	388.69
597.355	371.69
597.564	377.69
597.774	379.69
597.983	356.69
598.192	367.69
598.401	355.69
598.61	374.69
598.819	365.69
599.028	365.69
599.237	346.69
599.446	358.69
599.655	351.69
599.864	350.69
600.073	337.69
600.282	343.69
600.491	356.69
600.7	372.69
600.909	357.69
601.118	373.69
601.327	338.69
601.536	344.69
601.745	340.69
601.953	342.69
602.162	354.69
602.371	336.69
602.58	330.69
602.789	339.69
602.997	333.69
603.206	349.69
603.415	317.69
603.623	336.69
603.832	331.69
604.041	321.69
604.249	332.69
604.458	332.69
604.666	334.69
604.875	336.69
605.084	312.69
605.292	315.69
605.501	338.69
605.709	332.69
605.918	308.69
606.126	313.69
606.334	311.69
606.543	321.69
606.751	321.69
606.96	316.69
607.168	324.69
607.376	308.69
607.585	312.69
607.793	321.69
608.001	329.69
608.21	305.69
608.418	329.69
608.626	310.69
608.834	321.69
609.043	299.69
609.251	311.69
609.459	324.69
609.667	319.69
609.875	316.69
610.083	330.69
610.291	317.69
610.499	308.69
610.707	291.69
610.916	296.69
611.124	319.69
611.332	324.69
611.54	307.69
611.748	326.69
611.955	338.69
612.163	309.69
612.371	321.69
612.579	327.69
612.787	319.69
612.995	306.69
613.203	304.69
613.411	296.69
613.618	302.69
613.826	297.69
614.034	295.69
614.242	313.69
614.449	299.69
614.657	306.69
614.865	297.69
615.072	287.69
615.28	301.69
615.488	309.69
615.695	315.69
615.903	313.69
616.111	306.69
616.318	316.69
616.526	296.69
616.733	315.69
616.941	303.69
617.148	297.69
617.356	298.69
617.563	309.69
617.771	283.69
617.978	285.69
618.185	303.69
618.393	313.69
618.6	295.69
618.807	290.69
619.015	309.69
619.222	299.69
619.429	287.69
619.637	299.69
619.844	280.69
620.051	299.69
620.258	288.69
620.466	280.69
620.673	295.69
620.88	276.69
621.087	277.69
621.294	279.69
621.501	300.69
621.708	267.69
621.915	275.69
622.122	297.69
622.329	287.69
622.536	276.69
622.743	265.69
622.95	288.69
623.157	272.69
623.364	262.69
623.571	287.69
623.778	282.69
623.985	269.69
624.192	270.69
624.399	257.69
624.606	240.69
624.812	269.69
625.019	265.69
625.226	280.69
625.433	269.69
625.639	271.69
625.846	258.69
626.053	251.69
626.259	273.69
626.466	268.69
626.673	261.69
626.879	264.69
627.086	249.69
627.293	259.69
627.499	265.69
627.706	268.69
627.912	263.69
628.119	248.69
628.325	227.69
628.532	242.69
628.738	240.69
628.945	236.69
629.151	255.69
629.357	248.69
629.564	257.69
629.77	246.69
629.976	251.69
630.183	238.69
630.389	247.69
630.595	229.69
630.802	244.69
631.008	258.69
631.214	221.69
631.42	245.69
631.627	231.69
631.833	236.69
632.039	219.69
632.245	250.69
632.451	210.69
632.657	222.69
632.863	233.69
633.069	228.69
633.275	227.69
633.481	224.69
633.688	211.69
633.893	242.69
634.099	229.69
634.305	232.69
634.511	228.69
634.717	236.69
634.923	194.69
635.129	216.69
635.335	233.69
635.541	232.69
635.747	213.69
635.952	209.69
636.158	217.69
636.364	214.69
636.57	218.69
636.775	224.69
636.981	242.69
637.187	226.69
637.392	221.69
637.598	232.69
637.804	219.69
638.009	219.69
638.215	213.69
638.421	220.69
638.626	211.69
638.832	206.69
639.037	214.69
639.243	210.69
639.448	219.69
639.654	221.69
639.859	226.69
640.065	212.69
640.27	209.69
640.475	206.69
640.681	200.69
640.886	214.69
641.091	214.69
641.297	208.69
641.502	208.69
641.707	214.69
641.913	200.69
642.118	209.69
642.323	203.69
642.528	195.69
642.733	220.69
642.939	193.69
643.144	205.69
643.349	192.69
643.554	219.69
643.759	197.69
643.964	204.69
644.169	205.69
644.374	192.69
644.579	202.69
644.784	195.69
644.989	201.69
645.194	199.69
645.399	208.69
645.604	197.69
645.809	200.69
646.014	198.69
646.219	203.69
646.423	196.69
646.628	204.69
646.833	199.69
647.038	208.69
647.243	199.69
647.447	200.69
647.652	218.69
647.857	191.69
648.062	205.69
648.266	211.69
648.471	209.69
648.676	216.69
648.88	199.69
649.085	203.69
649.289	204.69
649.494	202.69
649.698	206.69
649.903	205.69
650.107	205.69
650.312	206.69
650.516	199.69
650.721	201.69
650.925	201.69
651.13	200.69
651.334	186.69
651.539	184.69
651.743	195.69
651.947	175.69
652.152	185.69
652.356	190.69
652.56	167.69
652.764	170.69
652.969	163.69
653.173	168.69
653.377	165.69
653.581	182.69
653.785	176.69
653.99	154.69
654.194	176.69
654.398	156.69
654.602	158.69
654.806	164.69
655.01	159.69
655.214	151.69
655.418	171.69
655.622	156.69
655.826	151.69
656.03	161.69
656.234	152.69
656.438	153.69
656.642	148.69
656.846	152.69
657.049	160.69
657.253	158.69
657.457	141.69
657.661	155.69
657.865	122.69
658.068	123.69
658.272	127.69
658.476	115.69
658.68	124.69
658.883	103.69
659.087	125.69
659.291	127.69
659.494	109.69
659.698	111.69
659.901	100.69
660.105	95.69
660.309	105.69
660.512	101.69
660.716	104.69
660.919	86.69
661.123	97.69
661.326	96.69
661.53	94.69
661.733	115.69
661.936	96.69
662.14	83.69
662.343	90.69
662.546	96.69
662.75	84.69
662.953	81.69
663.156	97.69
663.36	89.69
663.563	83.69
663.766	87.69
663.969	85.69
664.173	79.69
664.376	80.69
664.579	72.69
664.782	85.69
664.985	96.69
665.188	91.69
665.391	85.69
665.594	94.69
665.797	69.69
666	90.69
666.203	76.69
666.406	93.69
666.609	84.69
666.812	90.69
667.015	84.69
667.218	83.69
667.421	93.69
667.624	83.69
667.827	78.69
668.03	86.69
668.232	77.69
668.435	83.69
668.638	70.69
668.841	80.69
669.043	84.69
669.246	82.69
669.449	76.69
669.651	74.69
669.854	89.69
670.057	86.69
670.259	77.69
670.462	76.69
670.665	77.69
670.867	87.69
671.07	85.69
671.272	87.69
671.475	76.69
671.677	88.69
671.88	80.69
672.082	89.69
672.284	77.69
672.487	74.69
672.689	80.69
672.892	75.69
