Data from NiCl2@0.0625M.TitratingCurve.Agarose3%dH2O.NegLispCup.LampEnergy10.LIBS07252019_HRD10591_18-32-56-576.txt Node
Date: Thu Jul 25 18:32:56 EDT 2019
User: cochatt
Spectrometer: HR+D1059
Trigger mode: 1
Integration Time (sec): 1.000000E-1
Scans to average: 1
Electric dark correction enabled: true
Nonlinearity correction enabled: false
Boxcar width: 0
XAxis mode: Wavelengths
Number of Pixels in Spectrum: 2048
>>>>>Begin Spectral Data<<<<<
223.165	-3.75
223.4	-3.75
223.635	-3.75
223.869	-13.75
224.104	-10.75
224.338	-22.75
224.573	-11.75
224.808	-22.75
225.042	-10.75
225.277	0.25
225.511	-6.75
225.746	5.25
225.98	-9.75
226.215	5.25
226.449	17.25
226.683	31.25
226.918	28.25
227.152	25.25
227.387	33.25
227.621	30.25
227.856	41.25
228.09	58.25
228.324	55.25
228.559	69.25
228.793	77.25
229.027	129.25
229.262	144.25
229.496	155.25
229.73	173.25
229.964	163.25
230.199	162.25
230.433	176.25
230.667	160.25
230.901	173.25
231.136	177.25
231.37	165.25
231.604	173.25
231.838	185.25
232.072	196.25
232.306	203.25
232.541	184.25
232.775	197.25
233.009	198.25
233.243	201.25
233.477	203.25
233.711	198.25
233.945	209.25
234.179	213.25
234.413	203.25
234.647	207.25
234.881	207.25
235.115	215.25
235.349	219.25
235.583	218.25
235.817	217.25
236.051	223.25
236.285	211.25
236.519	232.25
236.753	224.25
236.987	221.25
237.221	229.25
237.455	231.25
237.689	220.25
237.922	212.25
238.156	228.25
238.39	239.25
238.624	264.25
238.858	248.25
239.091	250.25
239.325	250.25
239.559	246.25
239.793	272.25
240.027	271.25
240.26	249.25
240.494	285.25
240.728	259.25
240.961	271.25
241.195	281.25
241.429	272.25
241.662	274.25
241.896	294.25
242.13	303.25
242.363	296.25
242.597	289.25
242.83	280.25
243.064	309.25
243.298	304.25
243.531	311.25
243.765	325.25
243.998	320.25
244.232	313.25
244.465	318.25
244.699	322.25
244.932	325.25
245.166	325.25
245.399	344.25
245.633	327.25
245.866	334.25
246.099	334.25
246.333	338.25
246.566	337.25
246.8	339.25
247.033	350.25
247.266	348.25
247.5	344.25
247.733	352.25
247.966	357.25
248.2	382.25
248.433	375.25
248.666	363.25
248.899	373.25
249.133	364.25
249.366	363.25
249.599	373.25
249.832	394.25
250.066	381.25
250.299	393.25
250.532	389.25
250.765	376.25
250.998	406.25
251.231	414.25
251.465	418.25
251.698	415.25
251.931	426.25
252.164	424.25
252.397	423.25
252.63	419.25
252.863	426.25
253.096	409.25
253.329	425.25
253.562	409.25
253.795	409.25
254.028	427.25
254.261	440.25
254.494	455.25
254.727	418.25
254.96	446.25
255.193	452.25
255.426	462.25
255.659	451.25
255.892	463.25
256.124	464.25
256.357	465.25
256.59	461.25
256.823	466.25
257.056	439.25
257.289	468.25
257.521	465.25
257.754	473.25
257.987	465.25
258.22	487.25
258.452	466.25
258.685	490.25
258.918	485.25
259.151	509.25
259.383	499.25
259.616	462.25
259.849	480.25
260.081	497.25
260.314	508.25
260.547	504.25
260.779	496.25
261.012	511.25
261.244	536.25
261.477	516.25
261.71	545.25
261.942	512.25
262.175	529.25
262.407	529.25
262.64	509.25
262.872	531.25
263.105	536.25
263.337	518.25
263.57	537.25
263.802	543.25
264.035	551.25
264.267	542.25
264.499	515.25
264.732	562.25
264.964	549.25
265.197	568.25
265.429	530.25
265.661	548.25
265.894	583.25
266.126	582.25
266.358	591.25
266.591	576.25
266.823	578.25
267.055	580.25
267.287	569.25
267.52	578.25
267.752	570.25
267.984	577.25
268.216	573.25
268.448	593.25
268.681	594.25
268.913	596.25
269.145	563.25
269.377	605.25
269.609	596.25
269.841	596.25
270.073	601.25
270.306	611.25
270.538	620.25
270.77	594.25
271.002	612.25
271.234	626.25
271.466	629.25
271.698	626.25
271.93	625.25
272.162	625.25
272.394	628.25
272.626	659.25
272.858	657.25
273.09	660.25
273.322	652.25
273.553	651.25
273.785	648.25
274.017	626.25
274.249	665.25
274.481	671.25
274.713	651.25
274.945	692.25
275.176	665.25
275.408	679.25
275.64	671.25
275.872	676.25
276.104	680.25
276.335	670.25
276.567	677.25
276.799	668.25
277.031	698.25
277.262	687.25
277.494	697.25
277.726	704.25
277.957	709.25
278.189	716.25
278.421	711.25
278.652	717.25
278.884	713.25
279.115	734.25
279.347	764.25
279.579	731.25
279.81	737.25
280.042	725.25
280.273	736.25
280.505	746.25
280.736	754.25
280.968	739.25
281.199	775.25
281.431	773.25
281.662	755.25
281.894	756.25
282.125	737.25
282.356	776.25
282.588	773.25
282.819	776.25
283.051	767.25
283.282	791.25
283.513	782.25
283.745	782.25
283.976	782.25
284.207	779.25
284.439	775.25
284.67	826.25
284.901	797.25
285.132	809.25
285.364	781.25
285.595	794.25
285.826	771.25
286.057	807.25
286.288	787.25
286.52	822.25
286.751	809.25
286.982	813.25
287.213	820.25
287.444	836.25
287.675	816.25
287.906	829.25
288.138	841.25
288.369	815.25
288.6	855.25
288.831	860.25
289.062	841.25
289.293	855.25
289.524	841.25
289.755	852.25
289.986	860.25
290.217	855.25
290.448	857.25
290.679	868.25
290.91	855.25
291.141	857.25
291.371	831.25
291.602	868.25
291.833	865.25
292.064	868.25
292.295	865.25
292.526	862.25
292.757	850.25
292.987	850.25
293.218	875.25
293.449	888.25
293.68	878.25
293.91	855.25
294.141	869.25
294.372	859.25
294.603	862.25
294.833	875.25
295.064	895.25
295.295	860.25
295.525	856.25
295.756	879.25
295.987	888.25
296.217	915.25
296.448	895.25
296.679	887.25
296.909	906.25
297.14	924.25
297.37	931.25
297.601	927.25
297.831	931.25
298.062	912.25
298.292	935.25
298.523	944.25
298.753	938.25
298.984	928.25
299.214	896.25
299.445	916.25
299.675	927.25
299.905	931.25
300.136	929.25
300.366	954.25
300.597	927.25
300.827	974.25
301.057	965.25
301.288	988.25
301.518	979.25
301.748	973.25
301.979	984.25
302.209	994.25
302.439	979.25
302.669	983.25
302.9	1008.25
303.13	973.25
303.36	984.25
303.59	980.25
303.82	1005.25
304.051	1025.25
304.281	1026.25
304.511	996.25
304.741	983.25
304.971	989.25
305.201	1015.25
305.431	979.25
305.661	969.25
305.891	965.25
306.121	967.25
306.352	973.25
306.582	957.25
306.812	976.25
307.042	994.25
307.272	967.25
307.502	980.25
307.731	934.25
307.961	979.25
308.191	964.25
308.421	969.25
308.651	971.25
308.881	958.25
309.111	961.25
309.341	960.25
309.571	991.25
309.8	983.25
310.03	976.25
310.26	993.25
310.49	997.25
310.72	980.25
310.949	962.25
311.179	976.25
311.409	983.25
311.639	1019.25
311.868	1005.25
312.098	1026.25
312.328	1016.25
312.557	1016.25
312.787	1031.25
313.017	1030.25
313.246	999.25
313.476	1029.25
313.706	1047.25
313.935	1056.25
314.165	1082.25
314.394	1060.25
314.624	1050.25
314.853	996.25
315.083	1071.25
315.312	1049.25
315.542	1040.25
315.771	1035.25
316.001	1045.25
316.23	1060.25
316.46	1050.25
316.689	1078.25
316.919	1053.25
317.148	1059.25
317.377	1015.25
317.607	1045.25
317.836	1024.25
318.065	1045.25
318.295	1043.25
318.524	1028.25
318.753	1048.25
318.983	1028.25
319.212	1050.25
319.441	1028.25
319.67	1045.25
319.9	1021.25
320.129	1033.25
320.358	1042.25
320.587	1036.25
320.816	1048.25
321.046	1023.25
321.275	1079.25
321.504	1068.25
321.733	1071.25
321.962	1059.25
322.191	1079.25
322.42	1075.25
322.649	1064.25
322.878	1071.25
323.108	1098.25
323.337	1061.25
323.566	1047.25
323.795	1113.25
324.024	1077.25
324.253	1092.25
324.482	1092.25
324.71	1101.25
324.939	1107.25
325.168	1117.25
325.397	1082.25
325.626	1126.25
325.855	1099.25
326.084	1129.25
326.313	1119.25
326.542	1130.25
326.77	1144.25
326.999	1152.25
327.228	1127.25
327.457	1137.25
327.686	1125.25
327.914	1132.25
328.143	1114.25
328.372	1142.25
328.6	1119.25
328.829	1133.25
329.058	1130.25
329.287	1183.25
329.515	1148.25
329.744	1164.25
329.972	1158.25
330.201	1163.25
330.43	1167.25
330.658	1145.25
330.887	1184.25
331.115	1155.25
331.344	1187.25
331.572	1192.25
331.801	1210.25
332.03	1240.25
332.258	1260.25
332.486	1305.25
332.715	1301.25
332.943	1345.25
333.172	1381.25
333.4	1417.25
333.629	1461.25
333.857	1465.25
334.085	1462.25
334.314	1442.25
334.542	1408.25
334.771	1367.25
334.999	1393.25
335.227	1429.25
335.455	1420.25
335.684	1373.25
335.912	1382.25
336.14	1350.25
336.369	1380.25
336.597	1341.25
336.825	1359.25
337.053	1376.25
337.281	1340.25
337.51	1324.25
337.738	1319.25
337.966	1264.25
338.194	1282.25
338.422	1236.25
338.65	1236.25
338.878	1226.25
339.106	1267.25
339.334	1268.25
339.562	1248.25
339.79	1190.25
340.018	1177.25
340.246	1199.25
340.474	1225.25
340.702	1216.25
340.93	1219.25
341.158	1235.25
341.386	1217.25
341.614	1207.25
341.842	1175.25
342.07	1200.25
342.298	1205.25
342.526	1199.25
342.754	1182.25
342.981	1230.25
343.209	1200.25
343.437	1262.25
343.665	1330.25
343.893	1411.25
344.12	1432.25
344.348	1386.25
344.576	1363.25
344.804	1309.25
345.031	1241.25
345.259	1222.25
345.487	1203.25
345.714	1201.25
345.942	1178.25
346.17	1167.25
346.397	1175.25
346.625	1167.25
346.853	1175.25
347.08	1122.25
347.308	1126.25
347.535	1156.25
347.763	1155.25
347.99	1151.25
348.218	1128.25
348.445	1120.25
348.673	1129.25
348.9	1155.25
349.128	1155.25
349.355	1147.25
349.583	1140.25
349.81	1139.25
350.037	1117.25
350.265	1114.25
350.492	1123.25
350.72	1100.25
350.947	1127.25
351.174	1120.25
351.402	1105.25
351.629	1121.25
351.856	1143.25
352.083	1097.25
352.311	1087.25
352.538	1121.25
352.765	1120.25
352.992	1104.25
353.22	1081.25
353.447	1075.25
353.674	1095.25
353.901	1088.25
354.128	1107.25
354.355	1075.25
354.583	1101.25
354.81	1079.25
355.037	1113.25
355.264	1121.25
355.491	1106.25
355.718	1119.25
355.945	1089.25
356.172	1108.25
356.399	1101.25
356.626	1081.25
356.853	1150.25
357.08	1157.25
357.307	1121.25
357.534	1127.25
357.761	1120.25
357.988	1101.25
358.215	1116.25
358.441	1117.25
358.668	1107.25
358.895	1083.25
359.122	1127.25
359.349	1155.25
359.576	1135.25
359.802	1094.25
360.029	1092.25
360.256	1111.25
360.483	1114.25
360.709	1133.25
360.936	1100.25
361.163	1101.25
361.39	1107.25
361.616	1107.25
361.843	1103.25
362.07	1102.25
362.296	1114.25
362.523	1109.25
362.749	1143.25
362.976	1105.25
363.203	1124.25
363.429	1080.25
363.656	1127.25
363.882	1128.25
364.109	1083.25
364.335	1148.25
364.562	1104.25
364.788	1109.25
365.015	1085.25
365.241	1109.25
365.468	1080.25
365.694	1101.25
365.92	1085.25
366.147	1149.25
366.373	1113.25
366.599	1090.25
366.826	1115.25
367.052	1112.25
367.278	1123.25
367.505	1114.25
367.731	1156.25
367.957	1115.25
368.184	1134.25
368.41	1113.25
368.636	1138.25
368.862	1107.25
369.089	1147.25
369.315	1172.25
369.541	1161.25
369.767	1161.25
369.993	1145.25
370.219	1174.25
370.445	1160.25
370.672	1175.25
370.898	1183.25
371.124	1204.25
371.35	1203.25
371.576	1212.25
371.802	1228.25
372.028	1203.25
372.254	1215.25
372.48	1220.25
372.706	1225.25
372.932	1249.25
373.158	1220.25
373.384	1228.25
373.61	1219.25
373.835	1217.25
374.061	1218.25
374.287	1258.25
374.513	1223.25
374.739	1246.25
374.965	1294.25
375.191	1311.25
375.416	1315.25
375.642	1293.25
375.868	1287.25
376.094	1265.25
376.319	1203.25
376.545	1213.25
376.771	1210.25
376.997	1204.25
377.222	1211.25
377.448	1217.25
377.674	1236.25
377.899	1212.25
378.125	1203.25
378.35	1183.25
378.576	1192.25
378.802	1171.25
379.027	1192.25
379.253	1195.25
379.478	1194.25
379.704	1188.25
379.929	1196.25
380.155	1187.25
380.38	1199.25
380.606	1223.25
380.831	1200.25
381.057	1184.25
381.282	1179.25
381.507	1227.25
381.733	1201.25
381.958	1205.25
382.184	1222.25
382.409	1271.25
382.634	1235.25
382.86	1244.25
383.085	1283.25
383.31	1291.25
383.535	1299.25
383.761	1277.25
383.986	1332.25
384.211	1365.25
384.436	1370.25
384.662	1363.25
384.887	1430.25
385.112	1393.25
385.337	1448.25
385.562	1433.25
385.787	1433.25
386.013	1434.25
386.238	1453.25
386.463	1456.25
386.688	1465.25
386.913	1426.25
387.138	1413.25
387.363	1458.25
387.588	1403.25
387.813	1431.25
388.038	1393.25
388.263	1442.25
388.488	1440.25
388.713	1452.25
388.938	1387.25
389.163	1391.25
389.387	1441.25
389.612	1409.25
389.837	1419.25
390.062	1436.25
390.287	1412.25
390.512	1417.25
390.736	1423.25
390.961	1478.25
391.186	1471.25
391.411	1515.25
391.636	1533.25
391.86	1585.25
392.085	1617.25
392.31	1591.25
392.534	1558.25
392.759	1559.25
392.984	1526.25
393.208	1530.25
393.433	1559.25
393.658	1589.25
393.882	1517.25
394.107	1497.25
394.331	1542.25
394.556	1556.25
394.78	1517.25
395.005	1575.25
395.229	1567.25
395.454	1583.25
395.678	1599.25
395.903	1565.25
396.127	1619.25
396.352	1544.25
396.576	1527.25
396.801	1575.25
397.025	1583.25
397.249	1631.25
397.474	1594.25
397.698	1613.25
397.922	1636.25
398.147	1627.25
398.371	1661.25
398.595	1731.25
398.82	1761.25
399.044	1869.25
399.268	2037.25
399.492	2227.25
399.717	2445.25
399.941	2470.25
400.165	2300.25
400.389	2107.25
400.613	2004.25
400.837	1883.25
401.062	1839.25
401.286	1817.25
401.51	1817.25
401.734	1761.25
401.958	1786.25
402.182	1806.25
402.406	1781.25
402.63	1807.25
402.854	1864.25
403.078	1832.25
403.302	1875.25
403.526	1848.25
403.75	1857.25
403.974	1956.25
404.198	1953.25
404.422	1960.25
404.645	1947.25
404.869	1934.25
405.093	1928.25
405.317	1915.25
405.541	1918.25
405.765	1908.25
405.988	1927.25
406.212	1949.25
406.436	1923.25
406.66	1977.25
406.883	2004.25
407.107	2115.25
407.331	2166.25
407.555	2242.25
407.778	2243.25
408.002	2162.25
408.226	2115.25
408.449	2112.25
408.673	2069.25
408.896	1996.25
409.12	1988.25
409.344	2010.25
409.567	1966.25
409.791	1996.25
410.014	1975.25
410.238	1944.25
410.461	1962.25
410.685	1957.25
410.908	1907.25
411.132	1899.25
411.355	1841.25
411.578	1823.25
411.802	1854.25
412.025	1910.25
412.249	1896.25
412.472	1861.25
412.695	1819.25
412.919	1809.25
413.142	1818.25
413.365	1826.25
413.589	1799.25
413.812	1773.25
414.035	1775.25
414.258	1768.25
414.482	1791.25
414.705	1803.25
414.928	1763.25
415.151	1789.25
415.374	1785.25
415.597	1766.25
415.821	1733.25
416.044	1711.25
416.267	1729.25
416.49	1683.25
416.713	1704.25
416.936	1714.25
417.159	1716.25
417.382	1720.25
417.605	1689.25
417.828	1694.25
418.051	1737.25
418.274	1724.25
418.497	1721.25
418.72	1744.25
418.943	1709.25
419.166	1870.25
419.389	1985.25
419.611	1947.25
419.834	1853.25
420.057	1792.25
420.28	1735.25
420.503	1686.25
420.726	1655.25
420.948	1650.25
421.171	1675.25
421.394	1719.25
421.617	1716.25
421.839	1693.25
422.062	1713.25
422.285	1732.25
422.507	1766.25
422.73	1737.25
422.953	1738.25
423.175	1751.25
423.398	1749.25
423.621	1706.25
423.843	1759.25
424.066	1813.25
424.288	1757.25
424.511	1740.25
424.733	1709.25
424.956	1711.25
425.178	1735.25
425.401	1709.25
425.623	1735.25
425.846	1681.25
426.068	1648.25
426.291	1679.25
426.513	1676.25
426.735	1645.25
426.958	1648.25
427.18	1601.25
427.402	1627.25
427.625	1618.25
427.847	1566.25
428.069	1574.25
428.292	1593.25
428.514	1544.25
428.736	1555.25
428.958	1541.25
429.181	1537.25
429.403	1516.25
429.625	1532.25
429.847	1536.25
430.069	1505.25
430.292	1535.25
430.514	1554.25
430.736	1573.25
430.958	1548.25
431.18	1557.25
431.402	1581.25
431.624	1525.25
431.846	1555.25
432.068	1572.25
432.29	1599.25
432.512	1588.25
432.734	1595.25
432.956	1565.25
433.178	1571.25
433.4	1599.25
433.622	1597.25
433.844	1635.25
434.066	1623.25
434.287	1638.25
434.509	1662.25
434.731	1656.25
434.953	1717.25
435.175	1727.25
435.397	1724.25
435.618	1672.25
435.84	1628.25
436.062	1567.25
436.284	1609.25
436.505	1577.25
436.727	1600.25
436.949	1564.25
437.17	1562.25
437.392	1548.25
437.614	1563.25
437.835	1488.25
438.057	1511.25
438.278	1450.25
438.5	1489.25
438.721	1480.25
438.943	1501.25
439.165	1493.25
439.386	1482.25
439.608	1550.25
439.829	1535.25
440.05	1519.25
440.272	1540.25
440.493	1554.25
440.715	1564.25
440.936	1603.25
441.158	1634.25
441.379	1671.25
441.6	1655.25
441.822	1715.25
442.043	1713.25
442.264	1689.25
442.486	1660.25
442.707	1655.25
442.928	1638.25
443.149	1661.25
443.371	1647.25
443.592	1653.25
443.813	1676.25
444.034	1685.25
444.255	1771.25
444.476	1845.25
444.698	1893.25
444.919	1943.25
445.14	2025.25
445.361	1860.25
445.582	1778.25
445.803	1665.25
446.024	1607.25
446.245	1606.25
446.466	1590.25
446.687	1544.25
446.908	1546.25
447.129	1492.25
447.35	1484.25
447.571	1502.25
447.792	1462.25
448.013	1483.25
448.234	1444.25
448.455	1439.25
448.675	1419.25
448.896	1427.25
449.117	1357.25
449.338	1384.25
449.559	1376.25
449.779	1357.25
450	1387.25
450.221	1381.25
450.442	1400.25
450.662	1387.25
450.883	1435.25
451.104	1422.25
451.324	1407.25
451.545	1374.25
451.766	1373.25
451.986	1341.25
452.207	1350.25
452.428	1400.25
452.648	1389.25
452.869	1362.25
453.089	1341.25
453.31	1359.25
453.53	1350.25
453.751	1329.25
453.971	1339.25
454.192	1347.25
454.412	1346.25
454.633	1301.25
454.853	1344.25
455.073	1316.25
455.294	1291.25
455.514	1316.25
455.734	1327.25
455.955	1255.25
456.175	1327.25
456.395	1288.25
456.616	1268.25
456.836	1335.25
457.056	1327.25
457.276	1311.25
457.497	1362.25
457.717	1330.25
457.937	1319.25
458.157	1352.25
458.377	1386.25
458.598	1411.25
458.818	1409.25
459.038	1456.25
459.258	1485.25
459.478	1542.25
459.698	1583.25
459.918	1603.25
460.138	1666.25
460.358	1715.25
460.578	1727.25
460.798	1724.25
461.018	1801.25
461.238	1754.25
461.458	1766.25
461.678	1719.25
461.898	1774.25
462.118	1809.25
462.338	1815.25
462.558	1898.25
462.777	1985.25
462.997	2079.25
463.217	2271.25
463.437	2264.25
463.657	2091.25
463.876	2037.25
464.096	2028.25
464.316	2018.25
464.536	2000.25
464.755	1972.25
464.975	1925.25
465.195	1823.25
465.414	1752.25
465.634	1631.25
465.854	1585.25
466.073	1519.25
466.293	1524.25
466.512	1531.25
466.732	1476.25
466.951	1507.25
467.171	1479.25
467.391	1486.25
467.61	1470.25
467.829	1445.25
468.049	1441.25
468.268	1407.25
468.488	1444.25
468.707	1437.25
468.927	1442.25
469.146	1424.25
469.365	1441.25
469.585	1432.25
469.804	1475.25
470.023	1491.25
470.243	1488.25
470.462	1511.25
470.681	1504.25
470.901	1537.25
471.12	1513.25
471.339	1500.25
471.558	1481.25
471.777	1468.25
471.997	1439.25
472.216	1451.25
472.435	1404.25
472.654	1420.25
472.873	1390.25
473.092	1410.25
473.311	1397.25
473.53	1437.25
473.749	1429.25
473.968	1422.25
474.187	1408.25
474.406	1376.25
474.625	1387.25
474.844	1410.25
475.063	1405.25
475.282	1419.25
475.501	1445.25
475.72	1462.25
475.939	1466.25
476.158	1479.25
476.377	1477.25
476.596	1495.25
476.814	1447.25
477.033	1507.25
477.252	1536.25
477.471	1567.25
477.69	1586.25
477.908	1645.25
478.127	1670.25
478.346	1679.25
478.564	1707.25
478.783	1705.25
479.002	1739.25
479.22	1727.25
479.439	1751.25
479.658	1744.25
479.876	1776.25
480.095	1758.25
480.313	1851.25
480.532	1853.25
480.751	1886.25
480.969	1836.25
481.188	1780.25
481.406	1761.25
481.624	1747.25
481.843	1713.25
482.061	1703.25
482.28	1706.25
482.498	1718.25
482.717	1677.25
482.935	1709.25
483.153	1711.25
483.372	1690.25
483.59	1734.25
483.808	1744.25
484.027	1732.25
484.245	1783.25
484.463	1765.25
484.681	1781.25
484.9	1789.25
485.118	1772.25
485.336	1747.25
485.554	1810.25
485.772	1856.25
485.99	1819.25
486.209	1825.25
486.427	1809.25
486.645	1812.25
486.863	1792.25
487.081	1811.25
487.299	1805.25
487.517	1794.25
487.735	1791.25
487.953	1775.25
488.171	1800.25
488.389	1802.25
488.607	1748.25
488.825	1738.25
489.043	1744.25
489.261	1789.25
489.479	1768.25
489.696	1778.25
489.914	1753.25
490.132	1750.25
490.35	1757.25
490.568	1801.25
490.786	1785.25
491.003	1788.25
491.221	1750.25
491.439	1751.25
491.657	1790.25
491.874	1757.25
492.092	1740.25
492.31	1779.25
492.527	1757.25
492.745	1748.25
492.963	1757.25
493.18	1788.25
493.398	1799.25
493.615	1748.25
493.833	1777.25
494.05	1795.25
494.268	1819.25
494.485	1775.25
494.703	1790.25
494.92	1861.25
495.138	1805.25
495.355	1804.25
495.573	1800.25
495.79	1847.25
496.008	1895.25
496.225	1876.25
496.442	1868.25
496.66	1875.25
496.877	1922.25
497.094	1929.25
497.312	2028.25
497.529	1997.25
497.746	2003.25
497.963	2110.25
498.181	2214.25
498.398	2232.25
498.615	2398.25
498.832	2492.25
499.049	2669.25
499.267	2890.25
499.484	3110.25
499.701	3313.25
499.918	3611.25
500.135	4019.25
500.352	4363.25
500.569	4524.25
500.786	4506.25
501.003	4210.25
501.22	3883.25
501.437	3524.25
501.654	3265.25
501.871	3048.25
502.088	2789.25
502.305	2629.25
502.522	2496.25
502.739	2371.25
502.956	2323.25
503.172	2214.25
503.389	2135.25
503.606	2075.25
503.823	2057.25
504.04	2011.25
504.256	2044.25
504.473	2032.25
504.69	1995.25
504.907	2017.25
505.123	1933.25
505.34	1833.25
505.557	1782.25
505.773	1728.25
505.99	1723.25
506.207	1659.25
506.423	1639.25
506.64	1624.25
506.856	1590.25
507.073	1624.25
507.289	1565.25
507.506	1567.25
507.722	1563.25
507.939	1559.25
508.155	1524.25
508.372	1537.25
508.588	1479.25
508.805	1473.25
509.021	1498.25
509.238	1430.25
509.454	1453.25
509.67	1428.25
509.887	1450.25
510.103	1436.25
510.319	1407.25
510.536	1435.25
510.752	1408.25
510.968	1408.25
511.184	1408.25
511.401	1432.25
511.617	1411.25
511.833	1403.25
512.049	1358.25
512.265	1407.25
512.481	1419.25
512.698	1400.25
512.914	1387.25
513.13	1384.25
513.346	1368.25
513.562	1398.25
513.778	1403.25
513.994	1443.25
514.21	1422.25
514.426	1442.25
514.642	1409.25
514.858	1472.25
515.074	1490.25
515.29	1444.25
515.506	1449.25
515.721	1452.25
515.937	1505.25
516.153	1535.25
516.369	1547.25
516.585	1631.25
516.801	1655.25
517.016	1671.25
517.232	1739.25
517.448	1818.25
517.664	1823.25
517.879	1833.25
518.095	1816.25
518.311	1814.25
518.527	1720.25
518.742	1683.25
518.958	1647.25
519.173	1610.25
519.389	1584.25
519.605	1547.25
519.82	1469.25
520.036	1428.25
520.251	1478.25
520.467	1414.25
520.682	1422.25
520.898	1417.25
521.113	1405.25
521.329	1392.25
521.544	1367.25
521.76	1360.25
521.975	1374.25
522.19	1334.25
522.406	1323.25
522.621	1335.25
522.836	1301.25
523.052	1291.25
523.267	1291.25
523.482	1285.25
523.698	1303.25
523.913	1333.25
524.128	1279.25
524.343	1259.25
524.559	1277.25
524.774	1255.25
524.989	1275.25
525.204	1274.25
525.419	1256.25
525.634	1228.25
525.849	1293.25
526.064	1221.25
526.28	1252.25
526.495	1222.25
526.71	1261.25
526.925	1232.25
527.14	1270.25
527.355	1231.25
527.57	1252.25
527.785	1242.25
527.999	1251.25
528.214	1269.25
528.429	1233.25
528.644	1257.25
528.859	1257.25
529.074	1257.25
529.289	1223.25
529.503	1235.25
529.718	1245.25
529.933	1213.25
530.148	1234.25
530.363	1233.25
530.577	1232.25
530.792	1220.25
531.007	1209.25
531.221	1233.25
531.436	1245.25
531.651	1214.25
531.865	1219.25
532.08	1238.25
532.295	1239.25
532.509	1237.25
532.724	1279.25
532.938	1232.25
533.153	1212.25
533.367	1228.25
533.582	1224.25
533.796	1219.25
534.011	1235.25
534.225	1210.25
534.44	1183.25
534.654	1207.25
534.868	1196.25
535.083	1207.25
535.297	1180.25
535.511	1189.25
535.726	1178.25
535.94	1139.25
536.154	1166.25
536.369	1165.25
536.583	1129.25
536.797	1137.25
537.011	1167.25
537.225	1163.25
537.44	1147.25
537.654	1132.25
537.868	1136.25
538.082	1125.25
538.296	1114.25
538.51	1119.25
538.724	1132.25
538.938	1155.25
539.153	1097.25
539.367	1145.25
539.581	1128.25
539.795	1087.25
540.009	1081.25
540.222	1103.25
540.436	1094.25
540.65	1092.25
540.864	1105.25
541.078	1108.25
541.292	1087.25
541.506	1103.25
541.72	1086.25
541.934	1064.25
542.147	1080.25
542.361	1060.25
542.575	1066.25
542.789	1063.25
543.002	1066.25
543.216	1106.25
543.43	1107.25
543.644	1090.25
543.857	1054.25
544.071	1059.25
544.285	1063.25
544.498	1078.25
544.712	1078.25
544.925	1108.25
545.139	1079.25
545.352	1128.25
545.566	1091.25
545.779	1079.25
545.993	1111.25
546.206	1155.25
546.42	1093.25
546.633	1106.25
546.847	1115.25
547.06	1111.25
547.274	1073.25
547.487	1120.25
547.7	1117.25
547.914	1138.25
548.127	1107.25
548.34	1112.25
548.554	1107.25
548.767	1109.25
548.98	1113.25
549.193	1093.25
549.407	1131.25
549.62	1128.25
549.833	1114.25
550.046	1112.25
550.259	1128.25
550.473	1101.25
550.686	1111.25
550.899	1088.25
551.112	1085.25
551.325	1094.25
551.538	1100.25
551.751	1059.25
551.964	1081.25
552.177	1092.25
552.39	1084.25
552.603	1120.25
552.816	1151.25
553.029	1169.25
553.242	1168.25
553.455	1167.25
553.667	1209.25
553.88	1179.25
554.093	1153.25
554.306	1111.25
554.519	1101.25
554.732	1071.25
554.944	1068.25
555.157	1058.25
555.37	1026.25
555.583	1019.25
555.795	1001.25
556.008	989.25
556.221	980.25
556.433	978.25
556.646	977.25
556.859	952.25
557.071	964.25
557.284	963.25
557.496	955.25
557.709	935.25
557.921	939.25
558.134	909.25
558.346	928.25
558.559	900.25
558.771	934.25
558.984	949.25
559.196	913.25
559.409	905.25
559.621	923.25
559.833	900.25
560.046	892.25
560.258	922.25
560.47	923.25
560.683	931.25
560.895	892.25
561.107	890.25
561.32	909.25
561.532	920.25
561.744	915.25
561.956	915.25
562.168	916.25
562.381	896.25
562.593	916.25
562.805	942.25
563.017	917.25
563.229	931.25
563.441	921.25
563.653	944.25
563.865	925.25
564.077	946.25
564.289	935.25
564.501	941.25
564.713	965.25
564.925	988.25
565.137	1004.25
565.349	1023.25
565.561	1072.25
565.773	1078.25
565.985	1137.25
566.197	1170.25
566.408	1245.25
566.62	1343.25
566.832	1358.25
567.044	1378.25
567.255	1394.25
567.467	1419.25
567.679	1522.25
567.891	1577.25
568.102	1566.25
568.314	1508.25
568.526	1401.25
568.737	1308.25
568.949	1218.25
569.161	1131.25
569.372	1075.25
569.584	1049.25
569.795	1003.25
570.007	964.25
570.218	959.25
570.43	938.25
570.641	937.25
570.853	940.25
571.064	941.25
571.276	900.25
571.487	910.25
571.698	863.25
571.91	862.25
572.121	811.25
572.333	815.25
572.544	791.25
572.755	789.25
572.966	777.25
573.178	809.25
573.389	772.25
573.6	792.25
573.811	747.25
574.023	771.25
574.234	733.25
574.445	744.25
574.656	749.25
574.867	741.25
575.078	751.25
575.289	748.25
575.501	755.25
575.712	720.25
575.923	687.25
576.134	701.25
576.345	689.25
576.556	708.25
576.767	683.25
576.978	701.25
577.188	692.25
577.399	691.25
577.61	700.25
577.821	666.25
578.032	673.25
578.243	674.25
578.454	695.25
578.665	679.25
578.875	633.25
579.086	647.25
579.297	647.25
579.508	652.25
579.718	645.25
579.929	636.25
580.14	635.25
580.35	651.25
580.561	644.25
580.772	624.25
580.982	633.25
581.193	633.25
581.403	608.25
581.614	629.25
581.825	639.25
582.035	636.25
582.246	619.25
582.456	606.25
582.667	612.25
582.877	614.25
583.087	603.25
583.298	606.25
583.508	604.25
583.719	637.25
583.929	619.25
584.139	592.25
584.35	616.25
584.56	612.25
584.77	604.25
584.981	589.25
585.191	585.25
585.401	594.25
585.611	599.25
585.821	595.25
586.032	598.25
586.242	602.25
586.452	577.25
586.662	593.25
586.872	589.25
587.082	598.25
587.292	601.25
587.502	602.25
587.713	599.25
587.923	602.25
588.133	595.25
588.343	588.25
588.553	590.25
588.762	584.25
588.972	581.25
589.182	604.25
589.392	610.25
589.602	601.25
589.812	610.25
590.022	609.25
590.232	609.25
590.441	583.25
590.651	596.25
590.861	605.25
591.071	584.25
591.281	629.25
591.49	636.25
591.7	631.25
591.91	639.25
592.119	648.25
592.329	618.25
592.539	661.25
592.748	675.25
592.958	668.25
593.167	708.25
593.377	699.25
593.587	708.25
593.796	705.25
594.006	713.25
594.215	722.25
594.424	711.25
594.634	691.25
594.843	677.25
595.053	644.25
595.262	634.25
595.472	595.25
595.681	608.25
595.89	582.25
596.1	594.25
596.309	561.25
596.518	560.25
596.727	575.25
596.937	537.25
597.146	537.25
597.355	545.25
597.564	548.25
597.774	524.25
597.983	473.25
598.192	516.25
598.401	523.25
598.61	537.25
598.819	515.25
599.028	500.25
599.237	516.25
599.446	529.25
599.655	504.25
599.864	489.25
600.073	494.25
600.282	486.25
600.491	464.25
600.7	492.25
600.909	495.25
601.118	491.25
601.327	489.25
601.536	485.25
601.745	479.25
601.953	479.25
602.162	461.25
602.371	496.25
602.58	436.25
602.789	468.25
602.997	468.25
603.206	458.25
603.415	486.25
603.623	459.25
603.832	470.25
604.041	462.25
604.249	459.25
604.458	451.25
604.666	427.25
604.875	469.25
605.084	469.25
605.292	461.25
605.501	453.25
605.709	452.25
605.918	445.25
606.126	433.25
606.334	444.25
606.543	441.25
606.751	424.25
606.96	451.25
607.168	443.25
607.376	441.25
607.585	449.25
607.793	449.25
608.001	435.25
608.21	421.25
608.418	415.25
608.626	422.25
608.834	441.25
609.043	437.25
609.251	443.25
609.459	431.25
609.667	428.25
609.875	422.25
610.083	434.25
610.291	444.25
610.499	423.25
610.707	419.25
610.916	415.25
611.124	404.25
611.332	405.25
611.54	396.25
611.748	424.25
611.955	417.25
612.163	422.25
612.371	403.25
612.579	412.25
612.787	412.25
612.995	405.25
613.203	421.25
613.411	411.25
613.618	423.25
613.826	442.25
614.034	420.25
614.242	402.25
614.449	406.25
614.657	422.25
614.865	386.25
615.072	397.25
615.28	404.25
615.488	408.25
615.695	436.25
615.903	420.25
616.111	408.25
616.318	420.25
616.526	416.25
616.733	424.25
616.941	394.25
617.148	414.25
617.356	408.25
617.563	410.25
617.771	431.25
617.978	405.25
618.185	413.25
618.393	392.25
618.6	427.25
618.807	396.25
619.015	412.25
619.222	383.25
619.429	376.25
619.637	403.25
619.844	386.25
620.051	386.25
620.258	375.25
620.466	399.25
620.673	373.25
620.88	380.25
621.087	385.25
621.294	385.25
621.501	386.25
621.708	376.25
621.915	391.25
622.122	395.25
622.329	386.25
622.536	350.25
622.743	361.25
622.95	361.25
623.157	371.25
623.364	362.25
623.571	375.25
623.778	373.25
623.985	365.25
624.192	352.25
624.399	350.25
624.606	351.25
624.812	351.25
625.019	361.25
625.226	368.25
625.433	363.25
625.639	333.25
625.846	351.25
626.053	339.25
626.259	348.25
626.466	356.25
626.673	352.25
626.879	333.25
627.086	352.25
627.293	342.25
627.499	344.25
627.706	348.25
627.912	345.25
628.119	329.25
628.325	332.25
628.532	334.25
628.738	339.25
628.945	336.25
629.151	329.25
629.357	327.25
629.564	347.25
629.77	342.25
629.976	335.25
630.183	337.25
630.389	336.25
630.595	320.25
630.802	328.25
631.008	321.25
631.214	323.25
631.42	331.25
631.627	306.25
631.833	305.25
632.039	279.25
632.245	319.25
632.451	315.25
632.657	312.25
632.863	313.25
633.069	313.25
633.275	307.25
633.481	317.25
633.688	302.25
633.893	293.25
634.099	300.25
634.305	306.25
634.511	305.25
634.717	306.25
634.923	315.25
635.129	290.25
635.335	279.25
635.541	312.25
635.747	306.25
635.952	283.25
636.158	293.25
636.364	312.25
636.57	312.25
636.775	289.25
636.981	306.25
637.187	284.25
637.392	299.25
637.598	295.25
637.804	297.25
638.009	283.25
638.215	294.25
638.421	282.25
638.626	280.25
638.832	281.25
639.037	290.25
639.243	279.25
639.448	279.25
639.654	277.25
639.859	282.25
640.065	296.25
640.27	284.25
640.475	293.25
640.681	275.25
640.886	300.25
641.091	283.25
641.297	275.25
641.502	289.25
641.707	272.25
641.913	284.25
642.118	272.25
642.323	263.25
642.528	279.25
642.733	269.25
642.939	284.25
643.144	287.25
643.349	283.25
643.554	279.25
643.759	279.25
643.964	268.25
644.169	262.25
644.374	274.25
644.579	288.25
644.784	280.25
644.989	273.25
645.194	278.25
645.399	275.25
645.604	282.25
645.809	274.25
646.014	269.25
646.219	287.25
646.423	287.25
646.628	275.25
646.833	275.25
647.038	285.25
647.243	279.25
647.447	293.25
647.652	303.25
647.857	307.25
648.062	280.25
648.266	296.25
648.471	297.25
648.676	310.25
648.88	301.25
649.085	309.25
649.289	272.25
649.494	303.25
649.698	300.25
649.903	287.25
650.107	291.25
650.312	267.25
650.516	274.25
650.721	272.25
650.925	282.25
651.13	275.25
651.334	286.25
651.539	293.25
651.743	265.25
651.947	265.25
652.152	262.25
652.356	273.25
652.56	275.25
652.764	269.25
652.969	261.25
653.173	269.25
653.377	268.25
653.581	259.25
653.785	269.25
653.99	261.25
654.194	250.25
654.398	254.25
654.602	270.25
654.806	267.25
655.01	268.25
655.214	271.25
655.418	279.25
655.622	276.25
655.826	282.25
656.03	312.25
656.234	318.25
656.438	326.25
656.642	334.25
656.846	341.25
657.049	286.25
657.253	287.25
657.457	245.25
657.661	232.25
657.865	199.25
658.068	210.25
658.272	172.25
658.476	185.25
658.68	179.25
658.883	168.25
659.087	143.25
659.291	141.25
659.494	159.25
659.698	133.25
659.901	137.25
660.105	143.25
660.309	120.25
660.512	124.25
660.716	110.25
660.919	114.25
661.123	106.25
661.326	91.25
661.53	113.25
661.733	95.25
661.936	105.25
662.14	95.25
662.343	105.25
662.546	93.25
662.75	73.25
662.953	91.25
663.156	103.25
663.36	90.25
663.563	95.25
663.766	96.25
663.969	84.25
664.173	92.25
664.376	88.25
664.579	85.25
664.782	96.25
664.985	84.25
665.188	68.25
665.391	82.25
665.594	102.25
665.797	89.25
666	77.25
666.203	96.25
666.406	89.25
666.609	70.25
666.812	86.25
667.015	85.25
667.218	84.25
667.421	80.25
667.624	80.25
667.827	72.25
668.03	77.25
668.232	84.25
668.435	78.25
668.638	67.25
668.841	76.25
669.043	90.25
669.246	84.25
669.449	85.25
669.651	87.25
669.854	87.25
670.057	93.25
670.259	83.25
670.462	81.25
670.665	94.25
670.867	97.25
671.07	81.25
671.272	86.25
671.475	75.25
671.677	87.25
671.88	96.25
672.082	88.25
672.284	82.25
672.487	87.25
672.689	89.25
672.892	89.25
