Data from NiCl2@0.125M.TitratingCurve.Agarose3%dH2O.NegLispCup.LampEnergy10.LIBS07252019_HRD10591_18-27-11-574.txt Node
Date: Thu Jul 25 18:27:11 EDT 2019
User: cochatt
Spectrometer: HR+D1059
Trigger mode: 1
Integration Time (sec): 1.000000E-1
Scans to average: 1
Electric dark correction enabled: true
Nonlinearity correction enabled: false
Boxcar width: 0
XAxis mode: Wavelengths
Number of Pixels in Spectrum: 2048
>>>>>Begin Spectral Data<<<<<
223.165	-5.25
223.4	-5.25
223.635	-5.25
223.869	-15.25
224.104	-31.25
224.338	-20.25
224.573	-17.25
224.808	-14.25
225.042	-2.25
225.277	-1.25
225.511	-4.25
225.746	10.75
225.98	-5.25
226.215	19.75
226.449	16.75
226.683	15.75
226.918	26.75
227.152	26.75
227.387	34.75
227.621	30.75
227.856	34.75
228.09	34.75
228.324	56.75
228.559	51.75
228.793	61.75
229.027	106.75
229.262	115.75
229.496	117.75
229.73	130.75
229.964	138.75
230.199	162.75
230.433	130.75
230.667	149.75
230.901	142.75
231.136	153.75
231.37	148.75
231.604	159.75
231.838	152.75
232.072	151.75
232.306	157.75
232.541	159.75
232.775	153.75
233.009	147.75
233.243	154.75
233.477	169.75
233.711	161.75
233.945	156.75
234.179	168.75
234.413	169.75
234.647	165.75
234.881	157.75
235.115	158.75
235.349	172.75
235.583	165.75
235.817	168.75
236.051	164.75
236.285	164.75
236.519	179.75
236.753	177.75
236.987	176.75
237.221	153.75
237.455	177.75
237.689	172.75
237.922	167.75
238.156	178.75
238.39	180.75
238.624	175.75
238.858	184.75
239.091	187.75
239.325	204.75
239.559	200.75
239.793	191.75
240.027	200.75
240.26	195.75
240.494	192.75
240.728	193.75
240.961	192.75
241.195	179.75
241.429	208.75
241.662	208.75
241.896	209.75
242.13	198.75
242.363	211.75
242.597	213.75
242.83	216.75
243.064	211.75
243.298	219.75
243.531	214.75
243.765	230.75
243.998	223.75
244.232	228.75
244.465	231.75
244.699	224.75
244.932	231.75
245.166	247.75
245.399	251.75
245.633	259.75
245.866	242.75
246.099	250.75
246.333	247.75
246.566	243.75
246.8	243.75
247.033	224.75
247.266	254.75
247.5	242.75
247.733	240.75
247.966	274.75
248.2	266.75
248.433	272.75
248.666	259.75
248.899	266.75
249.133	271.75
249.366	274.75
249.599	271.75
249.832	260.75
250.066	281.75
250.299	284.75
250.532	281.75
250.765	274.75
250.998	292.75
251.231	285.75
251.465	300.75
251.698	296.75
251.931	295.75
252.164	307.75
252.397	310.75
252.63	304.75
252.863	307.75
253.096	291.75
253.329	299.75
253.562	299.75
253.795	309.75
254.028	296.75
254.261	326.75
254.494	305.75
254.727	296.75
254.96	290.75
255.193	320.75
255.426	323.75
255.659	315.75
255.892	325.75
256.124	315.75
256.357	312.75
256.59	319.75
256.823	315.75
257.056	336.75
257.289	347.75
257.521	354.75
257.754	335.75
257.987	335.75
258.22	339.75
258.452	335.75
258.685	337.75
258.918	350.75
259.151	335.75
259.383	342.75
259.616	367.75
259.849	353.75
260.081	355.75
260.314	357.75
260.547	361.75
260.779	353.75
261.012	370.75
261.244	355.75
261.477	357.75
261.71	353.75
261.942	356.75
262.175	382.75
262.407	388.75
262.64	377.75
262.872	376.75
263.105	372.75
263.337	373.75
263.57	379.75
263.802	397.75
264.035	386.75
264.267	374.75
264.499	397.75
264.732	390.75
264.964	399.75
265.197	397.75
265.429	396.75
265.661	379.75
265.894	379.75
266.126	391.75
266.358	405.75
266.591	403.75
266.823	417.75
267.055	388.75
267.287	419.75
267.52	405.75
267.752	395.75
267.984	410.75
268.216	423.75
268.448	408.75
268.681	425.75
268.913	400.75
269.145	414.75
269.377	414.75
269.609	431.75
269.841	423.75
270.073	416.75
270.306	420.75
270.538	433.75
270.77	428.75
271.002	416.75
271.234	423.75
271.466	439.75
271.698	454.75
271.93	447.75
272.162	444.75
272.394	459.75
272.626	450.75
272.858	460.75
273.09	447.75
273.322	463.75
273.553	442.75
273.785	468.75
274.017	457.75
274.249	460.75
274.481	454.75
274.713	469.75
274.945	450.75
275.176	451.75
275.408	464.75
275.64	486.75
275.872	471.75
276.104	492.75
276.335	499.75
276.567	484.75
276.799	477.75
277.031	471.75
277.262	468.75
277.494	481.75
277.726	479.75
277.957	491.75
278.189	505.75
278.421	496.75
278.652	499.75
278.884	508.75
279.115	495.75
279.347	496.75
279.579	504.75
279.81	507.75
280.042	520.75
280.273	514.75
280.505	541.75
280.736	524.75
280.968	524.75
281.199	524.75
281.431	506.75
281.662	530.75
281.894	522.75
282.125	529.75
282.356	522.75
282.588	543.75
282.819	539.75
283.051	536.75
283.282	518.75
283.513	546.75
283.745	548.75
283.976	544.75
284.207	531.75
284.439	554.75
284.67	544.75
284.901	555.75
285.132	570.75
285.364	561.75
285.595	569.75
285.826	552.75
286.057	543.75
286.288	539.75
286.52	583.75
286.751	571.75
286.982	578.75
287.213	585.75
287.444	580.75
287.675	584.75
287.906	546.75
288.138	594.75
288.369	577.75
288.6	567.75
288.831	593.75
289.062	579.75
289.293	576.75
289.524	598.75
289.755	586.75
289.986	571.75
290.217	570.75
290.448	569.75
290.679	592.75
290.91	592.75
291.141	590.75
291.371	600.75
291.602	603.75
291.833	595.75
292.064	578.75
292.295	579.75
292.526	606.75
292.757	578.75
292.987	592.75
293.218	592.75
293.449	606.75
293.68	571.75
293.91	615.75
294.141	594.75
294.372	618.75
294.603	606.75
294.833	607.75
295.064	602.75
295.295	599.75
295.525	604.75
295.756	614.75
295.987	627.75
296.217	595.75
296.448	617.75
296.679	639.75
296.909	616.75
297.14	640.75
297.37	622.75
297.601	642.75
297.831	647.75
298.062	645.75
298.292	644.75
298.523	670.75
298.753	658.75
298.984	643.75
299.214	641.75
299.445	645.75
299.675	639.75
299.905	642.75
300.136	647.75
300.366	658.75
300.597	658.75
300.827	666.75
301.057	696.75
301.288	670.75
301.518	686.75
301.748	671.75
301.979	680.75
302.209	669.75
302.439	665.75
302.669	666.75
302.9	682.75
303.13	654.75
303.36	679.75
303.59	702.75
303.82	674.75
304.051	676.75
304.281	673.75
304.511	684.75
304.741	660.75
304.971	664.75
305.201	706.75
305.431	680.75
305.661	691.75
305.891	652.75
306.121	663.75
306.352	667.75
306.582	683.75
306.812	649.75
307.042	655.75
307.272	677.75
307.502	665.75
307.731	678.75
307.961	653.75
308.191	649.75
308.421	681.75
308.651	669.75
308.881	673.75
309.111	667.75
309.341	652.75
309.571	662.75
309.8	673.75
310.03	678.75
310.26	674.75
310.49	680.75
310.72	681.75
310.949	679.75
311.179	690.75
311.409	694.75
311.639	702.75
311.868	704.75
312.098	694.75
312.328	720.75
312.557	697.75
312.787	668.75
313.017	686.75
313.246	710.75
313.476	725.75
313.706	741.75
313.935	705.75
314.165	718.75
314.394	710.75
314.624	728.75
314.853	698.75
315.083	715.75
315.312	704.75
315.542	738.75
315.771	716.75
316.001	711.75
316.23	710.75
316.46	709.75
316.689	731.75
316.919	694.75
317.148	734.75
317.377	689.75
317.607	722.75
317.836	727.75
318.065	706.75
318.295	712.75
318.524	690.75
318.753	710.75
318.983	710.75
319.212	707.75
319.441	705.75
319.67	712.75
319.9	706.75
320.129	694.75
320.358	716.75
320.587	689.75
320.816	723.75
321.046	723.75
321.275	703.75
321.504	700.75
321.733	727.75
321.962	735.75
322.191	734.75
322.42	714.75
322.649	717.75
322.878	711.75
323.108	713.75
323.337	742.75
323.566	768.75
323.795	730.75
324.024	727.75
324.253	739.75
324.482	773.75
324.71	743.75
324.939	751.75
325.168	745.75
325.397	735.75
325.626	786.75
325.855	741.75
326.084	788.75
326.313	779.75
326.542	802.75
326.77	791.75
326.999	776.75
327.228	787.75
327.457	778.75
327.686	790.75
327.914	779.75
328.143	791.75
328.372	807.75
328.6	803.75
328.829	793.75
329.058	779.75
329.287	809.75
329.515	801.75
329.744	814.75
329.972	807.75
330.201	796.75
330.43	825.75
330.658	814.75
330.887	816.75
331.115	837.75
331.344	826.75
331.572	841.75
331.801	849.75
332.03	850.75
332.258	891.75
332.486	880.75
332.715	907.75
332.943	944.75
333.172	957.75
333.4	987.75
333.629	1001.75
333.857	1024.75
334.085	1024.75
334.314	993.75
334.542	992.75
334.771	966.75
334.999	946.75
335.227	1004.75
335.455	951.75
335.684	959.75
335.912	940.75
336.14	971.75
336.369	933.75
336.597	947.75
336.825	929.75
337.053	947.75
337.281	915.75
337.51	919.75
337.738	928.75
337.966	907.75
338.194	892.75
338.422	885.75
338.65	878.75
338.878	868.75
339.106	857.75
339.334	858.75
339.562	846.75
339.79	832.75
340.018	830.75
340.246	846.75
340.474	801.75
340.702	831.75
340.93	851.75
341.158	826.75
341.386	846.75
341.614	853.75
341.842	857.75
342.07	815.75
342.298	823.75
342.526	844.75
342.754	809.75
342.981	848.75
343.209	855.75
343.437	876.75
343.665	913.75
343.893	966.75
344.12	993.75
344.348	960.75
344.576	924.75
344.804	888.75
345.031	882.75
345.259	840.75
345.487	856.75
345.714	824.75
345.942	824.75
346.17	819.75
346.397	821.75
346.625	810.75
346.853	810.75
347.08	821.75
347.308	815.75
347.535	804.75
347.763	803.75
347.99	808.75
348.218	787.75
348.445	776.75
348.673	770.75
348.9	802.75
349.128	768.75
349.355	782.75
349.583	796.75
349.81	783.75
350.037	768.75
350.265	774.75
350.492	812.75
350.72	795.75
350.947	807.75
351.174	785.75
351.402	775.75
351.629	792.75
351.856	786.75
352.083	784.75
352.311	784.75
352.538	762.75
352.765	759.75
352.992	784.75
353.22	780.75
353.447	752.75
353.674	738.75
353.901	762.75
354.128	751.75
354.355	752.75
354.583	788.75
354.81	769.75
355.037	764.75
355.264	764.75
355.491	751.75
355.718	735.75
355.945	778.75
356.172	770.75
356.399	764.75
356.626	783.75
356.853	774.75
357.08	760.75
357.307	773.75
357.534	774.75
357.761	776.75
357.988	786.75
358.215	786.75
358.441	763.75
358.668	747.75
358.895	778.75
359.122	778.75
359.349	772.75
359.576	776.75
359.802	766.75
360.029	785.75
360.256	779.75
360.483	775.75
360.709	750.75
360.936	783.75
361.163	776.75
361.39	760.75
361.616	790.75
361.843	778.75
362.07	777.75
362.296	802.75
362.523	782.75
362.749	788.75
362.976	775.75
363.203	777.75
363.429	769.75
363.656	758.75
363.882	766.75
364.109	768.75
364.335	780.75
364.562	778.75
364.788	770.75
365.015	792.75
365.241	730.75
365.468	776.75
365.694	792.75
365.92	770.75
366.147	772.75
366.373	786.75
366.599	767.75
366.826	792.75
367.052	777.75
367.278	786.75
367.505	752.75
367.731	795.75
367.957	796.75
368.184	776.75
368.41	786.75
368.636	759.75
368.862	791.75
369.089	802.75
369.315	793.75
369.541	782.75
369.767	815.75
369.993	810.75
370.219	808.75
370.445	825.75
370.672	804.75
370.898	832.75
371.124	847.75
371.35	854.75
371.576	839.75
371.802	822.75
372.028	822.75
372.254	854.75
372.48	865.75
372.706	858.75
372.932	875.75
373.158	854.75
373.384	843.75
373.61	826.75
373.835	853.75
374.061	867.75
374.287	858.75
374.513	866.75
374.739	888.75
374.965	913.75
375.191	910.75
375.416	905.75
375.642	893.75
375.868	869.75
376.094	864.75
376.319	880.75
376.545	831.75
376.771	859.75
376.997	831.75
377.222	823.75
377.448	820.75
377.674	853.75
377.899	827.75
378.125	851.75
378.35	842.75
378.576	842.75
378.802	834.75
379.027	832.75
379.253	844.75
379.478	840.75
379.704	839.75
379.929	839.75
380.155	842.75
380.38	824.75
380.606	837.75
380.831	836.75
381.057	821.75
381.282	835.75
381.507	820.75
381.733	867.75
381.958	864.75
382.184	888.75
382.409	883.75
382.634	858.75
382.86	845.75
383.085	864.75
383.31	868.75
383.535	876.75
383.761	902.75
383.986	916.75
384.211	918.75
384.436	933.75
384.662	918.75
384.887	957.75
385.112	947.75
385.337	985.75
385.562	978.75
385.787	972.75
386.013	994.75
386.238	992.75
386.463	986.75
386.688	998.75
386.913	965.75
387.138	986.75
387.363	996.75
387.588	980.75
387.813	991.75
388.038	981.75
388.263	962.75
388.488	1010.75
388.713	1001.75
388.938	954.75
389.163	981.75
389.387	977.75
389.612	959.75
389.837	980.75
390.062	970.75
390.287	970.75
390.512	991.75
390.736	984.75
390.961	1000.75
391.186	1013.75
391.411	1038.75
391.636	1044.75
391.86	1075.75
392.085	1118.75
392.31	1077.75
392.534	1102.75
392.759	1066.75
392.984	1065.75
393.208	1064.75
393.433	1060.75
393.658	1068.75
393.882	1036.75
394.107	1041.75
394.331	1043.75
394.556	1062.75
394.78	1078.75
395.005	1064.75
395.229	1063.75
395.454	1072.75
395.678	1105.75
395.903	1121.75
396.127	1114.75
396.352	1060.75
396.576	1056.75
396.801	1046.75
397.025	1088.75
397.249	1089.75
397.474	1129.75
397.698	1093.75
397.922	1090.75
398.147	1113.75
398.371	1148.75
398.595	1169.75
398.82	1223.75
399.044	1304.75
399.268	1360.75
399.492	1524.75
399.717	1696.75
399.941	1676.75
400.165	1557.75
400.389	1433.75
400.613	1377.75
400.837	1288.75
401.062	1283.75
401.286	1262.75
401.51	1217.75
401.734	1222.75
401.958	1227.75
402.182	1226.75
402.406	1251.75
402.63	1266.75
402.854	1271.75
403.078	1327.75
403.302	1311.75
403.526	1328.75
403.75	1366.75
403.974	1359.75
404.198	1354.75
404.422	1367.75
404.645	1398.75
404.869	1333.75
405.093	1292.75
405.317	1331.75
405.541	1334.75
405.765	1312.75
405.988	1307.75
406.212	1346.75
406.436	1349.75
406.66	1360.75
406.883	1356.75
407.107	1450.75
407.331	1500.75
407.555	1557.75
407.778	1553.75
408.002	1519.75
408.226	1500.75
408.449	1451.75
408.673	1415.75
408.896	1364.75
409.12	1382.75
409.344	1385.75
409.567	1367.75
409.791	1372.75
410.014	1338.75
410.238	1346.75
410.461	1338.75
410.685	1334.75
410.908	1308.75
411.132	1322.75
411.355	1299.75
411.578	1276.75
411.802	1270.75
412.025	1267.75
412.249	1262.75
412.472	1301.75
412.695	1286.75
412.919	1252.75
413.142	1264.75
413.365	1217.75
413.589	1267.75
413.812	1219.75
414.035	1249.75
414.258	1225.75
414.482	1224.75
414.705	1246.75
414.928	1208.75
415.151	1254.75
415.374	1261.75
415.597	1238.75
415.821	1179.75
416.044	1186.75
416.267	1214.75
416.49	1188.75
416.713	1215.75
416.936	1188.75
417.159	1188.75
417.382	1192.75
417.605	1159.75
417.828	1212.75
418.051	1190.75
418.274	1216.75
418.497	1194.75
418.72	1213.75
418.943	1232.75
419.166	1291.75
419.389	1374.75
419.611	1349.75
419.834	1302.75
420.057	1267.75
420.28	1212.75
420.503	1178.75
420.726	1193.75
420.948	1178.75
421.171	1219.75
421.394	1196.75
421.617	1203.75
421.839	1195.75
422.062	1206.75
422.285	1168.75
422.507	1241.75
422.73	1198.75
422.953	1170.75
423.175	1236.75
423.398	1235.75
423.621	1218.75
423.843	1245.75
424.066	1246.75
424.288	1239.75
424.511	1240.75
424.733	1204.75
424.956	1200.75
425.178	1190.75
425.401	1185.75
425.623	1211.75
425.846	1135.75
426.068	1152.75
426.291	1163.75
426.513	1139.75
426.735	1124.75
426.958	1140.75
427.18	1107.75
427.402	1131.75
427.625	1140.75
427.847	1107.75
428.069	1100.75
428.292	1103.75
428.514	1097.75
428.736	1096.75
428.958	1102.75
429.181	1078.75
429.403	1065.75
429.625	1101.75
429.847	1065.75
430.069	1093.75
430.292	1095.75
430.514	1078.75
430.736	1078.75
430.958	1081.75
431.18	1064.75
431.402	1084.75
431.624	1073.75
431.846	1098.75
432.068	1120.75
432.29	1140.75
432.512	1093.75
432.734	1067.75
432.956	1072.75
433.178	1107.75
433.4	1127.75
433.622	1082.75
433.844	1106.75
434.066	1139.75
434.287	1117.75
434.509	1136.75
434.731	1167.75
434.953	1219.75
435.175	1199.75
435.397	1172.75
435.618	1152.75
435.84	1140.75
436.062	1077.75
436.284	1106.75
436.505	1065.75
436.727	1076.75
436.949	1090.75
437.17	1088.75
437.392	1079.75
437.614	1044.75
437.835	1026.75
438.057	1042.75
438.278	1002.75
438.5	1025.75
438.721	1036.75
438.943	1040.75
439.165	1072.75
439.386	1066.75
439.608	1058.75
439.829	1078.75
440.05	1089.75
440.272	1104.75
440.493	1108.75
440.715	1090.75
440.936	1129.75
441.158	1133.75
441.379	1164.75
441.6	1193.75
441.822	1205.75
442.043	1201.75
442.264	1213.75
442.486	1142.75
442.707	1198.75
442.928	1175.75
443.149	1186.75
443.371	1188.75
443.592	1206.75
443.813	1191.75
444.034	1182.75
444.255	1214.75
444.476	1251.75
444.698	1362.75
444.919	1338.75
445.14	1432.75
445.361	1330.75
445.582	1213.75
445.803	1190.75
446.024	1179.75
446.245	1129.75
446.466	1120.75
446.687	1082.75
446.908	1112.75
447.129	1092.75
447.35	1060.75
447.571	1018.75
447.792	1001.75
448.013	1040.75
448.234	1017.75
448.455	1032.75
448.675	1004.75
448.896	1014.75
449.117	976.75
449.338	999.75
449.559	979.75
449.779	970.75
450	963.75
450.221	984.75
450.442	1007.75
450.662	1010.75
450.883	1004.75
451.104	1013.75
451.324	1007.75
451.545	1007.75
451.766	989.75
451.986	960.75
452.207	970.75
452.428	963.75
452.648	972.75
452.869	949.75
453.089	935.75
453.31	988.75
453.53	986.75
453.751	943.75
453.971	951.75
454.192	958.75
454.412	959.75
454.633	949.75
454.853	955.75
455.073	936.75
455.294	939.75
455.514	951.75
455.734	928.75
455.955	940.75
456.175	912.75
456.395	958.75
456.616	940.75
456.836	957.75
457.056	940.75
457.276	917.75
457.497	920.75
457.717	897.75
457.937	930.75
458.157	954.75
458.377	942.75
458.598	974.75
458.818	993.75
459.038	987.75
459.258	1029.75
459.478	1115.75
459.698	1084.75
459.918	1125.75
460.138	1160.75
460.358	1208.75
460.578	1210.75
460.798	1219.75
461.018	1214.75
461.238	1216.75
461.458	1240.75
461.678	1219.75
461.898	1241.75
462.118	1239.75
462.338	1315.75
462.558	1307.75
462.777	1346.75
462.997	1446.75
463.217	1548.75
463.437	1548.75
463.657	1455.75
463.876	1424.75
464.096	1410.75
464.316	1379.75
464.536	1378.75
464.755	1344.75
464.975	1327.75
465.195	1244.75
465.414	1195.75
465.634	1147.75
465.854	1104.75
466.073	1107.75
466.293	1070.75
466.512	1059.75
466.732	1055.75
466.951	1048.75
467.171	1034.75
467.391	1037.75
467.61	1041.75
467.829	1036.75
468.049	1006.75
468.268	981.75
468.488	999.75
468.707	998.75
468.927	993.75
469.146	974.75
469.365	1016.75
469.585	1032.75
469.804	1033.75
470.023	1059.75
470.243	1050.75
470.462	1039.75
470.681	1070.75
470.901	1110.75
471.12	1077.75
471.339	1065.75
471.558	1011.75
471.777	1017.75
471.997	1018.75
472.216	1030.75
472.435	981.75
472.654	1007.75
472.873	976.75
473.092	947.75
473.311	981.75
473.53	998.75
473.749	995.75
473.968	994.75
474.187	995.75
474.406	999.75
474.625	996.75
474.844	992.75
475.063	977.75
475.282	1025.75
475.501	1022.75
475.72	978.75
475.939	1067.75
476.158	1022.75
476.377	1061.75
476.596	1040.75
476.814	1047.75
477.033	1063.75
477.252	1084.75
477.471	1093.75
477.69	1116.75
477.908	1130.75
478.127	1162.75
478.346	1162.75
478.564	1200.75
478.783	1198.75
479.002	1248.75
479.22	1200.75
479.439	1180.75
479.658	1207.75
479.876	1231.75
480.095	1234.75
480.313	1270.75
480.532	1270.75
480.751	1289.75
480.969	1244.75
481.188	1224.75
481.406	1198.75
481.624	1187.75
481.843	1160.75
482.061	1152.75
482.28	1171.75
482.498	1159.75
482.717	1146.75
482.935	1162.75
483.153	1164.75
483.372	1171.75
483.59	1154.75
483.808	1154.75
484.027	1165.75
484.245	1148.75
484.463	1189.75
484.681	1193.75
484.9	1192.75
485.118	1172.75
485.336	1177.75
485.554	1214.75
485.772	1193.75
485.99	1204.75
486.209	1194.75
486.427	1219.75
486.645	1200.75
486.863	1223.75
487.081	1204.75
487.299	1195.75
487.517	1169.75
487.735	1218.75
487.953	1258.75
488.171	1210.75
488.389	1225.75
488.607	1203.75
488.825	1175.75
489.043	1185.75
489.261	1192.75
489.479	1223.75
489.696	1201.75
489.914	1151.75
490.132	1194.75
490.35	1202.75
490.568	1179.75
490.786	1229.75
491.003	1239.75
491.221	1233.75
491.439	1223.75
491.657	1200.75
491.874	1223.75
492.092	1235.75
492.31	1247.75
492.527	1262.75
492.745	1222.75
492.963	1265.75
493.18	1236.75
493.398	1241.75
493.615	1249.75
493.833	1251.75
494.05	1244.75
494.268	1245.75
494.485	1256.75
494.703	1281.75
494.92	1267.75
495.138	1247.75
495.355	1270.75
495.573	1272.75
495.79	1294.75
496.008	1298.75
496.225	1282.75
496.442	1324.75
496.66	1298.75
496.877	1337.75
497.094	1350.75
497.312	1336.75
497.529	1400.75
497.746	1391.75
497.963	1418.75
498.181	1503.75
498.398	1536.75
498.615	1625.75
498.832	1726.75
499.049	1849.75
499.267	1950.75
499.484	2132.75
499.701	2275.75
499.918	2480.75
500.135	2741.75
500.352	3039.75
500.569	3136.75
500.786	3102.75
501.003	2906.75
501.22	2652.75
501.437	2453.75
501.654	2192.75
501.871	1985.75
502.088	1867.75
502.305	1771.75
502.522	1707.75
502.739	1651.75
502.956	1565.75
503.172	1518.75
503.389	1466.75
503.606	1407.75
503.823	1410.75
504.04	1386.75
504.256	1391.75
504.473	1396.75
504.69	1396.75
504.907	1390.75
505.123	1318.75
505.34	1239.75
505.557	1196.75
505.773	1209.75
505.99	1183.75
506.207	1123.75
506.423	1131.75
506.64	1128.75
506.856	1118.75
507.073	1082.75
507.289	1074.75
507.506	1082.75
507.722	1084.75
507.939	1063.75
508.155	1029.75
508.372	1036.75
508.588	1048.75
508.805	1010.75
509.021	1000.75
509.238	1010.75
509.454	1001.75
509.67	1034.75
509.887	1009.75
510.103	998.75
510.319	987.75
510.536	994.75
510.752	996.75
510.968	1005.75
511.184	937.75
511.401	979.75
511.617	977.75
511.833	994.75
512.049	996.75
512.265	981.75
512.481	1015.75
512.698	977.75
512.914	979.75
513.13	970.75
513.346	975.75
513.562	977.75
513.778	987.75
513.994	989.75
514.21	1005.75
514.426	993.75
514.642	1005.75
514.858	1007.75
515.074	1027.75
515.29	1029.75
515.506	1008.75
515.721	1030.75
515.937	1079.75
516.153	1066.75
516.369	1099.75
516.585	1145.75
516.801	1156.75
517.016	1148.75
517.232	1203.75
517.448	1250.75
517.664	1299.75
517.879	1288.75
518.095	1307.75
518.311	1271.75
518.527	1203.75
518.742	1163.75
518.958	1174.75
519.173	1116.75
519.389	1096.75
519.605	1057.75
519.82	1026.75
520.036	1060.75
520.251	1017.75
520.467	1009.75
520.682	965.75
520.898	981.75
521.113	973.75
521.329	980.75
521.544	951.75
521.76	946.75
521.975	932.75
522.19	920.75
522.406	935.75
522.621	923.75
522.836	906.75
523.052	914.75
523.267	928.75
523.482	912.75
523.698	893.75
523.913	896.75
524.128	894.75
524.343	908.75
524.559	883.75
524.774	891.75
524.989	896.75
525.204	899.75
525.419	887.75
525.634	890.75
525.849	902.75
526.064	872.75
526.28	876.75
526.495	858.75
526.71	878.75
526.925	881.75
527.14	847.75
527.355	857.75
527.57	899.75
527.785	873.75
527.999	880.75
528.214	874.75
528.429	864.75
528.644	880.75
528.859	880.75
529.074	878.75
529.289	881.75
529.503	878.75
529.718	891.75
529.933	836.75
530.148	856.75
530.363	876.75
530.577	874.75
530.792	861.75
531.007	850.75
531.221	870.75
531.436	866.75
531.651	848.75
531.865	869.75
532.08	887.75
532.295	862.75
532.509	884.75
532.724	853.75
532.938	866.75
533.153	864.75
533.367	876.75
533.582	860.75
533.796	854.75
534.011	860.75
534.225	839.75
534.44	832.75
534.654	856.75
534.868	854.75
535.083	846.75
535.297	828.75
535.511	844.75
535.726	827.75
535.94	807.75
536.154	830.75
536.369	809.75
536.583	779.75
536.797	818.75
537.011	809.75
537.225	797.75
537.44	811.75
537.654	778.75
537.868	775.75
538.082	772.75
538.296	778.75
538.51	771.75
538.724	820.75
538.938	792.75
539.153	809.75
539.367	790.75
539.581	771.75
539.795	762.75
540.009	758.75
540.222	778.75
540.436	758.75
540.65	792.75
540.864	754.75
541.078	763.75
541.292	790.75
541.506	798.75
541.72	784.75
541.934	804.75
542.147	806.75
542.361	772.75
542.575	771.75
542.789	794.75
543.002	753.75
543.216	781.75
543.43	771.75
543.644	759.75
543.857	778.75
544.071	749.75
544.285	803.75
544.498	801.75
544.712	780.75
544.925	765.75
545.139	788.75
545.352	787.75
545.566	784.75
545.779	805.75
545.993	828.75
546.206	824.75
546.42	793.75
546.633	789.75
546.847	790.75
547.06	804.75
547.274	818.75
547.487	792.75
547.7	784.75
547.914	796.75
548.127	799.75
548.34	812.75
548.554	808.75
548.767	795.75
548.98	772.75
549.193	798.75
549.407	795.75
549.62	826.75
549.833	820.75
550.046	827.75
550.259	796.75
550.473	779.75
550.686	809.75
550.899	791.75
551.112	787.75
551.325	770.75
551.538	781.75
551.751	776.75
551.964	764.75
552.177	781.75
552.39	794.75
552.603	799.75
552.816	820.75
553.029	850.75
553.242	827.75
553.455	837.75
553.667	865.75
553.88	818.75
554.093	825.75
554.306	805.75
554.519	788.75
554.732	786.75
554.944	794.75
555.157	750.75
555.37	761.75
555.583	737.75
555.795	730.75
556.008	712.75
556.221	715.75
556.433	702.75
556.646	695.75
556.859	712.75
557.071	672.75
557.284	669.75
557.496	672.75
557.709	683.75
557.921	706.75
558.134	676.75
558.346	665.75
558.559	650.75
558.771	673.75
558.984	669.75
559.196	663.75
559.409	666.75
559.621	642.75
559.833	640.75
560.046	659.75
560.258	666.75
560.47	655.75
560.683	673.75
560.895	652.75
561.107	618.75
561.32	640.75
561.532	639.75
561.744	661.75
561.956	630.75
562.168	642.75
562.381	649.75
562.593	652.75
562.805	659.75
563.017	658.75
563.229	688.75
563.441	640.75
563.653	647.75
563.865	670.75
564.077	673.75
564.289	675.75
564.501	683.75
564.713	680.75
564.925	689.75
565.137	709.75
565.349	729.75
565.561	743.75
565.773	753.75
565.985	798.75
566.197	818.75
566.408	873.75
566.62	935.75
566.832	961.75
567.044	990.75
567.255	992.75
567.467	1021.75
567.679	1066.75
567.891	1117.75
568.102	1156.75
568.314	1079.75
568.526	1002.75
568.737	926.75
568.949	848.75
569.161	778.75
569.372	742.75
569.584	727.75
569.795	691.75
570.007	671.75
570.218	665.75
570.43	660.75
570.641	628.75
570.853	658.75
571.064	694.75
571.276	653.75
571.487	629.75
571.698	616.75
571.91	606.75
572.121	582.75
572.333	584.75
572.544	553.75
572.755	544.75
572.966	568.75
573.178	555.75
573.389	561.75
573.6	545.75
573.811	554.75
574.023	536.75
574.234	521.75
574.445	528.75
574.656	536.75
574.867	525.75
575.078	534.75
575.289	549.75
575.501	522.75
575.712	512.75
575.923	521.75
576.134	514.75
576.345	520.75
576.556	510.75
576.767	502.75
576.978	502.75
577.188	464.75
577.399	494.75
577.61	498.75
577.821	502.75
578.032	482.75
578.243	483.75
578.454	475.75
578.665	473.75
578.875	488.75
579.086	469.75
579.297	455.75
579.508	458.75
579.718	471.75
579.929	458.75
580.14	467.75
580.35	464.75
580.561	447.75
580.772	448.75
580.982	464.75
581.193	443.75
581.403	457.75
581.614	452.75
581.825	467.75
582.035	455.75
582.246	450.75
582.456	451.75
582.667	458.75
582.877	417.75
583.087	422.75
583.298	444.75
583.508	436.75
583.719	434.75
583.929	454.75
584.139	427.75
584.35	440.75
584.56	433.75
584.77	450.75
584.981	434.75
585.191	422.75
585.401	434.75
585.611	430.75
585.821	411.75
586.032	416.75
586.242	420.75
586.452	430.75
586.662	430.75
586.872	431.75
587.082	422.75
587.292	432.75
587.502	435.75
587.713	430.75
587.923	424.75
588.133	430.75
588.343	430.75
588.553	419.75
588.762	449.75
588.972	427.75
589.182	436.75
589.392	434.75
589.602	416.75
589.812	436.75
590.022	425.75
590.232	415.75
590.441	435.75
590.651	439.75
590.861	449.75
591.071	439.75
591.281	444.75
591.49	440.75
591.7	445.75
591.91	457.75
592.119	438.75
592.329	450.75
592.539	486.75
592.748	475.75
592.958	491.75
593.167	497.75
593.377	508.75
593.587	499.75
593.796	498.75
594.006	515.75
594.215	529.75
594.424	524.75
594.634	512.75
594.843	479.75
595.053	477.75
595.262	473.75
595.472	449.75
595.681	444.75
595.89	425.75
596.1	438.75
596.309	436.75
596.518	398.75
596.727	416.75
596.937	412.75
597.146	396.75
597.355	395.75
597.564	388.75
597.774	399.75
597.983	374.75
598.192	374.75
598.401	355.75
598.61	372.75
598.819	374.75
599.028	362.75
599.237	358.75
599.446	361.75
599.655	366.75
599.864	366.75
600.073	354.75
600.282	370.75
600.491	359.75
600.7	364.75
600.909	358.75
601.118	342.75
601.327	362.75
601.536	351.75
601.745	366.75
601.953	366.75
602.162	352.75
602.371	336.75
602.58	365.75
602.789	353.75
602.997	340.75
603.206	364.75
603.415	365.75
603.623	351.75
603.832	335.75
604.041	348.75
604.249	337.75
604.458	341.75
604.666	323.75
604.875	339.75
605.084	337.75
605.292	326.75
605.501	339.75
605.709	327.75
605.918	339.75
606.126	332.75
606.334	327.75
606.543	323.75
606.751	324.75
606.96	320.75
607.168	354.75
607.376	331.75
607.585	328.75
607.793	313.75
608.001	339.75
608.21	319.75
608.418	305.75
608.626	330.75
608.834	323.75
609.043	336.75
609.251	331.75
609.459	307.75
609.667	300.75
609.875	297.75
610.083	318.75
610.291	325.75
610.499	314.75
610.707	326.75
610.916	318.75
611.124	316.75
611.332	313.75
611.54	322.75
611.748	321.75
611.955	306.75
612.163	296.75
612.371	307.75
612.579	324.75
612.787	324.75
612.995	297.75
613.203	312.75
613.411	311.75
613.618	316.75
613.826	316.75
614.034	297.75
614.242	310.75
614.449	300.75
614.657	303.75
614.865	314.75
615.072	293.75
615.28	294.75
615.488	320.75
615.695	321.75
615.903	318.75
616.111	296.75
616.318	319.75
616.526	310.75
616.733	322.75
616.941	308.75
617.148	305.75
617.356	313.75
617.563	316.75
617.771	306.75
617.978	302.75
618.185	315.75
618.393	318.75
618.6	294.75
618.807	313.75
619.015	323.75
619.222	287.75
619.429	300.75
619.637	273.75
619.844	298.75
620.051	293.75
620.258	282.75
620.466	284.75
620.673	296.75
620.88	290.75
621.087	278.75
621.294	273.75
621.501	267.75
621.708	292.75
621.915	303.75
622.122	292.75
622.329	291.75
622.536	285.75
622.743	279.75
622.95	289.75
623.157	282.75
623.364	277.75
623.571	282.75
623.778	273.75
623.985	264.75
624.192	277.75
624.399	268.75
624.606	263.75
624.812	272.75
625.019	283.75
625.226	259.75
625.433	261.75
625.639	252.75
625.846	275.75
626.053	275.75
626.259	282.75
626.466	260.75
626.673	252.75
626.879	267.75
627.086	241.75
627.293	257.75
627.499	258.75
627.706	271.75
627.912	264.75
628.119	256.75
628.325	244.75
628.532	265.75
628.738	254.75
628.945	247.75
629.151	266.75
629.357	242.75
629.564	265.75
629.77	262.75
629.976	261.75
630.183	257.75
630.389	257.75
630.595	240.75
630.802	228.75
631.008	236.75
631.214	251.75
631.42	255.75
631.627	232.75
631.833	243.75
632.039	234.75
632.245	238.75
632.451	232.75
632.657	242.75
632.863	221.75
633.069	262.75
633.275	252.75
633.481	242.75
633.688	216.75
633.893	248.75
634.099	241.75
634.305	214.75
634.511	234.75
634.717	211.75
634.923	203.75
635.129	240.75
635.335	228.75
635.541	233.75
635.747	240.75
635.952	220.75
636.158	208.75
636.364	227.75
636.57	226.75
636.775	233.75
636.981	220.75
637.187	232.75
637.392	222.75
637.598	223.75
637.804	228.75
638.009	225.75
638.215	224.75
638.421	216.75
638.626	216.75
638.832	211.75
639.037	217.75
639.243	215.75
639.448	207.75
639.654	209.75
639.859	218.75
640.065	200.75
640.27	223.75
640.475	245.75
640.681	226.75
640.886	212.75
641.091	196.75
641.297	234.75
641.502	210.75
641.707	216.75
641.913	208.75
642.118	204.75
642.323	209.75
642.528	223.75
642.733	220.75
642.939	202.75
643.144	219.75
643.349	205.75
643.554	200.75
643.759	203.75
643.964	204.75
644.169	213.75
644.374	226.75
644.579	224.75
644.784	208.75
644.989	203.75
645.194	211.75
645.399	203.75
645.604	200.75
645.809	205.75
646.014	194.75
646.219	206.75
646.423	206.75
646.628	214.75
646.833	226.75
647.038	224.75
647.243	204.75
647.447	218.75
647.652	208.75
647.857	212.75
648.062	230.75
648.266	211.75
648.471	225.75
648.676	230.75
648.88	229.75
649.085	220.75
649.289	215.75
649.494	225.75
649.698	221.75
649.903	214.75
650.107	223.75
650.312	232.75
650.516	211.75
650.721	214.75
650.925	213.75
651.13	204.75
651.334	201.75
651.539	216.75
651.743	213.75
651.947	212.75
652.152	197.75
652.356	193.75
652.56	203.75
652.764	194.75
652.969	194.75
653.173	181.75
653.377	188.75
653.581	194.75
653.785	202.75
653.99	187.75
654.194	192.75
654.398	187.75
654.602	179.75
654.806	195.75
655.01	196.75
655.214	188.75
655.418	182.75
655.622	187.75
655.826	198.75
656.03	188.75
656.234	222.75
656.438	195.75
656.642	200.75
656.846	199.75
657.049	173.75
657.253	183.75
657.457	167.75
657.661	153.75
657.865	158.75
658.068	152.75
658.272	137.75
658.476	154.75
658.68	136.75
658.883	127.75
659.087	112.75
659.291	115.75
659.494	122.75
659.698	121.75
659.901	112.75
660.105	113.75
660.309	108.75
660.512	110.75
660.716	106.75
660.919	112.75
661.123	88.75
661.326	79.75
661.53	101.75
661.733	95.75
661.936	89.75
662.14	83.75
662.343	82.75
662.546	91.75
662.75	90.75
662.953	89.75
663.156	85.75
663.36	80.75
663.563	88.75
663.766	71.75
663.969	89.75
664.173	82.75
664.376	77.75
664.579	82.75
664.782	82.75
664.985	94.75
665.188	70.75
665.391	86.75
665.594	86.75
665.797	87.75
666	83.75
666.203	75.75
666.406	67.75
666.609	83.75
666.812	81.75
667.015	67.75
667.218	85.75
667.421	77.75
667.624	78.75
667.827	88.75
668.03	82.75
668.232	73.75
668.435	76.75
668.638	91.75
668.841	80.75
669.043	80.75
669.246	89.75
669.449	75.75
669.651	80.75
669.854	86.75
670.057	82.75
670.259	72.75
670.462	88.75
670.665	81.75
670.867	80.75
671.07	78.75
671.272	86.75
671.475	85.75
671.677	86.75
671.88	88.75
672.082	71.75
672.284	83.75
672.487	84.75
672.689	88.75
672.892	73.75
