Data from NiCl2@0.125M.TitratingCurve.Agarose3%dH2O.NegLispCup.LampEnergy10.LIBS07252019_HRD10591_18-30-07-574.txt Node
Date: Thu Jul 25 18:30:07 EDT 2019
User: cochatt
Spectrometer: HR+D1059
Trigger mode: 1
Integration Time (sec): 1.000000E-1
Scans to average: 1
Electric dark correction enabled: true
Nonlinearity correction enabled: false
Boxcar width: 0
XAxis mode: Wavelengths
Number of Pixels in Spectrum: 2048
>>>>>Begin Spectral Data<<<<<
223.165	-33.38
223.4	-33.38
223.635	-33.38
223.869	-14.38
224.104	-37.38
224.338	-19.38
224.573	-13.38
224.808	-2.38
225.042	0.62
225.277	-0.38
225.511	-2.38
225.746	2.62
225.98	17.62
226.215	1.62
226.449	15.62
226.683	10.62
226.918	36.62
227.152	37.62
227.387	26.62
227.621	33.62
227.856	45.62
228.09	54.62
228.324	47.62
228.559	51.62
228.793	85.62
229.027	97.62
229.262	126.62
229.496	106.62
229.73	121.62
229.964	139.62
230.199	133.62
230.433	125.62
230.667	123.62
230.901	138.62
231.136	145.62
231.37	133.62
231.604	142.62
231.838	143.62
232.072	150.62
232.306	156.62
232.541	153.62
232.775	135.62
233.009	153.62
233.243	140.62
233.477	141.62
233.711	141.62
233.945	153.62
234.179	146.62
234.413	162.62
234.647	152.62
234.881	163.62
235.115	150.62
235.349	154.62
235.583	171.62
235.817	169.62
236.051	150.62
236.285	156.62
236.519	165.62
236.753	157.62
236.987	169.62
237.221	170.62
237.455	174.62
237.689	158.62
237.922	164.62
238.156	165.62
238.39	152.62
238.624	177.62
238.858	182.62
239.091	172.62
239.325	167.62
239.559	175.62
239.793	188.62
240.027	177.62
240.26	173.62
240.494	189.62
240.728	179.62
240.961	186.62
241.195	183.62
241.429	175.62
241.662	203.62
241.896	208.62
242.13	216.62
242.363	187.62
242.597	193.62
242.83	200.62
243.064	204.62
243.298	218.62
243.531	204.62
243.765	212.62
243.998	196.62
244.232	217.62
244.465	217.62
244.699	225.62
244.932	210.62
245.166	221.62
245.399	227.62
245.633	220.62
245.866	231.62
246.099	228.62
246.333	234.62
246.566	206.62
246.8	219.62
247.033	239.62
247.266	229.62
247.5	235.62
247.733	233.62
247.966	245.62
248.2	239.62
248.433	236.62
248.666	257.62
248.899	246.62
249.133	257.62
249.366	249.62
249.599	276.62
249.832	261.62
250.066	247.62
250.299	255.62
250.532	259.62
250.765	269.62
250.998	261.62
251.231	271.62
251.465	275.62
251.698	255.62
251.931	274.62
252.164	266.62
252.397	286.62
252.63	286.62
252.863	282.62
253.096	271.62
253.329	281.62
253.562	288.62
253.795	278.62
254.028	292.62
254.261	287.62
254.494	286.62
254.727	291.62
254.96	299.62
255.193	275.62
255.426	307.62
255.659	300.62
255.892	299.62
256.124	305.62
256.357	305.62
256.59	283.62
256.823	297.62
257.056	312.62
257.289	329.62
257.521	319.62
257.754	308.62
257.987	313.62
258.22	309.62
258.452	307.62
258.685	314.62
258.918	314.62
259.151	317.62
259.383	297.62
259.616	292.62
259.849	329.62
260.081	327.62
260.314	310.62
260.547	313.62
260.779	317.62
261.012	342.62
261.244	334.62
261.477	331.62
261.71	341.62
261.942	333.62
262.175	336.62
262.407	348.62
262.64	318.62
262.872	339.62
263.105	343.62
263.337	348.62
263.57	350.62
263.802	343.62
264.035	345.62
264.267	340.62
264.499	360.62
264.732	366.62
264.964	344.62
265.197	365.62
265.429	366.62
265.661	354.62
265.894	374.62
266.126	367.62
266.358	372.62
266.591	348.62
266.823	388.62
267.055	402.62
267.287	379.62
267.52	381.62
267.752	375.62
267.984	370.62
268.216	371.62
268.448	364.62
268.681	373.62
268.913	372.62
269.145	372.62
269.377	386.62
269.609	387.62
269.841	373.62
270.073	365.62
270.306	366.62
270.538	394.62
270.77	377.62
271.002	389.62
271.234	407.62
271.466	385.62
271.698	407.62
271.93	399.62
272.162	396.62
272.394	411.62
272.626	381.62
272.858	391.62
273.09	404.62
273.322	403.62
273.553	410.62
273.785	412.62
274.017	412.62
274.249	433.62
274.481	414.62
274.713	437.62
274.945	413.62
275.176	428.62
275.408	421.62
275.64	430.62
275.872	426.62
276.104	413.62
276.335	435.62
276.567	426.62
276.799	429.62
277.031	454.62
277.262	459.62
277.494	444.62
277.726	462.62
277.957	442.62
278.189	443.62
278.421	433.62
278.652	433.62
278.884	440.62
279.115	458.62
279.347	438.62
279.579	467.62
279.81	460.62
280.042	450.62
280.273	454.62
280.505	452.62
280.736	468.62
280.968	446.62
281.199	487.62
281.431	473.62
281.662	439.62
281.894	459.62
282.125	487.62
282.356	480.62
282.588	485.62
282.819	481.62
283.051	465.62
283.282	480.62
283.513	462.62
283.745	471.62
283.976	479.62
284.207	492.62
284.439	478.62
284.67	508.62
284.901	503.62
285.132	501.62
285.364	493.62
285.595	519.62
285.826	487.62
286.057	504.62
286.288	517.62
286.52	497.62
286.751	517.62
286.982	518.62
287.213	506.62
287.444	514.62
287.675	522.62
287.906	524.62
288.138	526.62
288.369	518.62
288.6	542.62
288.831	534.62
289.062	547.62
289.293	551.62
289.524	541.62
289.755	534.62
289.986	542.62
290.217	526.62
290.448	530.62
290.679	530.62
290.91	548.62
291.141	554.62
291.371	551.62
291.602	535.62
291.833	526.62
292.064	561.62
292.295	540.62
292.526	571.62
292.757	534.62
292.987	534.62
293.218	517.62
293.449	572.62
293.68	545.62
293.91	534.62
294.141	551.62
294.372	557.62
294.603	561.62
294.833	540.62
295.064	561.62
295.295	538.62
295.525	548.62
295.756	544.62
295.987	552.62
296.217	571.62
296.448	573.62
296.679	575.62
296.909	555.62
297.14	556.62
297.37	571.62
297.601	567.62
297.831	590.62
298.062	585.62
298.292	606.62
298.523	639.62
298.753	612.62
298.984	602.62
299.214	601.62
299.445	599.62
299.675	612.62
299.905	604.62
300.136	587.62
300.366	616.62
300.597	598.62
300.827	635.62
301.057	617.62
301.288	637.62
301.518	621.62
301.748	640.62
301.979	647.62
302.209	627.62
302.439	637.62
302.669	637.62
302.9	626.62
303.13	605.62
303.36	622.62
303.59	597.62
303.82	623.62
304.051	616.62
304.281	598.62
304.511	626.62
304.741	607.62
304.971	617.62
305.201	611.62
305.431	613.62
305.661	610.62
305.891	588.62
306.121	583.62
306.352	594.62
306.582	600.62
306.812	600.62
307.042	591.62
307.272	586.62
307.502	597.62
307.731	581.62
307.961	612.62
308.191	593.62
308.421	594.62
308.651	591.62
308.881	584.62
309.111	593.62
309.341	571.62
309.571	616.62
309.8	607.62
310.03	602.62
310.26	594.62
310.49	585.62
310.72	593.62
310.949	597.62
311.179	596.62
311.409	612.62
311.639	597.62
311.868	592.62
312.098	644.62
312.328	627.62
312.557	614.62
312.787	618.62
313.017	601.62
313.246	630.62
313.476	632.62
313.706	625.62
313.935	606.62
314.165	635.62
314.394	652.62
314.624	644.62
314.853	648.62
315.083	649.62
315.312	627.62
315.542	649.62
315.771	624.62
316.001	649.62
316.23	623.62
316.46	622.62
316.689	627.62
316.919	639.62
317.148	628.62
317.377	649.62
317.607	625.62
317.836	614.62
318.065	641.62
318.295	611.62
318.524	647.62
318.753	615.62
318.983	614.62
319.212	633.62
319.441	613.62
319.67	620.62
319.9	621.62
320.129	617.62
320.358	617.62
320.587	626.62
320.816	609.62
321.046	617.62
321.275	629.62
321.504	631.62
321.733	615.62
321.962	626.62
322.191	632.62
322.42	625.62
322.649	612.62
322.878	641.62
323.108	649.62
323.337	659.62
323.566	633.62
323.795	636.62
324.024	633.62
324.253	626.62
324.482	633.62
324.71	637.62
324.939	621.62
325.168	653.62
325.397	663.62
325.626	655.62
325.855	656.62
326.084	686.62
326.313	705.62
326.542	696.62
326.77	708.62
326.999	679.62
327.228	666.62
327.457	668.62
327.686	681.62
327.914	682.62
328.143	682.62
328.372	712.62
328.6	675.62
328.829	669.62
329.058	665.62
329.287	689.62
329.515	697.62
329.744	695.62
329.972	700.62
330.201	693.62
330.43	687.62
330.658	693.62
330.887	735.62
331.115	696.62
331.344	722.62
331.572	724.62
331.801	738.62
332.03	772.62
332.258	764.62
332.486	823.62
332.715	811.62
332.943	853.62
333.172	887.62
333.4	907.62
333.629	945.62
333.857	947.62
334.085	938.62
334.314	939.62
334.542	916.62
334.771	868.62
334.999	858.62
335.227	861.62
335.455	856.62
335.684	873.62
335.912	836.62
336.14	811.62
336.369	823.62
336.597	858.62
336.825	830.62
337.053	813.62
337.281	813.62
337.51	798.62
337.738	769.62
337.966	761.62
338.194	758.62
338.422	750.62
338.65	727.62
338.878	758.62
339.106	737.62
339.334	753.62
339.562	740.62
339.79	724.62
340.018	692.62
340.246	702.62
340.474	706.62
340.702	707.62
340.93	715.62
341.158	743.62
341.386	723.62
341.614	745.62
341.842	723.62
342.07	694.62
342.298	717.62
342.526	712.62
342.754	708.62
342.981	713.62
343.209	705.62
343.437	735.62
343.665	837.62
343.893	868.62
344.12	906.62
344.348	875.62
344.576	803.62
344.804	791.62
345.031	734.62
345.259	722.62
345.487	717.62
345.714	712.62
345.942	723.62
346.17	731.62
346.397	717.62
346.625	716.62
346.853	689.62
347.08	700.62
347.308	702.62
347.535	697.62
347.763	716.62
347.99	703.62
348.218	721.62
348.445	697.62
348.673	698.62
348.9	689.62
349.128	703.62
349.355	685.62
349.583	684.62
349.81	688.62
350.037	681.62
350.265	685.62
350.492	659.62
350.72	671.62
350.947	659.62
351.174	655.62
351.402	669.62
351.629	651.62
351.856	641.62
352.083	674.62
352.311	665.62
352.538	653.62
352.765	659.62
352.992	668.62
353.22	638.62
353.447	661.62
353.674	648.62
353.901	678.62
354.128	681.62
354.355	682.62
354.583	659.62
354.81	681.62
355.037	676.62
355.264	662.62
355.491	654.62
355.718	680.62
355.945	689.62
356.172	675.62
356.399	699.62
356.626	694.62
356.853	686.62
357.08	704.62
357.307	669.62
357.534	670.62
357.761	670.62
357.988	678.62
358.215	673.62
358.441	647.62
358.668	662.62
358.895	662.62
359.122	671.62
359.349	662.62
359.576	669.62
359.802	661.62
360.029	673.62
360.256	692.62
360.483	678.62
360.709	654.62
360.936	678.62
361.163	665.62
361.39	659.62
361.616	635.62
361.843	668.62
362.07	651.62
362.296	679.62
362.523	676.62
362.749	664.62
362.976	673.62
363.203	657.62
363.429	659.62
363.656	662.62
363.882	677.62
364.109	655.62
364.335	677.62
364.562	653.62
364.788	662.62
365.015	642.62
365.241	665.62
365.468	651.62
365.694	651.62
365.92	676.62
366.147	641.62
366.373	669.62
366.599	677.62
366.826	685.62
367.052	668.62
367.278	665.62
367.505	652.62
367.731	665.62
367.957	650.62
368.184	662.62
368.41	700.62
368.636	677.62
368.862	676.62
369.089	673.62
369.315	689.62
369.541	699.62
369.767	702.62
369.993	681.62
370.219	683.62
370.445	691.62
370.672	721.62
370.898	714.62
371.124	722.62
371.35	721.62
371.576	725.62
371.802	742.62
372.028	748.62
372.254	735.62
372.48	749.62
372.706	735.62
372.932	782.62
373.158	757.62
373.384	743.62
373.61	739.62
373.835	727.62
374.061	715.62
374.287	769.62
374.513	740.62
374.739	788.62
374.965	812.62
375.191	842.62
375.416	807.62
375.642	789.62
375.868	781.62
376.094	750.62
376.319	760.62
376.545	742.62
376.771	742.62
376.997	740.62
377.222	731.62
377.448	769.62
377.674	747.62
377.899	729.62
378.125	720.62
378.35	709.62
378.576	714.62
378.802	720.62
379.027	729.62
379.253	711.62
379.478	689.62
379.704	713.62
379.929	710.62
380.155	707.62
380.38	698.62
380.606	714.62
380.831	726.62
381.057	749.62
381.282	725.62
381.507	749.62
381.733	728.62
381.958	737.62
382.184	767.62
382.409	753.62
382.634	776.62
382.86	765.62
383.085	772.62
383.31	819.62
383.535	826.62
383.761	802.62
383.986	819.62
384.211	844.62
384.436	823.62
384.662	870.62
384.887	909.62
385.112	897.62
385.337	866.62
385.562	895.62
385.787	902.62
386.013	897.62
386.238	899.62
386.463	894.62
386.688	897.62
386.913	871.62
387.138	885.62
387.363	851.62
387.588	864.62
387.813	865.62
388.038	882.62
388.263	909.62
388.488	862.62
388.713	887.62
388.938	857.62
389.163	851.62
389.387	857.62
389.612	829.62
389.837	850.62
390.062	876.62
390.287	894.62
390.512	883.62
390.736	902.62
390.961	898.62
391.186	906.62
391.411	918.62
391.636	963.62
391.86	977.62
392.085	992.62
392.31	994.62
392.534	966.62
392.759	979.62
392.984	955.62
393.208	917.62
393.433	932.62
393.658	908.62
393.882	970.62
394.107	925.62
394.331	933.62
394.556	940.62
394.78	941.62
395.005	933.62
395.229	951.62
395.454	975.62
395.678	994.62
395.903	981.62
396.127	973.62
396.352	941.62
396.576	922.62
396.801	919.62
397.025	948.62
397.249	998.62
397.474	1003.62
397.698	995.62
397.922	983.62
398.147	983.62
398.371	1009.62
398.595	1068.62
398.82	1083.62
399.044	1175.62
399.268	1267.62
399.492	1484.62
399.717	1689.62
399.941	1693.62
400.165	1524.62
400.389	1382.62
400.613	1274.62
400.837	1161.62
401.062	1133.62
401.286	1124.62
401.51	1085.62
401.734	1106.62
401.958	1130.62
402.182	1127.62
402.406	1164.62
402.63	1151.62
402.854	1179.62
403.078	1207.62
403.302	1233.62
403.526	1285.62
403.75	1244.62
403.974	1299.62
404.198	1315.62
404.422	1317.62
404.645	1312.62
404.869	1275.62
405.093	1288.62
405.317	1266.62
405.541	1261.62
405.765	1230.62
405.988	1231.62
406.212	1191.62
406.436	1193.62
406.66	1262.62
406.883	1242.62
407.107	1326.62
407.331	1403.62
407.555	1447.62
407.778	1461.62
408.002	1432.62
408.226	1398.62
408.449	1348.62
408.673	1303.62
408.896	1299.62
409.12	1224.62
409.344	1267.62
409.567	1276.62
409.791	1297.62
410.014	1284.62
410.238	1256.62
410.461	1237.62
410.685	1238.62
410.908	1205.62
411.132	1174.62
411.355	1148.62
411.578	1170.62
411.802	1180.62
412.025	1178.62
412.249	1157.62
412.472	1193.62
412.695	1140.62
412.919	1099.62
413.142	1142.62
413.365	1130.62
413.589	1123.62
413.812	1114.62
414.035	1094.62
414.258	1085.62
414.482	1106.62
414.705	1124.62
414.928	1116.62
415.151	1115.62
415.374	1086.62
415.597	1125.62
415.821	1067.62
416.044	1058.62
416.267	1084.62
416.49	1089.62
416.713	1085.62
416.936	1085.62
417.159	1103.62
417.382	1058.62
417.605	1077.62
417.828	1069.62
418.051	1106.62
418.274	1124.62
418.497	1101.62
418.72	1140.62
418.943	1116.62
419.166	1219.62
419.389	1286.62
419.611	1245.62
419.834	1216.62
420.057	1155.62
420.28	1121.62
420.503	1117.62
420.726	1081.62
420.948	1109.62
421.171	1084.62
421.394	1100.62
421.617	1083.62
421.839	1100.62
422.062	1110.62
422.285	1085.62
422.507	1107.62
422.73	1137.62
422.953	1161.62
423.175	1152.62
423.398	1182.62
423.621	1198.62
423.843	1178.62
424.066	1179.62
424.288	1182.62
424.511	1172.62
424.733	1171.62
424.956	1153.62
425.178	1147.62
425.401	1111.62
425.623	1115.62
425.846	1086.62
426.068	1059.62
426.291	1081.62
426.513	1067.62
426.735	1016.62
426.958	1029.62
427.18	995.62
427.402	1019.62
427.625	1017.62
427.847	989.62
428.069	1010.62
428.292	994.62
428.514	996.62
428.736	987.62
428.958	1022.62
429.181	993.62
429.403	945.62
429.625	1009.62
429.847	964.62
430.069	977.62
430.292	978.62
430.514	961.62
430.736	976.62
430.958	974.62
431.18	930.62
431.402	960.62
431.624	965.62
431.846	1007.62
432.068	1004.62
432.29	1038.62
432.512	965.62
432.734	985.62
432.956	994.62
433.178	986.62
433.4	988.62
433.622	1011.62
433.844	1003.62
434.066	1007.62
434.287	1027.62
434.509	1051.62
434.731	1085.62
434.953	1143.62
435.175	1129.62
435.397	1135.62
435.618	1079.62
435.84	1040.62
436.062	1002.62
436.284	1033.62
436.505	1013.62
436.727	986.62
436.949	990.62
437.17	1016.62
437.392	1007.62
437.614	989.62
437.835	934.62
438.057	983.62
438.278	949.62
438.5	939.62
438.721	945.62
438.943	961.62
439.165	954.62
439.386	1001.62
439.608	1020.62
439.829	985.62
440.05	983.62
440.272	981.62
440.493	1015.62
440.715	1019.62
440.936	991.62
441.158	1045.62
441.379	1042.62
441.6	1125.62
441.822	1142.62
442.043	1125.62
442.264	1108.62
442.486	1090.62
442.707	1104.62
442.928	1098.62
443.149	1109.62
443.371	1100.62
443.592	1124.62
443.813	1140.62
444.034	1174.62
444.255	1182.62
444.476	1229.62
444.698	1285.62
444.919	1367.62
445.14	1462.62
445.361	1291.62
445.582	1181.62
445.803	1112.62
446.024	1074.62
446.245	1070.62
446.466	1035.62
446.687	998.62
446.908	1033.62
447.129	981.62
447.35	982.62
447.571	980.62
447.792	955.62
448.013	945.62
448.234	919.62
448.455	911.62
448.675	927.62
448.896	904.62
449.117	904.62
449.338	897.62
449.559	892.62
449.779	893.62
450	876.62
450.221	897.62
450.442	910.62
450.662	915.62
450.883	917.62
451.104	976.62
451.324	959.62
451.545	950.62
451.766	931.62
451.986	942.62
452.207	940.62
452.428	928.62
452.648	923.62
452.869	876.62
453.089	909.62
453.31	917.62
453.53	882.62
453.751	903.62
453.971	896.62
454.192	891.62
454.412	879.62
454.633	865.62
454.853	885.62
455.073	868.62
455.294	891.62
455.514	880.62
455.734	879.62
455.955	866.62
456.175	854.62
456.395	823.62
456.616	847.62
456.836	855.62
457.056	842.62
457.276	831.62
457.497	893.62
457.717	845.62
457.937	878.62
458.157	886.62
458.377	882.62
458.598	893.62
458.818	925.62
459.038	951.62
459.258	964.62
459.478	993.62
459.698	1049.62
459.918	1057.62
460.138	1104.62
460.358	1197.62
460.578	1214.62
460.798	1186.62
461.018	1214.62
461.238	1165.62
461.458	1184.62
461.678	1153.62
461.898	1198.62
462.118	1210.62
462.338	1262.62
462.558	1287.62
462.777	1378.62
462.997	1476.62
463.217	1626.62
463.437	1617.62
463.657	1512.62
463.876	1467.62
464.096	1427.62
464.316	1417.62
464.536	1403.62
464.755	1346.62
464.975	1302.62
465.195	1214.62
465.414	1172.62
465.634	1139.62
465.854	1059.62
466.073	1036.62
466.293	994.62
466.512	983.62
466.732	982.62
466.951	1004.62
467.171	961.62
467.391	958.62
467.61	977.62
467.829	931.62
468.049	956.62
468.268	932.62
468.488	923.62
468.707	911.62
468.927	933.62
469.146	909.62
469.365	953.62
469.585	942.62
469.804	974.62
470.023	984.62
470.243	1009.62
470.462	1024.62
470.681	1024.62
470.901	1006.62
471.12	983.62
471.339	972.62
471.558	949.62
471.777	899.62
471.997	930.62
472.216	919.62
472.435	917.62
472.654	887.62
472.873	898.62
473.092	903.62
473.311	899.62
473.53	878.62
473.749	892.62
473.968	863.62
474.187	891.62
474.406	887.62
474.625	886.62
474.844	911.62
475.063	917.62
475.282	900.62
475.501	908.62
475.72	883.62
475.939	891.62
476.158	973.62
476.377	958.62
476.596	933.62
476.814	958.62
477.033	940.62
477.252	940.62
477.471	1001.62
477.69	1024.62
477.908	1019.62
478.127	1061.62
478.346	1087.62
478.564	1097.62
478.783	1070.62
479.002	1141.62
479.22	1157.62
479.439	1121.62
479.658	1126.62
479.876	1111.62
480.095	1139.62
480.313	1192.62
480.532	1209.62
480.751	1243.62
480.969	1166.62
481.188	1176.62
481.406	1108.62
481.624	1097.62
481.843	1069.62
482.061	1070.62
482.28	1078.62
482.498	1028.62
482.717	1005.62
482.935	1031.62
483.153	1041.62
483.372	1045.62
483.59	1051.62
483.808	1033.62
484.027	1042.62
484.245	1029.62
484.463	1048.62
484.681	1042.62
484.9	1077.62
485.118	1057.62
485.336	1077.62
485.554	1110.62
485.772	1106.62
485.99	1080.62
486.209	1112.62
486.427	1098.62
486.645	1111.62
486.863	1132.62
487.081	1103.62
487.299	1105.62
487.517	1086.62
487.735	1081.62
487.953	1091.62
488.171	1080.62
488.389	1086.62
488.607	1062.62
488.825	1069.62
489.043	1087.62
489.261	1075.62
489.479	1063.62
489.696	1065.62
489.914	1084.62
490.132	1101.62
490.35	1065.62
490.568	1105.62
490.786	1098.62
491.003	1085.62
491.221	1097.62
491.439	1082.62
491.657	1094.62
491.874	1117.62
492.092	1117.62
492.31	1100.62
492.527	1079.62
492.745	1141.62
492.963	1126.62
493.18	1125.62
493.398	1132.62
493.615	1114.62
493.833	1115.62
494.05	1158.62
494.268	1134.62
494.485	1134.62
494.703	1115.62
494.92	1153.62
495.138	1143.62
495.355	1173.62
495.573	1163.62
495.79	1151.62
496.008	1156.62
496.225	1167.62
496.442	1162.62
496.66	1163.62
496.877	1199.62
497.094	1210.62
497.312	1228.62
497.529	1253.62
497.746	1266.62
497.963	1340.62
498.181	1369.62
498.398	1434.62
498.615	1515.62
498.832	1648.62
499.049	1745.62
499.267	1925.62
499.484	2067.62
499.701	2281.62
499.918	2540.62
500.135	2947.62
500.352	3367.62
500.569	3550.62
500.786	3489.62
501.003	3281.62
501.22	2935.62
501.437	2619.62
501.654	2291.62
501.871	2065.62
502.088	1849.62
502.305	1747.62
502.522	1639.62
502.739	1607.62
502.956	1518.62
503.172	1443.62
503.389	1381.62
503.606	1324.62
503.823	1329.62
504.04	1299.62
504.256	1290.62
504.473	1333.62
504.69	1394.62
504.907	1374.62
505.123	1237.62
505.34	1195.62
505.557	1135.62
505.773	1107.62
505.99	1093.62
506.207	1090.62
506.423	1019.62
506.64	1036.62
506.856	1038.62
507.073	1018.62
507.289	1009.62
507.506	1012.62
507.722	1016.62
507.939	998.62
508.155	967.62
508.372	981.62
508.588	943.62
508.805	961.62
509.021	969.62
509.238	933.62
509.454	945.62
509.67	917.62
509.887	941.62
510.103	937.62
510.319	936.62
510.536	932.62
510.752	906.62
510.968	904.62
511.184	908.62
511.401	955.62
511.617	935.62
511.833	945.62
512.049	939.62
512.265	931.62
512.481	911.62
512.698	881.62
512.914	892.62
513.13	932.62
513.346	961.62
513.562	906.62
513.778	893.62
513.994	931.62
514.21	929.62
514.426	945.62
514.642	946.62
514.858	952.62
515.074	955.62
515.29	961.62
515.506	947.62
515.721	952.62
515.937	981.62
516.153	981.62
516.369	1018.62
516.585	1078.62
516.801	1093.62
517.016	1126.62
517.232	1210.62
517.448	1209.62
517.664	1282.62
517.879	1331.62
518.095	1341.62
518.311	1271.62
518.527	1182.62
518.742	1179.62
518.958	1133.62
519.173	1098.62
519.389	1046.62
519.605	1011.62
519.82	965.62
520.036	994.62
520.251	960.62
520.467	922.62
520.682	941.62
520.898	944.62
521.113	926.62
521.329	903.62
521.544	910.62
521.76	893.62
521.975	899.62
522.19	881.62
522.406	861.62
522.621	909.62
522.836	897.62
523.052	857.62
523.267	850.62
523.482	846.62
523.698	877.62
523.913	860.62
524.128	871.62
524.343	856.62
524.559	835.62
524.774	847.62
524.989	837.62
525.204	872.62
525.419	848.62
525.634	841.62
525.849	841.62
526.064	853.62
526.28	814.62
526.495	832.62
526.71	838.62
526.925	818.62
527.14	815.62
527.355	858.62
527.57	827.62
527.785	802.62
527.999	822.62
528.214	831.62
528.429	838.62
528.644	846.62
528.859	832.62
529.074	841.62
529.289	839.62
529.503	862.62
529.718	820.62
529.933	848.62
530.148	838.62
530.363	802.62
530.577	823.62
530.792	837.62
531.007	810.62
531.221	839.62
531.436	818.62
531.651	833.62
531.865	830.62
532.08	825.62
532.295	845.62
532.509	841.62
532.724	809.62
532.938	824.62
533.153	823.62
533.367	828.62
533.582	845.62
533.796	832.62
534.011	828.62
534.225	848.62
534.44	830.62
534.654	828.62
534.868	819.62
535.083	813.62
535.297	809.62
535.511	787.62
535.726	830.62
535.94	827.62
536.154	806.62
536.369	791.62
536.583	770.62
536.797	773.62
537.011	742.62
537.225	775.62
537.44	791.62
537.654	790.62
537.868	791.62
538.082	760.62
538.296	725.62
538.51	776.62
538.724	753.62
538.938	780.62
539.153	749.62
539.367	758.62
539.581	761.62
539.795	731.62
540.009	775.62
540.222	761.62
540.436	744.62
540.65	723.62
540.864	737.62
541.078	759.62
541.292	758.62
541.506	753.62
541.72	753.62
541.934	754.62
542.147	758.62
542.361	737.62
542.575	734.62
542.789	723.62
543.002	711.62
543.216	738.62
543.43	741.62
543.644	722.62
543.857	729.62
544.071	733.62
544.285	764.62
544.498	740.62
544.712	729.62
544.925	753.62
545.139	772.62
545.352	740.62
545.566	761.62
545.779	769.62
545.993	789.62
546.206	771.62
546.42	745.62
546.633	787.62
546.847	794.62
547.06	757.62
547.274	757.62
547.487	773.62
547.7	749.62
547.914	757.62
548.127	773.62
548.34	775.62
548.554	750.62
548.767	801.62
548.98	755.62
549.193	773.62
549.407	783.62
549.62	810.62
549.833	795.62
550.046	773.62
550.259	770.62
550.473	753.62
550.686	745.62
550.899	745.62
551.112	754.62
551.325	742.62
551.538	759.62
551.751	756.62
551.964	762.62
552.177	764.62
552.39	745.62
552.603	801.62
552.816	809.62
553.029	821.62
553.242	833.62
553.455	837.62
553.667	860.62
553.88	824.62
554.093	806.62
554.306	808.62
554.519	794.62
554.732	780.62
554.944	747.62
555.157	735.62
555.37	719.62
555.583	712.62
555.795	727.62
556.008	703.62
556.221	675.62
556.433	667.62
556.646	682.62
556.859	675.62
557.071	659.62
557.284	641.62
557.496	655.62
557.709	668.62
557.921	641.62
558.134	627.62
558.346	645.62
558.559	631.62
558.771	629.62
558.984	645.62
559.196	638.62
559.409	632.62
559.621	632.62
559.833	640.62
560.046	609.62
560.258	639.62
560.47	635.62
560.683	633.62
560.895	638.62
561.107	615.62
561.32	637.62
561.532	617.62
561.744	621.62
561.956	620.62
562.168	648.62
562.381	613.62
562.593	616.62
562.805	629.62
563.017	643.62
563.229	631.62
563.441	655.62
563.653	648.62
563.865	619.62
564.077	637.62
564.289	647.62
564.501	644.62
564.713	652.62
564.925	647.62
565.137	716.62
565.349	715.62
565.561	730.62
565.773	742.62
565.985	799.62
566.197	827.62
566.408	881.62
566.62	959.62
566.832	1045.62
567.044	1083.62
567.255	1077.62
567.467	1071.62
567.679	1148.62
567.891	1222.62
568.102	1303.62
568.314	1215.62
568.526	1079.62
568.737	967.62
568.949	895.62
569.161	819.62
569.372	785.62
569.584	723.62
569.795	693.62
570.007	684.62
570.218	661.62
570.43	641.62
570.641	672.62
570.853	666.62
571.064	663.62
571.276	683.62
571.487	649.62
571.698	636.62
571.91	600.62
572.121	595.62
572.333	576.62
572.544	575.62
572.755	561.62
572.966	573.62
573.178	542.62
573.389	556.62
573.6	521.62
573.811	527.62
574.023	536.62
574.234	529.62
574.445	527.62
574.656	507.62
574.867	537.62
575.078	538.62
575.289	537.62
575.501	548.62
575.712	506.62
575.923	505.62
576.134	507.62
576.345	503.62
576.556	487.62
576.767	522.62
576.978	526.62
577.188	499.62
577.399	502.62
577.61	503.62
577.821	489.62
578.032	474.62
578.243	481.62
578.454	481.62
578.665	469.62
578.875	485.62
579.086	468.62
579.297	476.62
579.508	481.62
579.718	466.62
579.929	462.62
580.14	455.62
580.35	449.62
580.561	475.62
580.772	467.62
580.982	451.62
581.193	444.62
581.403	420.62
581.614	446.62
581.825	465.62
582.035	460.62
582.246	451.62
582.456	449.62
582.667	438.62
582.877	443.62
583.087	448.62
583.298	436.62
583.508	459.62
583.719	437.62
583.929	447.62
584.139	413.62
584.35	440.62
584.56	429.62
584.77	439.62
584.981	435.62
585.191	427.62
585.401	458.62
585.611	436.62
585.821	431.62
586.032	425.62
586.242	440.62
586.452	421.62
586.662	421.62
586.872	434.62
587.082	445.62
587.292	428.62
587.502	443.62
587.713	446.62
587.923	418.62
588.133	414.62
588.343	411.62
588.553	416.62
588.762	421.62
588.972	442.62
589.182	453.62
589.392	464.62
589.602	443.62
589.812	423.62
590.022	428.62
590.232	423.62
590.441	429.62
590.651	415.62
590.861	430.62
591.071	421.62
591.281	439.62
591.49	468.62
591.7	464.62
591.91	465.62
592.119	482.62
592.329	467.62
592.539	475.62
592.748	517.62
592.958	515.62
593.167	546.62
593.377	526.62
593.587	547.62
593.796	541.62
594.006	573.62
594.215	574.62
594.424	552.62
594.634	563.62
594.843	529.62
595.053	519.62
595.262	450.62
595.472	468.62
595.681	431.62
595.89	436.62
596.1	420.62
596.309	417.62
596.518	443.62
596.727	421.62
596.937	409.62
597.146	389.62
597.355	395.62
597.564	406.62
597.774	387.62
597.983	393.62
598.192	387.62
598.401	400.62
598.61	385.62
598.819	384.62
599.028	364.62
599.237	380.62
599.446	369.62
599.655	392.62
599.864	371.62
600.073	375.62
600.282	345.62
600.491	365.62
600.7	350.62
600.909	351.62
601.118	342.62
601.327	364.62
601.536	381.62
601.745	362.62
601.953	364.62
602.162	357.62
602.371	342.62
602.58	353.62
602.789	366.62
602.997	351.62
603.206	369.62
603.415	357.62
603.623	351.62
603.832	350.62
604.041	338.62
604.249	354.62
604.458	329.62
604.666	324.62
604.875	345.62
605.084	348.62
605.292	343.62
605.501	330.62
605.709	331.62
605.918	335.62
606.126	354.62
606.334	350.62
606.543	335.62
606.751	330.62
606.96	330.62
607.168	332.62
607.376	334.62
607.585	331.62
607.793	340.62
608.001	336.62
608.21	339.62
608.418	328.62
608.626	344.62
608.834	327.62
609.043	309.62
609.251	326.62
609.459	335.62
609.667	329.62
609.875	335.62
610.083	321.62
610.291	310.62
610.499	315.62
610.707	332.62
610.916	349.62
611.124	326.62
611.332	317.62
611.54	317.62
611.748	313.62
611.955	317.62
612.163	289.62
612.371	323.62
612.579	309.62
612.787	311.62
612.995	317.62
613.203	331.62
613.411	314.62
613.618	302.62
613.826	311.62
614.034	331.62
614.242	312.62
614.449	313.62
614.657	307.62
614.865	312.62
615.072	315.62
615.28	307.62
615.488	315.62
615.695	326.62
615.903	305.62
616.111	316.62
616.318	318.62
616.526	329.62
616.733	318.62
616.941	321.62
617.148	325.62
617.356	321.62
617.563	327.62
617.771	309.62
617.978	305.62
618.185	311.62
618.393	316.62
618.6	319.62
618.807	307.62
619.015	315.62
619.222	311.62
619.429	294.62
619.637	284.62
619.844	307.62
620.051	297.62
620.258	311.62
620.466	302.62
620.673	269.62
620.88	275.62
621.087	286.62
621.294	287.62
621.501	300.62
621.708	311.62
621.915	304.62
622.122	275.62
622.329	296.62
622.536	291.62
622.743	276.62
622.95	273.62
623.157	267.62
623.364	285.62
623.571	284.62
623.778	286.62
623.985	277.62
624.192	270.62
624.399	279.62
624.606	310.62
624.812	269.62
625.019	285.62
625.226	284.62
625.433	267.62
625.639	269.62
625.846	283.62
626.053	262.62
626.259	281.62
626.466	269.62
626.673	269.62
626.879	278.62
627.086	271.62
627.293	270.62
627.499	280.62
627.706	265.62
627.912	275.62
628.119	277.62
628.325	272.62
628.532	273.62
628.738	267.62
628.945	241.62
629.151	279.62
629.357	245.62
629.564	231.62
629.77	263.62
629.976	267.62
630.183	261.62
630.389	241.62
630.595	253.62
630.802	246.62
631.008	246.62
631.214	235.62
631.42	249.62
631.627	245.62
631.833	241.62
632.039	232.62
632.245	228.62
632.451	238.62
632.657	244.62
632.863	244.62
633.069	246.62
633.275	250.62
633.481	239.62
633.688	239.62
633.893	247.62
634.099	240.62
634.305	230.62
634.511	215.62
634.717	238.62
634.923	238.62
635.129	225.62
635.335	235.62
635.541	261.62
635.747	225.62
635.952	216.62
636.158	235.62
636.364	236.62
636.57	237.62
636.775	234.62
636.981	236.62
637.187	245.62
637.392	218.62
637.598	245.62
637.804	215.62
638.009	222.62
638.215	215.62
638.421	218.62
638.626	238.62
638.832	227.62
639.037	214.62
639.243	217.62
639.448	217.62
639.654	220.62
639.859	202.62
640.065	213.62
640.27	204.62
640.475	198.62
640.681	213.62
640.886	189.62
641.091	227.62
641.297	216.62
641.502	205.62
641.707	217.62
641.913	205.62
642.118	224.62
642.323	225.62
642.528	218.62
642.733	210.62
642.939	220.62
643.144	213.62
643.349	195.62
643.554	211.62
643.759	199.62
643.964	214.62
644.169	213.62
644.374	224.62
644.579	195.62
644.784	193.62
644.989	223.62
645.194	202.62
645.399	205.62
645.604	194.62
645.809	222.62
646.014	211.62
646.219	212.62
646.423	214.62
646.628	211.62
646.833	214.62
647.038	196.62
647.243	206.62
647.447	207.62
647.652	222.62
647.857	218.62
648.062	226.62
648.266	215.62
648.471	232.62
648.676	236.62
648.88	223.62
649.085	236.62
649.289	228.62
649.494	226.62
649.698	194.62
649.903	188.62
650.107	215.62
650.312	207.62
650.516	209.62
650.721	210.62
650.925	199.62
651.13	195.62
651.334	183.62
651.539	173.62
651.743	194.62
651.947	179.62
652.152	193.62
652.356	193.62
652.56	181.62
652.764	188.62
652.969	175.62
653.173	187.62
653.377	175.62
653.581	162.62
653.785	173.62
653.99	164.62
654.194	181.62
654.398	170.62
654.602	165.62
654.806	181.62
655.01	170.62
655.214	173.62
655.418	156.62
655.622	152.62
655.826	162.62
656.03	172.62
656.234	164.62
656.438	156.62
656.642	163.62
656.846	155.62
657.049	154.62
657.253	152.62
657.457	134.62
657.661	142.62
657.865	141.62
658.068	125.62
658.272	106.62
658.476	115.62
658.68	134.62
658.883	120.62
659.087	113.62
659.291	115.62
659.494	112.62
659.698	108.62
659.901	115.62
660.105	106.62
660.309	109.62
660.512	104.62
660.716	102.62
660.919	109.62
661.123	109.62
661.326	79.62
661.53	103.62
661.733	107.62
661.936	101.62
662.14	87.62
662.343	94.62
662.546	93.62
662.75	92.62
662.953	78.62
663.156	88.62
663.36	88.62
663.563	83.62
663.766	74.62
663.969	85.62
664.173	85.62
664.376	89.62
664.579	82.62
664.782	73.62
664.985	79.62
665.188	78.62
665.391	87.62
665.594	79.62
665.797	95.62
666	73.62
666.203	80.62
666.406	80.62
666.609	82.62
666.812	93.62
667.015	78.62
667.218	78.62
667.421	100.62
667.624	75.62
667.827	70.62
668.03	89.62
668.232	76.62
668.435	81.62
668.638	81.62
668.841	87.62
669.043	90.62
669.246	91.62
669.449	88.62
669.651	80.62
669.854	82.62
670.057	74.62
670.259	82.62
670.462	71.62
670.665	85.62
670.867	79.62
671.07	80.62
671.272	87.62
671.475	76.62
671.677	92.62
671.88	78.62
672.082	77.62
672.284	78.62
672.487	87.62
672.689	78.62
672.892	70.62
