Data from NiCl2@0.125M.TitratingCurve.Agarose3%dH2O.NegLispCup.LampEnergy10.LIBS07252019_HRD10591_18-29-16-575.txt Node
Date: Thu Jul 25 18:29:16 EDT 2019
User: cochatt
Spectrometer: HR+D1059
Trigger mode: 1
Integration Time (sec): 1.000000E-1
Scans to average: 1
Electric dark correction enabled: true
Nonlinearity correction enabled: false
Boxcar width: 0
XAxis mode: Wavelengths
Number of Pixels in Spectrum: 2048
>>>>>Begin Spectral Data<<<<<
223.165	-13.62
223.4	-13.62
223.635	-13.62
223.869	-18.62
224.104	-8.62
224.338	-35.62
224.573	-7.62
224.808	-21.62
225.042	-0.62
225.277	-0.62
225.511	-3.62
225.746	1.38
225.98	0.38
226.215	7.38
226.449	26.38
226.683	18.38
226.918	43.38
227.152	13.38
227.387	19.38
227.621	31.38
227.856	37.38
228.09	40.38
228.324	45.38
228.559	66.38
228.793	69.38
229.027	111.38
229.262	102.38
229.496	124.38
229.73	135.38
229.964	133.38
230.199	123.38
230.433	145.38
230.667	149.38
230.901	131.38
231.136	138.38
231.37	130.38
231.604	139.38
231.838	152.38
232.072	157.38
232.306	157.38
232.541	142.38
232.775	147.38
233.009	133.38
233.243	136.38
233.477	166.38
233.711	154.38
233.945	149.38
234.179	155.38
234.413	164.38
234.647	164.38
234.881	152.38
235.115	157.38
235.349	151.38
235.583	161.38
235.817	159.38
236.051	162.38
236.285	159.38
236.519	168.38
236.753	168.38
236.987	161.38
237.221	155.38
237.455	149.38
237.689	172.38
237.922	163.38
238.156	151.38
238.39	183.38
238.624	159.38
238.858	165.38
239.091	188.38
239.325	191.38
239.559	181.38
239.793	181.38
240.027	178.38
240.26	181.38
240.494	175.38
240.728	178.38
240.961	190.38
241.195	197.38
241.429	191.38
241.662	200.38
241.896	180.38
242.13	205.38
242.363	200.38
242.597	194.38
242.83	205.38
243.064	209.38
243.298	199.38
243.531	198.38
243.765	226.38
243.998	206.38
244.232	210.38
244.465	214.38
244.699	209.38
244.932	232.38
245.166	232.38
245.399	234.38
245.633	211.38
245.866	228.38
246.099	234.38
246.333	236.38
246.566	216.38
246.8	236.38
247.033	234.38
247.266	245.38
247.5	260.38
247.733	239.38
247.966	244.38
248.2	251.38
248.433	252.38
248.666	233.38
248.899	241.38
249.133	261.38
249.366	252.38
249.599	255.38
249.832	244.38
250.066	258.38
250.299	267.38
250.532	265.38
250.765	265.38
250.998	256.38
251.231	266.38
251.465	268.38
251.698	260.38
251.931	281.38
252.164	286.38
252.397	275.38
252.63	287.38
252.863	287.38
253.096	280.38
253.329	279.38
253.562	295.38
253.795	283.38
254.028	288.38
254.261	286.38
254.494	284.38
254.727	304.38
254.96	280.38
255.193	303.38
255.426	294.38
255.659	299.38
255.892	310.38
256.124	289.38
256.357	298.38
256.59	289.38
256.823	306.38
257.056	300.38
257.289	298.38
257.521	309.38
257.754	316.38
257.987	315.38
258.22	315.38
258.452	315.38
258.685	292.38
258.918	326.38
259.151	310.38
259.383	314.38
259.616	310.38
259.849	326.38
260.081	350.38
260.314	332.38
260.547	336.38
260.779	352.38
261.012	329.38
261.244	334.38
261.477	345.38
261.71	337.38
261.942	323.38
262.175	347.38
262.407	337.38
262.64	331.38
262.872	347.38
263.105	348.38
263.337	351.38
263.57	356.38
263.802	360.38
264.035	342.38
264.267	374.38
264.499	356.38
264.732	375.38
264.964	346.38
265.197	373.38
265.429	361.38
265.661	367.38
265.894	371.38
266.126	366.38
266.358	382.38
266.591	375.38
266.823	342.38
267.055	365.38
267.287	393.38
267.52	371.38
267.752	386.38
267.984	374.38
268.216	372.38
268.448	401.38
268.681	379.38
268.913	391.38
269.145	377.38
269.377	383.38
269.609	378.38
269.841	403.38
270.073	362.38
270.306	381.38
270.538	403.38
270.77	384.38
271.002	375.38
271.234	383.38
271.466	413.38
271.698	415.38
271.93	409.38
272.162	407.38
272.394	419.38
272.626	395.38
272.858	399.38
273.09	418.38
273.322	399.38
273.553	403.38
273.785	410.38
274.017	425.38
274.249	412.38
274.481	425.38
274.713	412.38
274.945	431.38
275.176	421.38
275.408	436.38
275.64	416.38
275.872	438.38
276.104	450.38
276.335	443.38
276.567	431.38
276.799	440.38
277.031	432.38
277.262	442.38
277.494	448.38
277.726	423.38
277.957	426.38
278.189	447.38
278.421	459.38
278.652	447.38
278.884	453.38
279.115	455.38
279.347	444.38
279.579	447.38
279.81	461.38
280.042	473.38
280.273	471.38
280.505	460.38
280.736	469.38
280.968	471.38
281.199	447.38
281.431	476.38
281.662	507.38
281.894	476.38
282.125	473.38
282.356	502.38
282.588	478.38
282.819	489.38
283.051	489.38
283.282	476.38
283.513	489.38
283.745	491.38
283.976	500.38
284.207	502.38
284.439	515.38
284.67	523.38
284.901	510.38
285.132	533.38
285.364	501.38
285.595	500.38
285.826	515.38
286.057	506.38
286.288	494.38
286.52	524.38
286.751	520.38
286.982	522.38
287.213	512.38
287.444	549.38
287.675	519.38
287.906	545.38
288.138	538.38
288.369	548.38
288.6	551.38
288.831	539.38
289.062	529.38
289.293	535.38
289.524	549.38
289.755	552.38
289.986	544.38
290.217	526.38
290.448	540.38
290.679	548.38
290.91	529.38
291.141	549.38
291.371	545.38
291.602	545.38
291.833	561.38
292.064	540.38
292.295	554.38
292.526	551.38
292.757	536.38
292.987	556.38
293.218	544.38
293.449	553.38
293.68	558.38
293.91	554.38
294.141	552.38
294.372	566.38
294.603	577.38
294.833	584.38
295.064	579.38
295.295	568.38
295.525	557.38
295.756	572.38
295.987	564.38
296.217	603.38
296.448	572.38
296.679	560.38
296.909	588.38
297.14	584.38
297.37	592.38
297.601	580.38
297.831	587.38
298.062	588.38
298.292	603.38
298.523	624.38
298.753	630.38
298.984	634.38
299.214	623.38
299.445	610.38
299.675	583.38
299.905	602.38
300.136	612.38
300.366	603.38
300.597	619.38
300.827	633.38
301.057	628.38
301.288	653.38
301.518	630.38
301.748	598.38
301.979	624.38
302.209	629.38
302.439	623.38
302.669	629.38
302.9	611.38
303.13	614.38
303.36	616.38
303.59	616.38
303.82	618.38
304.051	620.38
304.281	640.38
304.511	620.38
304.741	614.38
304.971	650.38
305.201	623.38
305.431	627.38
305.661	612.38
305.891	604.38
306.121	613.38
306.352	601.38
306.582	601.38
306.812	629.38
307.042	625.38
307.272	592.38
307.502	594.38
307.731	591.38
307.961	595.38
308.191	595.38
308.421	589.38
308.651	603.38
308.881	591.38
309.111	569.38
309.341	596.38
309.571	613.38
309.8	591.38
310.03	579.38
310.26	600.38
310.49	582.38
310.72	588.38
310.949	627.38
311.179	601.38
311.409	591.38
311.639	610.38
311.868	626.38
312.098	623.38
312.328	618.38
312.557	631.38
312.787	633.38
313.017	629.38
313.246	634.38
313.476	653.38
313.706	650.38
313.935	639.38
314.165	665.38
314.394	639.38
314.624	636.38
314.853	643.38
315.083	633.38
315.312	626.38
315.542	640.38
315.771	606.38
316.001	620.38
316.23	635.38
316.46	620.38
316.689	643.38
316.919	613.38
317.148	618.38
317.377	631.38
317.607	587.38
317.836	603.38
318.065	590.38
318.295	632.38
318.524	618.38
318.753	603.38
318.983	632.38
319.212	619.38
319.441	633.38
319.67	623.38
319.9	631.38
320.129	610.38
320.358	599.38
320.587	601.38
320.816	609.38
321.046	611.38
321.275	629.38
321.504	631.38
321.733	645.38
321.962	628.38
322.191	639.38
322.42	634.38
322.649	613.38
322.878	622.38
323.108	627.38
323.337	633.38
323.566	645.38
323.795	635.38
324.024	668.38
324.253	633.38
324.482	655.38
324.71	654.38
324.939	632.38
325.168	657.38
325.397	641.38
325.626	653.38
325.855	677.38
326.084	670.38
326.313	670.38
326.542	676.38
326.77	726.38
326.999	692.38
327.228	663.38
327.457	655.38
327.686	706.38
327.914	687.38
328.143	683.38
328.372	668.38
328.6	686.38
328.829	681.38
329.058	689.38
329.287	669.38
329.515	674.38
329.744	679.38
329.972	669.38
330.201	702.38
330.43	710.38
330.658	689.38
330.887	704.38
331.115	688.38
331.344	717.38
331.572	721.38
331.801	743.38
332.03	756.38
332.258	763.38
332.486	780.38
332.715	821.38
332.943	843.38
333.172	875.38
333.4	944.38
333.629	973.38
333.857	942.38
334.085	968.38
334.314	896.38
334.542	928.38
334.771	908.38
334.999	839.38
335.227	856.38
335.455	866.38
335.684	857.38
335.912	872.38
336.14	820.38
336.369	825.38
336.597	832.38
336.825	849.38
337.053	840.38
337.281	819.38
337.51	806.38
337.738	736.38
337.966	757.38
338.194	775.38
338.422	729.38
338.65	739.38
338.878	740.38
339.106	746.38
339.334	744.38
339.562	740.38
339.79	732.38
340.018	689.38
340.246	709.38
340.474	717.38
340.702	731.38
340.93	712.38
341.158	707.38
341.386	705.38
341.614	716.38
341.842	716.38
342.07	684.38
342.298	696.38
342.526	693.38
342.754	698.38
342.981	711.38
343.209	714.38
343.437	742.38
343.665	813.38
343.893	884.38
344.12	904.38
344.348	863.38
344.576	808.38
344.804	780.38
345.031	741.38
345.259	746.38
345.487	730.38
345.714	713.38
345.942	716.38
346.17	716.38
346.397	707.38
346.625	691.38
346.853	683.38
347.08	681.38
347.308	705.38
347.535	674.38
347.763	722.38
347.99	724.38
348.218	718.38
348.445	733.38
348.673	685.38
348.9	701.38
349.128	691.38
349.355	683.38
349.583	683.38
349.81	664.38
350.037	673.38
350.265	666.38
350.492	643.38
350.72	647.38
350.947	660.38
351.174	639.38
351.402	645.38
351.629	655.38
351.856	651.38
352.083	656.38
352.311	646.38
352.538	676.38
352.765	668.38
352.992	667.38
353.22	645.38
353.447	626.38
353.674	648.38
353.901	653.38
354.128	645.38
354.355	634.38
354.583	674.38
354.81	645.38
355.037	663.38
355.264	667.38
355.491	658.38
355.718	662.38
355.945	677.38
356.172	664.38
356.399	649.38
356.626	676.38
356.853	665.38
357.08	667.38
357.307	660.38
357.534	651.38
357.761	675.38
357.988	671.38
358.215	665.38
358.441	628.38
358.668	666.38
358.895	645.38
359.122	661.38
359.349	651.38
359.576	673.38
359.802	644.38
360.029	665.38
360.256	669.38
360.483	656.38
360.709	660.38
360.936	653.38
361.163	635.38
361.39	653.38
361.616	650.38
361.843	646.38
362.07	665.38
362.296	658.38
362.523	658.38
362.749	652.38
362.976	679.38
363.203	658.38
363.429	652.38
363.656	670.38
363.882	642.38
364.109	661.38
364.335	653.38
364.562	649.38
364.788	653.38
365.015	653.38
365.241	641.38
365.468	661.38
365.694	642.38
365.92	646.38
366.147	639.38
366.373	671.38
366.599	652.38
366.826	669.38
367.052	650.38
367.278	664.38
367.505	671.38
367.731	647.38
367.957	675.38
368.184	658.38
368.41	662.38
368.636	682.38
368.862	700.38
369.089	672.38
369.315	657.38
369.541	678.38
369.767	686.38
369.993	670.38
370.219	677.38
370.445	697.38
370.672	687.38
370.898	704.38
371.124	701.38
371.35	740.38
371.576	720.38
371.802	711.38
372.028	698.38
372.254	703.38
372.48	723.38
372.706	724.38
372.932	763.38
373.158	747.38
373.384	727.38
373.61	725.38
373.835	722.38
374.061	705.38
374.287	715.38
374.513	711.38
374.739	741.38
374.965	786.38
375.191	790.38
375.416	819.38
375.642	772.38
375.868	767.38
376.094	751.38
376.319	760.38
376.545	744.38
376.771	731.38
376.997	727.38
377.222	717.38
377.448	723.38
377.674	713.38
377.899	691.38
378.125	704.38
378.35	710.38
378.576	733.38
378.802	701.38
379.027	701.38
379.253	689.38
379.478	712.38
379.704	702.38
379.929	691.38
380.155	700.38
380.38	714.38
380.606	711.38
380.831	695.38
381.057	713.38
381.282	722.38
381.507	706.38
381.733	723.38
381.958	718.38
382.184	721.38
382.409	739.38
382.634	755.38
382.86	729.38
383.085	781.38
383.31	781.38
383.535	799.38
383.761	783.38
383.986	827.38
384.211	856.38
384.436	860.38
384.662	843.38
384.887	883.38
385.112	893.38
385.337	887.38
385.562	878.38
385.787	860.38
386.013	867.38
386.238	883.38
386.463	898.38
386.688	883.38
386.913	841.38
387.138	868.38
387.363	838.38
387.588	843.38
387.813	848.38
388.038	852.38
388.263	840.38
388.488	869.38
388.713	852.38
388.938	856.38
389.163	846.38
389.387	826.38
389.612	831.38
389.837	827.38
390.062	831.38
390.287	832.38
390.512	836.38
390.736	871.38
390.961	865.38
391.186	897.38
391.411	915.38
391.636	956.38
391.86	970.38
392.085	1003.38
392.31	1020.38
392.534	988.38
392.759	931.38
392.984	915.38
393.208	932.38
393.433	944.38
393.658	927.38
393.882	961.38
394.107	930.38
394.331	951.38
394.556	917.38
394.78	955.38
395.005	951.38
395.229	930.38
395.454	963.38
395.678	982.38
395.903	992.38
396.127	963.38
396.352	929.38
396.576	927.38
396.801	911.38
397.025	929.38
397.249	921.38
397.474	968.38
397.698	976.38
397.922	970.38
398.147	931.38
398.371	994.38
398.595	1003.38
398.82	1064.38
399.044	1137.38
399.268	1269.38
399.492	1509.38
399.717	1723.38
399.941	1729.38
400.165	1505.38
400.389	1345.38
400.613	1217.38
400.837	1141.38
401.062	1111.38
401.286	1094.38
401.51	1121.38
401.734	1088.38
401.958	1116.38
402.182	1115.38
402.406	1140.38
402.63	1175.38
402.854	1185.38
403.078	1190.38
403.302	1222.38
403.526	1261.38
403.75	1302.38
403.974	1291.38
404.198	1334.38
404.422	1338.38
404.645	1299.38
404.869	1306.38
405.093	1282.38
405.317	1269.38
405.541	1253.38
405.765	1207.38
405.988	1242.38
406.212	1225.38
406.436	1222.38
406.66	1214.38
406.883	1269.38
407.107	1327.38
407.331	1428.38
407.555	1472.38
407.778	1460.38
408.002	1400.38
408.226	1346.38
408.449	1324.38
408.673	1297.38
408.896	1246.38
409.12	1268.38
409.344	1290.38
409.567	1282.38
409.791	1313.38
410.014	1276.38
410.238	1237.38
410.461	1247.38
410.685	1222.38
410.908	1223.38
411.132	1207.38
411.355	1159.38
411.578	1137.38
411.802	1121.38
412.025	1150.38
412.249	1204.38
412.472	1149.38
412.695	1126.38
412.919	1089.38
413.142	1077.38
413.365	1096.38
413.589	1095.38
413.812	1111.38
414.035	1086.38
414.258	1065.38
414.482	1089.38
414.705	1128.38
414.928	1129.38
415.151	1155.38
415.374	1087.38
415.597	1104.38
415.821	1073.38
416.044	1071.38
416.267	1055.38
416.49	1057.38
416.713	1071.38
416.936	1076.38
417.159	1091.38
417.382	1082.38
417.605	1117.38
417.828	1097.38
418.051	1127.38
418.274	1084.38
418.497	1114.38
418.72	1158.38
418.943	1125.38
419.166	1192.38
419.389	1252.38
419.611	1249.38
419.834	1161.38
420.057	1165.38
420.28	1103.38
420.503	1089.38
420.726	1103.38
420.948	1105.38
421.171	1074.38
421.394	1087.38
421.617	1084.38
421.839	1122.38
422.062	1120.38
422.285	1084.38
422.507	1118.38
422.73	1139.38
422.953	1151.38
423.175	1145.38
423.398	1145.38
423.621	1161.38
423.843	1206.38
424.066	1185.38
424.288	1179.38
424.511	1181.38
424.733	1164.38
424.956	1153.38
425.178	1121.38
425.401	1111.38
425.623	1122.38
425.846	1084.38
426.068	1063.38
426.291	1041.38
426.513	1051.38
426.735	1034.38
426.958	1015.38
427.18	1031.38
427.402	1015.38
427.625	990.38
427.847	995.38
428.069	991.38
428.292	974.38
428.514	981.38
428.736	977.38
428.958	982.38
429.181	945.38
429.403	943.38
429.625	962.38
429.847	956.38
430.069	952.38
430.292	957.38
430.514	940.38
430.736	961.38
430.958	959.38
431.18	983.38
431.402	951.38
431.624	929.38
431.846	968.38
432.068	996.38
432.29	990.38
432.512	991.38
432.734	1025.38
432.956	973.38
433.178	951.38
433.4	1025.38
433.622	999.38
433.844	991.38
434.066	994.38
434.287	971.38
434.509	1034.38
434.731	1064.38
434.953	1098.38
435.175	1149.38
435.397	1135.38
435.618	1035.38
435.84	1013.38
436.062	1011.38
436.284	982.38
436.505	956.38
436.727	988.38
436.949	971.38
437.17	971.38
437.392	967.38
437.614	968.38
437.835	938.38
438.057	949.38
438.278	945.38
438.5	932.38
438.721	955.38
438.943	956.38
439.165	954.38
439.386	957.38
439.608	961.38
439.829	961.38
440.05	987.38
440.272	978.38
440.493	995.38
440.715	1016.38
440.936	1023.38
441.158	1023.38
441.379	1061.38
441.6	1128.38
441.822	1135.38
442.043	1115.38
442.264	1097.38
442.486	1085.38
442.707	1078.38
442.928	1073.38
443.149	1078.38
443.371	1099.38
443.592	1122.38
443.813	1106.38
444.034	1124.38
444.255	1158.38
444.476	1257.38
444.698	1321.38
444.919	1370.38
445.14	1456.38
445.361	1293.38
445.582	1173.38
445.803	1073.38
446.024	1079.38
446.245	1069.38
446.466	1042.38
446.687	972.38
446.908	1007.38
447.129	959.38
447.35	949.38
447.571	945.38
447.792	915.38
448.013	922.38
448.234	948.38
448.455	940.38
448.675	910.38
448.896	919.38
449.117	899.38
449.338	889.38
449.559	889.38
449.779	894.38
450	918.38
450.221	882.38
450.442	919.38
450.662	936.38
450.883	931.38
451.104	949.38
451.324	949.38
451.545	927.38
451.766	951.38
451.986	954.38
452.207	922.38
452.428	904.38
452.648	907.38
452.869	875.38
453.089	883.38
453.31	876.38
453.53	902.38
453.751	893.38
453.971	887.38
454.192	889.38
454.412	839.38
454.633	899.38
454.853	865.38
455.073	848.38
455.294	893.38
455.514	868.38
455.734	863.38
455.955	833.38
456.175	841.38
456.395	845.38
456.616	843.38
456.836	860.38
457.056	844.38
457.276	827.38
457.497	816.38
457.717	829.38
457.937	844.38
458.157	874.38
458.377	884.38
458.598	864.38
458.818	899.38
459.038	909.38
459.258	936.38
459.478	981.38
459.698	1005.38
459.918	1047.38
460.138	1091.38
460.358	1153.38
460.578	1201.38
460.798	1181.38
461.018	1190.38
461.238	1181.38
461.458	1131.38
461.678	1177.38
461.898	1184.38
462.118	1181.38
462.338	1275.38
462.558	1307.38
462.777	1359.38
462.997	1476.38
463.217	1595.38
463.437	1681.38
463.657	1509.38
463.876	1429.38
464.096	1418.38
464.316	1407.38
464.536	1409.38
464.755	1370.38
464.975	1313.38
465.195	1263.38
465.414	1129.38
465.634	1061.38
465.854	1008.38
466.073	995.38
466.293	978.38
466.512	973.38
466.732	938.38
466.951	968.38
467.171	949.38
467.391	935.38
467.61	972.38
467.829	983.38
468.049	956.38
468.268	915.38
468.488	903.38
468.707	893.38
468.927	890.38
469.146	889.38
469.365	915.38
469.585	908.38
469.804	952.38
470.023	940.38
470.243	978.38
470.462	989.38
470.681	1007.38
470.901	1010.38
471.12	968.38
471.339	949.38
471.558	907.38
471.777	925.38
471.997	927.38
472.216	890.38
472.435	893.38
472.654	869.38
472.873	870.38
473.092	877.38
473.311	856.38
473.53	872.38
473.749	883.38
473.968	895.38
474.187	875.38
474.406	840.38
474.625	865.38
474.844	891.38
475.063	876.38
475.282	888.38
475.501	881.38
475.72	902.38
475.939	874.38
476.158	887.38
476.377	927.38
476.596	903.38
476.814	934.38
477.033	929.38
477.252	960.38
477.471	966.38
477.69	953.38
477.908	981.38
478.127	1064.38
478.346	1053.38
478.564	1062.38
478.783	1090.38
479.002	1097.38
479.22	1105.38
479.439	1105.38
479.658	1131.38
479.876	1097.38
480.095	1088.38
480.313	1153.38
480.532	1191.38
480.751	1183.38
480.969	1140.38
481.188	1121.38
481.406	1060.38
481.624	1030.38
481.843	992.38
482.061	1000.38
482.28	1000.38
482.498	997.38
482.717	969.38
482.935	988.38
483.153	963.38
483.372	986.38
483.59	987.38
483.808	984.38
484.027	1000.38
484.245	1014.38
484.463	1014.38
484.681	1021.38
484.9	1034.38
485.118	1039.38
485.336	1029.38
485.554	1045.38
485.772	1069.38
485.99	1045.38
486.209	1079.38
486.427	1090.38
486.645	1094.38
486.863	1066.38
487.081	1044.38
487.299	1033.38
487.517	1056.38
487.735	1047.38
487.953	1036.38
488.171	1051.38
488.389	1029.38
488.607	1016.38
488.825	1027.38
489.043	1053.38
489.261	1027.38
489.479	1031.38
489.696	1034.38
489.914	1044.38
490.132	1010.38
490.35	1045.38
490.568	1033.38
490.786	1029.38
491.003	1043.38
491.221	1047.38
491.439	1028.38
491.657	1057.38
491.874	1066.38
492.092	1029.38
492.31	1042.38
492.527	1057.38
492.745	1039.38
492.963	1082.38
493.18	1057.38
493.398	1071.38
493.615	1085.38
493.833	1106.38
494.05	1097.38
494.268	1083.38
494.485	1114.38
494.703	1093.38
494.92	1116.38
495.138	1115.38
495.355	1101.38
495.573	1107.38
495.79	1122.38
496.008	1095.38
496.225	1095.38
496.442	1124.38
496.66	1132.38
496.877	1144.38
497.094	1137.38
497.312	1207.38
497.529	1185.38
497.746	1281.38
497.963	1293.38
498.181	1352.38
498.398	1385.38
498.615	1467.38
498.832	1612.38
499.049	1710.38
499.267	1875.38
499.484	2071.38
499.701	2304.38
499.918	2528.38
500.135	2885.38
500.352	3432.38
500.569	3651.38
500.786	3580.38
501.003	3356.38
501.22	2959.38
501.437	2613.38
501.654	2216.38
501.871	1981.38
502.088	1816.38
502.305	1717.38
502.522	1615.38
502.739	1537.38
502.956	1459.38
503.172	1409.38
503.389	1313.38
503.606	1284.38
503.823	1288.38
504.04	1212.38
504.256	1248.38
504.473	1275.38
504.69	1339.38
504.907	1351.38
505.123	1219.38
505.34	1140.38
505.557	1110.38
505.773	1068.38
505.99	1059.38
506.207	1034.38
506.423	982.38
506.64	994.38
506.856	996.38
507.073	1002.38
507.289	975.38
507.506	973.38
507.722	956.38
507.939	972.38
508.155	924.38
508.372	931.38
508.588	913.38
508.805	919.38
509.021	931.38
509.238	915.38
509.454	913.38
509.67	914.38
509.887	900.38
510.103	923.38
510.319	886.38
510.536	908.38
510.752	905.38
510.968	908.38
511.184	906.38
511.401	920.38
511.617	901.38
511.833	902.38
512.049	891.38
512.265	874.38
512.481	915.38
512.698	879.38
512.914	919.38
513.13	876.38
513.346	881.38
513.562	895.38
513.778	877.38
513.994	893.38
514.21	897.38
514.426	881.38
514.642	938.38
514.858	907.38
515.074	932.38
515.29	915.38
515.506	930.38
515.721	952.38
515.937	945.38
516.153	935.38
516.369	1010.38
516.585	1010.38
516.801	1074.38
517.016	1097.38
517.232	1183.38
517.448	1182.38
517.664	1289.38
517.879	1321.38
518.095	1323.38
518.311	1260.38
518.527	1194.38
518.742	1140.38
518.958	1109.38
519.173	1071.38
519.389	999.38
519.605	995.38
519.82	982.38
520.036	960.38
520.251	941.38
520.467	895.38
520.682	937.38
520.898	884.38
521.113	888.38
521.329	874.38
521.544	855.38
521.76	872.38
521.975	856.38
522.19	832.38
522.406	856.38
522.621	860.38
522.836	845.38
523.052	843.38
523.267	852.38
523.482	815.38
523.698	848.38
523.913	843.38
524.128	812.38
524.343	836.38
524.559	806.38
524.774	829.38
524.989	813.38
525.204	820.38
525.419	820.38
525.634	818.38
525.849	836.38
526.064	810.38
526.28	823.38
526.495	801.38
526.71	819.38
526.925	821.38
527.14	786.38
527.355	810.38
527.57	823.38
527.785	791.38
527.999	816.38
528.214	810.38
528.429	827.38
528.644	793.38
528.859	819.38
529.074	825.38
529.289	794.38
529.503	776.38
529.718	800.38
529.933	797.38
530.148	776.38
530.363	801.38
530.577	791.38
530.792	800.38
531.007	776.38
531.221	804.38
531.436	809.38
531.651	839.38
531.865	803.38
532.08	804.38
532.295	814.38
532.509	819.38
532.724	811.38
532.938	824.38
533.153	801.38
533.367	812.38
533.582	808.38
533.796	799.38
534.011	817.38
534.225	801.38
534.44	785.38
534.654	776.38
534.868	785.38
535.083	772.38
535.297	789.38
535.511	786.38
535.726	780.38
535.94	803.38
536.154	776.38
536.369	744.38
536.583	759.38
536.797	763.38
537.011	763.38
537.225	767.38
537.44	735.38
537.654	723.38
537.868	748.38
538.082	738.38
538.296	744.38
538.51	712.38
538.724	724.38
538.938	727.38
539.153	727.38
539.367	759.38
539.581	713.38
539.795	725.38
540.009	687.38
540.222	736.38
540.436	721.38
540.65	733.38
540.864	708.38
541.078	719.38
541.292	700.38
541.506	727.38
541.72	706.38
541.934	725.38
542.147	717.38
542.361	701.38
542.575	710.38
542.789	732.38
543.002	724.38
543.216	715.38
543.43	720.38
543.644	699.38
543.857	705.38
544.071	727.38
544.285	717.38
544.498	726.38
544.712	732.38
544.925	720.38
545.139	727.38
545.352	744.38
545.566	741.38
545.779	744.38
545.993	758.38
546.206	729.38
546.42	739.38
546.633	747.38
546.847	741.38
547.06	724.38
547.274	737.38
547.487	728.38
547.7	725.38
547.914	711.38
548.127	764.38
548.34	760.38
548.554	768.38
548.767	755.38
548.98	752.38
549.193	764.38
549.407	745.38
549.62	759.38
549.833	772.38
550.046	753.38
550.259	756.38
550.473	732.38
550.686	751.38
550.899	707.38
551.112	727.38
551.325	687.38
551.538	718.38
551.751	729.38
551.964	742.38
552.177	737.38
552.39	742.38
552.603	758.38
552.816	777.38
553.029	802.38
553.242	821.38
553.455	852.38
553.667	836.38
553.88	795.38
554.093	809.38
554.306	782.38
554.519	769.38
554.732	753.38
554.944	732.38
555.157	719.38
555.37	720.38
555.583	711.38
555.795	690.38
556.008	681.38
556.221	665.38
556.433	656.38
556.646	650.38
556.859	633.38
557.071	648.38
557.284	648.38
557.496	636.38
557.709	628.38
557.921	610.38
558.134	635.38
558.346	612.38
558.559	623.38
558.771	643.38
558.984	599.38
559.196	610.38
559.409	610.38
559.621	619.38
559.833	602.38
560.046	623.38
560.258	617.38
560.47	604.38
560.683	613.38
560.895	631.38
561.107	618.38
561.32	627.38
561.532	600.38
561.744	604.38
561.956	606.38
562.168	611.38
562.381	619.38
562.593	628.38
562.805	607.38
563.017	591.38
563.229	604.38
563.441	604.38
563.653	626.38
563.865	619.38
564.077	617.38
564.289	613.38
564.501	639.38
564.713	627.38
564.925	649.38
565.137	671.38
565.349	685.38
565.561	699.38
565.773	743.38
565.985	765.38
566.197	803.38
566.408	853.38
566.62	932.38
566.832	1040.38
567.044	1061.38
567.255	1031.38
567.467	1061.38
567.679	1160.38
567.891	1264.38
568.102	1287.38
568.314	1209.38
568.526	1075.38
568.737	1000.38
568.949	888.38
569.161	794.38
569.372	727.38
569.584	685.38
569.795	667.38
570.007	683.38
570.218	634.38
570.43	629.38
570.641	627.38
570.853	635.38
571.064	658.38
571.276	661.38
571.487	623.38
571.698	592.38
571.91	565.38
572.121	581.38
572.333	569.38
572.544	559.38
572.755	525.38
572.966	542.38
573.178	529.38
573.389	496.38
573.6	530.38
573.811	511.38
574.023	527.38
574.234	505.38
574.445	511.38
574.656	513.38
574.867	511.38
575.078	522.38
575.289	512.38
575.501	492.38
575.712	499.38
575.923	479.38
576.134	481.38
576.345	471.38
576.556	486.38
576.767	500.38
576.978	480.38
577.188	492.38
577.399	473.38
577.61	473.38
577.821	461.38
578.032	441.38
578.243	480.38
578.454	466.38
578.665	441.38
578.875	465.38
579.086	444.38
579.297	449.38
579.508	449.38
579.718	444.38
579.929	445.38
580.14	425.38
580.35	432.38
580.561	447.38
580.772	445.38
580.982	450.38
581.193	412.38
581.403	431.38
581.614	443.38
581.825	443.38
582.035	425.38
582.246	444.38
582.456	439.38
582.667	427.38
582.877	424.38
583.087	424.38
583.298	412.38
583.508	421.38
583.719	417.38
583.929	432.38
584.139	417.38
584.35	440.38
584.56	424.38
584.77	425.38
584.981	425.38
585.191	421.38
585.401	400.38
585.611	410.38
585.821	397.38
586.032	390.38
586.242	434.38
586.452	420.38
586.662	406.38
586.872	410.38
587.082	402.38
587.292	407.38
587.502	404.38
587.713	421.38
587.923	416.38
588.133	453.38
588.343	410.38
588.553	411.38
588.762	418.38
588.972	402.38
589.182	404.38
589.392	404.38
589.602	409.38
589.812	403.38
590.022	412.38
590.232	432.38
590.441	401.38
590.651	407.38
590.861	421.38
591.071	422.38
591.281	445.38
591.49	425.38
591.7	437.38
591.91	445.38
592.119	454.38
592.329	459.38
592.539	466.38
592.748	487.38
592.958	510.38
593.167	513.38
593.377	544.38
593.587	548.38
593.796	549.38
594.006	564.38
594.215	551.38
594.424	523.38
594.634	517.38
594.843	519.38
595.053	488.38
595.262	480.38
595.472	449.38
595.681	438.38
595.89	441.38
596.1	428.38
596.309	423.38
596.518	394.38
596.727	398.38
596.937	405.38
597.146	378.38
597.355	381.38
597.564	394.38
597.774	376.38
597.983	371.38
598.192	377.38
598.401	353.38
598.61	389.38
598.819	367.38
599.028	346.38
599.237	367.38
599.446	328.38
599.655	354.38
599.864	353.38
600.073	331.38
600.282	349.38
600.491	337.38
600.7	357.38
600.909	344.38
601.118	342.38
601.327	358.38
601.536	341.38
601.745	339.38
601.953	352.38
602.162	338.38
602.371	339.38
602.58	336.38
602.789	344.38
602.997	337.38
603.206	349.38
603.415	336.38
603.623	343.38
603.832	333.38
604.041	355.38
604.249	332.38
604.458	329.38
604.666	317.38
604.875	323.38
605.084	303.38
605.292	316.38
605.501	303.38
605.709	319.38
605.918	306.38
606.126	313.38
606.334	334.38
606.543	321.38
606.751	331.38
606.96	313.38
607.168	315.38
607.376	306.38
607.585	328.38
607.793	320.38
608.001	324.38
608.21	305.38
608.418	322.38
608.626	302.38
608.834	320.38
609.043	305.38
609.251	321.38
609.459	313.38
609.667	319.38
609.875	311.38
610.083	306.38
610.291	296.38
610.499	316.38
610.707	310.38
610.916	305.38
611.124	303.38
611.332	296.38
611.54	317.38
611.748	305.38
611.955	291.38
612.163	316.38
612.371	316.38
612.579	287.38
612.787	300.38
612.995	307.38
613.203	294.38
613.411	283.38
613.618	255.38
613.826	305.38
614.034	299.38
614.242	307.38
614.449	291.38
614.657	310.38
614.865	294.38
615.072	296.38
615.28	287.38
615.488	305.38
615.695	309.38
615.903	303.38
616.111	304.38
616.318	315.38
616.526	310.38
616.733	318.38
616.941	287.38
617.148	285.38
617.356	296.38
617.563	300.38
617.771	296.38
617.978	316.38
618.185	305.38
618.393	305.38
618.6	309.38
618.807	316.38
619.015	292.38
619.222	290.38
619.429	297.38
619.637	304.38
619.844	300.38
620.051	286.38
620.258	264.38
620.466	299.38
620.673	263.38
620.88	264.38
621.087	281.38
621.294	278.38
621.501	289.38
621.708	277.38
621.915	270.38
622.122	276.38
622.329	270.38
622.536	263.38
622.743	255.38
622.95	251.38
623.157	260.38
623.364	264.38
623.571	287.38
623.778	272.38
623.985	294.38
624.192	276.38
624.399	268.38
624.606	269.38
624.812	251.38
625.019	248.38
625.226	264.38
625.433	275.38
625.639	279.38
625.846	245.38
626.053	253.38
626.259	258.38
626.466	253.38
626.673	257.38
626.879	261.38
627.086	248.38
627.293	246.38
627.499	257.38
627.706	252.38
627.912	269.38
628.119	249.38
628.325	251.38
628.532	251.38
628.738	245.38
628.945	257.38
629.151	234.38
629.357	249.38
629.564	244.38
629.77	234.38
629.976	239.38
630.183	231.38
630.389	228.38
630.595	228.38
630.802	233.38
631.008	233.38
631.214	247.38
631.42	219.38
631.627	243.38
631.833	237.38
632.039	222.38
632.245	229.38
632.451	239.38
632.657	249.38
632.863	226.38
633.069	234.38
633.275	233.38
633.481	218.38
633.688	217.38
633.893	218.38
634.099	223.38
634.305	222.38
634.511	223.38
634.717	210.38
634.923	217.38
635.129	233.38
635.335	212.38
635.541	225.38
635.747	226.38
635.952	217.38
636.158	217.38
636.364	229.38
636.57	216.38
636.775	220.38
636.981	213.38
637.187	200.38
637.392	198.38
637.598	224.38
637.804	216.38
638.009	204.38
638.215	188.38
638.421	214.38
638.626	198.38
638.832	196.38
639.037	205.38
639.243	211.38
639.448	204.38
639.654	204.38
639.859	210.38
640.065	221.38
640.27	213.38
640.475	197.38
640.681	187.38
640.886	196.38
641.091	189.38
641.297	203.38
641.502	191.38
641.707	208.38
641.913	188.38
642.118	189.38
642.323	204.38
642.528	193.38
642.733	184.38
642.939	197.38
643.144	182.38
643.349	207.38
643.554	195.38
643.759	199.38
643.964	194.38
644.169	191.38
644.374	183.38
644.579	202.38
644.784	186.38
644.989	195.38
645.194	188.38
645.399	200.38
645.604	204.38
645.809	196.38
646.014	187.38
646.219	194.38
646.423	195.38
646.628	196.38
646.833	203.38
647.038	181.38
647.243	185.38
647.447	202.38
647.652	187.38
647.857	208.38
648.062	210.38
648.266	216.38
648.471	216.38
648.676	225.38
648.88	202.38
649.085	196.38
649.289	192.38
649.494	187.38
649.698	201.38
649.903	180.38
650.107	174.38
650.312	184.38
650.516	175.38
650.721	189.38
650.925	173.38
651.13	176.38
651.334	162.38
651.539	183.38
651.743	185.38
651.947	167.38
652.152	164.38
652.356	147.38
652.56	172.38
652.764	161.38
652.969	159.38
653.173	157.38
653.377	149.38
653.581	146.38
653.785	145.38
653.99	153.38
654.194	131.38
654.398	168.38
654.602	161.38
654.806	129.38
655.01	137.38
655.214	128.38
655.418	131.38
655.622	139.38
655.826	134.38
656.03	129.38
656.234	142.38
656.438	143.38
656.642	140.38
656.846	131.38
657.049	126.38
657.253	103.38
657.457	123.38
657.661	127.38
657.865	116.38
658.068	111.38
658.272	111.38
658.476	100.38
658.68	106.38
658.883	112.38
659.087	103.38
659.291	102.38
659.494	102.38
659.698	108.38
659.901	105.38
660.105	99.38
660.309	114.38
660.512	106.38
660.716	92.38
660.919	90.38
661.123	95.38
661.326	83.38
661.53	98.38
661.733	95.38
661.936	93.38
662.14	77.38
662.343	87.38
662.546	88.38
662.75	79.38
662.953	80.38
663.156	78.38
663.36	99.38
663.563	86.38
663.766	96.38
663.969	86.38
664.173	87.38
664.376	76.38
664.579	78.38
664.782	85.38
664.985	58.38
665.188	85.38
665.391	95.38
665.594	78.38
665.797	73.38
666	77.38
666.203	80.38
666.406	79.38
666.609	81.38
666.812	80.38
667.015	93.38
667.218	95.38
667.421	91.38
667.624	75.38
667.827	87.38
668.03	82.38
668.232	86.38
668.435	88.38
668.638	92.38
668.841	90.38
669.043	82.38
669.246	72.38
669.449	88.38
669.651	91.38
669.854	61.38
670.057	89.38
670.259	82.38
670.462	81.38
670.665	72.38
670.867	88.38
671.07	84.38
671.272	82.38
671.475	87.38
671.677	74.38
671.88	65.38
672.082	63.38
672.284	84.38
672.487	95.38
672.689	99.38
672.892	81.38
