Data from NiCl2@0.25M.TitratingCurve.Agarose3%dH2O.NegLispCup.LampEnergy10.LIBS07252019_HRD10591_18-24-21-573.txt Node
Date: Thu Jul 25 18:24:21 EDT 2019
User: cochatt
Spectrometer: HR+D1059
Trigger mode: 1
Integration Time (sec): 1.000000E-1
Scans to average: 1
Electric dark correction enabled: true
Nonlinearity correction enabled: false
Boxcar width: 0
XAxis mode: Wavelengths
Number of Pixels in Spectrum: 2048
>>>>>Begin Spectral Data<<<<<
223.165	-14.5
223.4	-14.5
223.635	-14.5
223.869	-10.5
224.104	-19.5
224.338	-23.5
224.573	-31.5
224.808	-15.5
225.042	-10.5
225.277	-7.5
225.511	-0.5
225.746	-7.5
225.98	5.5
226.215	1.5
226.449	21.5
226.683	39.5
226.918	32.5
227.152	40.5
227.387	49.5
227.621	49.5
227.856	32.5
228.09	36.5
228.324	72.5
228.559	53.5
228.793	86.5
229.027	117.5
229.262	117.5
229.496	121.5
229.73	134.5
229.964	136.5
230.199	141.5
230.433	139.5
230.667	155.5
230.901	139.5
231.136	148.5
231.37	143.5
231.604	162.5
231.838	171.5
232.072	142.5
232.306	161.5
232.541	169.5
232.775	152.5
233.009	155.5
233.243	164.5
233.477	167.5
233.711	147.5
233.945	152.5
234.179	155.5
234.413	159.5
234.647	180.5
234.881	163.5
235.115	172.5
235.349	164.5
235.583	145.5
235.817	161.5
236.051	188.5
236.285	157.5
236.519	167.5
236.753	179.5
236.987	165.5
237.221	180.5
237.455	181.5
237.689	180.5
237.922	172.5
238.156	175.5
238.39	186.5
238.624	183.5
238.858	175.5
239.091	190.5
239.325	196.5
239.559	194.5
239.793	189.5
240.027	200.5
240.26	200.5
240.494	189.5
240.728	186.5
240.961	214.5
241.195	205.5
241.429	221.5
241.662	216.5
241.896	219.5
242.13	211.5
242.363	215.5
242.597	213.5
242.83	244.5
243.064	225.5
243.298	217.5
243.531	243.5
243.765	247.5
243.998	222.5
244.232	213.5
244.465	236.5
244.699	233.5
244.932	239.5
245.166	240.5
245.399	255.5
245.633	246.5
245.866	236.5
246.099	226.5
246.333	249.5
246.566	258.5
246.8	245.5
247.033	239.5
247.266	231.5
247.5	244.5
247.733	261.5
247.966	269.5
248.2	272.5
248.433	275.5
248.666	264.5
248.899	266.5
249.133	280.5
249.366	278.5
249.599	277.5
249.832	269.5
250.066	283.5
250.299	295.5
250.532	294.5
250.765	281.5
250.998	282.5
251.231	281.5
251.465	276.5
251.698	322.5
251.931	295.5
252.164	297.5
252.397	292.5
252.63	296.5
252.863	300.5
253.096	306.5
253.329	319.5
253.562	308.5
253.795	307.5
254.028	347.5
254.261	316.5
254.494	300.5
254.727	300.5
254.96	316.5
255.193	300.5
255.426	317.5
255.659	305.5
255.892	324.5
256.124	328.5
256.357	322.5
256.59	308.5
256.823	332.5
257.056	329.5
257.289	333.5
257.521	332.5
257.754	319.5
257.987	330.5
258.22	336.5
258.452	359.5
258.685	328.5
258.918	343.5
259.151	356.5
259.383	343.5
259.616	334.5
259.849	352.5
260.081	346.5
260.314	348.5
260.547	358.5
260.779	361.5
261.012	363.5
261.244	370.5
261.477	341.5
261.71	373.5
261.942	355.5
262.175	369.5
262.407	373.5
262.64	363.5
262.872	381.5
263.105	373.5
263.337	364.5
263.57	375.5
263.802	369.5
264.035	382.5
264.267	396.5
264.499	396.5
264.732	392.5
264.964	383.5
265.197	386.5
265.429	401.5
265.661	392.5
265.894	411.5
266.126	389.5
266.358	392.5
266.591	409.5
266.823	405.5
267.055	397.5
267.287	393.5
267.52	403.5
267.752	418.5
267.984	400.5
268.216	431.5
268.448	423.5
268.681	412.5
268.913	433.5
269.145	399.5
269.377	401.5
269.609	425.5
269.841	406.5
270.073	407.5
270.306	411.5
270.538	421.5
270.77	426.5
271.002	430.5
271.234	431.5
271.466	428.5
271.698	440.5
271.93	435.5
272.162	424.5
272.394	431.5
272.626	447.5
272.858	433.5
273.09	455.5
273.322	458.5
273.553	448.5
273.785	457.5
274.017	461.5
274.249	466.5
274.481	470.5
274.713	472.5
274.945	440.5
275.176	446.5
275.408	467.5
275.64	488.5
275.872	474.5
276.104	488.5
276.335	481.5
276.567	468.5
276.799	469.5
277.031	455.5
277.262	497.5
277.494	494.5
277.726	490.5
277.957	500.5
278.189	473.5
278.421	481.5
278.652	500.5
278.884	515.5
279.115	484.5
279.347	516.5
279.579	515.5
279.81	513.5
280.042	505.5
280.273	525.5
280.505	514.5
280.736	522.5
280.968	519.5
281.199	517.5
281.431	523.5
281.662	525.5
281.894	500.5
282.125	526.5
282.356	548.5
282.588	535.5
282.819	522.5
283.051	545.5
283.282	542.5
283.513	538.5
283.745	537.5
283.976	539.5
284.207	539.5
284.439	552.5
284.67	539.5
284.901	557.5
285.132	559.5
285.364	546.5
285.595	539.5
285.826	535.5
286.057	549.5
286.288	563.5
286.52	547.5
286.751	547.5
286.982	571.5
287.213	573.5
287.444	575.5
287.675	556.5
287.906	586.5
288.138	594.5
288.369	592.5
288.6	588.5
288.831	587.5
289.062	597.5
289.293	577.5
289.524	575.5
289.755	571.5
289.986	593.5
290.217	590.5
290.448	592.5
290.679	590.5
290.91	609.5
291.141	581.5
291.371	599.5
291.602	611.5
291.833	610.5
292.064	597.5
292.295	579.5
292.526	580.5
292.757	603.5
292.987	600.5
293.218	577.5
293.449	619.5
293.68	613.5
293.91	609.5
294.141	607.5
294.372	593.5
294.603	620.5
294.833	610.5
295.064	597.5
295.295	599.5
295.525	631.5
295.756	613.5
295.987	584.5
296.217	647.5
296.448	616.5
296.679	636.5
296.909	628.5
297.14	623.5
297.37	634.5
297.601	649.5
297.831	625.5
298.062	646.5
298.292	660.5
298.523	661.5
298.753	687.5
298.984	670.5
299.214	647.5
299.445	663.5
299.675	650.5
299.905	665.5
300.136	657.5
300.366	646.5
300.597	659.5
300.827	663.5
301.057	659.5
301.288	681.5
301.518	654.5
301.748	691.5
301.979	684.5
302.209	684.5
302.439	676.5
302.669	675.5
302.9	698.5
303.13	702.5
303.36	658.5
303.59	654.5
303.82	675.5
304.051	680.5
304.281	693.5
304.511	681.5
304.741	674.5
304.971	695.5
305.201	679.5
305.431	671.5
305.661	667.5
305.891	701.5
306.121	667.5
306.352	678.5
306.582	672.5
306.812	666.5
307.042	667.5
307.272	660.5
307.502	659.5
307.731	668.5
307.961	680.5
308.191	641.5
308.421	655.5
308.651	682.5
308.881	660.5
309.111	661.5
309.341	664.5
309.571	681.5
309.8	663.5
310.03	664.5
310.26	667.5
310.49	687.5
310.72	663.5
310.949	683.5
311.179	684.5
311.409	674.5
311.639	653.5
311.868	681.5
312.098	679.5
312.328	695.5
312.557	687.5
312.787	693.5
313.017	714.5
313.246	688.5
313.476	709.5
313.706	701.5
313.935	704.5
314.165	716.5
314.394	699.5
314.624	727.5
314.853	725.5
315.083	701.5
315.312	716.5
315.542	716.5
315.771	703.5
316.001	723.5
316.23	710.5
316.46	675.5
316.689	689.5
316.919	691.5
317.148	693.5
317.377	715.5
317.607	705.5
317.836	691.5
318.065	690.5
318.295	688.5
318.524	690.5
318.753	688.5
318.983	698.5
319.212	667.5
319.441	693.5
319.67	699.5
319.9	697.5
320.129	704.5
320.358	726.5
320.587	696.5
320.816	697.5
321.046	710.5
321.275	708.5
321.504	714.5
321.733	708.5
321.962	737.5
322.191	705.5
322.42	714.5
322.649	706.5
322.878	723.5
323.108	705.5
323.337	699.5
323.566	722.5
323.795	710.5
324.024	712.5
324.253	721.5
324.482	735.5
324.71	743.5
324.939	713.5
325.168	737.5
325.397	744.5
325.626	768.5
325.855	751.5
326.084	766.5
326.313	776.5
326.542	788.5
326.77	799.5
326.999	754.5
327.228	754.5
327.457	744.5
327.686	761.5
327.914	743.5
328.143	773.5
328.372	767.5
328.6	755.5
328.829	779.5
329.058	773.5
329.287	804.5
329.515	800.5
329.744	789.5
329.972	788.5
330.201	791.5
330.43	792.5
330.658	787.5
330.887	787.5
331.115	808.5
331.344	811.5
331.572	831.5
331.801	845.5
332.03	851.5
332.258	886.5
332.486	887.5
332.715	891.5
332.943	920.5
333.172	955.5
333.4	964.5
333.629	994.5
333.857	1035.5
334.085	1005.5
334.314	1010.5
334.542	1001.5
334.771	1018.5
334.999	980.5
335.227	991.5
335.455	992.5
335.684	986.5
335.912	951.5
336.14	960.5
336.369	947.5
336.597	934.5
336.825	935.5
337.053	924.5
337.281	907.5
337.51	896.5
337.738	910.5
337.966	885.5
338.194	871.5
338.422	849.5
338.65	829.5
338.878	853.5
339.106	832.5
339.334	855.5
339.562	853.5
339.79	797.5
340.018	822.5
340.246	811.5
340.474	829.5
340.702	808.5
340.93	814.5
341.158	833.5
341.386	820.5
341.614	804.5
341.842	805.5
342.07	817.5
342.298	789.5
342.526	808.5
342.754	815.5
342.981	807.5
343.209	833.5
343.437	874.5
343.665	896.5
343.893	947.5
344.12	983.5
344.348	931.5
344.576	927.5
344.804	894.5
345.031	880.5
345.259	833.5
345.487	828.5
345.714	794.5
345.942	788.5
346.17	787.5
346.397	810.5
346.625	779.5
346.853	754.5
347.08	790.5
347.308	777.5
347.535	784.5
347.763	784.5
347.99	792.5
348.218	792.5
348.445	778.5
348.673	758.5
348.9	790.5
349.128	770.5
349.355	774.5
349.583	764.5
349.81	757.5
350.037	738.5
350.265	764.5
350.492	750.5
350.72	754.5
350.947	747.5
351.174	740.5
351.402	751.5
351.629	748.5
351.856	741.5
352.083	742.5
352.311	749.5
352.538	752.5
352.765	780.5
352.992	745.5
353.22	737.5
353.447	746.5
353.674	732.5
353.901	739.5
354.128	744.5
354.355	738.5
354.583	769.5
354.81	735.5
355.037	742.5
355.264	780.5
355.491	767.5
355.718	753.5
355.945	760.5
356.172	771.5
356.399	738.5
356.626	749.5
356.853	727.5
357.08	755.5
357.307	740.5
357.534	763.5
357.761	756.5
357.988	773.5
358.215	741.5
358.441	723.5
358.668	739.5
358.895	720.5
359.122	753.5
359.349	747.5
359.576	736.5
359.802	752.5
360.029	741.5
360.256	744.5
360.483	739.5
360.709	752.5
360.936	769.5
361.163	746.5
361.39	787.5
361.616	751.5
361.843	769.5
362.07	752.5
362.296	751.5
362.523	727.5
362.749	748.5
362.976	728.5
363.203	715.5
363.429	743.5
363.656	759.5
363.882	760.5
364.109	739.5
364.335	744.5
364.562	746.5
364.788	763.5
365.015	754.5
365.241	753.5
365.468	732.5
365.694	768.5
365.92	754.5
366.147	732.5
366.373	761.5
366.599	744.5
366.826	747.5
367.052	739.5
367.278	745.5
367.505	760.5
367.731	751.5
367.957	745.5
368.184	751.5
368.41	771.5
368.636	759.5
368.862	762.5
369.089	768.5
369.315	787.5
369.541	780.5
369.767	773.5
369.993	762.5
370.219	777.5
370.445	790.5
370.672	808.5
370.898	800.5
371.124	826.5
371.35	813.5
371.576	813.5
371.802	821.5
372.028	830.5
372.254	842.5
372.48	839.5
372.706	826.5
372.932	841.5
373.158	839.5
373.384	844.5
373.61	830.5
373.835	839.5
374.061	806.5
374.287	834.5
374.513	839.5
374.739	877.5
374.965	885.5
375.191	921.5
375.416	957.5
375.642	875.5
375.868	854.5
376.094	853.5
376.319	828.5
376.545	818.5
376.771	829.5
376.997	803.5
377.222	792.5
377.448	815.5
377.674	813.5
377.899	841.5
378.125	807.5
378.35	813.5
378.576	794.5
378.802	800.5
379.027	822.5
379.253	817.5
379.478	796.5
379.704	780.5
379.929	820.5
380.155	808.5
380.38	791.5
380.606	801.5
380.831	810.5
381.057	829.5
381.282	819.5
381.507	832.5
381.733	805.5
381.958	831.5
382.184	831.5
382.409	831.5
382.634	838.5
382.86	834.5
383.085	835.5
383.31	872.5
383.535	897.5
383.761	882.5
383.986	883.5
384.211	919.5
384.436	939.5
384.662	933.5
384.887	953.5
385.112	978.5
385.337	980.5
385.562	957.5
385.787	979.5
386.013	1010.5
386.238	997.5
386.463	992.5
386.688	980.5
386.913	1008.5
387.138	986.5
387.363	993.5
387.588	988.5
387.813	974.5
388.038	983.5
388.263	957.5
388.488	984.5
388.713	965.5
388.938	957.5
389.163	960.5
389.387	969.5
389.612	936.5
389.837	991.5
390.062	958.5
390.287	966.5
390.512	983.5
390.736	968.5
390.961	995.5
391.186	1033.5
391.411	1040.5
391.636	1061.5
391.86	1111.5
392.085	1118.5
392.31	1082.5
392.534	1081.5
392.759	1043.5
392.984	1063.5
393.208	1037.5
393.433	1052.5
393.658	1071.5
393.882	1041.5
394.107	1055.5
394.331	1017.5
394.556	1039.5
394.78	1041.5
395.005	1037.5
395.229	1046.5
395.454	1081.5
395.678	1119.5
395.903	1120.5
396.127	1092.5
396.352	1065.5
396.576	1054.5
396.801	1055.5
397.025	1050.5
397.249	1095.5
397.474	1097.5
397.698	1133.5
397.922	1137.5
398.147	1127.5
398.371	1169.5
398.595	1178.5
398.82	1251.5
399.044	1283.5
399.268	1441.5
399.492	1621.5
399.717	1834.5
399.941	1832.5
400.165	1665.5
400.389	1567.5
400.613	1444.5
400.837	1356.5
401.062	1279.5
401.286	1263.5
401.51	1252.5
401.734	1229.5
401.958	1266.5
402.182	1295.5
402.406	1311.5
402.63	1284.5
402.854	1332.5
403.078	1318.5
403.302	1346.5
403.526	1373.5
403.75	1389.5
403.974	1436.5
404.198	1396.5
404.422	1375.5
404.645	1396.5
404.869	1395.5
405.093	1381.5
405.317	1381.5
405.541	1379.5
405.765	1374.5
405.988	1359.5
406.212	1385.5
406.436	1360.5
406.66	1397.5
406.883	1397.5
407.107	1527.5
407.331	1542.5
407.555	1592.5
407.778	1596.5
408.002	1575.5
408.226	1509.5
408.449	1489.5
408.673	1450.5
408.896	1403.5
409.12	1411.5
409.344	1403.5
409.567	1402.5
409.791	1367.5
410.014	1417.5
410.238	1364.5
410.461	1358.5
410.685	1354.5
410.908	1331.5
411.132	1321.5
411.355	1278.5
411.578	1297.5
411.802	1309.5
412.025	1308.5
412.249	1333.5
412.472	1278.5
412.695	1284.5
412.919	1256.5
413.142	1268.5
413.365	1254.5
413.589	1258.5
413.812	1211.5
414.035	1233.5
414.258	1210.5
414.482	1253.5
414.705	1265.5
414.928	1259.5
415.151	1219.5
415.374	1250.5
415.597	1213.5
415.821	1232.5
416.044	1209.5
416.267	1195.5
416.49	1237.5
416.713	1213.5
416.936	1202.5
417.159	1227.5
417.382	1203.5
417.605	1213.5
417.828	1189.5
418.051	1243.5
418.274	1225.5
418.497	1231.5
418.72	1270.5
418.943	1248.5
419.166	1334.5
419.389	1455.5
419.611	1387.5
419.834	1344.5
420.057	1290.5
420.28	1231.5
420.503	1203.5
420.726	1184.5
420.948	1200.5
421.171	1210.5
421.394	1224.5
421.617	1229.5
421.839	1245.5
422.062	1221.5
422.285	1243.5
422.507	1236.5
422.73	1238.5
422.953	1227.5
423.175	1251.5
423.398	1272.5
423.621	1304.5
423.843	1259.5
424.066	1284.5
424.288	1274.5
424.511	1249.5
424.733	1259.5
424.956	1241.5
425.178	1247.5
425.401	1243.5
425.623	1212.5
425.846	1205.5
426.068	1173.5
426.291	1196.5
426.513	1187.5
426.735	1158.5
426.958	1140.5
427.18	1132.5
427.402	1119.5
427.625	1137.5
427.847	1116.5
428.069	1103.5
428.292	1100.5
428.514	1081.5
428.736	1105.5
428.958	1098.5
429.181	1081.5
429.403	1068.5
429.625	1097.5
429.847	1060.5
430.069	1045.5
430.292	1044.5
430.514	1060.5
430.736	1057.5
430.958	1056.5
431.18	1078.5
431.402	1052.5
431.624	1073.5
431.846	1073.5
432.068	1112.5
432.29	1132.5
432.512	1079.5
432.734	1097.5
432.956	1078.5
433.178	1113.5
433.4	1091.5
433.622	1101.5
433.844	1125.5
434.066	1133.5
434.287	1113.5
434.509	1151.5
434.731	1176.5
434.953	1203.5
435.175	1242.5
435.397	1219.5
435.618	1139.5
435.84	1147.5
436.062	1098.5
436.284	1090.5
436.505	1085.5
436.727	1091.5
436.949	1084.5
437.17	1074.5
437.392	1048.5
437.614	1068.5
437.835	1044.5
438.057	1054.5
438.278	1048.5
438.5	1042.5
438.721	1019.5
438.943	1032.5
439.165	1074.5
439.386	1045.5
439.608	1106.5
439.829	1103.5
440.05	1083.5
440.272	1111.5
440.493	1076.5
440.715	1109.5
440.936	1136.5
441.158	1160.5
441.379	1169.5
441.6	1227.5
441.822	1251.5
442.043	1212.5
442.264	1213.5
442.486	1183.5
442.707	1180.5
442.928	1186.5
443.149	1176.5
443.371	1187.5
443.592	1228.5
443.813	1235.5
444.034	1199.5
444.255	1252.5
444.476	1308.5
444.698	1346.5
444.919	1394.5
445.14	1524.5
445.361	1383.5
445.582	1271.5
445.803	1177.5
446.024	1168.5
446.245	1131.5
446.466	1146.5
446.687	1113.5
446.908	1111.5
447.129	1073.5
447.35	1031.5
447.571	1018.5
447.792	1060.5
448.013	1016.5
448.234	1016.5
448.455	1001.5
448.675	1000.5
448.896	1030.5
449.117	987.5
449.338	984.5
449.559	988.5
449.779	967.5
450	969.5
450.221	985.5
450.442	1023.5
450.662	999.5
450.883	998.5
451.104	1011.5
451.324	994.5
451.545	983.5
451.766	983.5
451.986	1015.5
452.207	1015.5
452.428	969.5
452.648	964.5
452.869	970.5
453.089	959.5
453.31	965.5
453.53	976.5
453.751	938.5
453.971	957.5
454.192	952.5
454.412	935.5
454.633	967.5
454.853	937.5
455.073	931.5
455.294	930.5
455.514	928.5
455.734	929.5
455.955	917.5
456.175	890.5
456.395	930.5
456.616	917.5
456.836	918.5
457.056	928.5
457.276	927.5
457.497	954.5
457.717	935.5
457.937	946.5
458.157	962.5
458.377	939.5
458.598	984.5
458.818	1029.5
459.038	1013.5
459.258	1092.5
459.478	1087.5
459.698	1158.5
459.918	1169.5
460.138	1201.5
460.358	1267.5
460.578	1296.5
460.798	1293.5
461.018	1292.5
461.238	1311.5
461.458	1315.5
461.678	1289.5
461.898	1266.5
462.118	1351.5
462.338	1370.5
462.558	1425.5
462.777	1459.5
462.997	1548.5
463.217	1641.5
463.437	1680.5
463.657	1624.5
463.876	1542.5
464.096	1493.5
464.316	1496.5
464.536	1513.5
464.755	1451.5
464.975	1407.5
465.195	1309.5
465.414	1269.5
465.634	1177.5
465.854	1151.5
466.073	1135.5
466.293	1111.5
466.512	1101.5
466.732	1083.5
466.951	1062.5
467.171	1055.5
467.391	1047.5
467.61	1023.5
467.829	1032.5
468.049	1028.5
468.268	1013.5
468.488	976.5
468.707	1007.5
468.927	1034.5
469.146	993.5
469.365	1012.5
469.585	1063.5
469.804	1045.5
470.023	1072.5
470.243	1087.5
470.462	1088.5
470.681	1108.5
470.901	1061.5
471.12	1016.5
471.339	1053.5
471.558	1020.5
471.777	1046.5
471.997	1020.5
472.216	1012.5
472.435	1015.5
472.654	1010.5
472.873	963.5
473.092	988.5
473.311	971.5
473.53	991.5
473.749	992.5
473.968	989.5
474.187	986.5
474.406	971.5
474.625	983.5
474.844	971.5
475.063	1009.5
475.282	981.5
475.501	982.5
475.72	988.5
475.939	1008.5
476.158	1035.5
476.377	1033.5
476.596	1056.5
476.814	1034.5
477.033	1034.5
477.252	1044.5
477.471	1098.5
477.69	1117.5
477.908	1117.5
478.127	1154.5
478.346	1170.5
478.564	1197.5
478.783	1194.5
479.002	1201.5
479.22	1224.5
479.439	1216.5
479.658	1215.5
479.876	1236.5
480.095	1247.5
480.313	1277.5
480.532	1329.5
480.751	1311.5
480.969	1247.5
481.188	1222.5
481.406	1184.5
481.624	1179.5
481.843	1136.5
482.061	1148.5
482.28	1132.5
482.498	1136.5
482.717	1126.5
482.935	1102.5
483.153	1103.5
483.372	1111.5
483.59	1109.5
483.808	1115.5
484.027	1109.5
484.245	1118.5
484.463	1151.5
484.681	1139.5
484.9	1166.5
485.118	1179.5
485.336	1156.5
485.554	1199.5
485.772	1154.5
485.99	1223.5
486.209	1192.5
486.427	1183.5
486.645	1200.5
486.863	1199.5
487.081	1156.5
487.299	1165.5
487.517	1189.5
487.735	1211.5
487.953	1178.5
488.171	1195.5
488.389	1143.5
488.607	1146.5
488.825	1154.5
489.043	1153.5
489.261	1163.5
489.479	1160.5
489.696	1157.5
489.914	1199.5
490.132	1187.5
490.35	1207.5
490.568	1190.5
490.786	1174.5
491.003	1194.5
491.221	1198.5
491.439	1190.5
491.657	1196.5
491.874	1211.5
492.092	1162.5
492.31	1188.5
492.527	1202.5
492.745	1239.5
492.963	1221.5
493.18	1248.5
493.398	1231.5
493.615	1235.5
493.833	1236.5
494.05	1252.5
494.268	1243.5
494.485	1272.5
494.703	1260.5
494.92	1265.5
495.138	1291.5
495.355	1258.5
495.573	1278.5
495.79	1315.5
496.008	1324.5
496.225	1314.5
496.442	1325.5
496.66	1337.5
496.877	1331.5
497.094	1350.5
497.312	1410.5
497.529	1440.5
497.746	1470.5
497.963	1477.5
498.181	1540.5
498.398	1624.5
498.615	1756.5
498.832	1848.5
499.049	1983.5
499.267	2181.5
499.484	2360.5
499.701	2543.5
499.918	2809.5
500.135	3214.5
500.352	3531.5
500.569	3707.5
500.786	3659.5
501.003	3471.5
501.22	3114.5
501.437	2894.5
501.654	2563.5
501.871	2329.5
502.088	2113.5
502.305	1968.5
502.522	1877.5
502.739	1832.5
502.956	1721.5
503.172	1629.5
503.389	1575.5
503.606	1518.5
503.823	1511.5
504.04	1479.5
504.256	1467.5
504.473	1466.5
504.69	1509.5
504.907	1492.5
505.123	1439.5
505.34	1338.5
505.557	1301.5
505.773	1265.5
505.99	1254.5
506.207	1175.5
506.423	1176.5
506.64	1169.5
506.856	1167.5
507.073	1176.5
507.289	1151.5
507.506	1155.5
507.722	1151.5
507.939	1110.5
508.155	1089.5
508.372	1087.5
508.588	1095.5
508.805	1109.5
509.021	1067.5
509.238	1059.5
509.454	1040.5
509.67	1039.5
509.887	1023.5
510.103	1056.5
510.319	1043.5
510.536	1041.5
510.752	1024.5
510.968	1035.5
511.184	1040.5
511.401	1043.5
511.617	1000.5
511.833	1017.5
512.049	1014.5
512.265	1015.5
512.481	1001.5
512.698	1011.5
512.914	1001.5
513.13	1020.5
513.346	1034.5
513.562	1005.5
513.778	1011.5
513.994	1017.5
514.21	1028.5
514.426	1056.5
514.642	1034.5
514.858	1049.5
515.074	1085.5
515.29	1072.5
515.506	1093.5
515.721	1082.5
515.937	1103.5
516.153	1128.5
516.369	1128.5
516.585	1179.5
516.801	1190.5
517.016	1293.5
517.232	1321.5
517.448	1361.5
517.664	1397.5
517.879	1401.5
518.095	1447.5
518.311	1376.5
518.527	1347.5
518.742	1343.5
518.958	1234.5
519.173	1189.5
519.389	1152.5
519.605	1127.5
519.82	1107.5
520.036	1103.5
520.251	1058.5
520.467	1039.5
520.682	1039.5
520.898	1050.5
521.113	1009.5
521.329	1015.5
521.544	988.5
521.76	969.5
521.975	980.5
522.19	996.5
522.406	953.5
522.621	990.5
522.836	971.5
523.052	951.5
523.267	959.5
523.482	968.5
523.698	929.5
523.913	937.5
524.128	950.5
524.343	940.5
524.559	943.5
524.774	923.5
524.989	933.5
525.204	942.5
525.419	907.5
525.634	927.5
525.849	928.5
526.064	935.5
526.28	909.5
526.495	932.5
526.71	929.5
526.925	947.5
527.14	915.5
527.355	941.5
527.57	924.5
527.785	918.5
527.999	909.5
528.214	905.5
528.429	911.5
528.644	932.5
528.859	945.5
529.074	938.5
529.289	926.5
529.503	914.5
529.718	897.5
529.933	934.5
530.148	917.5
530.363	922.5
530.577	889.5
530.792	887.5
531.007	914.5
531.221	905.5
531.436	911.5
531.651	906.5
531.865	929.5
532.08	910.5
532.295	900.5
532.509	900.5
532.724	930.5
532.938	914.5
533.153	895.5
533.367	925.5
533.582	902.5
533.796	895.5
534.011	881.5
534.225	909.5
534.44	900.5
534.654	890.5
534.868	905.5
535.083	911.5
535.297	859.5
535.511	881.5
535.726	883.5
535.94	874.5
536.154	858.5
536.369	857.5
536.583	857.5
536.797	847.5
537.011	855.5
537.225	835.5
537.44	833.5
537.654	864.5
537.868	824.5
538.082	816.5
538.296	815.5
538.51	827.5
538.724	854.5
538.938	824.5
539.153	809.5
539.367	838.5
539.581	807.5
539.795	784.5
540.009	812.5
540.222	820.5
540.436	834.5
540.65	821.5
540.864	808.5
541.078	820.5
541.292	827.5
541.506	827.5
541.72	834.5
541.934	806.5
542.147	819.5
542.361	809.5
542.575	794.5
542.789	809.5
543.002	819.5
543.216	805.5
543.43	805.5
543.644	812.5
543.857	797.5
544.071	840.5
544.285	813.5
544.498	822.5
544.712	824.5
544.925	830.5
545.139	857.5
545.352	850.5
545.566	842.5
545.779	863.5
545.993	849.5
546.206	833.5
546.42	821.5
546.633	815.5
546.847	820.5
547.06	799.5
547.274	859.5
547.487	815.5
547.7	801.5
547.914	844.5
548.127	858.5
548.34	852.5
548.554	823.5
548.767	845.5
548.98	836.5
549.193	863.5
549.407	846.5
549.62	863.5
549.833	881.5
550.046	867.5
550.259	833.5
550.473	812.5
550.686	845.5
550.899	836.5
551.112	833.5
551.325	827.5
551.538	840.5
551.751	801.5
551.964	808.5
552.177	824.5
552.39	849.5
552.603	867.5
552.816	885.5
553.029	901.5
553.242	905.5
553.455	939.5
553.667	930.5
553.88	911.5
554.093	846.5
554.306	860.5
554.519	844.5
554.732	854.5
554.944	821.5
555.157	803.5
555.37	804.5
555.583	767.5
555.795	781.5
556.008	730.5
556.221	737.5
556.433	724.5
556.646	727.5
556.859	727.5
557.071	734.5
557.284	707.5
557.496	737.5
557.709	731.5
557.921	702.5
558.134	698.5
558.346	710.5
558.559	694.5
558.771	712.5
558.984	683.5
559.196	698.5
559.409	695.5
559.621	675.5
559.833	694.5
560.046	690.5
560.258	699.5
560.47	678.5
560.683	688.5
560.895	679.5
561.107	693.5
561.32	687.5
561.532	695.5
561.744	703.5
561.956	684.5
562.168	673.5
562.381	668.5
562.593	703.5
562.805	691.5
563.017	696.5
563.229	690.5
563.441	713.5
563.653	699.5
563.865	700.5
564.077	715.5
564.289	743.5
564.501	728.5
564.713	753.5
564.925	743.5
565.137	767.5
565.349	779.5
565.561	815.5
565.773	843.5
565.985	887.5
566.197	904.5
566.408	959.5
566.62	1018.5
566.832	1076.5
567.044	1112.5
567.255	1142.5
567.467	1157.5
567.679	1232.5
567.891	1247.5
568.102	1228.5
568.314	1238.5
568.526	1151.5
568.737	1044.5
568.949	975.5
569.161	891.5
569.372	823.5
569.584	782.5
569.795	767.5
570.007	760.5
570.218	702.5
570.43	716.5
570.641	690.5
570.853	723.5
571.064	735.5
571.276	709.5
571.487	693.5
571.698	677.5
571.91	626.5
572.121	631.5
572.333	609.5
572.544	630.5
572.755	612.5
572.966	603.5
573.178	604.5
573.389	575.5
573.6	584.5
573.811	571.5
574.023	567.5
574.234	570.5
574.445	572.5
574.656	572.5
574.867	572.5
575.078	562.5
575.289	566.5
575.501	586.5
575.712	547.5
575.923	547.5
576.134	552.5
576.345	556.5
576.556	547.5
576.767	538.5
576.978	544.5
577.188	525.5
577.399	511.5
577.61	520.5
577.821	526.5
578.032	523.5
578.243	504.5
578.454	513.5
578.665	519.5
578.875	519.5
579.086	511.5
579.297	514.5
579.508	497.5
579.718	498.5
579.929	508.5
580.14	483.5
580.35	490.5
580.561	517.5
580.772	502.5
580.982	500.5
581.193	485.5
581.403	494.5
581.614	488.5
581.825	492.5
582.035	474.5
582.246	467.5
582.456	464.5
582.667	464.5
582.877	449.5
583.087	459.5
583.298	475.5
583.508	451.5
583.719	460.5
583.929	451.5
584.139	459.5
584.35	455.5
584.56	458.5
584.77	453.5
584.981	465.5
585.191	451.5
585.401	468.5
585.611	455.5
585.821	480.5
586.032	469.5
586.242	465.5
586.452	463.5
586.662	450.5
586.872	436.5
587.082	435.5
587.292	440.5
587.502	429.5
587.713	446.5
587.923	442.5
588.133	469.5
588.343	460.5
588.553	445.5
588.762	453.5
588.972	451.5
589.182	494.5
589.392	467.5
589.602	460.5
589.812	443.5
590.022	465.5
590.232	441.5
590.441	458.5
590.651	448.5
590.861	459.5
591.071	464.5
591.281	475.5
591.49	463.5
591.7	487.5
591.91	481.5
592.119	482.5
592.329	502.5
592.539	517.5
592.748	518.5
592.958	541.5
593.167	567.5
593.377	561.5
593.587	576.5
593.796	583.5
594.006	581.5
594.215	548.5
594.424	550.5
594.634	543.5
594.843	564.5
595.053	524.5
595.262	522.5
595.472	506.5
595.681	486.5
595.89	454.5
596.1	455.5
596.309	439.5
596.518	458.5
596.727	433.5
596.937	417.5
597.146	445.5
597.355	419.5
597.564	392.5
597.774	407.5
597.983	394.5
598.192	403.5
598.401	394.5
598.61	400.5
598.819	391.5
599.028	390.5
599.237	393.5
599.446	381.5
599.655	376.5
599.864	395.5
600.073	378.5
600.282	376.5
600.491	378.5
600.7	380.5
600.909	367.5
601.118	370.5
601.327	378.5
601.536	353.5
601.745	353.5
601.953	369.5
602.162	364.5
602.371	358.5
602.58	355.5
602.789	353.5
602.997	327.5
603.206	362.5
603.415	358.5
603.623	359.5
603.832	374.5
604.041	355.5
604.249	342.5
604.458	341.5
604.666	339.5
604.875	349.5
605.084	348.5
605.292	345.5
605.501	359.5
605.709	337.5
605.918	343.5
606.126	340.5
606.334	335.5
606.543	340.5
606.751	332.5
606.96	324.5
607.168	355.5
607.376	337.5
607.585	353.5
607.793	335.5
608.001	332.5
608.21	339.5
608.418	337.5
608.626	358.5
608.834	341.5
609.043	341.5
609.251	332.5
609.459	310.5
609.667	334.5
609.875	317.5
610.083	324.5
610.291	311.5
610.499	325.5
610.707	370.5
610.916	340.5
611.124	338.5
611.332	320.5
611.54	339.5
611.748	323.5
611.955	316.5
612.163	334.5
612.371	303.5
612.579	343.5
612.787	336.5
612.995	336.5
613.203	314.5
613.411	316.5
613.618	318.5
613.826	309.5
614.034	323.5
614.242	306.5
614.449	332.5
614.657	311.5
614.865	300.5
615.072	337.5
615.28	317.5
615.488	329.5
615.695	305.5
615.903	311.5
616.111	323.5
616.318	312.5
616.526	290.5
616.733	320.5
616.941	320.5
617.148	321.5
617.356	301.5
617.563	304.5
617.771	310.5
617.978	315.5
618.185	314.5
618.393	320.5
618.6	309.5
618.807	308.5
619.015	319.5
619.222	303.5
619.429	307.5
619.637	306.5
619.844	299.5
620.051	313.5
620.258	314.5
620.466	304.5
620.673	305.5
620.88	290.5
621.087	283.5
621.294	277.5
621.501	293.5
621.708	298.5
621.915	309.5
622.122	291.5
622.329	290.5
622.536	289.5
622.743	300.5
622.95	299.5
623.157	292.5
623.364	277.5
623.571	290.5
623.778	297.5
623.985	283.5
624.192	291.5
624.399	269.5
624.606	267.5
624.812	277.5
625.019	274.5
625.226	285.5
625.433	280.5
625.639	272.5
625.846	280.5
626.053	294.5
626.259	272.5
626.466	273.5
626.673	278.5
626.879	271.5
627.086	260.5
627.293	242.5
627.499	269.5
627.706	270.5
627.912	274.5
628.119	273.5
628.325	268.5
628.532	261.5
628.738	252.5
628.945	250.5
629.151	266.5
629.357	267.5
629.564	248.5
629.77	252.5
629.976	246.5
630.183	238.5
630.389	246.5
630.595	248.5
630.802	255.5
631.008	241.5
631.214	248.5
631.42	262.5
631.627	234.5
631.833	251.5
632.039	244.5
632.245	245.5
632.451	253.5
632.657	239.5
632.863	263.5
633.069	240.5
633.275	224.5
633.481	235.5
633.688	239.5
633.893	229.5
634.099	236.5
634.305	233.5
634.511	229.5
634.717	233.5
634.923	233.5
635.129	225.5
635.335	228.5
635.541	219.5
635.747	217.5
635.952	229.5
636.158	225.5
636.364	227.5
636.57	237.5
636.775	228.5
636.981	232.5
637.187	226.5
637.392	231.5
637.598	247.5
637.804	230.5
638.009	228.5
638.215	219.5
638.421	229.5
638.626	219.5
638.832	234.5
639.037	219.5
639.243	206.5
639.448	199.5
639.654	220.5
639.859	212.5
640.065	225.5
640.27	213.5
640.475	230.5
640.681	208.5
640.886	209.5
641.091	209.5
641.297	224.5
641.502	202.5
641.707	204.5
641.913	207.5
642.118	198.5
642.323	218.5
642.528	206.5
642.733	219.5
642.939	223.5
643.144	209.5
643.349	205.5
643.554	190.5
643.759	208.5
643.964	199.5
644.169	188.5
644.374	202.5
644.579	205.5
644.784	199.5
644.989	201.5
645.194	219.5
645.399	193.5
645.604	207.5
645.809	210.5
646.014	204.5
646.219	200.5
646.423	197.5
646.628	207.5
646.833	193.5
647.038	201.5
647.243	187.5
647.447	205.5
647.652	209.5
647.857	208.5
648.062	217.5
648.266	194.5
648.471	214.5
648.676	208.5
648.88	224.5
649.085	199.5
649.289	212.5
649.494	191.5
649.698	196.5
649.903	194.5
650.107	194.5
650.312	204.5
650.516	172.5
650.721	179.5
650.925	177.5
651.13	163.5
651.334	183.5
651.539	199.5
651.743	191.5
651.947	191.5
652.152	192.5
652.356	167.5
652.56	163.5
652.764	157.5
652.969	163.5
653.173	156.5
653.377	148.5
653.581	163.5
653.785	158.5
653.99	154.5
654.194	153.5
654.398	148.5
654.602	153.5
654.806	148.5
655.01	153.5
655.214	139.5
655.418	131.5
655.622	145.5
655.826	137.5
656.03	139.5
656.234	137.5
656.438	144.5
656.642	145.5
656.846	127.5
657.049	131.5
657.253	145.5
657.457	132.5
657.661	119.5
657.865	107.5
658.068	115.5
658.272	120.5
658.476	112.5
658.68	113.5
658.883	116.5
659.087	102.5
659.291	104.5
659.494	100.5
659.698	88.5
659.901	83.5
660.105	98.5
660.309	96.5
660.512	99.5
660.716	92.5
660.919	111.5
661.123	100.5
661.326	100.5
661.53	90.5
661.733	103.5
661.936	94.5
662.14	82.5
662.343	84.5
662.546	84.5
662.75	84.5
662.953	83.5
663.156	85.5
663.36	80.5
663.563	82.5
663.766	82.5
663.969	75.5
664.173	71.5
664.376	91.5
664.579	72.5
664.782	66.5
664.985	69.5
665.188	79.5
665.391	82.5
665.594	74.5
665.797	86.5
666	83.5
666.203	84.5
666.406	75.5
666.609	84.5
666.812	80.5
667.015	87.5
667.218	95.5
667.421	85.5
667.624	80.5
667.827	83.5
668.03	81.5
668.232	79.5
668.435	84.5
668.638	86.5
668.841	68.5
669.043	74.5
669.246	75.5
669.449	88.5
669.651	89.5
669.854	78.5
670.057	87.5
670.259	84.5
670.462	73.5
670.665	87.5
670.867	75.5
671.07	71.5
671.272	93.5
671.475	75.5
671.677	75.5
671.88	87.5
672.082	70.5
672.284	88.5
672.487	65.5
672.689	75.5
672.892	83.5
