Data from NiCl2@0.25M.TitratingCurve.Agarose3%dH2O.NegLispCup.LampEnergy10.LIBS07252019_HRD10591_18-23-28-572.txt Node
Date: Thu Jul 25 18:23:28 EDT 2019
User: cochatt
Spectrometer: HR+D1059
Trigger mode: 1
Integration Time (sec): 1.000000E-1
Scans to average: 1
Electric dark correction enabled: true
Nonlinearity correction enabled: false
Boxcar width: 0
XAxis mode: Wavelengths
Number of Pixels in Spectrum: 2048
>>>>>Begin Spectral Data<<<<<
223.165	-9.12
223.4	-9.12
223.635	-9.12
223.869	-8.12
224.104	-19.12
224.338	-30.12
224.573	-16.12
224.808	-17.12
225.042	-1.12
225.277	-17.12
225.511	10.88
225.746	-6.12
225.98	5.88
226.215	18.88
226.449	5.88
226.683	17.88
226.918	23.88
227.152	40.88
227.387	36.88
227.621	42.88
227.856	48.88
228.09	53.88
228.324	48.88
228.559	49.88
228.793	81.88
229.027	83.88
229.262	95.88
229.496	81.88
229.73	107.88
229.964	104.88
230.199	109.88
230.433	113.88
230.667	103.88
230.901	107.88
231.136	119.88
231.37	112.88
231.604	118.88
231.838	125.88
232.072	130.88
232.306	128.88
232.541	130.88
232.775	131.88
233.009	133.88
233.243	128.88
233.477	121.88
233.711	118.88
233.945	129.88
234.179	127.88
234.413	132.88
234.647	141.88
234.881	143.88
235.115	130.88
235.349	111.88
235.583	134.88
235.817	117.88
236.051	139.88
236.285	127.88
236.519	124.88
236.753	140.88
236.987	131.88
237.221	124.88
237.455	133.88
237.689	126.88
237.922	131.88
238.156	132.88
238.39	144.88
238.624	147.88
238.858	147.88
239.091	145.88
239.325	142.88
239.559	151.88
239.793	138.88
240.027	151.88
240.26	157.88
240.494	156.88
240.728	150.88
240.961	142.88
241.195	158.88
241.429	155.88
241.662	152.88
241.896	137.88
242.13	156.88
242.363	153.88
242.597	146.88
242.83	163.88
243.064	157.88
243.298	153.88
243.531	154.88
243.765	161.88
243.998	158.88
244.232	161.88
244.465	172.88
244.699	170.88
244.932	164.88
245.166	155.88
245.399	172.88
245.633	173.88
245.866	177.88
246.099	169.88
246.333	188.88
246.566	180.88
246.8	183.88
247.033	184.88
247.266	200.88
247.5	176.88
247.733	193.88
247.966	184.88
248.2	195.88
248.433	177.88
248.666	179.88
248.899	189.88
249.133	192.88
249.366	203.88
249.599	182.88
249.832	190.88
250.066	180.88
250.299	198.88
250.532	198.88
250.765	191.88
250.998	197.88
251.231	206.88
251.465	191.88
251.698	212.88
251.931	202.88
252.164	201.88
252.397	199.88
252.63	213.88
252.863	204.88
253.096	205.88
253.329	214.88
253.562	211.88
253.795	203.88
254.028	218.88
254.261	203.88
254.494	204.88
254.727	223.88
254.96	214.88
255.193	222.88
255.426	222.88
255.659	222.88
255.892	219.88
256.124	223.88
256.357	240.88
256.59	212.88
256.823	225.88
257.056	231.88
257.289	224.88
257.521	220.88
257.754	225.88
257.987	214.88
258.22	221.88
258.452	235.88
258.685	231.88
258.918	221.88
259.151	221.88
259.383	243.88
259.616	238.88
259.849	232.88
260.081	244.88
260.314	259.88
260.547	233.88
260.779	232.88
261.012	245.88
261.244	232.88
261.477	254.88
261.71	233.88
261.942	235.88
262.175	234.88
262.407	255.88
262.64	257.88
262.872	264.88
263.105	259.88
263.337	251.88
263.57	252.88
263.802	262.88
264.035	265.88
264.267	240.88
264.499	258.88
264.732	245.88
264.964	281.88
265.197	248.88
265.429	257.88
265.661	263.88
265.894	265.88
266.126	268.88
266.358	248.88
266.591	264.88
266.823	277.88
267.055	301.88
267.287	293.88
267.52	251.88
267.752	267.88
267.984	283.88
268.216	282.88
268.448	269.88
268.681	291.88
268.913	281.88
269.145	309.88
269.377	276.88
269.609	271.88
269.841	296.88
270.073	293.88
270.306	281.88
270.538	292.88
270.77	298.88
271.002	295.88
271.234	283.88
271.466	291.88
271.698	296.88
271.93	300.88
272.162	296.88
272.394	308.88
272.626	303.88
272.858	312.88
273.09	277.88
273.322	303.88
273.553	291.88
273.785	285.88
274.017	328.88
274.249	298.88
274.481	308.88
274.713	316.88
274.945	322.88
275.176	326.88
275.408	323.88
275.64	315.88
275.872	297.88
276.104	312.88
276.335	294.88
276.567	317.88
276.799	325.88
277.031	341.88
277.262	308.88
277.494	323.88
277.726	319.88
277.957	322.88
278.189	339.88
278.421	336.88
278.652	328.88
278.884	340.88
279.115	309.88
279.347	329.88
279.579	333.88
279.81	333.88
280.042	349.88
280.273	331.88
280.505	336.88
280.736	329.88
280.968	351.88
281.199	351.88
281.431	347.88
281.662	351.88
281.894	369.88
282.125	325.88
282.356	342.88
282.588	360.88
282.819	353.88
283.051	355.88
283.282	348.88
283.513	333.88
283.745	363.88
283.976	338.88
284.207	363.88
284.439	359.88
284.67	356.88
284.901	375.88
285.132	372.88
285.364	385.88
285.595	352.88
285.826	353.88
286.057	373.88
286.288	381.88
286.52	371.88
286.751	372.88
286.982	394.88
287.213	352.88
287.444	379.88
287.675	357.88
287.906	373.88
288.138	374.88
288.369	381.88
288.6	377.88
288.831	377.88
289.062	380.88
289.293	397.88
289.524	389.88
289.755	377.88
289.986	398.88
290.217	389.88
290.448	405.88
290.679	391.88
290.91	407.88
291.141	379.88
291.371	385.88
291.602	381.88
291.833	379.88
292.064	388.88
292.295	385.88
292.526	396.88
292.757	411.88
292.987	389.88
293.218	395.88
293.449	393.88
293.68	392.88
293.91	393.88
294.141	390.88
294.372	396.88
294.603	406.88
294.833	415.88
295.064	402.88
295.295	399.88
295.525	387.88
295.756	415.88
295.987	412.88
296.217	421.88
296.448	421.88
296.679	404.88
296.909	399.88
297.14	401.88
297.37	428.88
297.601	400.88
297.831	418.88
298.062	418.88
298.292	405.88
298.523	439.88
298.753	421.88
298.984	423.88
299.214	431.88
299.445	455.88
299.675	422.88
299.905	427.88
300.136	416.88
300.366	432.88
300.597	426.88
300.827	447.88
301.057	441.88
301.288	462.88
301.518	464.88
301.748	459.88
301.979	440.88
302.209	459.88
302.439	448.88
302.669	458.88
302.9	437.88
303.13	464.88
303.36	449.88
303.59	450.88
303.82	417.88
304.051	454.88
304.281	457.88
304.511	442.88
304.741	459.88
304.971	464.88
305.201	468.88
305.431	452.88
305.661	443.88
305.891	451.88
306.121	437.88
306.352	443.88
306.582	447.88
306.812	416.88
307.042	429.88
307.272	441.88
307.502	453.88
307.731	447.88
307.961	421.88
308.191	451.88
308.421	453.88
308.651	449.88
308.881	448.88
309.111	453.88
309.341	436.88
309.571	427.88
309.8	454.88
310.03	437.88
310.26	440.88
310.49	459.88
310.72	441.88
310.949	447.88
311.179	457.88
311.409	436.88
311.639	480.88
311.868	457.88
312.098	454.88
312.328	455.88
312.557	467.88
312.787	469.88
313.017	471.88
313.246	483.88
313.476	481.88
313.706	466.88
313.935	476.88
314.165	474.88
314.394	464.88
314.624	475.88
314.853	486.88
315.083	461.88
315.312	482.88
315.542	474.88
315.771	486.88
316.001	489.88
316.23	485.88
316.46	479.88
316.689	466.88
316.919	466.88
317.148	456.88
317.377	474.88
317.607	460.88
317.836	474.88
318.065	473.88
318.295	475.88
318.524	481.88
318.753	459.88
318.983	471.88
319.212	452.88
319.441	471.88
319.67	465.88
319.9	466.88
320.129	480.88
320.358	481.88
320.587	467.88
320.816	481.88
321.046	463.88
321.275	455.88
321.504	475.88
321.733	483.88
321.962	474.88
322.191	483.88
322.42	474.88
322.649	487.88
322.878	486.88
323.108	488.88
323.337	502.88
323.566	494.88
323.795	471.88
324.024	497.88
324.253	476.88
324.482	489.88
324.71	499.88
324.939	487.88
325.168	489.88
325.397	520.88
325.626	505.88
325.855	509.88
326.084	512.88
326.313	516.88
326.542	519.88
326.77	522.88
326.999	531.88
327.228	521.88
327.457	526.88
327.686	505.88
327.914	520.88
328.143	524.88
328.372	531.88
328.6	537.88
328.829	529.88
329.058	520.88
329.287	535.88
329.515	547.88
329.744	546.88
329.972	534.88
330.201	515.88
330.43	525.88
330.658	534.88
330.887	538.88
331.115	553.88
331.344	561.88
331.572	557.88
331.801	557.88
332.03	547.88
332.258	567.88
332.486	576.88
332.715	610.88
332.943	610.88
333.172	640.88
333.4	668.88
333.629	672.88
333.857	704.88
334.085	681.88
334.314	661.88
334.542	660.88
334.771	635.88
334.999	651.88
335.227	637.88
335.455	660.88
335.684	637.88
335.912	636.88
336.14	634.88
336.369	625.88
336.597	647.88
336.825	633.88
337.053	629.88
337.281	604.88
337.51	608.88
337.738	592.88
337.966	582.88
338.194	584.88
338.422	558.88
338.65	577.88
338.878	572.88
339.106	572.88
339.334	566.88
339.562	556.88
339.79	556.88
340.018	547.88
340.246	549.88
340.474	548.88
340.702	579.88
340.93	538.88
341.158	557.88
341.386	547.88
341.614	570.88
341.842	571.88
342.07	566.88
342.298	520.88
342.526	523.88
342.754	530.88
342.981	556.88
343.209	556.88
343.437	599.88
343.665	617.88
343.893	649.88
344.12	653.88
344.348	639.88
344.576	618.88
344.804	626.88
345.031	589.88
345.259	553.88
345.487	568.88
345.714	556.88
345.942	539.88
346.17	525.88
346.397	563.88
346.625	549.88
346.853	526.88
347.08	528.88
347.308	525.88
347.535	539.88
347.763	542.88
347.99	545.88
348.218	532.88
348.445	532.88
348.673	523.88
348.9	523.88
349.128	539.88
349.355	536.88
349.583	533.88
349.81	536.88
350.037	499.88
350.265	511.88
350.492	503.88
350.72	534.88
350.947	519.88
351.174	534.88
351.402	522.88
351.629	509.88
351.856	495.88
352.083	510.88
352.311	539.88
352.538	504.88
352.765	525.88
352.992	499.88
353.22	519.88
353.447	510.88
353.674	512.88
353.901	495.88
354.128	509.88
354.355	508.88
354.583	523.88
354.81	513.88
355.037	510.88
355.264	511.88
355.491	540.88
355.718	525.88
355.945	516.88
356.172	492.88
356.399	517.88
356.626	521.88
356.853	541.88
357.08	517.88
357.307	501.88
357.534	532.88
357.761	521.88
357.988	538.88
358.215	512.88
358.441	516.88
358.668	543.88
358.895	522.88
359.122	497.88
359.349	547.88
359.576	521.88
359.802	518.88
360.029	524.88
360.256	504.88
360.483	542.88
360.709	542.88
360.936	511.88
361.163	535.88
361.39	529.88
361.616	550.88
361.843	525.88
362.07	515.88
362.296	531.88
362.523	525.88
362.749	510.88
362.976	508.88
363.203	507.88
363.429	530.88
363.656	506.88
363.882	517.88
364.109	501.88
364.335	531.88
364.562	533.88
364.788	526.88
365.015	514.88
365.241	513.88
365.468	517.88
365.694	536.88
365.92	506.88
366.147	501.88
366.373	491.88
366.599	523.88
366.826	505.88
367.052	512.88
367.278	520.88
367.505	537.88
367.731	505.88
367.957	487.88
368.184	522.88
368.41	538.88
368.636	512.88
368.862	533.88
369.089	521.88
369.315	524.88
369.541	554.88
369.767	541.88
369.993	540.88
370.219	544.88
370.445	546.88
370.672	542.88
370.898	551.88
371.124	542.88
371.35	596.88
371.576	577.88
371.802	562.88
372.028	555.88
372.254	571.88
372.48	569.88
372.706	569.88
372.932	563.88
373.158	581.88
373.384	573.88
373.61	588.88
373.835	572.88
374.061	577.88
374.287	578.88
374.513	585.88
374.739	606.88
374.965	604.88
375.191	610.88
375.416	630.88
375.642	589.88
375.868	627.88
376.094	571.88
376.319	564.88
376.545	575.88
376.771	572.88
376.997	569.88
377.222	551.88
377.448	563.88
377.674	554.88
377.899	549.88
378.125	551.88
378.35	569.88
378.576	585.88
378.802	545.88
379.027	563.88
379.253	566.88
379.478	572.88
379.704	549.88
379.929	558.88
380.155	561.88
380.38	570.88
380.606	559.88
380.831	559.88
381.057	569.88
381.282	563.88
381.507	549.88
381.733	588.88
381.958	562.88
382.184	565.88
382.409	576.88
382.634	602.88
382.86	575.88
383.085	610.88
383.31	612.88
383.535	618.88
383.761	635.88
383.986	639.88
384.211	617.88
384.436	639.88
384.662	659.88
384.887	649.88
385.112	662.88
385.337	662.88
385.562	678.88
385.787	674.88
386.013	675.88
386.238	658.88
386.463	653.88
386.688	677.88
386.913	674.88
387.138	642.88
387.363	680.88
387.588	672.88
387.813	665.88
388.038	660.88
388.263	674.88
388.488	676.88
388.713	664.88
388.938	641.88
389.163	664.88
389.387	663.88
389.612	652.88
389.837	649.88
390.062	649.88
390.287	653.88
390.512	653.88
390.736	682.88
390.961	667.88
391.186	680.88
391.411	699.88
391.636	731.88
391.86	726.88
392.085	764.88
392.31	748.88
392.534	724.88
392.759	721.88
392.984	717.88
393.208	723.88
393.433	735.88
393.658	708.88
393.882	713.88
394.107	705.88
394.331	712.88
394.556	722.88
394.78	704.88
395.005	744.88
395.229	715.88
395.454	745.88
395.678	771.88
395.903	748.88
396.127	740.88
396.352	723.88
396.576	713.88
396.801	707.88
397.025	729.88
397.249	746.88
397.474	773.88
397.698	769.88
397.922	768.88
398.147	767.88
398.371	782.88
398.595	760.88
398.82	828.88
399.044	885.88
399.268	949.88
399.492	1118.88
399.717	1184.88
399.941	1180.88
400.165	1121.88
400.389	1003.88
400.613	913.88
400.837	865.88
401.062	837.88
401.286	838.88
401.51	832.88
401.734	837.88
401.958	846.88
402.182	820.88
402.406	833.88
402.63	864.88
402.854	881.88
403.078	870.88
403.302	903.88
403.526	915.88
403.75	947.88
403.974	929.88
404.198	942.88
404.422	941.88
404.645	939.88
404.869	930.88
405.093	916.88
405.317	939.88
405.541	907.88
405.765	929.88
405.988	891.88
406.212	885.88
406.436	904.88
406.66	937.88
406.883	947.88
407.107	983.88
407.331	1044.88
407.555	1075.88
407.778	1020.88
408.002	1031.88
408.226	1020.88
408.449	987.88
408.673	955.88
408.896	944.88
409.12	928.88
409.344	941.88
409.567	932.88
409.791	947.88
410.014	949.88
410.238	904.88
410.461	917.88
410.685	905.88
410.908	915.88
411.132	892.88
411.355	855.88
411.578	863.88
411.802	860.88
412.025	863.88
412.249	915.88
412.472	877.88
412.695	857.88
412.919	870.88
413.142	885.88
413.365	841.88
413.589	871.88
413.812	848.88
414.035	823.88
414.258	818.88
414.482	812.88
414.705	843.88
414.928	839.88
415.151	865.88
415.374	844.88
415.597	872.88
415.821	821.88
416.044	796.88
416.267	817.88
416.49	807.88
416.713	809.88
416.936	823.88
417.159	791.88
417.382	817.88
417.605	818.88
417.828	807.88
418.051	825.88
418.274	844.88
418.497	795.88
418.72	838.88
418.943	848.88
419.166	903.88
419.389	935.88
419.611	910.88
419.834	848.88
420.057	836.88
420.28	807.88
420.503	820.88
420.726	823.88
420.948	826.88
421.171	816.88
421.394	817.88
421.617	786.88
421.839	817.88
422.062	832.88
422.285	797.88
422.507	831.88
422.73	844.88
422.953	847.88
423.175	833.88
423.398	856.88
423.621	857.88
423.843	875.88
424.066	856.88
424.288	827.88
424.511	848.88
424.733	858.88
424.956	801.88
425.178	843.88
425.401	788.88
425.623	810.88
425.846	804.88
426.068	802.88
426.291	759.88
426.513	809.88
426.735	765.88
426.958	777.88
427.18	752.88
427.402	772.88
427.625	757.88
427.847	744.88
428.069	735.88
428.292	761.88
428.514	732.88
428.736	735.88
428.958	756.88
429.181	698.88
429.403	716.88
429.625	727.88
429.847	713.88
430.069	742.88
430.292	736.88
430.514	709.88
430.736	712.88
430.958	740.88
431.18	704.88
431.402	722.88
431.624	732.88
431.846	735.88
432.068	727.88
432.29	755.88
432.512	743.88
432.734	757.88
432.956	728.88
433.178	781.88
433.4	759.88
433.622	731.88
433.844	743.88
434.066	738.88
434.287	741.88
434.509	779.88
434.731	793.88
434.953	799.88
435.175	838.88
435.397	827.88
435.618	789.88
435.84	745.88
436.062	746.88
436.284	730.88
436.505	763.88
436.727	734.88
436.949	723.88
437.17	725.88
437.392	728.88
437.614	713.88
437.835	692.88
438.057	713.88
438.278	731.88
438.5	717.88
438.721	682.88
438.943	705.88
439.165	722.88
439.386	719.88
439.608	724.88
439.829	734.88
440.05	735.88
440.272	742.88
440.493	724.88
440.715	773.88
440.936	773.88
441.158	762.88
441.379	789.88
441.6	817.88
441.822	825.88
442.043	805.88
442.264	793.88
442.486	817.88
442.707	793.88
442.928	789.88
443.149	817.88
443.371	795.88
443.592	830.88
443.813	830.88
444.034	831.88
444.255	834.88
444.476	889.88
444.698	921.88
444.919	961.88
445.14	1038.88
445.361	924.88
445.582	840.88
445.803	795.88
446.024	791.88
446.245	747.88
446.466	733.88
446.687	765.88
446.908	737.88
447.129	735.88
447.35	720.88
447.571	725.88
447.792	691.88
448.013	676.88
448.234	677.88
448.455	690.88
448.675	705.88
448.896	680.88
449.117	664.88
449.338	685.88
449.559	674.88
449.779	648.88
450	679.88
450.221	693.88
450.442	693.88
450.662	672.88
450.883	674.88
451.104	693.88
451.324	706.88
451.545	679.88
451.766	684.88
451.986	668.88
452.207	671.88
452.428	651.88
452.648	673.88
452.869	663.88
453.089	654.88
453.31	672.88
453.53	642.88
453.751	643.88
453.971	626.88
454.192	665.88
454.412	635.88
454.633	630.88
454.853	631.88
455.073	634.88
455.294	635.88
455.514	632.88
455.734	640.88
455.955	653.88
456.175	652.88
456.395	634.88
456.616	631.88
456.836	635.88
457.056	615.88
457.276	615.88
457.497	646.88
457.717	655.88
457.937	646.88
458.157	664.88
458.377	673.88
458.598	661.88
458.818	693.88
459.038	715.88
459.258	698.88
459.478	722.88
459.698	777.88
459.918	789.88
460.138	772.88
460.358	835.88
460.578	855.88
460.798	867.88
461.018	848.88
461.238	871.88
461.458	832.88
461.678	865.88
461.898	852.88
462.118	868.88
462.338	920.88
462.558	911.88
462.777	976.88
462.997	1025.88
463.217	1108.88
463.437	1128.88
463.657	1008.88
463.876	989.88
464.096	976.88
464.316	995.88
464.536	997.88
464.755	946.88
464.975	929.88
465.195	876.88
465.414	839.88
465.634	792.88
465.854	747.88
466.073	754.88
466.293	735.88
466.512	727.88
466.732	717.88
466.951	737.88
467.171	689.88
467.391	719.88
467.61	728.88
467.829	694.88
468.049	683.88
468.268	693.88
468.488	705.88
468.707	694.88
468.927	684.88
469.146	688.88
469.365	687.88
469.585	702.88
469.804	730.88
470.023	731.88
470.243	729.88
470.462	721.88
470.681	724.88
470.901	722.88
471.12	728.88
471.339	706.88
471.558	697.88
471.777	691.88
471.997	697.88
472.216	669.88
472.435	690.88
472.654	679.88
472.873	663.88
473.092	667.88
473.311	664.88
473.53	668.88
473.749	660.88
473.968	649.88
474.187	682.88
474.406	680.88
474.625	689.88
474.844	684.88
475.063	673.88
475.282	670.88
475.501	693.88
475.72	695.88
475.939	683.88
476.158	712.88
476.377	693.88
476.596	697.88
476.814	707.88
477.033	728.88
477.252	746.88
477.471	718.88
477.69	761.88
477.908	763.88
478.127	780.88
478.346	772.88
478.564	801.88
478.783	799.88
479.002	807.88
479.22	843.88
479.439	848.88
479.658	815.88
479.876	813.88
480.095	839.88
480.313	872.88
480.532	895.88
480.751	871.88
480.969	849.88
481.188	835.88
481.406	793.88
481.624	785.88
481.843	763.88
482.061	784.88
482.28	762.88
482.498	759.88
482.717	764.88
482.935	737.88
483.153	763.88
483.372	775.88
483.59	769.88
483.808	768.88
484.027	776.88
484.245	790.88
484.463	818.88
484.681	798.88
484.9	785.88
485.118	814.88
485.336	772.88
485.554	783.88
485.772	779.88
485.99	789.88
486.209	797.88
486.427	803.88
486.645	795.88
486.863	787.88
487.081	820.88
487.299	812.88
487.517	803.88
487.735	809.88
487.953	805.88
488.171	808.88
488.389	799.88
488.607	797.88
488.825	799.88
489.043	788.88
489.261	815.88
489.479	797.88
489.696	806.88
489.914	800.88
490.132	818.88
490.35	809.88
490.568	802.88
490.786	812.88
491.003	832.88
491.221	838.88
491.439	804.88
491.657	832.88
491.874	843.88
492.092	817.88
492.31	827.88
492.527	827.88
492.745	826.88
492.963	854.88
493.18	852.88
493.398	867.88
493.615	863.88
493.833	845.88
494.05	865.88
494.268	875.88
494.485	875.88
494.703	881.88
494.92	891.88
495.138	894.88
495.355	876.88
495.573	865.88
495.79	894.88
496.008	906.88
496.225	911.88
496.442	908.88
496.66	931.88
496.877	911.88
497.094	909.88
497.312	959.88
497.529	951.88
497.746	984.88
497.963	1001.88
498.181	1066.88
498.398	1084.88
498.615	1138.88
498.832	1225.88
499.049	1323.88
499.267	1389.88
499.484	1509.88
499.701	1691.88
499.918	1807.88
500.135	2052.88
500.352	2282.88
500.569	2331.88
500.786	2324.88
501.003	2162.88
501.22	1978.88
501.437	1771.88
501.654	1579.88
501.871	1475.88
502.088	1343.88
502.305	1274.88
502.522	1207.88
502.739	1179.88
502.956	1098.88
503.172	1077.88
503.389	1008.88
503.606	1011.88
503.823	981.88
504.04	979.88
504.256	1004.88
504.473	1015.88
504.69	1015.88
504.907	975.88
505.123	918.88
505.34	874.88
505.557	833.88
505.773	839.88
505.99	856.88
506.207	807.88
506.423	807.88
506.64	813.88
506.856	774.88
507.073	756.88
507.289	770.88
507.506	785.88
507.722	763.88
507.939	755.88
508.155	754.88
508.372	738.88
508.588	754.88
508.805	739.88
509.021	727.88
509.238	740.88
509.454	722.88
509.67	713.88
509.887	687.88
510.103	712.88
510.319	668.88
510.536	705.88
510.752	682.88
510.968	690.88
511.184	691.88
511.401	730.88
511.617	704.88
511.833	687.88
512.049	680.88
512.265	701.88
512.481	694.88
512.698	703.88
512.914	698.88
513.13	709.88
513.346	685.88
513.562	690.88
513.778	701.88
513.994	707.88
514.21	706.88
514.426	687.88
514.642	706.88
514.858	724.88
515.074	701.88
515.29	728.88
515.506	717.88
515.721	725.88
515.937	731.88
516.153	757.88
516.369	767.88
516.585	798.88
516.801	799.88
517.016	840.88
517.232	866.88
517.448	895.88
517.664	924.88
517.879	924.88
518.095	901.88
518.311	905.88
518.527	885.88
518.742	843.88
518.958	797.88
519.173	821.88
519.389	796.88
519.605	754.88
519.82	763.88
520.036	759.88
520.251	722.88
520.467	728.88
520.682	700.88
520.898	671.88
521.113	689.88
521.329	688.88
521.544	665.88
521.76	698.88
521.975	667.88
522.19	673.88
522.406	663.88
522.621	657.88
522.836	680.88
523.052	662.88
523.267	642.88
523.482	641.88
523.698	639.88
523.913	652.88
524.128	633.88
524.343	663.88
524.559	627.88
524.774	641.88
524.989	637.88
525.204	637.88
525.419	642.88
525.634	631.88
525.849	649.88
526.064	633.88
526.28	630.88
526.495	620.88
526.71	622.88
526.925	639.88
527.14	612.88
527.355	616.88
527.57	631.88
527.785	623.88
527.999	623.88
528.214	621.88
528.429	612.88
528.644	619.88
528.859	635.88
529.074	623.88
529.289	633.88
529.503	657.88
529.718	648.88
529.933	635.88
530.148	634.88
530.363	612.88
530.577	602.88
530.792	636.88
531.007	631.88
531.221	613.88
531.436	614.88
531.651	632.88
531.865	635.88
532.08	629.88
532.295	603.88
532.509	614.88
532.724	616.88
532.938	642.88
533.153	607.88
533.367	634.88
533.582	609.88
533.796	624.88
534.011	644.88
534.225	625.88
534.44	629.88
534.654	597.88
534.868	606.88
535.083	612.88
535.297	606.88
535.511	599.88
535.726	617.88
535.94	611.88
536.154	577.88
536.369	592.88
536.583	597.88
536.797	578.88
537.011	589.88
537.225	571.88
537.44	578.88
537.654	588.88
537.868	585.88
538.082	566.88
538.296	573.88
538.51	584.88
538.724	570.88
538.938	581.88
539.153	573.88
539.367	570.88
539.581	574.88
539.795	583.88
540.009	543.88
540.222	562.88
540.436	567.88
540.65	576.88
540.864	553.88
541.078	571.88
541.292	573.88
541.506	603.88
541.72	567.88
541.934	565.88
542.147	593.88
542.361	563.88
542.575	556.88
542.789	545.88
543.002	552.88
543.216	564.88
543.43	556.88
543.644	549.88
543.857	563.88
544.071	555.88
544.285	579.88
544.498	552.88
544.712	568.88
544.925	557.88
545.139	591.88
545.352	584.88
545.566	570.88
545.779	576.88
545.993	606.88
546.206	599.88
546.42	566.88
546.633	573.88
546.847	567.88
547.06	572.88
547.274	576.88
547.487	580.88
547.7	590.88
547.914	605.88
548.127	576.88
548.34	588.88
548.554	600.88
548.767	583.88
548.98	591.88
549.193	598.88
549.407	585.88
549.62	585.88
549.833	586.88
550.046	595.88
550.259	586.88
550.473	577.88
550.686	579.88
550.899	583.88
551.112	586.88
551.325	561.88
551.538	541.88
551.751	575.88
551.964	582.88
552.177	571.88
552.39	566.88
552.603	595.88
552.816	619.88
553.029	620.88
553.242	625.88
553.455	615.88
553.667	647.88
553.88	613.88
554.093	597.88
554.306	597.88
554.519	576.88
554.732	592.88
554.944	552.88
555.157	535.88
555.37	541.88
555.583	548.88
555.795	552.88
556.008	539.88
556.221	510.88
556.433	514.88
556.646	501.88
556.859	500.88
557.071	511.88
557.284	509.88
557.496	491.88
557.709	499.88
557.921	500.88
558.134	490.88
558.346	509.88
558.559	493.88
558.771	478.88
558.984	489.88
559.196	482.88
559.409	477.88
559.621	485.88
559.833	469.88
560.046	477.88
560.258	479.88
560.47	497.88
560.683	487.88
560.895	467.88
561.107	450.88
561.32	470.88
561.532	465.88
561.744	462.88
561.956	476.88
562.168	479.88
562.381	488.88
562.593	483.88
562.805	500.88
563.017	490.88
563.229	482.88
563.441	483.88
563.653	493.88
563.865	472.88
564.077	507.88
564.289	497.88
564.501	510.88
564.713	529.88
564.925	496.88
565.137	514.88
565.349	537.88
565.561	563.88
565.773	558.88
565.985	578.88
566.197	622.88
566.408	669.88
566.62	667.88
566.832	709.88
567.044	723.88
567.255	767.88
567.467	734.88
567.679	804.88
567.891	855.88
568.102	852.88
568.314	812.88
568.526	739.88
568.737	679.88
568.949	657.88
569.161	582.88
569.372	544.88
569.584	526.88
569.795	509.88
570.007	499.88
570.218	507.88
570.43	496.88
570.641	495.88
570.853	472.88
571.064	481.88
571.276	484.88
571.487	470.88
571.698	485.88
571.91	444.88
572.121	444.88
572.333	425.88
572.544	415.88
572.755	400.88
572.966	411.88
573.178	390.88
573.389	398.88
573.6	394.88
573.811	402.88
574.023	403.88
574.234	388.88
574.445	393.88
574.656	390.88
574.867	404.88
575.078	404.88
575.289	376.88
575.501	397.88
575.712	378.88
575.923	380.88
576.134	385.88
576.345	358.88
576.556	381.88
576.767	397.88
576.978	376.88
577.188	379.88
577.399	358.88
577.61	356.88
577.821	369.88
578.032	363.88
578.243	355.88
578.454	357.88
578.665	371.88
578.875	371.88
579.086	359.88
579.297	349.88
579.508	352.88
579.718	340.88
579.929	361.88
580.14	336.88
580.35	340.88
580.561	356.88
580.772	349.88
580.982	329.88
581.193	359.88
581.403	353.88
581.614	346.88
581.825	333.88
582.035	338.88
582.246	343.88
582.456	349.88
582.667	337.88
582.877	341.88
583.087	343.88
583.298	314.88
583.508	341.88
583.719	354.88
583.929	325.88
584.139	337.88
584.35	338.88
584.56	311.88
584.77	314.88
584.981	329.88
585.191	307.88
585.401	324.88
585.611	325.88
585.821	304.88
586.032	333.88
586.242	306.88
586.452	324.88
586.662	336.88
586.872	314.88
587.082	330.88
587.292	334.88
587.502	328.88
587.713	307.88
587.923	316.88
588.133	327.88
588.343	314.88
588.553	312.88
588.762	316.88
588.972	340.88
589.182	331.88
589.392	335.88
589.602	313.88
589.812	333.88
590.022	321.88
590.232	323.88
590.441	319.88
590.651	337.88
590.861	324.88
591.071	324.88
591.281	329.88
591.49	339.88
591.7	337.88
591.91	355.88
592.119	345.88
592.329	351.88
592.539	371.88
592.748	392.88
592.958	372.88
593.167	368.88
593.377	401.88
593.587	404.88
593.796	390.88
594.006	376.88
594.215	390.88
594.424	394.88
594.634	386.88
594.843	389.88
595.053	371.88
595.262	355.88
595.472	339.88
595.681	321.88
595.89	321.88
596.1	314.88
596.309	333.88
596.518	305.88
596.727	299.88
596.937	314.88
597.146	299.88
597.355	314.88
597.564	296.88
597.774	297.88
597.983	283.88
598.192	280.88
598.401	284.88
598.61	291.88
598.819	288.88
599.028	269.88
599.237	291.88
599.446	290.88
599.655	282.88
599.864	275.88
600.073	265.88
600.282	285.88
600.491	281.88
600.7	268.88
600.909	281.88
601.118	260.88
601.327	263.88
601.536	265.88
601.745	267.88
601.953	292.88
602.162	266.88
602.371	254.88
602.58	261.88
602.789	266.88
602.997	285.88
603.206	266.88
603.415	267.88
603.623	268.88
603.832	264.88
604.041	252.88
604.249	261.88
604.458	287.88
604.666	271.88
604.875	248.88
605.084	269.88
605.292	259.88
605.501	249.88
605.709	258.88
605.918	263.88
606.126	255.88
606.334	240.88
606.543	263.88
606.751	239.88
606.96	245.88
607.168	260.88
607.376	231.88
607.585	240.88
607.793	260.88
608.001	249.88
608.21	255.88
608.418	245.88
608.626	252.88
608.834	261.88
609.043	264.88
609.251	264.88
609.459	258.88
609.667	235.88
609.875	245.88
610.083	223.88
610.291	243.88
610.499	233.88
610.707	252.88
610.916	248.88
611.124	241.88
611.332	257.88
611.54	245.88
611.748	239.88
611.955	224.88
612.163	244.88
612.371	251.88
612.579	245.88
612.787	243.88
612.995	239.88
613.203	256.88
613.411	242.88
613.618	249.88
613.826	234.88
614.034	224.88
614.242	232.88
614.449	236.88
614.657	239.88
614.865	247.88
615.072	245.88
615.28	228.88
615.488	252.88
615.695	246.88
615.903	220.88
616.111	247.88
616.318	236.88
616.526	239.88
616.733	233.88
616.941	252.88
617.148	242.88
617.356	243.88
617.563	247.88
617.771	232.88
617.978	212.88
618.185	237.88
618.393	230.88
618.6	234.88
618.807	243.88
619.015	236.88
619.222	234.88
619.429	231.88
619.637	223.88
619.844	235.88
620.051	234.88
620.258	235.88
620.466	230.88
620.673	231.88
620.88	220.88
621.087	217.88
621.294	219.88
621.501	221.88
621.708	232.88
621.915	209.88
622.122	214.88
622.329	219.88
622.536	209.88
622.743	226.88
622.95	212.88
623.157	205.88
623.364	203.88
623.571	199.88
623.778	221.88
623.985	218.88
624.192	221.88
624.399	205.88
624.606	201.88
624.812	218.88
625.019	210.88
625.226	211.88
625.433	214.88
625.639	218.88
625.846	204.88
626.053	214.88
626.259	203.88
626.466	193.88
626.673	193.88
626.879	212.88
627.086	213.88
627.293	185.88
627.499	213.88
627.706	218.88
627.912	198.88
628.119	198.88
628.325	207.88
628.532	198.88
628.738	196.88
628.945	198.88
629.151	209.88
629.357	177.88
629.564	204.88
629.77	200.88
629.976	203.88
630.183	224.88
630.389	204.88
630.595	182.88
630.802	198.88
631.008	192.88
631.214	174.88
631.42	194.88
631.627	186.88
631.833	192.88
632.039	185.88
632.245	188.88
632.451	193.88
632.657	189.88
632.863	196.88
633.069	195.88
633.275	197.88
633.481	189.88
633.688	185.88
633.893	164.88
634.099	175.88
634.305	180.88
634.511	173.88
634.717	187.88
634.923	185.88
635.129	189.88
635.335	193.88
635.541	171.88
635.747	189.88
635.952	176.88
636.158	194.88
636.364	172.88
636.57	186.88
636.775	170.88
636.981	181.88
637.187	185.88
637.392	200.88
637.598	195.88
637.804	181.88
638.009	181.88
638.215	169.88
638.421	181.88
638.626	201.88
638.832	190.88
639.037	176.88
639.243	169.88
639.448	166.88
639.654	176.88
639.859	184.88
640.065	166.88
640.27	180.88
640.475	160.88
640.681	170.88
640.886	177.88
641.091	163.88
641.297	181.88
641.502	163.88
641.707	166.88
641.913	170.88
642.118	157.88
642.323	174.88
642.528	167.88
642.733	165.88
642.939	171.88
643.144	166.88
643.349	165.88
643.554	157.88
643.759	170.88
643.964	183.88
644.169	160.88
644.374	169.88
644.579	159.88
644.784	165.88
644.989	161.88
645.194	171.88
645.399	164.88
645.604	172.88
645.809	162.88
646.014	167.88
646.219	161.88
646.423	159.88
646.628	170.88
646.833	177.88
647.038	150.88
647.243	185.88
647.447	173.88
647.652	173.88
647.857	163.88
648.062	181.88
648.266	178.88
648.471	154.88
648.676	180.88
648.88	183.88
649.085	166.88
649.289	159.88
649.494	180.88
649.698	182.88
649.903	153.88
650.107	163.88
650.312	135.88
650.516	147.88
650.721	155.88
650.925	159.88
651.13	149.88
651.334	153.88
651.539	159.88
651.743	153.88
651.947	162.88
652.152	167.88
652.356	147.88
652.56	154.88
652.764	149.88
652.969	138.88
653.173	137.88
653.377	144.88
653.581	147.88
653.785	134.88
653.99	126.88
654.194	146.88
654.398	133.88
654.602	135.88
654.806	132.88
655.01	134.88
655.214	135.88
655.418	136.88
655.622	133.88
655.826	136.88
656.03	131.88
656.234	142.88
656.438	131.88
656.642	129.88
656.846	124.88
657.049	123.88
657.253	131.88
657.457	123.88
657.661	121.88
657.865	120.88
658.068	104.88
658.272	98.88
658.476	106.88
658.68	117.88
658.883	94.88
659.087	97.88
659.291	103.88
659.494	107.88
659.698	112.88
659.901	86.88
660.105	107.88
660.309	91.88
660.512	95.88
660.716	99.88
660.919	90.88
661.123	93.88
661.326	92.88
661.53	103.88
661.733	97.88
661.936	89.88
662.14	91.88
662.343	82.88
662.546	83.88
662.75	81.88
662.953	78.88
663.156	83.88
663.36	100.88
663.563	90.88
663.766	92.88
663.969	83.88
664.173	78.88
664.376	87.88
664.579	72.88
664.782	88.88
664.985	88.88
665.188	78.88
665.391	83.88
665.594	84.88
665.797	78.88
666	93.88
666.203	81.88
666.406	87.88
666.609	71.88
666.812	90.88
667.015	80.88
667.218	88.88
667.421	77.88
667.624	83.88
667.827	89.88
668.03	72.88
668.232	79.88
668.435	87.88
668.638	68.88
668.841	83.88
669.043	78.88
669.246	73.88
669.449	85.88
669.651	87.88
669.854	75.88
670.057	84.88
670.259	83.88
670.462	73.88
670.665	95.88
670.867	77.88
671.07	91.88
671.272	80.88
671.475	83.88
671.677	92.88
671.88	78.88
672.082	69.88
672.284	95.88
672.487	81.88
672.689	81.88
672.892	69.88
