Data from NiCl2@0.25M.TitratingCurve.Agarose3%dH2O.NegLispCup.LampEnergy10.LIBS07252019_HRD10591_18-25-14-573.txt Node
Date: Thu Jul 25 18:25:14 EDT 2019
User: cochatt
Spectrometer: HR+D1059
Trigger mode: 1
Integration Time (sec): 1.000000E-1
Scans to average: 1
Electric dark correction enabled: true
Nonlinearity correction enabled: false
Boxcar width: 0
XAxis mode: Wavelengths
Number of Pixels in Spectrum: 2048
>>>>>Begin Spectral Data<<<<<
223.165	-10.06
223.4	-10.06
223.635	-10.06
223.869	-22.06
224.104	-20.06
224.338	-15.06
224.573	-23.06
224.808	-4.06
225.042	1.94
225.277	-11.06
225.511	-7.06
225.746	18.94
225.98	4.94
226.215	0.94
226.449	5.94
226.683	26.94
226.918	23.94
227.152	28.94
227.387	38.94
227.621	25.94
227.856	48.94
228.09	49.94
228.324	41.94
228.559	65.94
228.793	77.94
229.027	97.94
229.262	101.94
229.496	108.94
229.73	102.94
229.964	122.94
230.199	131.94
230.433	112.94
230.667	111.94
230.901	136.94
231.136	125.94
231.37	120.94
231.604	128.94
231.838	114.94
232.072	133.94
232.306	137.94
232.541	139.94
232.775	124.94
233.009	147.94
233.243	131.94
233.477	145.94
233.711	126.94
233.945	139.94
234.179	131.94
234.413	131.94
234.647	151.94
234.881	138.94
235.115	154.94
235.349	134.94
235.583	134.94
235.817	143.94
236.051	127.94
236.285	147.94
236.519	149.94
236.753	153.94
236.987	147.94
237.221	154.94
237.455	161.94
237.689	142.94
237.922	179.94
238.156	152.94
238.39	160.94
238.624	156.94
238.858	164.94
239.091	150.94
239.325	145.94
239.559	156.94
239.793	151.94
240.027	170.94
240.26	145.94
240.494	173.94
240.728	165.94
240.961	176.94
241.195	163.94
241.429	163.94
241.662	192.94
241.896	172.94
242.13	169.94
242.363	176.94
242.597	169.94
242.83	167.94
243.064	176.94
243.298	182.94
243.531	197.94
243.765	185.94
243.998	179.94
244.232	180.94
244.465	186.94
244.699	185.94
244.932	194.94
245.166	192.94
245.399	218.94
245.633	209.94
245.866	195.94
246.099	196.94
246.333	212.94
246.566	197.94
246.8	189.94
247.033	195.94
247.266	197.94
247.5	199.94
247.733	228.94
247.966	220.94
248.2	210.94
248.433	199.94
248.666	217.94
248.899	225.94
249.133	205.94
249.366	217.94
249.599	235.94
249.832	209.94
250.066	219.94
250.299	204.94
250.532	206.94
250.765	229.94
250.998	224.94
251.231	235.94
251.465	243.94
251.698	236.94
251.931	228.94
252.164	245.94
252.397	223.94
252.63	239.94
252.863	215.94
253.096	235.94
253.329	242.94
253.562	245.94
253.795	235.94
254.028	253.94
254.261	263.94
254.494	265.94
254.727	257.94
254.96	240.94
255.193	235.94
255.426	253.94
255.659	260.94
255.892	236.94
256.124	248.94
256.357	265.94
256.59	243.94
256.823	257.94
257.056	267.94
257.289	273.94
257.521	276.94
257.754	271.94
257.987	272.94
258.22	273.94
258.452	272.94
258.685	279.94
258.918	258.94
259.151	268.94
259.383	277.94
259.616	279.94
259.849	279.94
260.081	274.94
260.314	269.94
260.547	283.94
260.779	295.94
261.012	282.94
261.244	288.94
261.477	272.94
261.71	286.94
261.942	284.94
262.175	300.94
262.407	298.94
262.64	286.94
262.872	288.94
263.105	305.94
263.337	298.94
263.57	291.94
263.802	283.94
264.035	312.94
264.267	286.94
264.499	298.94
264.732	308.94
264.964	307.94
265.197	311.94
265.429	300.94
265.661	312.94
265.894	317.94
266.126	322.94
266.358	311.94
266.591	319.94
266.823	322.94
267.055	313.94
267.287	325.94
267.52	332.94
267.752	337.94
267.984	307.94
268.216	301.94
268.448	335.94
268.681	316.94
268.913	327.94
269.145	319.94
269.377	328.94
269.609	336.94
269.841	325.94
270.073	318.94
270.306	319.94
270.538	320.94
270.77	341.94
271.002	328.94
271.234	342.94
271.466	362.94
271.698	351.94
271.93	320.94
272.162	327.94
272.394	337.94
272.626	332.94
272.858	335.94
273.09	355.94
273.322	356.94
273.553	372.94
273.785	360.94
274.017	363.94
274.249	348.94
274.481	371.94
274.713	357.94
274.945	350.94
275.176	368.94
275.408	378.94
275.64	361.94
275.872	381.94
276.104	379.94
276.335	388.94
276.567	370.94
276.799	359.94
277.031	375.94
277.262	371.94
277.494	385.94
277.726	357.94
277.957	388.94
278.189	401.94
278.421	386.94
278.652	363.94
278.884	413.94
279.115	397.94
279.347	392.94
279.579	383.94
279.81	390.94
280.042	404.94
280.273	385.94
280.505	409.94
280.736	399.94
280.968	403.94
281.199	388.94
281.431	400.94
281.662	403.94
281.894	408.94
282.125	412.94
282.356	422.94
282.588	427.94
282.819	428.94
283.051	419.94
283.282	404.94
283.513	423.94
283.745	434.94
283.976	408.94
284.207	438.94
284.439	417.94
284.67	433.94
284.901	421.94
285.132	440.94
285.364	413.94
285.595	426.94
285.826	427.94
286.057	419.94
286.288	445.94
286.52	421.94
286.751	423.94
286.982	450.94
287.213	451.94
287.444	435.94
287.675	452.94
287.906	437.94
288.138	455.94
288.369	444.94
288.6	447.94
288.831	445.94
289.062	453.94
289.293	448.94
289.524	450.94
289.755	444.94
289.986	437.94
290.217	453.94
290.448	444.94
290.679	475.94
290.91	447.94
291.141	455.94
291.371	473.94
291.602	468.94
291.833	476.94
292.064	492.94
292.295	471.94
292.526	469.94
292.757	455.94
292.987	475.94
293.218	456.94
293.449	470.94
293.68	452.94
293.91	470.94
294.141	490.94
294.372	476.94
294.603	470.94
294.833	467.94
295.064	482.94
295.295	475.94
295.525	469.94
295.756	454.94
295.987	481.94
296.217	482.94
296.448	472.94
296.679	480.94
296.909	479.94
297.14	498.94
297.37	506.94
297.601	487.94
297.831	495.94
298.062	513.94
298.292	490.94
298.523	518.94
298.753	518.94
298.984	500.94
299.214	495.94
299.445	507.94
299.675	502.94
299.905	495.94
300.136	512.94
300.366	525.94
300.597	525.94
300.827	520.94
301.057	516.94
301.288	539.94
301.518	560.94
301.748	541.94
301.979	545.94
302.209	528.94
302.439	544.94
302.669	520.94
302.9	538.94
303.13	534.94
303.36	550.94
303.59	536.94
303.82	518.94
304.051	544.94
304.281	544.94
304.511	523.94
304.741	529.94
304.971	525.94
305.201	561.94
305.431	520.94
305.661	526.94
305.891	539.94
306.121	514.94
306.352	506.94
306.582	503.94
306.812	530.94
307.042	520.94
307.272	527.94
307.502	515.94
307.731	528.94
307.961	523.94
308.191	529.94
308.421	538.94
308.651	519.94
308.881	528.94
309.111	513.94
309.341	529.94
309.571	512.94
309.8	532.94
310.03	512.94
310.26	518.94
310.49	519.94
310.72	512.94
310.949	522.94
311.179	539.94
311.409	524.94
311.639	514.94
311.868	540.94
312.098	562.94
312.328	545.94
312.557	538.94
312.787	535.94
313.017	560.94
313.246	556.94
313.476	560.94
313.706	558.94
313.935	547.94
314.165	544.94
314.394	587.94
314.624	570.94
314.853	576.94
315.083	572.94
315.312	566.94
315.542	569.94
315.771	542.94
316.001	563.94
316.23	525.94
316.46	534.94
316.689	554.94
316.919	531.94
317.148	565.94
317.377	555.94
317.607	545.94
317.836	545.94
318.065	545.94
318.295	548.94
318.524	531.94
318.753	523.94
318.983	532.94
319.212	556.94
319.441	545.94
319.67	537.94
319.9	546.94
320.129	553.94
320.358	543.94
320.587	579.94
320.816	561.94
321.046	549.94
321.275	549.94
321.504	553.94
321.733	572.94
321.962	581.94
322.191	579.94
322.42	553.94
322.649	567.94
322.878	546.94
323.108	571.94
323.337	567.94
323.566	571.94
323.795	552.94
324.024	579.94
324.253	574.94
324.482	587.94
324.71	575.94
324.939	589.94
325.168	603.94
325.397	578.94
325.626	575.94
325.855	596.94
326.084	591.94
326.313	616.94
326.542	608.94
326.77	597.94
326.999	609.94
327.228	619.94
327.457	609.94
327.686	612.94
327.914	621.94
328.143	607.94
328.372	572.94
328.6	609.94
328.829	593.94
329.058	610.94
329.287	617.94
329.515	627.94
329.744	627.94
329.972	625.94
330.201	626.94
330.43	628.94
330.658	623.94
330.887	659.94
331.115	622.94
331.344	636.94
331.572	633.94
331.801	667.94
332.03	678.94
332.258	686.94
332.486	692.94
332.715	705.94
332.943	729.94
333.172	759.94
333.4	776.94
333.629	792.94
333.857	800.94
334.085	780.94
334.314	787.94
334.542	783.94
334.771	781.94
334.999	760.94
335.227	771.94
335.455	752.94
335.684	755.94
335.912	732.94
336.14	747.94
336.369	741.94
336.597	739.94
336.825	722.94
337.053	731.94
337.281	719.94
337.51	711.94
337.738	697.94
337.966	696.94
338.194	677.94
338.422	689.94
338.65	663.94
338.878	670.94
339.106	645.94
339.334	675.94
339.562	633.94
339.79	627.94
340.018	648.94
340.246	663.94
340.474	674.94
340.702	641.94
340.93	635.94
341.158	631.94
341.386	646.94
341.614	629.94
341.842	615.94
342.07	612.94
342.298	642.94
342.526	653.94
342.754	614.94
342.981	644.94
343.209	648.94
343.437	697.94
343.665	713.94
343.893	769.94
344.12	776.94
344.348	748.94
344.576	682.94
344.804	670.94
345.031	694.94
345.259	679.94
345.487	647.94
345.714	635.94
345.942	666.94
346.17	612.94
346.397	612.94
346.625	623.94
346.853	617.94
347.08	611.94
347.308	618.94
347.535	597.94
347.763	648.94
347.99	625.94
348.218	620.94
348.445	631.94
348.673	621.94
348.9	639.94
349.128	605.94
349.355	618.94
349.583	599.94
349.81	595.94
350.037	592.94
350.265	597.94
350.492	612.94
350.72	598.94
350.947	584.94
351.174	602.94
351.402	618.94
351.629	588.94
351.856	581.94
352.083	590.94
352.311	606.94
352.538	592.94
352.765	600.94
352.992	604.94
353.22	578.94
353.447	589.94
353.674	584.94
353.901	570.94
354.128	596.94
354.355	582.94
354.583	587.94
354.81	592.94
355.037	601.94
355.264	598.94
355.491	587.94
355.718	609.94
355.945	603.94
356.172	600.94
356.399	581.94
356.626	577.94
356.853	636.94
357.08	589.94
357.307	597.94
357.534	598.94
357.761	601.94
357.988	619.94
358.215	596.94
358.441	598.94
358.668	582.94
358.895	592.94
359.122	609.94
359.349	604.94
359.576	609.94
359.802	609.94
360.029	613.94
360.256	603.94
360.483	596.94
360.709	606.94
360.936	615.94
361.163	592.94
361.39	597.94
361.616	604.94
361.843	603.94
362.07	587.94
362.296	599.94
362.523	638.94
362.749	610.94
362.976	587.94
363.203	577.94
363.429	599.94
363.656	593.94
363.882	588.94
364.109	603.94
364.335	589.94
364.562	593.94
364.788	615.94
365.015	590.94
365.241	617.94
365.468	586.94
365.694	636.94
365.92	618.94
366.147	617.94
366.373	591.94
366.599	586.94
366.826	617.94
367.052	619.94
367.278	585.94
367.505	607.94
367.731	641.94
367.957	616.94
368.184	591.94
368.41	601.94
368.636	606.94
368.862	623.94
369.089	628.94
369.315	620.94
369.541	649.94
369.767	648.94
369.993	620.94
370.219	632.94
370.445	607.94
370.672	635.94
370.898	628.94
371.124	658.94
371.35	660.94
371.576	655.94
371.802	661.94
372.028	639.94
372.254	657.94
372.48	681.94
372.706	688.94
372.932	675.94
373.158	671.94
373.384	679.94
373.61	640.94
373.835	648.94
374.061	651.94
374.287	678.94
374.513	689.94
374.739	709.94
374.965	711.94
375.191	736.94
375.416	714.94
375.642	692.94
375.868	698.94
376.094	697.94
376.319	664.94
376.545	669.94
376.771	674.94
376.997	655.94
377.222	669.94
377.448	639.94
377.674	645.94
377.899	651.94
378.125	655.94
378.35	633.94
378.576	668.94
378.802	654.94
379.027	666.94
379.253	637.94
379.478	650.94
379.704	648.94
379.929	636.94
380.155	649.94
380.38	647.94
380.606	663.94
380.831	647.94
381.057	658.94
381.282	649.94
381.507	652.94
381.733	651.94
381.958	663.94
382.184	667.94
382.409	682.94
382.634	671.94
382.86	680.94
383.085	703.94
383.31	702.94
383.535	692.94
383.761	709.94
383.986	747.94
384.211	747.94
384.436	739.94
384.662	771.94
384.887	777.94
385.112	785.94
385.337	800.94
385.562	793.94
385.787	780.94
386.013	809.94
386.238	803.94
386.463	800.94
386.688	801.94
386.913	764.94
387.138	778.94
387.363	773.94
387.588	772.94
387.813	776.94
388.038	780.94
388.263	786.94
388.488	791.94
388.713	793.94
388.938	801.94
389.163	764.94
389.387	780.94
389.612	752.94
389.837	768.94
390.062	769.94
390.287	767.94
390.512	794.94
390.736	777.94
390.961	793.94
391.186	806.94
391.411	865.94
391.636	843.94
391.86	866.94
392.085	884.94
392.31	868.94
392.534	884.94
392.759	855.94
392.984	851.94
393.208	836.94
393.433	813.94
393.658	828.94
393.882	861.94
394.107	815.94
394.331	843.94
394.556	849.94
394.78	849.94
395.005	845.94
395.229	852.94
395.454	855.94
395.678	872.94
395.903	903.94
396.127	880.94
396.352	873.94
396.576	820.94
396.801	837.94
397.025	848.94
397.249	865.94
397.474	891.94
397.698	879.94
397.922	904.94
398.147	893.94
398.371	909.94
398.595	931.94
398.82	977.94
399.044	1040.94
399.268	1127.94
399.492	1306.94
399.717	1471.94
399.941	1451.94
400.165	1294.94
400.389	1171.94
400.613	1073.94
400.837	1029.94
401.062	1021.94
401.286	977.94
401.51	996.94
401.734	975.94
401.958	1002.94
402.182	1008.94
402.406	1037.94
402.63	1055.94
402.854	1051.94
403.078	1048.94
403.302	1074.94
403.526	1079.94
403.75	1110.94
403.974	1112.94
404.198	1125.94
404.422	1149.94
404.645	1113.94
404.869	1099.94
405.093	1138.94
405.317	1099.94
405.541	1082.94
405.765	1050.94
405.988	1073.94
406.212	1079.94
406.436	1094.94
406.66	1093.94
406.883	1082.94
407.107	1183.94
407.331	1194.94
407.555	1285.94
407.778	1277.94
408.002	1223.94
408.226	1172.94
408.449	1165.94
408.673	1144.94
408.896	1107.94
409.12	1113.94
409.344	1103.94
409.567	1087.94
409.791	1131.94
410.014	1109.94
410.238	1080.94
410.461	1106.94
410.685	1076.94
410.908	1042.94
411.132	1042.94
411.355	1051.94
411.578	1045.94
411.802	1052.94
412.025	1033.94
412.249	1056.94
412.472	1039.94
412.695	1014.94
412.919	989.94
413.142	999.94
413.365	961.94
413.589	992.94
413.812	975.94
414.035	978.94
414.258	965.94
414.482	978.94
414.705	993.94
414.928	1006.94
415.151	1013.94
415.374	1002.94
415.597	1019.94
415.821	1003.94
416.044	999.94
416.267	949.94
416.49	969.94
416.713	948.94
416.936	972.94
417.159	965.94
417.382	946.94
417.605	953.94
417.828	961.94
418.051	956.94
418.274	1006.94
418.497	970.94
418.72	1003.94
418.943	1003.94
419.166	1064.94
419.389	1108.94
419.611	1064.94
419.834	1023.94
420.057	1015.94
420.28	994.94
420.503	939.94
420.726	943.94
420.948	927.94
421.171	946.94
421.394	979.94
421.617	966.94
421.839	980.94
422.062	994.94
422.285	954.94
422.507	999.94
422.73	1003.94
422.953	967.94
423.175	997.94
423.398	1004.94
423.621	1016.94
423.843	1038.94
424.066	1047.94
424.288	1017.94
424.511	986.94
424.733	1002.94
424.956	973.94
425.178	959.94
425.401	974.94
425.623	981.94
425.846	928.94
426.068	936.94
426.291	941.94
426.513	939.94
426.735	907.94
426.958	902.94
427.18	887.94
427.402	882.94
427.625	888.94
427.847	861.94
428.069	894.94
428.292	883.94
428.514	880.94
428.736	864.94
428.958	878.94
429.181	841.94
429.403	855.94
429.625	836.94
429.847	833.94
430.069	856.94
430.292	863.94
430.514	805.94
430.736	880.94
430.958	868.94
431.18	845.94
431.402	873.94
431.624	870.94
431.846	894.94
432.068	851.94
432.29	889.94
432.512	867.94
432.734	861.94
432.956	859.94
433.178	861.94
433.4	870.94
433.622	913.94
433.844	880.94
434.066	899.94
434.287	896.94
434.509	919.94
434.731	941.94
434.953	938.94
435.175	982.94
435.397	967.94
435.618	908.94
435.84	916.94
436.062	881.94
436.284	887.94
436.505	869.94
436.727	881.94
436.949	860.94
437.17	859.94
437.392	850.94
437.614	854.94
437.835	831.94
438.057	844.94
438.278	833.94
438.5	815.94
438.721	821.94
438.943	851.94
439.165	836.94
439.386	850.94
439.608	871.94
439.829	889.94
440.05	859.94
440.272	851.94
440.493	827.94
440.715	866.94
440.936	866.94
441.158	887.94
441.379	913.94
441.6	956.94
441.822	986.94
442.043	944.94
442.264	978.94
442.486	947.94
442.707	951.94
442.928	959.94
443.149	944.94
443.371	917.94
443.592	946.94
443.813	979.94
444.034	995.94
444.255	1009.94
444.476	1025.94
444.698	1088.94
444.919	1130.94
445.14	1201.94
445.361	1103.94
445.582	988.94
445.803	953.94
446.024	924.94
446.245	896.94
446.466	875.94
446.687	868.94
446.908	857.94
447.129	843.94
447.35	823.94
447.571	815.94
447.792	793.94
448.013	831.94
448.234	787.94
448.455	809.94
448.675	803.94
448.896	796.94
449.117	769.94
449.338	797.94
449.559	795.94
449.779	785.94
450	769.94
450.221	808.94
450.442	798.94
450.662	817.94
450.883	799.94
451.104	835.94
451.324	790.94
451.545	815.94
451.766	796.94
451.986	778.94
452.207	781.94
452.428	773.94
452.648	797.94
452.869	784.94
453.089	772.94
453.31	778.94
453.53	755.94
453.751	743.94
453.971	745.94
454.192	735.94
454.412	764.94
454.633	727.94
454.853	736.94
455.073	744.94
455.294	748.94
455.514	766.94
455.734	749.94
455.955	724.94
456.175	736.94
456.395	758.94
456.616	745.94
456.836	762.94
457.056	732.94
457.276	751.94
457.497	730.94
457.717	760.94
457.937	743.94
458.157	757.94
458.377	768.94
458.598	774.94
458.818	835.94
459.038	831.94
459.258	852.94
459.478	880.94
459.698	878.94
459.918	930.94
460.138	921.94
460.358	986.94
460.578	1028.94
460.798	1021.94
461.018	1031.94
461.238	1003.94
461.458	1025.94
461.678	986.94
461.898	1043.94
462.118	1050.94
462.338	1097.94
462.558	1099.94
462.777	1159.94
462.997	1227.94
463.217	1331.94
463.437	1357.94
463.657	1243.94
463.876	1165.94
464.096	1173.94
464.316	1179.94
464.536	1186.94
464.755	1120.94
464.975	1092.94
465.195	1016.94
465.414	973.94
465.634	945.94
465.854	927.94
466.073	905.94
466.293	870.94
466.512	872.94
466.732	852.94
466.951	840.94
467.171	836.94
467.391	849.94
467.61	831.94
467.829	809.94
468.049	822.94
468.268	804.94
468.488	790.94
468.707	818.94
468.927	818.94
469.146	799.94
469.365	809.94
469.585	798.94
469.804	810.94
470.023	845.94
470.243	858.94
470.462	845.94
470.681	850.94
470.901	878.94
471.12	844.94
471.339	841.94
471.558	819.94
471.777	825.94
471.997	809.94
472.216	824.94
472.435	789.94
472.654	805.94
472.873	796.94
473.092	795.94
473.311	786.94
473.53	809.94
473.749	791.94
473.968	776.94
474.187	799.94
474.406	784.94
474.625	792.94
474.844	775.94
475.063	807.94
475.282	781.94
475.501	784.94
475.72	800.94
475.939	793.94
476.158	833.94
476.377	850.94
476.596	839.94
476.814	840.94
477.033	823.94
477.252	852.94
477.471	831.94
477.69	872.94
477.908	900.94
478.127	934.94
478.346	964.94
478.564	949.94
478.783	952.94
479.002	977.94
479.22	985.94
479.439	1009.94
479.658	968.94
479.876	976.94
480.095	979.94
480.313	1002.94
480.532	1037.94
480.751	1055.94
480.969	974.94
481.188	950.94
481.406	935.94
481.624	949.94
481.843	924.94
482.061	905.94
482.28	919.94
482.498	906.94
482.717	909.94
482.935	902.94
483.153	901.94
483.372	905.94
483.59	903.94
483.808	944.94
484.027	899.94
484.245	927.94
484.463	925.94
484.681	917.94
484.9	954.94
485.118	940.94
485.336	959.94
485.554	919.94
485.772	925.94
485.99	955.94
486.209	981.94
486.427	949.94
486.645	958.94
486.863	959.94
487.081	959.94
487.299	946.94
487.517	927.94
487.735	935.94
487.953	962.94
488.171	967.94
488.389	955.94
488.607	939.94
488.825	941.94
489.043	966.94
489.261	952.94
489.479	953.94
489.696	983.94
489.914	939.94
490.132	940.94
490.35	954.94
490.568	930.94
490.786	956.94
491.003	991.94
491.221	975.94
491.439	966.94
491.657	975.94
491.874	998.94
492.092	1009.94
492.31	987.94
492.527	963.94
492.745	985.94
492.963	985.94
493.18	990.94
493.398	1018.94
493.615	1015.94
493.833	996.94
494.05	1008.94
494.268	1011.94
494.485	1010.94
494.703	1012.94
494.92	1035.94
495.138	1009.94
495.355	1017.94
495.573	1035.94
495.79	1007.94
496.008	1043.94
496.225	1031.94
496.442	1042.94
496.66	1086.94
496.877	1090.94
497.094	1109.94
497.312	1104.94
497.529	1170.94
497.746	1140.94
497.963	1166.94
498.181	1228.94
498.398	1323.94
498.615	1348.94
498.832	1429.94
499.049	1535.94
499.267	1655.94
499.484	1820.94
499.701	1960.94
499.918	2207.94
500.135	2459.94
500.352	2729.94
500.569	2845.94
500.786	2808.94
501.003	2640.94
501.22	2373.94
501.437	2166.94
501.654	1908.94
501.871	1777.94
502.088	1632.94
502.305	1516.94
502.522	1441.94
502.739	1412.94
502.956	1324.94
503.172	1256.94
503.389	1252.94
503.606	1169.94
503.823	1190.94
504.04	1165.94
504.256	1172.94
504.473	1168.94
504.69	1215.94
504.907	1167.94
505.123	1129.94
505.34	1062.94
505.557	1009.94
505.773	983.94
505.99	978.94
506.207	933.94
506.423	946.94
506.64	961.94
506.856	934.94
507.073	907.94
507.289	917.94
507.506	899.94
507.722	874.94
507.939	866.94
508.155	892.94
508.372	871.94
508.588	866.94
508.805	863.94
509.021	865.94
509.238	828.94
509.454	837.94
509.67	821.94
509.887	845.94
510.103	836.94
510.319	823.94
510.536	825.94
510.752	828.94
510.968	809.94
511.184	806.94
511.401	821.94
511.617	835.94
511.833	833.94
512.049	831.94
512.265	851.94
512.481	836.94
512.698	830.94
512.914	822.94
513.13	826.94
513.346	819.94
513.562	812.94
513.778	840.94
513.994	803.94
514.21	849.94
514.426	820.94
514.642	816.94
514.858	822.94
515.074	852.94
515.29	856.94
515.506	864.94
515.721	856.94
515.937	890.94
516.153	895.94
516.369	914.94
516.585	957.94
516.801	955.94
517.016	979.94
517.232	1025.94
517.448	1050.94
517.664	1111.94
517.879	1095.94
518.095	1106.94
518.311	1085.94
518.527	1054.94
518.742	998.94
518.958	984.94
519.173	961.94
519.389	945.94
519.605	882.94
519.82	886.94
520.036	844.94
520.251	868.94
520.467	840.94
520.682	854.94
520.898	834.94
521.113	801.94
521.329	809.94
521.544	810.94
521.76	812.94
521.975	780.94
522.19	781.94
522.406	792.94
522.621	803.94
522.836	777.94
523.052	784.94
523.267	799.94
523.482	767.94
523.698	779.94
523.913	764.94
524.128	758.94
524.343	771.94
524.559	759.94
524.774	745.94
524.989	735.94
525.204	768.94
525.419	751.94
525.634	740.94
525.849	720.94
526.064	732.94
526.28	743.94
526.495	739.94
526.71	726.94
526.925	744.94
527.14	717.94
527.355	724.94
527.57	728.94
527.785	746.94
527.999	725.94
528.214	739.94
528.429	756.94
528.644	727.94
528.859	744.94
529.074	723.94
529.289	742.94
529.503	758.94
529.718	736.94
529.933	729.94
530.148	753.94
530.363	735.94
530.577	710.94
530.792	714.94
531.007	734.94
531.221	727.94
531.436	745.94
531.651	752.94
531.865	743.94
532.08	744.94
532.295	758.94
532.509	724.94
532.724	732.94
532.938	746.94
533.153	731.94
533.367	717.94
533.582	733.94
533.796	713.94
534.011	735.94
534.225	711.94
534.44	711.94
534.654	718.94
534.868	688.94
535.083	723.94
535.297	724.94
535.511	700.94
535.726	715.94
535.94	712.94
536.154	697.94
536.369	712.94
536.583	671.94
536.797	670.94
537.011	691.94
537.225	689.94
537.44	677.94
537.654	668.94
537.868	676.94
538.082	683.94
538.296	696.94
538.51	681.94
538.724	663.94
538.938	647.94
539.153	656.94
539.367	657.94
539.581	670.94
539.795	645.94
540.009	666.94
540.222	679.94
540.436	666.94
540.65	658.94
540.864	649.94
541.078	651.94
541.292	671.94
541.506	640.94
541.72	669.94
541.934	643.94
542.147	675.94
542.361	673.94
542.575	644.94
542.789	659.94
543.002	636.94
543.216	655.94
543.43	653.94
543.644	647.94
543.857	649.94
544.071	655.94
544.285	680.94
544.498	657.94
544.712	669.94
544.925	644.94
545.139	657.94
545.352	676.94
545.566	672.94
545.779	683.94
545.993	682.94
546.206	673.94
546.42	683.94
546.633	669.94
546.847	700.94
547.06	676.94
547.274	659.94
547.487	650.94
547.7	707.94
547.914	683.94
548.127	670.94
548.34	667.94
548.554	672.94
548.767	665.94
548.98	703.94
549.193	696.94
549.407	678.94
549.62	698.94
549.833	705.94
550.046	704.94
550.259	649.94
550.473	665.94
550.686	660.94
550.899	644.94
551.112	671.94
551.325	661.94
551.538	661.94
551.751	650.94
551.964	657.94
552.177	668.94
552.39	674.94
552.603	708.94
552.816	690.94
553.029	710.94
553.242	748.94
553.455	754.94
553.667	735.94
553.88	739.94
554.093	707.94
554.306	679.94
554.519	683.94
554.732	671.94
554.944	647.94
555.157	640.94
555.37	654.94
555.583	656.94
555.795	613.94
556.008	609.94
556.221	629.94
556.433	596.94
556.646	587.94
556.859	600.94
557.071	584.94
557.284	587.94
557.496	573.94
557.709	577.94
557.921	583.94
558.134	561.94
558.346	573.94
558.559	575.94
558.771	567.94
558.984	541.94
559.196	541.94
559.409	563.94
559.621	563.94
559.833	564.94
560.046	539.94
560.258	553.94
560.47	554.94
560.683	543.94
560.895	561.94
561.107	572.94
561.32	546.94
561.532	554.94
561.744	562.94
561.956	554.94
562.168	557.94
562.381	573.94
562.593	563.94
562.805	561.94
563.017	554.94
563.229	557.94
563.441	572.94
563.653	573.94
563.865	569.94
564.077	584.94
564.289	578.94
564.501	581.94
564.713	583.94
564.925	616.94
565.137	604.94
565.349	638.94
565.561	606.94
565.773	667.94
565.985	691.94
566.197	736.94
566.408	770.94
566.62	823.94
566.832	863.94
567.044	912.94
567.255	882.94
567.467	911.94
567.679	948.94
567.891	1027.94
568.102	1032.94
568.314	945.94
568.526	873.94
568.737	807.94
568.949	772.94
569.161	704.94
569.372	665.94
569.584	637.94
569.795	608.94
570.007	602.94
570.218	576.94
570.43	572.94
570.641	575.94
570.853	565.94
571.064	583.94
571.276	564.94
571.487	566.94
571.698	541.94
571.91	512.94
572.121	527.94
572.333	517.94
572.544	493.94
572.755	498.94
572.966	487.94
573.178	491.94
573.389	474.94
573.6	459.94
573.811	488.94
574.023	468.94
574.234	451.94
574.445	449.94
574.656	461.94
574.867	475.94
575.078	449.94
575.289	474.94
575.501	463.94
575.712	438.94
575.923	439.94
576.134	425.94
576.345	425.94
576.556	441.94
576.767	436.94
576.978	445.94
577.188	443.94
577.399	423.94
577.61	421.94
577.821	427.94
578.032	413.94
578.243	440.94
578.454	411.94
578.665	417.94
578.875	406.94
579.086	409.94
579.297	410.94
579.508	419.94
579.718	407.94
579.929	397.94
580.14	400.94
580.35	390.94
580.561	401.94
580.772	402.94
580.982	412.94
581.193	395.94
581.403	394.94
581.614	393.94
581.825	386.94
582.035	405.94
582.246	393.94
582.456	383.94
582.667	377.94
582.877	385.94
583.087	383.94
583.298	405.94
583.508	387.94
583.719	392.94
583.929	367.94
584.139	380.94
584.35	378.94
584.56	370.94
584.77	386.94
584.981	369.94
585.191	383.94
585.401	379.94
585.611	367.94
585.821	382.94
586.032	404.94
586.242	376.94
586.452	357.94
586.662	368.94
586.872	390.94
587.082	383.94
587.292	361.94
587.502	370.94
587.713	353.94
587.923	360.94
588.133	367.94
588.343	387.94
588.553	360.94
588.762	375.94
588.972	385.94
589.182	395.94
589.392	378.94
589.602	383.94
589.812	387.94
590.022	372.94
590.232	358.94
590.441	379.94
590.651	375.94
590.861	363.94
591.071	370.94
591.281	382.94
591.49	377.94
591.7	379.94
591.91	416.94
592.119	403.94
592.329	407.94
592.539	419.94
592.748	447.94
592.958	461.94
593.167	418.94
593.377	443.94
593.587	441.94
593.796	452.94
594.006	471.94
594.215	470.94
594.424	476.94
594.634	459.94
594.843	446.94
595.053	439.94
595.262	414.94
595.472	405.94
595.681	392.94
595.89	394.94
596.1	373.94
596.309	370.94
596.518	367.94
596.727	379.94
596.937	367.94
597.146	349.94
597.355	339.94
597.564	357.94
597.774	336.94
597.983	343.94
598.192	331.94
598.401	329.94
598.61	338.94
598.819	314.94
599.028	319.94
599.237	324.94
599.446	321.94
599.655	317.94
599.864	332.94
600.073	330.94
600.282	316.94
600.491	315.94
600.7	323.94
600.909	321.94
601.118	317.94
601.327	326.94
601.536	326.94
601.745	321.94
601.953	315.94
602.162	325.94
602.371	289.94
602.58	308.94
602.789	323.94
602.997	319.94
603.206	291.94
603.415	299.94
603.623	307.94
603.832	315.94
604.041	305.94
604.249	305.94
604.458	300.94
604.666	309.94
604.875	303.94
605.084	293.94
605.292	294.94
605.501	293.94
605.709	300.94
605.918	303.94
606.126	303.94
606.334	287.94
606.543	285.94
606.751	276.94
606.96	301.94
607.168	295.94
607.376	285.94
607.585	295.94
607.793	279.94
608.001	288.94
608.21	285.94
608.418	281.94
608.626	284.94
608.834	293.94
609.043	294.94
609.251	274.94
609.459	272.94
609.667	284.94
609.875	286.94
610.083	290.94
610.291	280.94
610.499	263.94
610.707	283.94
610.916	269.94
611.124	273.94
611.332	295.94
611.54	283.94
611.748	288.94
611.955	277.94
612.163	279.94
612.371	268.94
612.579	253.94
612.787	266.94
612.995	274.94
613.203	272.94
613.411	288.94
613.618	284.94
613.826	286.94
614.034	284.94
614.242	264.94
614.449	261.94
614.657	275.94
614.865	269.94
615.072	270.94
615.28	275.94
615.488	263.94
615.695	273.94
615.903	277.94
616.111	277.94
616.318	281.94
616.526	281.94
616.733	278.94
616.941	286.94
617.148	267.94
617.356	257.94
617.563	264.94
617.771	277.94
617.978	269.94
618.185	258.94
618.393	271.94
618.6	273.94
618.807	282.94
619.015	275.94
619.222	287.94
619.429	281.94
619.637	279.94
619.844	268.94
620.051	262.94
620.258	265.94
620.466	255.94
620.673	262.94
620.88	234.94
621.087	245.94
621.294	242.94
621.501	234.94
621.708	245.94
621.915	260.94
622.122	258.94
622.329	251.94
622.536	243.94
622.743	260.94
622.95	258.94
623.157	236.94
623.364	233.94
623.571	252.94
623.778	230.94
623.985	237.94
624.192	228.94
624.399	250.94
624.606	242.94
624.812	235.94
625.019	223.94
625.226	238.94
625.433	224.94
625.639	246.94
625.846	255.94
626.053	236.94
626.259	241.94
626.466	241.94
626.673	242.94
626.879	225.94
627.086	229.94
627.293	227.94
627.499	231.94
627.706	232.94
627.912	244.94
628.119	226.94
628.325	224.94
628.532	214.94
628.738	226.94
628.945	223.94
629.151	244.94
629.357	229.94
629.564	215.94
629.77	216.94
629.976	224.94
630.183	215.94
630.389	217.94
630.595	220.94
630.802	221.94
631.008	218.94
631.214	213.94
631.42	212.94
631.627	227.94
631.833	220.94
632.039	214.94
632.245	223.94
632.451	215.94
632.657	203.94
632.863	202.94
633.069	211.94
633.275	222.94
633.481	208.94
633.688	204.94
633.893	195.94
634.099	181.94
634.305	196.94
634.511	203.94
634.717	196.94
634.923	199.94
635.129	208.94
635.335	225.94
635.541	212.94
635.747	212.94
635.952	177.94
636.158	203.94
636.364	209.94
636.57	205.94
636.775	198.94
636.981	211.94
637.187	205.94
637.392	197.94
637.598	193.94
637.804	200.94
638.009	193.94
638.215	195.94
638.421	213.94
638.626	184.94
638.832	196.94
639.037	207.94
639.243	185.94
639.448	205.94
639.654	204.94
639.859	187.94
640.065	192.94
640.27	191.94
640.475	188.94
640.681	181.94
640.886	196.94
641.091	169.94
641.297	177.94
641.502	189.94
641.707	162.94
641.913	187.94
642.118	181.94
642.323	196.94
642.528	174.94
642.733	189.94
642.939	193.94
643.144	170.94
643.349	179.94
643.554	182.94
643.759	192.94
643.964	193.94
644.169	176.94
644.374	193.94
644.579	169.94
644.784	190.94
644.989	171.94
645.194	175.94
645.399	192.94
645.604	189.94
645.809	167.94
646.014	181.94
646.219	187.94
646.423	188.94
646.628	185.94
646.833	183.94
647.038	197.94
647.243	179.94
647.447	172.94
647.652	182.94
647.857	189.94
648.062	203.94
648.266	201.94
648.471	185.94
648.676	194.94
648.88	181.94
649.085	181.94
649.289	189.94
649.494	172.94
649.698	198.94
649.903	198.94
650.107	167.94
650.312	172.94
650.516	171.94
650.721	182.94
650.925	147.94
651.13	170.94
651.334	169.94
651.539	177.94
651.743	175.94
651.947	161.94
652.152	181.94
652.356	160.94
652.56	159.94
652.764	151.94
652.969	164.94
653.173	171.94
653.377	151.94
653.581	138.94
653.785	146.94
653.99	145.94
654.194	142.94
654.398	146.94
654.602	148.94
654.806	148.94
655.01	141.94
655.214	161.94
655.418	157.94
655.622	148.94
655.826	150.94
656.03	134.94
656.234	155.94
656.438	141.94
656.642	142.94
656.846	138.94
657.049	134.94
657.253	149.94
657.457	140.94
657.661	119.94
657.865	109.94
658.068	119.94
658.272	116.94
658.476	119.94
658.68	111.94
658.883	130.94
659.087	109.94
659.291	97.94
659.494	101.94
659.698	116.94
659.901	97.94
660.105	98.94
660.309	105.94
660.512	88.94
660.716	95.94
660.919	84.94
661.123	100.94
661.326	97.94
661.53	91.94
661.733	85.94
661.936	104.94
662.14	96.94
662.343	92.94
662.546	95.94
662.75	95.94
662.953	94.94
663.156	88.94
663.36	99.94
663.563	99.94
663.766	88.94
663.969	91.94
664.173	81.94
664.376	94.94
664.579	97.94
664.782	78.94
664.985	78.94
665.188	76.94
665.391	91.94
665.594	84.94
665.797	88.94
666	85.94
666.203	75.94
666.406	83.94
666.609	79.94
666.812	77.94
667.015	80.94
667.218	83.94
667.421	86.94
667.624	81.94
667.827	86.94
668.03	92.94
668.232	83.94
668.435	76.94
668.638	82.94
668.841	83.94
669.043	88.94
669.246	79.94
669.449	87.94
669.651	87.94
669.854	77.94
670.057	87.94
670.259	90.94
670.462	89.94
670.665	83.94
670.867	80.94
671.07	83.94
671.272	99.94
671.475	76.94
671.677	85.94
671.88	89.94
672.082	101.94
672.284	81.94
672.487	89.94
672.689	88.94
672.892	69.94
