Data from NiCl2@0.25M.TitratingCurve.Agarose3%dH2O.NegLispCup.LampEnergy10.LIBS07252019_HRD10591_18-24-03-573.txt Node
Date: Thu Jul 25 18:24:03 EDT 2019
User: cochatt
Spectrometer: HR+D1059
Trigger mode: 1
Integration Time (sec): 1.000000E-1
Scans to average: 1
Electric dark correction enabled: true
Nonlinearity correction enabled: false
Boxcar width: 0
XAxis mode: Wavelengths
Number of Pixels in Spectrum: 2048
>>>>>Begin Spectral Data<<<<<
223.165	-30.25
223.4	-30.25
223.635	-30.25
223.869	-14.25
224.104	-19.25
224.338	-8.25
224.573	-19.25
224.808	-23.25
225.042	-3.25
225.277	-4.25
225.511	-7.25
225.746	10.75
225.98	11.75
226.215	20.75
226.449	13.75
226.683	8.75
226.918	35.75
227.152	27.75
227.387	32.75
227.621	45.75
227.856	34.75
228.09	36.75
228.324	56.75
228.559	53.75
228.793	59.75
229.027	88.75
229.262	106.75
229.496	98.75
229.73	114.75
229.964	111.75
230.199	125.75
230.433	125.75
230.667	128.75
230.901	127.75
231.136	147.75
231.37	129.75
231.604	125.75
231.838	128.75
232.072	144.75
232.306	141.75
232.541	140.75
232.775	145.75
233.009	151.75
233.243	140.75
233.477	153.75
233.711	148.75
233.945	141.75
234.179	146.75
234.413	123.75
234.647	158.75
234.881	137.75
235.115	145.75
235.349	145.75
235.583	149.75
235.817	139.75
236.051	159.75
236.285	153.75
236.519	161.75
236.753	148.75
236.987	162.75
237.221	157.75
237.455	149.75
237.689	163.75
237.922	157.75
238.156	175.75
238.39	154.75
238.624	149.75
238.858	161.75
239.091	171.75
239.325	166.75
239.559	160.75
239.793	155.75
240.027	179.75
240.26	164.75
240.494	178.75
240.728	203.75
240.961	186.75
241.195	175.75
241.429	204.75
241.662	176.75
241.896	183.75
242.13	180.75
242.363	176.75
242.597	182.75
242.83	187.75
243.064	198.75
243.298	206.75
243.531	186.75
243.765	195.75
243.998	205.75
244.232	208.75
244.465	209.75
244.699	200.75
244.932	239.75
245.166	201.75
245.399	223.75
245.633	203.75
245.866	211.75
246.099	215.75
246.333	217.75
246.566	216.75
246.8	214.75
247.033	216.75
247.266	225.75
247.5	226.75
247.733	219.75
247.966	231.75
248.2	228.75
248.433	236.75
248.666	227.75
248.899	219.75
249.133	235.75
249.366	249.75
249.599	254.75
249.832	243.75
250.066	230.75
250.299	259.75
250.532	243.75
250.765	246.75
250.998	241.75
251.231	246.75
251.465	273.75
251.698	269.75
251.931	257.75
252.164	249.75
252.397	255.75
252.63	243.75
252.863	251.75
253.096	270.75
253.329	254.75
253.562	272.75
253.795	280.75
254.028	275.75
254.261	287.75
254.494	285.75
254.727	281.75
254.96	271.75
255.193	272.75
255.426	268.75
255.659	269.75
255.892	268.75
256.124	277.75
256.357	277.75
256.59	282.75
256.823	293.75
257.056	281.75
257.289	288.75
257.521	307.75
257.754	314.75
257.987	297.75
258.22	299.75
258.452	296.75
258.685	299.75
258.918	287.75
259.151	320.75
259.383	319.75
259.616	300.75
259.849	304.75
260.081	296.75
260.314	313.75
260.547	328.75
260.779	296.75
261.012	307.75
261.244	322.75
261.477	316.75
261.71	319.75
261.942	303.75
262.175	313.75
262.407	339.75
262.64	320.75
262.872	335.75
263.105	317.75
263.337	333.75
263.57	331.75
263.802	342.75
264.035	346.75
264.267	341.75
264.499	323.75
264.732	331.75
264.964	355.75
265.197	356.75
265.429	331.75
265.661	346.75
265.894	338.75
266.126	334.75
266.358	346.75
266.591	356.75
266.823	354.75
267.055	349.75
267.287	349.75
267.52	341.75
267.752	352.75
267.984	358.75
268.216	350.75
268.448	370.75
268.681	351.75
268.913	358.75
269.145	364.75
269.377	375.75
269.609	364.75
269.841	371.75
270.073	367.75
270.306	356.75
270.538	377.75
270.77	379.75
271.002	382.75
271.234	387.75
271.466	388.75
271.698	373.75
271.93	379.75
272.162	378.75
272.394	403.75
272.626	382.75
272.858	383.75
273.09	402.75
273.322	384.75
273.553	368.75
273.785	387.75
274.017	377.75
274.249	383.75
274.481	390.75
274.713	395.75
274.945	403.75
275.176	409.75
275.408	410.75
275.64	408.75
275.872	396.75
276.104	409.75
276.335	403.75
276.567	418.75
276.799	393.75
277.031	411.75
277.262	397.75
277.494	421.75
277.726	417.75
277.957	423.75
278.189	419.75
278.421	410.75
278.652	410.75
278.884	438.75
279.115	427.75
279.347	420.75
279.579	459.75
279.81	434.75
280.042	434.75
280.273	420.75
280.505	437.75
280.736	455.75
280.968	441.75
281.199	442.75
281.431	453.75
281.662	447.75
281.894	456.75
282.125	441.75
282.356	462.75
282.588	484.75
282.819	477.75
283.051	452.75
283.282	476.75
283.513	483.75
283.745	458.75
283.976	478.75
284.207	493.75
284.439	466.75
284.67	477.75
284.901	486.75
285.132	505.75
285.364	488.75
285.595	480.75
285.826	497.75
286.057	486.75
286.288	481.75
286.52	487.75
286.751	513.75
286.982	474.75
287.213	498.75
287.444	506.75
287.675	493.75
287.906	500.75
288.138	505.75
288.369	495.75
288.6	495.75
288.831	507.75
289.062	507.75
289.293	509.75
289.524	492.75
289.755	488.75
289.986	480.75
290.217	531.75
290.448	501.75
290.679	517.75
290.91	507.75
291.141	522.75
291.371	508.75
291.602	517.75
291.833	518.75
292.064	505.75
292.295	534.75
292.526	528.75
292.757	537.75
292.987	531.75
293.218	501.75
293.449	544.75
293.68	518.75
293.91	521.75
294.141	505.75
294.372	517.75
294.603	513.75
294.833	562.75
295.064	520.75
295.295	522.75
295.525	518.75
295.756	539.75
295.987	539.75
296.217	540.75
296.448	503.75
296.679	549.75
296.909	562.75
297.14	556.75
297.37	544.75
297.601	561.75
297.831	555.75
298.062	561.75
298.292	575.75
298.523	578.75
298.753	573.75
298.984	579.75
299.214	542.75
299.445	551.75
299.675	568.75
299.905	570.75
300.136	566.75
300.366	580.75
300.597	569.75
300.827	582.75
301.057	579.75
301.288	577.75
301.518	587.75
301.748	581.75
301.979	617.75
302.209	607.75
302.439	590.75
302.669	604.75
302.9	578.75
303.13	588.75
303.36	588.75
303.59	588.75
303.82	587.75
304.051	584.75
304.281	592.75
304.511	583.75
304.741	604.75
304.971	597.75
305.201	565.75
305.431	571.75
305.661	598.75
305.891	596.75
306.121	566.75
306.352	608.75
306.582	574.75
306.812	563.75
307.042	564.75
307.272	570.75
307.502	575.75
307.731	584.75
307.961	579.75
308.191	571.75
308.421	566.75
308.651	604.75
308.881	569.75
309.111	575.75
309.341	576.75
309.571	582.75
309.8	574.75
310.03	588.75
310.26	576.75
310.49	577.75
310.72	600.75
310.949	587.75
311.179	579.75
311.409	596.75
311.639	602.75
311.868	580.75
312.098	615.75
312.328	603.75
312.557	584.75
312.787	575.75
313.017	593.75
313.246	607.75
313.476	600.75
313.706	624.75
313.935	625.75
314.165	642.75
314.394	615.75
314.624	611.75
314.853	602.75
315.083	619.75
315.312	636.75
315.542	613.75
315.771	616.75
316.001	594.75
316.23	617.75
316.46	621.75
316.689	578.75
316.919	597.75
317.148	596.75
317.377	608.75
317.607	629.75
317.836	601.75
318.065	595.75
318.295	571.75
318.524	610.75
318.753	611.75
318.983	597.75
319.212	602.75
319.441	586.75
319.67	627.75
319.9	595.75
320.129	618.75
320.358	603.75
320.587	610.75
320.816	608.75
321.046	604.75
321.275	612.75
321.504	626.75
321.733	617.75
321.962	617.75
322.191	635.75
322.42	645.75
322.649	620.75
322.878	615.75
323.108	616.75
323.337	625.75
323.566	630.75
323.795	635.75
324.024	649.75
324.253	610.75
324.482	631.75
324.71	618.75
324.939	641.75
325.168	627.75
325.397	635.75
325.626	642.75
325.855	653.75
326.084	642.75
326.313	668.75
326.542	671.75
326.77	687.75
326.999	663.75
327.228	670.75
327.457	664.75
327.686	654.75
327.914	652.75
328.143	669.75
328.372	692.75
328.6	688.75
328.829	677.75
329.058	651.75
329.287	663.75
329.515	661.75
329.744	673.75
329.972	687.75
330.201	647.75
330.43	669.75
330.658	672.75
330.887	697.75
331.115	693.75
331.344	700.75
331.572	716.75
331.801	726.75
332.03	726.75
332.258	771.75
332.486	787.75
332.715	817.75
332.943	790.75
333.172	856.75
333.4	893.75
333.629	909.75
333.857	905.75
334.085	896.75
334.314	874.75
334.542	890.75
334.771	875.75
334.999	836.75
335.227	843.75
335.455	837.75
335.684	836.75
335.912	835.75
336.14	827.75
336.369	807.75
336.597	804.75
336.825	819.75
337.053	820.75
337.281	805.75
337.51	771.75
337.738	762.75
337.966	751.75
338.194	742.75
338.422	756.75
338.65	744.75
338.878	717.75
339.106	714.75
339.334	738.75
339.562	735.75
339.79	699.75
340.018	717.75
340.246	682.75
340.474	716.75
340.702	705.75
340.93	705.75
341.158	692.75
341.386	695.75
341.614	706.75
341.842	693.75
342.07	703.75
342.298	705.75
342.526	668.75
342.754	689.75
342.981	722.75
343.209	721.75
343.437	728.75
343.665	820.75
343.893	852.75
344.12	890.75
344.348	823.75
344.576	774.75
344.804	752.75
345.031	750.75
345.259	734.75
345.487	716.75
345.714	712.75
345.942	691.75
346.17	715.75
346.397	684.75
346.625	675.75
346.853	663.75
347.08	661.75
347.308	710.75
347.535	697.75
347.763	669.75
347.99	677.75
348.218	692.75
348.445	687.75
348.673	659.75
348.9	677.75
349.128	673.75
349.355	635.75
349.583	683.75
349.81	663.75
350.037	635.75
350.265	652.75
350.492	689.75
350.72	651.75
350.947	650.75
351.174	653.75
351.402	655.75
351.629	657.75
351.856	649.75
352.083	655.75
352.311	626.75
352.538	656.75
352.765	657.75
352.992	639.75
353.22	630.75
353.447	629.75
353.674	651.75
353.901	635.75
354.128	643.75
354.355	635.75
354.583	660.75
354.81	620.75
355.037	641.75
355.264	641.75
355.491	662.75
355.718	663.75
355.945	634.75
356.172	657.75
356.399	672.75
356.626	677.75
356.853	666.75
357.08	645.75
357.307	655.75
357.534	646.75
357.761	644.75
357.988	665.75
358.215	640.75
358.441	651.75
358.668	637.75
358.895	672.75
359.122	676.75
359.349	644.75
359.576	636.75
359.802	638.75
360.029	659.75
360.256	663.75
360.483	643.75
360.709	660.75
360.936	665.75
361.163	633.75
361.39	649.75
361.616	646.75
361.843	649.75
362.07	659.75
362.296	653.75
362.523	640.75
362.749	668.75
362.976	633.75
363.203	665.75
363.429	636.75
363.656	645.75
363.882	640.75
364.109	649.75
364.335	642.75
364.562	633.75
364.788	633.75
365.015	642.75
365.241	651.75
365.468	612.75
365.694	631.75
365.92	632.75
366.147	656.75
366.373	672.75
366.599	689.75
366.826	659.75
367.052	641.75
367.278	650.75
367.505	652.75
367.731	658.75
367.957	657.75
368.184	643.75
368.41	644.75
368.636	664.75
368.862	670.75
369.089	646.75
369.315	679.75
369.541	681.75
369.767	681.75
369.993	695.75
370.219	682.75
370.445	667.75
370.672	663.75
370.898	673.75
371.124	705.75
371.35	727.75
371.576	713.75
371.802	712.75
372.028	706.75
372.254	724.75
372.48	730.75
372.706	720.75
372.932	762.75
373.158	748.75
373.384	708.75
373.61	706.75
373.835	723.75
374.061	706.75
374.287	735.75
374.513	721.75
374.739	769.75
374.965	788.75
375.191	773.75
375.416	774.75
375.642	771.75
375.868	759.75
376.094	743.75
376.319	703.75
376.545	739.75
376.771	682.75
376.997	688.75
377.222	710.75
377.448	709.75
377.674	727.75
377.899	704.75
378.125	703.75
378.35	716.75
378.576	705.75
378.802	691.75
379.027	698.75
379.253	695.75
379.478	727.75
379.704	706.75
379.929	697.75
380.155	713.75
380.38	703.75
380.606	724.75
380.831	726.75
381.057	704.75
381.282	707.75
381.507	714.75
381.733	721.75
381.958	713.75
382.184	717.75
382.409	720.75
382.634	759.75
382.86	739.75
383.085	717.75
383.31	757.75
383.535	757.75
383.761	775.75
383.986	801.75
384.211	825.75
384.436	802.75
384.662	813.75
384.887	841.75
385.112	859.75
385.337	859.75
385.562	857.75
385.787	861.75
386.013	885.75
386.238	847.75
386.463	843.75
386.688	861.75
386.913	840.75
387.138	849.75
387.363	849.75
387.588	831.75
387.813	839.75
388.038	826.75
388.263	865.75
388.488	826.75
388.713	856.75
388.938	837.75
389.163	833.75
389.387	808.75
389.612	821.75
389.837	822.75
390.062	829.75
390.287	834.75
390.512	855.75
390.736	846.75
390.961	863.75
391.186	888.75
391.411	888.75
391.636	935.75
391.86	964.75
392.085	952.75
392.31	976.75
392.534	955.75
392.759	938.75
392.984	946.75
393.208	904.75
393.433	897.75
393.658	915.75
393.882	903.75
394.107	917.75
394.331	910.75
394.556	917.75
394.78	909.75
395.005	926.75
395.229	898.75
395.454	963.75
395.678	959.75
395.903	983.75
396.127	947.75
396.352	899.75
396.576	932.75
396.801	918.75
397.025	918.75
397.249	938.75
397.474	944.75
397.698	972.75
397.922	967.75
398.147	954.75
398.371	983.75
398.595	1040.75
398.82	1073.75
399.044	1129.75
399.268	1255.75
399.492	1433.75
399.717	1612.75
399.941	1629.75
400.165	1443.75
400.389	1311.75
400.613	1213.75
400.837	1151.75
401.062	1092.75
401.286	1098.75
401.51	1091.75
401.734	1088.75
401.958	1094.75
402.182	1087.75
402.406	1125.75
402.63	1135.75
402.854	1143.75
403.078	1179.75
403.302	1203.75
403.526	1213.75
403.75	1218.75
403.974	1243.75
404.198	1229.75
404.422	1223.75
404.645	1229.75
404.869	1217.75
405.093	1229.75
405.317	1204.75
405.541	1207.75
405.765	1195.75
405.988	1176.75
406.212	1194.75
406.436	1174.75
406.66	1203.75
406.883	1212.75
407.107	1269.75
407.331	1366.75
407.555	1393.75
407.778	1376.75
408.002	1356.75
408.226	1339.75
408.449	1280.75
408.673	1225.75
408.896	1210.75
409.12	1253.75
409.344	1231.75
409.567	1204.75
409.791	1218.75
410.014	1223.75
410.238	1216.75
410.461	1221.75
410.685	1159.75
410.908	1133.75
411.132	1119.75
411.355	1119.75
411.578	1131.75
411.802	1122.75
412.025	1127.75
412.249	1159.75
412.472	1140.75
412.695	1137.75
412.919	1101.75
413.142	1082.75
413.365	1107.75
413.589	1068.75
413.812	1065.75
414.035	1070.75
414.258	1089.75
414.482	1066.75
414.705	1087.75
414.928	1077.75
415.151	1094.75
415.374	1097.75
415.597	1079.75
415.821	1051.75
416.044	1043.75
416.267	1037.75
416.49	1040.75
416.713	1026.75
416.936	1050.75
417.159	1064.75
417.382	1052.75
417.605	1055.75
417.828	1075.75
418.051	1056.75
418.274	1080.75
418.497	1069.75
418.72	1081.75
418.943	1091.75
419.166	1164.75
419.389	1216.75
419.611	1193.75
419.834	1169.75
420.057	1106.75
420.28	1081.75
420.503	1051.75
420.726	1054.75
420.948	1069.75
421.171	1054.75
421.394	1034.75
421.617	1053.75
421.839	1047.75
422.062	1056.75
422.285	1061.75
422.507	1085.75
422.73	1097.75
422.953	1087.75
423.175	1095.75
423.398	1119.75
423.621	1106.75
423.843	1124.75
424.066	1141.75
424.288	1115.75
424.511	1140.75
424.733	1107.75
424.956	1038.75
425.178	1084.75
425.401	1095.75
425.623	1057.75
425.846	1013.75
426.068	1041.75
426.291	1017.75
426.513	1022.75
426.735	986.75
426.958	1008.75
427.18	967.75
427.402	986.75
427.625	970.75
427.847	949.75
428.069	946.75
428.292	964.75
428.514	952.75
428.736	926.75
428.958	935.75
429.181	932.75
429.403	913.75
429.625	943.75
429.847	906.75
430.069	915.75
430.292	930.75
430.514	912.75
430.736	938.75
430.958	934.75
431.18	926.75
431.402	914.75
431.624	924.75
431.846	921.75
432.068	931.75
432.29	960.75
432.512	936.75
432.734	959.75
432.956	919.75
433.178	958.75
433.4	965.75
433.622	960.75
433.844	983.75
434.066	976.75
434.287	975.75
434.509	1005.75
434.731	1017.75
434.953	1036.75
435.175	1052.75
435.397	1078.75
435.618	994.75
435.84	979.75
436.062	957.75
436.284	932.75
436.505	945.75
436.727	922.75
436.949	945.75
437.17	943.75
437.392	934.75
437.614	950.75
437.835	904.75
438.057	921.75
438.278	908.75
438.5	896.75
438.721	887.75
438.943	910.75
439.165	916.75
439.386	931.75
439.608	927.75
439.829	939.75
440.05	925.75
440.272	916.75
440.493	944.75
440.715	961.75
440.936	969.75
441.158	985.75
441.379	1013.75
441.6	1074.75
441.822	1075.75
442.043	1049.75
442.264	1039.75
442.486	1056.75
442.707	1049.75
442.928	1033.75
443.149	1046.75
443.371	1039.75
443.592	1063.75
443.813	1063.75
444.034	1056.75
444.255	1096.75
444.476	1143.75
444.698	1203.75
444.919	1241.75
445.14	1336.75
445.361	1180.75
445.582	1105.75
445.803	1058.75
446.024	998.75
446.245	985.75
446.466	974.75
446.687	927.75
446.908	964.75
447.129	899.75
447.35	889.75
447.571	881.75
447.792	900.75
448.013	892.75
448.234	845.75
448.455	866.75
448.675	854.75
448.896	877.75
449.117	853.75
449.338	888.75
449.559	855.75
449.779	868.75
450	871.75
450.221	872.75
450.442	860.75
450.662	872.75
450.883	873.75
451.104	908.75
451.324	889.75
451.545	900.75
451.766	876.75
451.986	875.75
452.207	843.75
452.428	886.75
452.648	861.75
452.869	842.75
453.089	843.75
453.31	839.75
453.53	858.75
453.751	837.75
453.971	830.75
454.192	837.75
454.412	847.75
454.633	833.75
454.853	833.75
455.073	827.75
455.294	831.75
455.514	812.75
455.734	808.75
455.955	805.75
456.175	790.75
456.395	767.75
456.616	801.75
456.836	795.75
457.056	796.75
457.276	796.75
457.497	823.75
457.717	793.75
457.937	822.75
458.157	823.75
458.377	840.75
458.598	859.75
458.818	885.75
459.038	884.75
459.258	923.75
459.478	926.75
459.698	976.75
459.918	1007.75
460.138	1034.75
460.358	1095.75
460.578	1105.75
460.798	1106.75
461.018	1108.75
461.238	1120.75
461.458	1120.75
461.678	1100.75
461.898	1120.75
462.118	1132.75
462.338	1178.75
462.558	1200.75
462.777	1252.75
462.997	1351.75
463.217	1507.75
463.437	1481.75
463.657	1369.75
463.876	1300.75
464.096	1291.75
464.316	1306.75
464.536	1330.75
464.755	1253.75
464.975	1183.75
465.195	1138.75
465.414	1097.75
465.634	1015.75
465.854	981.75
466.073	966.75
466.293	928.75
466.512	901.75
466.732	905.75
466.951	915.75
467.171	892.75
467.391	903.75
467.61	901.75
467.829	874.75
468.049	867.75
468.268	862.75
468.488	849.75
468.707	841.75
468.927	858.75
469.146	857.75
469.365	872.75
469.585	893.75
469.804	889.75
470.023	922.75
470.243	926.75
470.462	935.75
470.681	941.75
470.901	916.75
471.12	915.75
471.339	924.75
471.558	885.75
471.777	856.75
471.997	858.75
472.216	880.75
472.435	855.75
472.654	843.75
472.873	850.75
473.092	857.75
473.311	836.75
473.53	837.75
473.749	830.75
473.968	829.75
474.187	826.75
474.406	838.75
474.625	859.75
474.844	843.75
475.063	857.75
475.282	849.75
475.501	849.75
475.72	862.75
475.939	831.75
476.158	883.75
476.377	891.75
476.596	850.75
476.814	910.75
477.033	890.75
477.252	921.75
477.471	911.75
477.69	975.75
477.908	973.75
478.127	1002.75
478.346	1019.75
478.564	999.75
478.783	1019.75
479.002	1090.75
479.22	1071.75
479.439	1058.75
479.658	1071.75
479.876	1032.75
480.095	1073.75
480.313	1127.75
480.532	1116.75
480.751	1106.75
480.969	1076.75
481.188	1048.75
481.406	993.75
481.624	1010.75
481.843	993.75
482.061	971.75
482.28	962.75
482.498	950.75
482.717	937.75
482.935	971.75
483.153	967.75
483.372	982.75
483.59	957.75
483.808	968.75
484.027	973.75
484.245	975.75
484.463	972.75
484.681	989.75
484.9	990.75
485.118	999.75
485.336	1011.75
485.554	983.75
485.772	968.75
485.99	987.75
486.209	1054.75
486.427	1031.75
486.645	999.75
486.863	1033.75
487.081	1001.75
487.299	981.75
487.517	1010.75
487.735	1027.75
487.953	991.75
488.171	1009.75
488.389	1021.75
488.607	1009.75
488.825	988.75
489.043	968.75
489.261	972.75
489.479	989.75
489.696	1024.75
489.914	1000.75
490.132	1033.75
490.35	992.75
490.568	1017.75
490.786	1009.75
491.003	1010.75
491.221	1040.75
491.439	1053.75
491.657	1032.75
491.874	1008.75
492.092	1024.75
492.31	1023.75
492.527	1034.75
492.745	1043.75
492.963	1049.75
493.18	1068.75
493.398	1062.75
493.615	1066.75
493.833	1070.75
494.05	1078.75
494.268	1078.75
494.485	1077.75
494.703	1066.75
494.92	1097.75
495.138	1051.75
495.355	1075.75
495.573	1082.75
495.79	1074.75
496.008	1113.75
496.225	1089.75
496.442	1122.75
496.66	1158.75
496.877	1135.75
497.094	1147.75
497.312	1180.75
497.529	1191.75
497.746	1234.75
497.963	1280.75
498.181	1341.75
498.398	1386.75
498.615	1464.75
498.832	1553.75
499.049	1666.75
499.267	1823.75
499.484	2008.75
499.701	2273.75
499.918	2492.75
500.135	2804.75
500.352	3135.75
500.569	3320.75
500.786	3310.75
501.003	3048.75
501.22	2759.75
501.437	2427.75
501.654	2117.75
501.871	1958.75
502.088	1785.75
502.305	1637.75
502.522	1587.75
502.739	1500.75
502.956	1428.75
503.172	1402.75
503.389	1289.75
503.606	1289.75
503.823	1274.75
504.04	1235.75
504.256	1275.75
504.473	1288.75
504.69	1287.75
504.907	1294.75
505.123	1200.75
505.34	1151.75
505.557	1081.75
505.773	1092.75
505.99	1057.75
506.207	994.75
506.423	987.75
506.64	988.75
506.856	982.75
507.073	989.75
507.289	989.75
507.506	974.75
507.722	955.75
507.939	935.75
508.155	925.75
508.372	907.75
508.588	928.75
508.805	936.75
509.021	909.75
509.238	883.75
509.454	866.75
509.67	917.75
509.887	907.75
510.103	871.75
510.319	868.75
510.536	881.75
510.752	866.75
510.968	879.75
511.184	864.75
511.401	870.75
511.617	861.75
511.833	875.75
512.049	861.75
512.265	879.75
512.481	865.75
512.698	871.75
512.914	859.75
513.13	861.75
513.346	871.75
513.562	893.75
513.778	879.75
513.994	874.75
514.21	853.75
514.426	882.75
514.642	899.75
514.858	895.75
515.074	914.75
515.29	932.75
515.506	895.75
515.721	926.75
515.937	955.75
516.153	947.75
516.369	990.75
516.585	983.75
516.801	1025.75
517.016	1085.75
517.232	1114.75
517.448	1186.75
517.664	1219.75
517.879	1235.75
518.095	1241.75
518.311	1183.75
518.527	1147.75
518.742	1134.75
518.958	1085.75
519.173	991.75
519.389	981.75
519.605	978.75
519.82	938.75
520.036	903.75
520.251	910.75
520.467	881.75
520.682	867.75
520.898	889.75
521.113	886.75
521.329	866.75
521.544	847.75
521.76	843.75
521.975	841.75
522.19	843.75
522.406	809.75
522.621	807.75
522.836	835.75
523.052	823.75
523.267	796.75
523.482	807.75
523.698	812.75
523.913	800.75
524.128	824.75
524.343	822.75
524.559	801.75
524.774	820.75
524.989	819.75
525.204	802.75
525.419	773.75
525.634	799.75
525.849	796.75
526.064	799.75
526.28	803.75
526.495	802.75
526.71	821.75
526.925	787.75
527.14	784.75
527.355	785.75
527.57	785.75
527.785	779.75
527.999	783.75
528.214	811.75
528.429	765.75
528.644	787.75
528.859	806.75
529.074	800.75
529.289	776.75
529.503	776.75
529.718	784.75
529.933	763.75
530.148	765.75
530.363	782.75
530.577	766.75
530.792	789.75
531.007	769.75
531.221	775.75
531.436	799.75
531.651	789.75
531.865	782.75
532.08	773.75
532.295	787.75
532.509	774.75
532.724	763.75
532.938	769.75
533.153	773.75
533.367	782.75
533.582	753.75
533.796	760.75
534.011	772.75
534.225	790.75
534.44	767.75
534.654	748.75
534.868	783.75
535.083	769.75
535.297	769.75
535.511	783.75
535.726	740.75
535.94	749.75
536.154	746.75
536.369	719.75
536.583	733.75
536.797	735.75
537.011	707.75
537.225	709.75
537.44	717.75
537.654	714.75
537.868	705.75
538.082	713.75
538.296	709.75
538.51	708.75
538.724	711.75
538.938	706.75
539.153	682.75
539.367	687.75
539.581	717.75
539.795	688.75
540.009	693.75
540.222	722.75
540.436	721.75
540.65	695.75
540.864	687.75
541.078	736.75
541.292	701.75
541.506	710.75
541.72	708.75
541.934	710.75
542.147	709.75
542.361	677.75
542.575	707.75
542.789	691.75
543.002	691.75
543.216	691.75
543.43	672.75
543.644	703.75
543.857	709.75
544.071	689.75
544.285	703.75
544.498	703.75
544.712	694.75
544.925	697.75
545.139	708.75
545.352	718.75
545.566	720.75
545.779	732.75
545.993	767.75
546.206	723.75
546.42	716.75
546.633	711.75
546.847	709.75
547.06	710.75
547.274	722.75
547.487	701.75
547.7	715.75
547.914	739.75
548.127	742.75
548.34	724.75
548.554	703.75
548.767	732.75
548.98	745.75
549.193	754.75
549.407	745.75
549.62	751.75
549.833	732.75
550.046	730.75
550.259	725.75
550.473	697.75
550.686	711.75
550.899	701.75
551.112	699.75
551.325	705.75
551.538	699.75
551.751	691.75
551.964	689.75
552.177	722.75
552.39	733.75
552.603	750.75
552.816	751.75
553.029	777.75
553.242	783.75
553.455	787.75
553.667	783.75
553.88	757.75
554.093	760.75
554.306	729.75
554.519	730.75
554.732	723.75
554.944	710.75
555.157	687.75
555.37	673.75
555.583	664.75
555.795	642.75
556.008	641.75
556.221	652.75
556.433	646.75
556.646	620.75
556.859	613.75
557.071	624.75
557.284	619.75
557.496	602.75
557.709	634.75
557.921	610.75
558.134	600.75
558.346	605.75
558.559	609.75
558.771	616.75
558.984	580.75
559.196	607.75
559.409	616.75
559.621	579.75
559.833	584.75
560.046	574.75
560.258	585.75
560.47	603.75
560.683	583.75
560.895	584.75
561.107	587.75
561.32	582.75
561.532	598.75
561.744	583.75
561.956	581.75
562.168	584.75
562.381	589.75
562.593	587.75
562.805	619.75
563.017	605.75
563.229	607.75
563.441	593.75
563.653	593.75
563.865	601.75
564.077	615.75
564.289	607.75
564.501	612.75
564.713	631.75
564.925	633.75
565.137	632.75
565.349	661.75
565.561	668.75
565.773	690.75
565.985	735.75
566.197	775.75
566.408	809.75
566.62	877.75
566.832	962.75
567.044	955.75
567.255	964.75
567.467	1022.75
567.679	1092.75
567.891	1126.75
568.102	1140.75
568.314	1086.75
568.526	975.75
568.737	889.75
568.949	844.75
569.161	782.75
569.372	709.75
569.584	681.75
569.795	661.75
570.007	633.75
570.218	614.75
570.43	611.75
570.641	590.75
570.853	609.75
571.064	613.75
571.276	626.75
571.487	594.75
571.698	588.75
571.91	552.75
572.121	541.75
572.333	534.75
572.544	551.75
572.755	512.75
572.966	495.75
573.178	497.75
573.389	505.75
573.6	512.75
573.811	500.75
574.023	488.75
574.234	498.75
574.445	476.75
574.656	489.75
574.867	498.75
575.078	473.75
575.289	476.75
575.501	464.75
575.712	448.75
575.923	471.75
576.134	468.75
576.345	468.75
576.556	470.75
576.767	470.75
576.978	476.75
577.188	441.75
577.399	432.75
577.61	465.75
577.821	454.75
578.032	447.75
578.243	451.75
578.454	435.75
578.665	432.75
578.875	434.75
579.086	427.75
579.297	435.75
579.508	401.75
579.718	429.75
579.929	420.75
580.14	404.75
580.35	407.75
580.561	419.75
580.772	425.75
580.982	407.75
581.193	412.75
581.403	421.75
581.614	412.75
581.825	410.75
582.035	409.75
582.246	402.75
582.456	400.75
582.667	398.75
582.877	397.75
583.087	396.75
583.298	398.75
583.508	392.75
583.719	389.75
583.929	383.75
584.139	388.75
584.35	389.75
584.56	394.75
584.77	400.75
584.981	390.75
585.191	406.75
585.401	378.75
585.611	389.75
585.821	408.75
586.032	402.75
586.242	374.75
586.452	387.75
586.662	405.75
586.872	401.75
587.082	408.75
587.292	392.75
587.502	379.75
587.713	391.75
587.923	373.75
588.133	379.75
588.343	372.75
588.553	384.75
588.762	410.75
588.972	395.75
589.182	403.75
589.392	380.75
589.602	407.75
589.812	412.75
590.022	407.75
590.232	389.75
590.441	407.75
590.651	377.75
590.861	393.75
591.071	407.75
591.281	397.75
591.49	424.75
591.7	412.75
591.91	413.75
592.119	413.75
592.329	421.75
592.539	432.75
592.748	453.75
592.958	477.75
593.167	475.75
593.377	480.75
593.587	508.75
593.796	495.75
594.006	493.75
594.215	519.75
594.424	497.75
594.634	471.75
594.843	471.75
595.053	448.75
595.262	431.75
595.472	412.75
595.681	393.75
595.89	394.75
596.1	396.75
596.309	377.75
596.518	379.75
596.727	397.75
596.937	373.75
597.146	361.75
597.355	363.75
597.564	367.75
597.774	371.75
597.983	362.75
598.192	343.75
598.401	331.75
598.61	347.75
598.819	339.75
599.028	337.75
599.237	340.75
599.446	332.75
599.655	328.75
599.864	338.75
600.073	336.75
600.282	345.75
600.491	342.75
600.7	342.75
600.909	340.75
601.118	331.75
601.327	345.75
601.536	323.75
601.745	328.75
601.953	335.75
602.162	323.75
602.371	319.75
602.58	307.75
602.789	299.75
602.997	305.75
603.206	298.75
603.415	315.75
603.623	329.75
603.832	303.75
604.041	307.75
604.249	333.75
604.458	312.75
604.666	300.75
604.875	303.75
605.084	323.75
605.292	308.75
605.501	313.75
605.709	298.75
605.918	306.75
606.126	293.75
606.334	307.75
606.543	304.75
606.751	305.75
606.96	288.75
607.168	301.75
607.376	290.75
607.585	283.75
607.793	287.75
608.001	312.75
608.21	309.75
608.418	303.75
608.626	298.75
608.834	305.75
609.043	283.75
609.251	293.75
609.459	279.75
609.667	306.75
609.875	303.75
610.083	290.75
610.291	278.75
610.499	275.75
610.707	300.75
610.916	289.75
611.124	280.75
611.332	294.75
611.54	297.75
611.748	291.75
611.955	290.75
612.163	280.75
612.371	287.75
612.579	284.75
612.787	280.75
612.995	275.75
613.203	284.75
613.411	265.75
613.618	288.75
613.826	280.75
614.034	285.75
614.242	270.75
614.449	277.75
614.657	289.75
614.865	287.75
615.072	284.75
615.28	269.75
615.488	281.75
615.695	276.75
615.903	265.75
616.111	276.75
616.318	263.75
616.526	267.75
616.733	276.75
616.941	280.75
617.148	267.75
617.356	288.75
617.563	298.75
617.771	269.75
617.978	253.75
618.185	265.75
618.393	272.75
618.6	269.75
618.807	278.75
619.015	284.75
619.222	275.75
619.429	284.75
619.637	268.75
619.844	255.75
620.051	250.75
620.258	265.75
620.466	268.75
620.673	267.75
620.88	267.75
621.087	262.75
621.294	248.75
621.501	243.75
621.708	265.75
621.915	272.75
622.122	262.75
622.329	244.75
622.536	251.75
622.743	237.75
622.95	259.75
623.157	259.75
623.364	256.75
623.571	250.75
623.778	246.75
623.985	254.75
624.192	259.75
624.399	251.75
624.606	241.75
624.812	253.75
625.019	258.75
625.226	261.75
625.433	244.75
625.639	252.75
625.846	244.75
626.053	256.75
626.259	246.75
626.466	220.75
626.673	241.75
626.879	225.75
627.086	245.75
627.293	244.75
627.499	247.75
627.706	233.75
627.912	222.75
628.119	247.75
628.325	235.75
628.532	233.75
628.738	242.75
628.945	241.75
629.151	237.75
629.357	227.75
629.564	243.75
629.77	233.75
629.976	236.75
630.183	228.75
630.389	228.75
630.595	220.75
630.802	229.75
631.008	223.75
631.214	217.75
631.42	219.75
631.627	215.75
631.833	229.75
632.039	217.75
632.245	220.75
632.451	212.75
632.657	204.75
632.863	204.75
633.069	218.75
633.275	215.75
633.481	217.75
633.688	215.75
633.893	216.75
634.099	210.75
634.305	229.75
634.511	215.75
634.717	240.75
634.923	212.75
635.129	207.75
635.335	198.75
635.541	224.75
635.747	195.75
635.952	201.75
636.158	206.75
636.364	203.75
636.57	199.75
636.775	209.75
636.981	207.75
637.187	200.75
637.392	200.75
637.598	204.75
637.804	214.75
638.009	201.75
638.215	203.75
638.421	203.75
638.626	194.75
638.832	181.75
639.037	193.75
639.243	178.75
639.448	193.75
639.654	209.75
639.859	195.75
640.065	205.75
640.27	197.75
640.475	201.75
640.681	176.75
640.886	205.75
641.091	185.75
641.297	201.75
641.502	187.75
641.707	187.75
641.913	187.75
642.118	193.75
642.323	201.75
642.528	189.75
642.733	172.75
642.939	185.75
643.144	185.75
643.349	184.75
643.554	188.75
643.759	202.75
643.964	162.75
644.169	200.75
644.374	196.75
644.579	176.75
644.784	187.75
644.989	177.75
645.194	171.75
645.399	189.75
645.604	163.75
645.809	192.75
646.014	189.75
646.219	177.75
646.423	179.75
646.628	176.75
646.833	182.75
647.038	187.75
647.243	181.75
647.447	195.75
647.652	190.75
647.857	171.75
648.062	191.75
648.266	191.75
648.471	204.75
648.676	177.75
648.88	178.75
649.085	188.75
649.289	184.75
649.494	193.75
649.698	175.75
649.903	173.75
650.107	175.75
650.312	172.75
650.516	167.75
650.721	162.75
650.925	162.75
651.13	167.75
651.334	171.75
651.539	155.75
651.743	154.75
651.947	163.75
652.152	170.75
652.356	154.75
652.56	150.75
652.764	150.75
652.969	166.75
653.173	141.75
653.377	149.75
653.581	155.75
653.785	143.75
653.99	146.75
654.194	142.75
654.398	127.75
654.602	129.75
654.806	149.75
655.01	146.75
655.214	142.75
655.418	118.75
655.622	124.75
655.826	139.75
656.03	135.75
656.234	137.75
656.438	141.75
656.642	137.75
656.846	120.75
657.049	120.75
657.253	115.75
657.457	126.75
657.661	111.75
657.865	107.75
658.068	103.75
658.272	114.75
658.476	117.75
658.68	108.75
658.883	90.75
659.087	104.75
659.291	95.75
659.494	111.75
659.698	91.75
659.901	101.75
660.105	106.75
660.309	97.75
660.512	92.75
660.716	99.75
660.919	89.75
661.123	88.75
661.326	80.75
661.53	100.75
661.733	98.75
661.936	88.75
662.14	88.75
662.343	93.75
662.546	78.75
662.75	95.75
662.953	83.75
663.156	70.75
663.36	89.75
663.563	79.75
663.766	75.75
663.969	76.75
664.173	83.75
664.376	87.75
664.579	93.75
664.782	72.75
664.985	82.75
665.188	83.75
665.391	78.75
665.594	77.75
665.797	91.75
666	80.75
666.203	84.75
666.406	89.75
666.609	80.75
666.812	82.75
667.015	72.75
667.218	83.75
667.421	79.75
667.624	83.75
667.827	83.75
668.03	74.75
668.232	97.75
668.435	86.75
668.638	80.75
668.841	89.75
669.043	65.75
669.246	72.75
669.449	76.75
669.651	73.75
669.854	74.75
670.057	84.75
670.259	77.75
670.462	87.75
670.665	80.75
670.867	83.75
671.07	72.75
671.272	81.75
671.475	72.75
671.677	72.75
671.88	80.75
672.082	79.75
672.284	84.75
672.487	88.75
672.689	88.75
672.892	77.75
