Data from NiCl2@0.0625M.TitratingCurve.Agarose3%dH2O.NegLispCup.LampEnergy10.LIBS07252019_HRD10591_18-33-38-576.txt Node
Date: Thu Jul 25 18:33:38 EDT 2019
User: cochatt
Spectrometer: HR+D1059
Trigger mode: 1
Integration Time (sec): 1.000000E-1
Scans to average: 1
Electric dark correction enabled: true
Nonlinearity correction enabled: false
Boxcar width: 0
XAxis mode: Wavelengths
Number of Pixels in Spectrum: 2048
>>>>>Begin Spectral Data<<<<<
223.165	-23.62
223.4	-23.62
223.635	-23.62
223.869	-26.62
224.104	-31.62
224.338	-3.62
224.573	-8.62
224.808	-5.62
225.042	2.38
225.277	-3.62
225.511	-0.62
225.746	-2.62
225.98	1.38
226.215	7.38
226.449	20.38
226.683	21.38
226.918	23.38
227.152	30.38
227.387	38.38
227.621	41.38
227.856	35.38
228.09	40.38
228.324	49.38
228.559	48.38
228.793	75.38
229.027	142.38
229.262	164.38
229.496	156.38
229.73	186.38
229.964	186.38
230.199	157.38
230.433	181.38
230.667	183.38
230.901	187.38
231.136	198.38
231.37	181.38
231.604	180.38
231.838	209.38
232.072	209.38
232.306	208.38
232.541	201.38
232.775	214.38
233.009	201.38
233.243	213.38
233.477	223.38
233.711	207.38
233.945	212.38
234.179	221.38
234.413	219.38
234.647	229.38
234.881	227.38
235.115	225.38
235.349	212.38
235.583	243.38
235.817	219.38
236.051	230.38
236.285	230.38
236.519	240.38
236.753	236.38
236.987	247.38
237.221	231.38
237.455	247.38
237.689	242.38
237.922	256.38
238.156	251.38
238.39	266.38
238.624	268.38
238.858	264.38
239.091	255.38
239.325	267.38
239.559	272.38
239.793	267.38
240.027	290.38
240.26	292.38
240.494	264.38
240.728	270.38
240.961	280.38
241.195	278.38
241.429	298.38
241.662	307.38
241.896	321.38
242.13	327.38
242.363	321.38
242.597	291.38
242.83	297.38
243.064	314.38
243.298	325.38
243.531	325.38
243.765	329.38
243.998	361.38
244.232	340.38
244.465	345.38
244.699	343.38
244.932	377.38
245.166	378.38
245.399	375.38
245.633	355.38
245.866	369.38
246.099	346.38
246.333	376.38
246.566	372.38
246.8	357.38
247.033	392.38
247.266	388.38
247.5	385.38
247.733	402.38
247.966	405.38
248.2	414.38
248.433	415.38
248.666	372.38
248.899	380.38
249.133	404.38
249.366	396.38
249.599	416.38
249.832	418.38
250.066	417.38
250.299	412.38
250.532	420.38
250.765	434.38
250.998	427.38
251.231	426.38
251.465	425.38
251.698	448.38
251.931	449.38
252.164	435.38
252.397	454.38
252.63	444.38
252.863	467.38
253.096	457.38
253.329	493.38
253.562	481.38
253.795	474.38
254.028	485.38
254.261	503.38
254.494	479.38
254.727	487.38
254.96	453.38
255.193	496.38
255.426	489.38
255.659	484.38
255.892	481.38
256.124	481.38
256.357	497.38
256.59	506.38
256.823	525.38
257.056	482.38
257.289	522.38
257.521	501.38
257.754	518.38
257.987	514.38
258.22	517.38
258.452	529.38
258.685	512.38
258.918	542.38
259.151	523.38
259.383	550.38
259.616	538.38
259.849	551.38
260.081	565.38
260.314	564.38
260.547	562.38
260.779	560.38
261.012	567.38
261.244	556.38
261.477	569.38
261.71	576.38
261.942	594.38
262.175	581.38
262.407	593.38
262.64	557.38
262.872	586.38
263.105	588.38
263.337	583.38
263.57	601.38
263.802	616.38
264.035	590.38
264.267	605.38
264.499	611.38
264.732	616.38
264.964	613.38
265.197	620.38
265.429	606.38
265.661	614.38
265.894	604.38
266.126	622.38
266.358	619.38
266.591	586.38
266.823	640.38
267.055	630.38
267.287	635.38
267.52	644.38
267.752	631.38
267.984	656.38
268.216	669.38
268.448	644.38
268.681	644.38
268.913	666.38
269.145	669.38
269.377	670.38
269.609	655.38
269.841	655.38
270.073	676.38
270.306	652.38
270.538	674.38
270.77	690.38
271.002	671.38
271.234	690.38
271.466	662.38
271.698	695.38
271.93	698.38
272.162	705.38
272.394	697.38
272.626	689.38
272.858	696.38
273.09	697.38
273.322	725.38
273.553	712.38
273.785	724.38
274.017	725.38
274.249	751.38
274.481	723.38
274.713	737.38
274.945	737.38
275.176	755.38
275.408	736.38
275.64	751.38
275.872	752.38
276.104	755.38
276.335	773.38
276.567	761.38
276.799	753.38
277.031	785.38
277.262	767.38
277.494	752.38
277.726	785.38
277.957	768.38
278.189	760.38
278.421	761.38
278.652	788.38
278.884	806.38
279.115	804.38
279.347	797.38
279.579	815.38
279.81	780.38
280.042	809.38
280.273	812.38
280.505	835.38
280.736	829.38
280.968	806.38
281.199	829.38
281.431	847.38
281.662	824.38
281.894	851.38
282.125	834.38
282.356	850.38
282.588	855.38
282.819	865.38
283.051	865.38
283.282	850.38
283.513	884.38
283.745	863.38
283.976	877.38
284.207	866.38
284.439	895.38
284.67	888.38
284.901	900.38
285.132	890.38
285.364	900.38
285.595	880.38
285.826	912.38
286.057	908.38
286.288	914.38
286.52	885.38
286.751	925.38
286.982	914.38
287.213	919.38
287.444	922.38
287.675	898.38
287.906	913.38
288.138	945.38
288.369	912.38
288.6	933.38
288.831	920.38
289.062	931.38
289.293	940.38
289.524	956.38
289.755	951.38
289.986	932.38
290.217	946.38
290.448	920.38
290.679	942.38
290.91	961.38
291.141	948.38
291.371	952.38
291.602	951.38
291.833	950.38
292.064	972.38
292.295	935.38
292.526	968.38
292.757	941.38
292.987	970.38
293.218	948.38
293.449	960.38
293.68	964.38
293.91	944.38
294.141	974.38
294.372	955.38
294.603	952.38
294.833	959.38
295.064	971.38
295.295	991.38
295.525	983.38
295.756	968.38
295.987	982.38
296.217	981.38
296.448	994.38
296.679	988.38
296.909	994.38
297.14	1009.38
297.37	1026.38
297.601	1025.38
297.831	1013.38
298.062	1052.38
298.292	1011.38
298.523	1031.38
298.753	1056.38
298.984	1048.38
299.214	1061.38
299.445	1050.38
299.675	1038.38
299.905	1042.38
300.136	1018.38
300.366	1021.38
300.597	1058.38
300.827	1054.38
301.057	1085.38
301.288	1105.38
301.518	1097.38
301.748	1106.38
301.979	1109.38
302.209	1096.38
302.439	1102.38
302.669	1082.38
302.9	1069.38
303.13	1056.38
303.36	1098.38
303.59	1080.38
303.82	1100.38
304.051	1114.38
304.281	1121.38
304.511	1088.38
304.741	1090.38
304.971	1104.38
305.201	1077.38
305.431	1070.38
305.661	1084.38
305.891	1050.38
306.121	1092.38
306.352	1074.38
306.582	1114.38
306.812	1096.38
307.042	1097.38
307.272	1101.38
307.502	1058.38
307.731	1076.38
307.961	1086.38
308.191	1084.38
308.421	1073.38
308.651	1066.38
308.881	1064.38
309.111	1074.38
309.341	1062.38
309.571	1103.38
309.8	1113.38
310.03	1104.38
310.26	1109.38
310.49	1070.38
310.72	1086.38
310.949	1065.38
311.179	1110.38
311.409	1106.38
311.639	1106.38
311.868	1118.38
312.098	1146.38
312.328	1115.38
312.557	1164.38
312.787	1136.38
313.017	1152.38
313.246	1157.38
313.476	1155.38
313.706	1175.38
313.935	1157.38
314.165	1166.38
314.394	1186.38
314.624	1207.38
314.853	1183.38
315.083	1151.38
315.312	1193.38
315.542	1186.38
315.771	1158.38
316.001	1180.38
316.23	1170.38
316.46	1158.38
316.689	1196.38
316.919	1170.38
317.148	1164.38
317.377	1176.38
317.607	1151.38
317.836	1140.38
318.065	1148.38
318.295	1177.38
318.524	1164.38
318.753	1177.38
318.983	1194.38
319.212	1149.38
319.441	1142.38
319.67	1190.38
319.9	1145.38
320.129	1148.38
320.358	1169.38
320.587	1155.38
320.816	1155.38
321.046	1183.38
321.275	1167.38
321.504	1192.38
321.733	1182.38
321.962	1158.38
322.191	1195.38
322.42	1178.38
322.649	1165.38
322.878	1174.38
323.108	1183.38
323.337	1196.38
323.566	1210.38
323.795	1201.38
324.024	1225.38
324.253	1212.38
324.482	1188.38
324.71	1230.38
324.939	1234.38
325.168	1230.38
325.397	1218.38
325.626	1236.38
325.855	1263.38
326.084	1286.38
326.313	1306.38
326.542	1274.38
326.77	1295.38
326.999	1276.38
327.228	1278.38
327.457	1246.38
327.686	1254.38
327.914	1251.38
328.143	1235.38
328.372	1271.38
328.6	1279.38
328.829	1264.38
329.058	1248.38
329.287	1263.38
329.515	1289.38
329.744	1294.38
329.972	1278.38
330.201	1309.38
330.43	1313.38
330.658	1320.38
330.887	1335.38
331.115	1336.38
331.344	1346.38
331.572	1358.38
331.801	1396.38
332.03	1373.38
332.258	1344.38
332.486	1430.38
332.715	1466.38
332.943	1524.38
333.172	1543.38
333.4	1598.38
333.629	1620.38
333.857	1651.38
334.085	1626.38
334.314	1627.38
334.542	1562.38
334.771	1619.38
334.999	1583.38
335.227	1574.38
335.455	1580.38
335.684	1550.38
335.912	1608.38
336.14	1541.38
336.369	1536.38
336.597	1578.38
336.825	1517.38
337.053	1507.38
337.281	1492.38
337.51	1459.38
337.738	1439.38
337.966	1435.38
338.194	1418.38
338.422	1432.38
338.65	1421.38
338.878	1412.38
339.106	1376.38
339.334	1434.38
339.562	1360.38
339.79	1353.38
340.018	1379.38
340.246	1305.38
340.474	1336.38
340.702	1308.38
340.93	1352.38
341.158	1337.38
341.386	1352.38
341.614	1334.38
341.842	1338.38
342.07	1329.38
342.298	1300.38
342.526	1319.38
342.754	1365.38
342.981	1342.38
343.209	1316.38
343.437	1401.38
343.665	1475.38
343.893	1544.38
344.12	1602.38
344.348	1550.38
344.576	1481.38
344.804	1445.38
345.031	1409.38
345.259	1397.38
345.487	1346.38
345.714	1347.38
345.942	1352.38
346.17	1303.38
346.397	1298.38
346.625	1263.38
346.853	1296.38
347.08	1267.38
347.308	1280.38
347.535	1265.38
347.763	1280.38
347.99	1279.38
348.218	1295.38
348.445	1280.38
348.673	1237.38
348.9	1258.38
349.128	1267.38
349.355	1249.38
349.583	1226.38
349.81	1250.38
350.037	1273.38
350.265	1239.38
350.492	1264.38
350.72	1214.38
350.947	1238.38
351.174	1236.38
351.402	1238.38
351.629	1220.38
351.856	1266.38
352.083	1230.38
352.311	1260.38
352.538	1204.38
352.765	1221.38
352.992	1183.38
353.22	1209.38
353.447	1220.38
353.674	1216.38
353.901	1230.38
354.128	1197.38
354.355	1229.38
354.583	1227.38
354.81	1246.38
355.037	1226.38
355.264	1210.38
355.491	1261.38
355.718	1244.38
355.945	1230.38
356.172	1267.38
356.399	1250.38
356.626	1248.38
356.853	1253.38
357.08	1227.38
357.307	1219.38
357.534	1265.38
357.761	1245.38
357.988	1243.38
358.215	1246.38
358.441	1246.38
358.668	1238.38
358.895	1241.38
359.122	1230.38
359.349	1238.38
359.576	1229.38
359.802	1244.38
360.029	1233.38
360.256	1241.38
360.483	1257.38
360.709	1254.38
360.936	1256.38
361.163	1259.38
361.39	1249.38
361.616	1245.38
361.843	1246.38
362.07	1252.38
362.296	1243.38
362.523	1235.38
362.749	1284.38
362.976	1268.38
363.203	1232.38
363.429	1223.38
363.656	1217.38
363.882	1257.38
364.109	1206.38
364.335	1206.38
364.562	1231.38
364.788	1252.38
365.015	1227.38
365.241	1248.38
365.468	1235.38
365.694	1237.38
365.92	1244.38
366.147	1233.38
366.373	1245.38
366.599	1249.38
366.826	1228.38
367.052	1191.38
367.278	1230.38
367.505	1255.38
367.731	1248.38
367.957	1253.38
368.184	1263.38
368.41	1241.38
368.636	1284.38
368.862	1281.38
369.089	1285.38
369.315	1301.38
369.541	1279.38
369.767	1272.38
369.993	1320.38
370.219	1273.38
370.445	1306.38
370.672	1320.38
370.898	1308.38
371.124	1315.38
371.35	1372.38
371.576	1324.38
371.802	1348.38
372.028	1340.38
372.254	1353.38
372.48	1338.38
372.706	1402.38
372.932	1390.38
373.158	1390.38
373.384	1374.38
373.61	1347.38
373.835	1370.38
374.061	1350.38
374.287	1361.38
374.513	1360.38
374.739	1402.38
374.965	1446.38
375.191	1471.38
375.416	1470.38
375.642	1422.38
375.868	1424.38
376.094	1398.38
376.319	1396.38
376.545	1357.38
376.771	1366.38
376.997	1328.38
377.222	1321.38
377.448	1328.38
377.674	1348.38
377.899	1338.38
378.125	1321.38
378.35	1326.38
378.576	1335.38
378.802	1320.38
379.027	1328.38
379.253	1349.38
379.478	1313.38
379.704	1338.38
379.929	1362.38
380.155	1342.38
380.38	1347.38
380.606	1330.38
380.831	1326.38
381.057	1311.38
381.282	1346.38
381.507	1350.38
381.733	1356.38
381.958	1346.38
382.184	1410.38
382.409	1399.38
382.634	1408.38
382.86	1420.38
383.085	1414.38
383.31	1439.38
383.535	1425.38
383.761	1479.38
383.986	1460.38
384.211	1488.38
384.436	1534.38
384.662	1557.38
384.887	1541.38
385.112	1571.38
385.337	1590.38
385.562	1553.38
385.787	1573.38
386.013	1611.38
386.238	1638.38
386.463	1621.38
386.688	1637.38
386.913	1598.38
387.138	1588.38
387.363	1604.38
387.588	1594.38
387.813	1599.38
388.038	1583.38
388.263	1612.38
388.488	1584.38
388.713	1616.38
388.938	1616.38
389.163	1584.38
389.387	1602.38
389.612	1553.38
389.837	1610.38
390.062	1598.38
390.287	1621.38
390.512	1584.38
390.736	1644.38
390.961	1614.38
391.186	1637.38
391.411	1637.38
391.636	1668.38
391.86	1770.38
392.085	1783.38
392.31	1792.38
392.534	1714.38
392.759	1732.38
392.984	1695.38
393.208	1703.38
393.433	1749.38
393.658	1726.38
393.882	1700.38
394.107	1669.38
394.331	1703.38
394.556	1698.38
394.78	1743.38
395.005	1741.38
395.229	1690.38
395.454	1754.38
395.678	1805.38
395.903	1751.38
396.127	1804.38
396.352	1728.38
396.576	1716.38
396.801	1731.38
397.025	1731.38
397.249	1830.38
397.474	1811.38
397.698	1780.38
397.922	1826.38
398.147	1837.38
398.371	1869.38
398.595	1894.38
398.82	1974.38
399.044	2096.38
399.268	2267.38
399.492	2505.38
399.717	2697.38
399.941	2760.38
400.165	2595.38
400.389	2374.38
400.613	2208.38
400.837	2103.38
401.062	2050.38
401.286	2039.38
401.51	1982.38
401.734	1972.38
401.958	1999.38
402.182	2059.38
402.406	2026.38
402.63	2050.38
402.854	2110.38
403.078	2094.38
403.302	2100.38
403.526	2141.38
403.75	2137.38
403.974	2160.38
404.198	2212.38
404.422	2150.38
404.645	2168.38
404.869	2138.38
405.093	2159.38
405.317	2116.38
405.541	2132.38
405.765	2117.38
405.988	2081.38
406.212	2124.38
406.436	2190.38
406.66	2200.38
406.883	2237.38
407.107	2344.38
407.331	2448.38
407.555	2517.38
407.778	2463.38
408.002	2400.38
408.226	2393.38
408.449	2406.38
408.673	2272.38
408.896	2222.38
409.12	2228.38
409.344	2246.38
409.567	2195.38
409.791	2265.38
410.014	2241.38
410.238	2172.38
410.461	2174.38
410.685	2191.38
410.908	2163.38
411.132	2125.38
411.355	2036.38
411.578	2120.38
411.802	2027.38
412.025	2090.38
412.249	2123.38
412.472	2107.38
412.695	2056.38
412.919	1984.38
413.142	2023.38
413.365	2004.38
413.589	2028.38
413.812	1984.38
414.035	1977.38
414.258	1991.38
414.482	1991.38
414.705	2012.38
414.928	1997.38
415.151	2076.38
415.374	2002.38
415.597	1968.38
415.821	1925.38
416.044	1924.38
416.267	1888.38
416.49	1897.38
416.713	1934.38
416.936	1949.38
417.159	1893.38
417.382	1874.38
417.605	1879.38
417.828	1868.38
418.051	1954.38
418.274	1943.38
418.497	1930.38
418.72	1897.38
418.943	1946.38
419.166	2052.38
419.389	2203.38
419.611	2165.38
419.834	2102.38
420.057	2001.38
420.28	1913.38
420.503	1909.38
420.726	1926.38
420.948	1888.38
421.171	1863.38
421.394	1943.38
421.617	1898.38
421.839	1903.38
422.062	1944.38
422.285	1848.38
422.507	1952.38
422.73	1919.38
422.953	1922.38
423.175	1930.38
423.398	1992.38
423.621	1961.38
423.843	2009.38
424.066	1975.38
424.288	1938.38
424.511	1950.38
424.733	1927.38
424.956	1938.38
425.178	1922.38
425.401	1946.38
425.623	1904.38
425.846	1883.38
426.068	1857.38
426.291	1854.38
426.513	1879.38
426.735	1868.38
426.958	1846.38
427.18	1754.38
427.402	1790.38
427.625	1804.38
427.847	1748.38
428.069	1761.38
428.292	1793.38
428.514	1765.38
428.736	1757.38
428.958	1757.38
429.181	1704.38
429.403	1693.38
429.625	1685.38
429.847	1730.38
430.069	1670.38
430.292	1678.38
430.514	1686.38
430.736	1684.38
430.958	1774.38
431.18	1723.38
431.402	1739.38
431.624	1702.38
431.846	1754.38
432.068	1803.38
432.29	1798.38
432.512	1725.38
432.734	1764.38
432.956	1713.38
433.178	1774.38
433.4	1788.38
433.622	1751.38
433.844	1810.38
434.066	1806.38
434.287	1810.38
434.509	1863.38
434.731	1905.38
434.953	1930.38
435.175	1983.38
435.397	1937.38
435.618	1834.38
435.84	1851.38
436.062	1765.38
436.284	1734.38
436.505	1753.38
436.727	1716.38
436.949	1759.38
437.17	1753.38
437.392	1714.38
437.614	1694.38
437.835	1678.38
438.057	1695.38
438.278	1655.38
438.5	1637.38
438.721	1650.38
438.943	1722.38
439.165	1688.38
439.386	1687.38
439.608	1724.38
439.829	1694.38
440.05	1722.38
440.272	1747.38
440.493	1725.38
440.715	1734.38
440.936	1767.38
441.158	1787.38
441.379	1814.38
441.6	1864.38
441.822	1861.38
442.043	1897.38
442.264	1869.38
442.486	1851.38
442.707	1869.38
442.928	1853.38
443.149	1845.38
443.371	1836.38
443.592	1858.38
443.813	1892.38
444.034	1885.38
444.255	1959.38
444.476	1983.38
444.698	2123.38
444.919	2163.38
445.14	2265.38
445.361	2045.38
445.582	1964.38
445.803	1894.38
446.024	1823.38
446.245	1789.38
446.466	1767.38
446.687	1697.38
446.908	1723.38
447.129	1666.38
447.35	1672.38
447.571	1612.38
447.792	1608.38
448.013	1613.38
448.234	1614.38
448.455	1584.38
448.675	1592.38
448.896	1561.38
449.117	1521.38
449.338	1554.38
449.559	1554.38
449.779	1506.38
450	1506.38
450.221	1571.38
450.442	1567.38
450.662	1555.38
450.883	1542.38
451.104	1554.38
451.324	1578.38
451.545	1546.38
451.766	1554.38
451.986	1570.38
452.207	1541.38
452.428	1505.38
452.648	1536.38
452.869	1518.38
453.089	1486.38
453.31	1495.38
453.53	1484.38
453.751	1496.38
453.971	1514.38
454.192	1488.38
454.412	1437.38
454.633	1479.38
454.853	1437.38
455.073	1454.38
455.294	1465.38
455.514	1449.38
455.734	1432.38
455.955	1439.38
456.175	1487.38
456.395	1446.38
456.616	1458.38
456.836	1451.38
457.056	1467.38
457.276	1463.38
457.497	1512.38
457.717	1487.38
457.937	1474.38
458.157	1476.38
458.377	1525.38
458.598	1552.38
458.818	1593.38
459.038	1608.38
459.258	1608.38
459.478	1707.38
459.698	1764.38
459.918	1816.38
460.138	1814.38
460.358	1913.38
460.578	1940.38
460.798	1949.38
461.018	1953.38
461.238	1929.38
461.458	1958.38
461.678	1917.38
461.898	1992.38
462.118	1960.38
462.338	2080.38
462.558	2163.38
462.777	2189.38
462.997	2338.38
463.217	2420.38
463.437	2452.38
463.657	2335.38
463.876	2304.38
464.096	2255.38
464.316	2249.38
464.536	2224.38
464.755	2172.38
464.975	2070.38
465.195	2010.38
465.414	1914.38
465.634	1821.38
465.854	1793.38
466.073	1763.38
466.293	1738.38
466.512	1672.38
466.732	1652.38
466.951	1637.38
467.171	1633.38
467.391	1648.38
467.61	1601.38
467.829	1649.38
468.049	1602.38
468.268	1585.38
468.488	1558.38
468.707	1575.38
468.927	1599.38
469.146	1591.38
469.365	1595.38
469.585	1587.38
469.804	1619.38
470.023	1645.38
470.243	1672.38
470.462	1663.38
470.681	1654.38
470.901	1674.38
471.12	1646.38
471.339	1664.38
471.558	1589.38
471.777	1628.38
471.997	1597.38
472.216	1559.38
472.435	1624.38
472.654	1538.38
472.873	1535.38
473.092	1572.38
473.311	1552.38
473.53	1591.38
473.749	1558.38
473.968	1550.38
474.187	1521.38
474.406	1511.38
474.625	1589.38
474.844	1565.38
475.063	1588.38
475.282	1559.38
475.501	1584.38
475.72	1612.38
475.939	1608.38
476.158	1645.38
476.377	1656.38
476.596	1637.38
476.814	1656.38
477.033	1646.38
477.252	1700.38
477.471	1744.38
477.69	1801.38
477.908	1780.38
478.127	1807.38
478.346	1845.38
478.564	1868.38
478.783	1887.38
479.002	1992.38
479.22	1983.38
479.439	1977.38
479.658	1976.38
479.876	1936.38
480.095	2024.38
480.313	2069.38
480.532	2110.38
480.751	2092.38
480.969	2054.38
481.188	2008.38
481.406	2025.38
481.624	1935.38
481.843	1911.38
482.061	1922.38
482.28	1893.38
482.498	1929.38
482.717	1907.38
482.935	1931.38
483.153	1914.38
483.372	1952.38
483.59	1956.38
483.808	1975.38
484.027	1967.38
484.245	2005.38
484.463	2024.38
484.681	2032.38
484.9	2009.38
485.118	2106.38
485.336	2119.38
485.554	2125.38
485.772	2100.38
485.99	2128.38
486.209	2141.38
486.427	2083.38
486.645	2077.38
486.863	2102.38
487.081	2123.38
487.299	2082.38
487.517	2099.38
487.735	2055.38
487.953	2087.38
488.171	2065.38
488.389	2081.38
488.607	2016.38
488.825	1989.38
489.043	1992.38
489.261	2001.38
489.479	1962.38
489.696	2025.38
489.914	1976.38
490.132	1967.38
490.35	1988.38
490.568	1993.38
490.786	1988.38
491.003	1959.38
491.221	1984.38
491.439	1980.38
491.657	1964.38
491.874	1985.38
492.092	1964.38
492.31	1959.38
492.527	1970.38
492.745	2010.38
492.963	1929.38
493.18	1984.38
493.398	1954.38
493.615	2033.38
493.833	2026.38
494.05	1966.38
494.268	1958.38
494.485	2010.38
494.703	1984.38
494.92	2025.38
495.138	2017.38
495.355	2042.38
495.573	1997.38
495.79	2063.38
496.008	2025.38
496.225	2062.38
496.442	2087.38
496.66	2057.38
496.877	2137.38
497.094	2118.38
497.312	2154.38
497.529	2225.38
497.746	2261.38
497.963	2319.38
498.181	2393.38
498.398	2548.38
498.615	2634.38
498.832	2810.38
499.049	3002.38
499.267	3179.38
499.484	3430.38
499.701	3697.38
499.918	4021.38
500.135	4432.38
500.352	4870.38
500.569	4942.38
500.786	4892.38
501.003	4689.38
501.22	4374.38
501.437	3905.38
501.654	3608.38
501.871	3390.38
502.088	3092.38
502.305	2967.38
502.522	2773.38
502.739	2656.38
502.956	2551.38
503.172	2472.38
503.389	2338.38
503.606	2318.38
503.823	2291.38
504.04	2256.38
504.256	2222.38
504.473	2266.38
504.69	2277.38
504.907	2228.38
505.123	2117.38
505.34	2042.38
505.557	1976.38
505.773	1892.38
505.99	1870.38
506.207	1838.38
506.423	1794.38
506.64	1780.38
506.856	1765.38
507.073	1740.38
507.289	1736.38
507.506	1704.38
507.722	1661.38
507.939	1722.38
508.155	1673.38
508.372	1640.38
508.588	1652.38
508.805	1634.38
509.021	1634.38
509.238	1605.38
509.454	1577.38
509.67	1588.38
509.887	1580.38
510.103	1612.38
510.319	1572.38
510.536	1582.38
510.752	1535.38
510.968	1548.38
511.184	1561.38
511.401	1579.38
511.617	1541.38
511.833	1580.38
512.049	1556.38
512.265	1557.38
512.481	1545.38
512.698	1562.38
512.914	1550.38
513.13	1534.38
513.346	1531.38
513.562	1552.38
513.778	1538.38
513.994	1568.38
514.21	1584.38
514.426	1563.38
514.642	1592.38
514.858	1584.38
515.074	1618.38
515.29	1620.38
515.506	1631.38
515.721	1655.38
515.937	1672.38
516.153	1698.38
516.369	1754.38
516.585	1770.38
516.801	1835.38
517.016	1850.38
517.232	1932.38
517.448	2013.38
517.664	2016.38
517.879	2023.38
518.095	2002.38
518.311	2012.38
518.527	1959.38
518.742	1910.38
518.958	1819.38
519.173	1790.38
519.389	1704.38
519.605	1698.38
519.82	1656.38
520.036	1632.38
520.251	1605.38
520.467	1583.38
520.682	1564.38
520.898	1548.38
521.113	1490.38
521.329	1511.38
521.544	1505.38
521.76	1493.38
521.975	1461.38
522.19	1470.38
522.406	1464.38
522.621	1479.38
522.836	1478.38
523.052	1468.38
523.267	1450.38
523.482	1417.38
523.698	1447.38
523.913	1450.38
524.128	1431.38
524.343	1427.38
524.559	1394.38
524.774	1414.38
524.989	1404.38
525.204	1410.38
525.419	1398.38
525.634	1398.38
525.849	1394.38
526.064	1417.38
526.28	1381.38
526.495	1367.38
526.71	1385.38
526.925	1357.38
527.14	1392.38
527.355	1357.38
527.57	1394.38
527.785	1378.38
527.999	1348.38
528.214	1362.38
528.429	1364.38
528.644	1369.38
528.859	1360.38
529.074	1372.38
529.289	1358.38
529.503	1370.38
529.718	1401.38
529.933	1346.38
530.148	1366.38
530.363	1373.38
530.577	1336.38
530.792	1364.38
531.007	1361.38
531.221	1357.38
531.436	1360.38
531.651	1380.38
531.865	1337.38
532.08	1363.38
532.295	1345.38
532.509	1330.38
532.724	1331.38
532.938	1411.38
533.153	1380.38
533.367	1332.38
533.582	1334.38
533.796	1391.38
534.011	1347.38
534.225	1356.38
534.44	1306.38
534.654	1340.38
534.868	1328.38
535.083	1363.38
535.297	1290.38
535.511	1318.38
535.726	1281.38
535.94	1263.38
536.154	1288.38
536.369	1248.38
536.583	1271.38
536.797	1285.38
537.011	1276.38
537.225	1230.38
537.44	1258.38
537.654	1275.38
537.868	1242.38
538.082	1219.38
538.296	1249.38
538.51	1230.38
538.724	1225.38
538.938	1253.38
539.153	1230.38
539.367	1252.38
539.581	1214.38
539.795	1209.38
540.009	1217.38
540.222	1217.38
540.436	1203.38
540.65	1206.38
540.864	1223.38
541.078	1214.38
541.292	1207.38
541.506	1233.38
541.72	1169.38
541.934	1175.38
542.147	1220.38
542.361	1207.38
542.575	1171.38
542.789	1207.38
543.002	1160.38
543.216	1178.38
543.43	1161.38
543.644	1188.38
543.857	1181.38
544.071	1181.38
544.285	1176.38
544.498	1188.38
544.712	1167.38
544.925	1185.38
545.139	1196.38
545.352	1204.38
545.566	1211.38
545.779	1201.38
545.993	1215.38
546.206	1211.38
546.42	1219.38
546.633	1221.38
546.847	1210.38
547.06	1190.38
547.274	1180.38
547.487	1200.38
547.7	1209.38
547.914	1231.38
548.127	1225.38
548.34	1237.38
548.554	1197.38
548.767	1233.38
548.98	1211.38
549.193	1221.38
549.407	1252.38
549.62	1226.38
549.833	1254.38
550.046	1241.38
550.259	1226.38
550.473	1221.38
550.686	1232.38
550.899	1200.38
551.112	1214.38
551.325	1186.38
551.538	1198.38
551.751	1147.38
551.964	1214.38
552.177	1203.38
552.39	1241.38
552.603	1260.38
552.816	1268.38
553.029	1267.38
553.242	1299.38
553.455	1310.38
553.667	1302.38
553.88	1290.38
554.093	1257.38
554.306	1244.38
554.519	1164.38
554.732	1202.38
554.944	1178.38
555.157	1133.38
555.37	1134.38
555.583	1119.38
555.795	1140.38
556.008	1104.38
556.221	1086.38
556.433	1081.38
556.646	1062.38
556.859	1077.38
557.071	1066.38
557.284	1047.38
557.496	1032.38
557.709	1053.38
557.921	1045.38
558.134	1030.38
558.346	1032.38
558.559	1052.38
558.771	1010.38
558.984	1045.38
559.196	1011.38
559.409	1016.38
559.621	1017.38
559.833	1022.38
560.046	998.38
560.258	1002.38
560.47	994.38
560.683	1009.38
560.895	1016.38
561.107	1014.38
561.32	992.38
561.532	1012.38
561.744	994.38
561.956	990.38
562.168	1002.38
562.381	997.38
562.593	1010.38
562.805	1015.38
563.017	989.38
563.229	988.38
563.441	1024.38
563.653	1037.38
563.865	1012.38
564.077	1006.38
564.289	1054.38
564.501	1049.38
564.713	1064.38
564.925	1097.38
565.137	1104.38
565.349	1122.38
565.561	1168.38
565.773	1176.38
565.985	1240.38
566.197	1306.38
566.408	1384.38
566.62	1416.38
566.832	1542.38
567.044	1561.38
567.255	1576.38
567.467	1592.38
567.679	1658.38
567.891	1704.38
568.102	1713.38
568.314	1666.38
568.526	1543.38
568.737	1417.38
568.949	1334.38
569.161	1241.38
569.372	1200.38
569.584	1146.38
569.795	1053.38
570.007	1068.38
570.218	1047.38
570.43	1048.38
570.641	1004.38
570.853	1035.38
571.064	1029.38
571.276	987.38
571.487	976.38
571.698	946.38
571.91	905.38
572.121	920.38
572.333	883.38
572.544	890.38
572.755	833.38
572.966	849.38
573.178	869.38
573.389	841.38
573.6	827.38
573.811	831.38
574.023	839.38
574.234	807.38
574.445	800.38
574.656	841.38
574.867	802.38
575.078	783.38
575.289	778.38
575.501	788.38
575.712	800.38
575.923	800.38
576.134	800.38
576.345	778.38
576.556	768.38
576.767	753.38
576.978	762.38
577.188	748.38
577.399	742.38
577.61	735.38
577.821	732.38
578.032	735.38
578.243	718.38
578.454	753.38
578.665	717.38
578.875	732.38
579.086	706.38
579.297	716.38
579.508	711.38
579.718	763.38
579.929	718.38
580.14	710.38
580.35	702.38
580.561	712.38
580.772	696.38
580.982	694.38
581.193	681.38
581.403	666.38
581.614	672.38
581.825	678.38
582.035	682.38
582.246	665.38
582.456	688.38
582.667	664.38
582.877	653.38
583.087	661.38
583.298	665.38
583.508	684.38
583.719	709.38
583.929	673.38
584.139	665.38
584.35	641.38
584.56	660.38
584.77	668.38
584.981	649.38
585.191	686.38
585.401	647.38
585.611	658.38
585.821	661.38
586.032	664.38
586.242	648.38
586.452	656.38
586.662	628.38
586.872	658.38
587.082	639.38
587.292	653.38
587.502	659.38
587.713	631.38
587.923	632.38
588.133	628.38
588.343	639.38
588.553	617.38
588.762	666.38
588.972	653.38
589.182	642.38
589.392	663.38
589.602	673.38
589.812	643.38
590.022	645.38
590.232	655.38
590.441	637.38
590.651	622.38
590.861	648.38
591.071	673.38
591.281	648.38
591.49	657.38
591.7	692.38
591.91	698.38
592.119	706.38
592.329	698.38
592.539	713.38
592.748	734.38
592.958	756.38
593.167	741.38
593.377	764.38
593.587	788.38
593.796	762.38
594.006	794.38
594.215	801.38
594.424	784.38
594.634	753.38
594.843	743.38
595.053	699.38
595.262	702.38
595.472	697.38
595.681	662.38
595.89	635.38
596.1	636.38
596.309	636.38
596.518	635.38
596.727	613.38
596.937	607.38
597.146	592.38
597.355	573.38
597.564	564.38
597.774	572.38
597.983	567.38
598.192	577.38
598.401	551.38
598.61	555.38
598.819	572.38
599.028	562.38
599.237	546.38
599.446	562.38
599.655	531.38
599.864	538.38
600.073	557.38
600.282	551.38
600.491	531.38
600.7	550.38
600.909	545.38
601.118	514.38
601.327	519.38
601.536	516.38
601.745	497.38
601.953	514.38
602.162	539.38
602.371	503.38
602.58	510.38
602.789	514.38
602.997	514.38
603.206	528.38
603.415	510.38
603.623	517.38
603.832	492.38
604.041	513.38
604.249	512.38
604.458	496.38
604.666	497.38
604.875	484.38
605.084	470.38
605.292	480.38
605.501	498.38
605.709	474.38
605.918	469.38
606.126	486.38
606.334	484.38
606.543	476.38
606.751	480.38
606.96	491.38
607.168	466.38
607.376	499.38
607.585	465.38
607.793	486.38
608.001	470.38
608.21	479.38
608.418	466.38
608.626	460.38
608.834	471.38
609.043	468.38
609.251	454.38
609.459	459.38
609.667	460.38
609.875	495.38
610.083	454.38
610.291	486.38
610.499	488.38
610.707	459.38
610.916	469.38
611.124	468.38
611.332	461.38
611.54	459.38
611.748	443.38
611.955	459.38
612.163	448.38
612.371	436.38
612.579	463.38
612.787	455.38
612.995	449.38
613.203	444.38
613.411	437.38
613.618	424.38
613.826	441.38
614.034	440.38
614.242	408.38
614.449	451.38
614.657	435.38
614.865	440.38
615.072	458.38
615.28	445.38
615.488	433.38
615.695	448.38
615.903	458.38
616.111	431.38
616.318	458.38
616.526	465.38
616.733	465.38
616.941	452.38
617.148	430.38
617.356	428.38
617.563	449.38
617.771	430.38
617.978	442.38
618.185	458.38
618.393	440.38
618.6	462.38
618.807	454.38
619.015	443.38
619.222	436.38
619.429	418.38
619.637	424.38
619.844	418.38
620.051	420.38
620.258	416.38
620.466	400.38
620.673	407.38
620.88	400.38
621.087	417.38
621.294	431.38
621.501	418.38
621.708	404.38
621.915	420.38
622.122	399.38
622.329	406.38
622.536	418.38
622.743	411.38
622.95	411.38
623.157	391.38
623.364	407.38
623.571	390.38
623.778	402.38
623.985	374.38
624.192	405.38
624.399	396.38
624.606	398.38
624.812	398.38
625.019	379.38
625.226	357.38
625.433	386.38
625.639	378.38
625.846	354.38
626.053	372.38
626.259	373.38
626.466	377.38
626.673	379.38
626.879	384.38
627.086	368.38
627.293	360.38
627.499	390.38
627.706	365.38
627.912	378.38
628.119	386.38
628.325	383.38
628.532	335.38
628.738	370.38
628.945	356.38
629.151	350.38
629.357	361.38
629.564	350.38
629.77	362.38
629.976	346.38
630.183	351.38
630.389	372.38
630.595	361.38
630.802	348.38
631.008	318.38
631.214	348.38
631.42	348.38
631.627	335.38
631.833	329.38
632.039	348.38
632.245	323.38
632.451	335.38
632.657	352.38
632.863	346.38
633.069	334.38
633.275	337.38
633.481	323.38
633.688	318.38
633.893	331.38
634.099	332.38
634.305	324.38
634.511	319.38
634.717	327.38
634.923	323.38
635.129	308.38
635.335	318.38
635.541	324.38
635.747	325.38
635.952	316.38
636.158	325.38
636.364	316.38
636.57	334.38
636.775	320.38
636.981	316.38
637.187	305.38
637.392	312.38
637.598	302.38
637.804	301.38
638.009	306.38
638.215	319.38
638.421	306.38
638.626	314.38
638.832	292.38
639.037	290.38
639.243	305.38
639.448	312.38
639.654	304.38
639.859	293.38
640.065	309.38
640.27	313.38
640.475	296.38
640.681	304.38
640.886	298.38
641.091	286.38
641.297	296.38
641.502	287.38
641.707	286.38
641.913	301.38
642.118	282.38
642.323	301.38
642.528	293.38
642.733	302.38
642.939	284.38
643.144	288.38
643.349	292.38
643.554	320.38
643.759	294.38
643.964	301.38
644.169	296.38
644.374	291.38
644.579	305.38
644.784	286.38
644.989	292.38
645.194	295.38
645.399	289.38
645.604	298.38
645.809	305.38
646.014	316.38
646.219	307.38
646.423	315.38
646.628	315.38
646.833	339.38
647.038	301.38
647.243	301.38
647.447	305.38
647.652	290.38
647.857	306.38
648.062	313.38
648.266	343.38
648.471	336.38
648.676	310.38
648.88	324.38
649.085	333.38
649.289	300.38
649.494	308.38
649.698	323.38
649.903	308.38
650.107	311.38
650.312	296.38
650.516	308.38
650.721	284.38
650.925	282.38
651.13	279.38
651.334	310.38
651.539	307.38
651.743	277.38
651.947	295.38
652.152	291.38
652.356	307.38
652.56	301.38
652.764	298.38
652.969	318.38
653.173	295.38
653.377	279.38
653.581	295.38
653.785	287.38
653.99	295.38
654.194	293.38
654.398	286.38
654.602	315.38
654.806	299.38
655.01	305.38
655.214	327.38
655.418	336.38
655.622	329.38
655.826	352.38
656.03	395.38
656.234	424.38
656.438	444.38
656.642	436.38
656.846	410.38
657.049	371.38
657.253	329.38
657.457	308.38
657.661	288.38
657.865	245.38
658.068	212.38
658.272	190.38
658.476	213.38
658.68	181.38
658.883	180.38
659.087	175.38
659.291	160.38
659.494	165.38
659.698	154.38
659.901	130.38
660.105	122.38
660.309	131.38
660.512	110.38
660.716	116.38
660.919	119.38
661.123	119.38
661.326	101.38
661.53	105.38
661.733	98.38
661.936	100.38
662.14	89.38
662.343	101.38
662.546	97.38
662.75	98.38
662.953	97.38
663.156	77.38
663.36	82.38
663.563	84.38
663.766	83.38
663.969	81.38
664.173	89.38
664.376	82.38
664.579	81.38
664.782	84.38
664.985	69.38
665.188	87.38
665.391	78.38
665.594	73.38
665.797	72.38
666	65.38
666.203	85.38
666.406	76.38
666.609	83.38
666.812	81.38
667.015	75.38
667.218	88.38
667.421	76.38
667.624	79.38
667.827	76.38
668.03	77.38
668.232	85.38
668.435	79.38
668.638	75.38
668.841	83.38
669.043	73.38
669.246	85.38
669.449	74.38
669.651	68.38
669.854	78.38
670.057	89.38
670.259	91.38
670.462	70.38
670.665	86.38
670.867	81.38
671.07	76.38
671.272	89.38
671.475	73.38
671.677	70.38
671.88	75.38
672.082	86.38
672.284	79.38
672.487	83.38
672.689	81.38
672.892	78.38
