Data from SnStandardFlinnAPT0064_LampEnergy5.5_LIBS07252019.E.O._I.C._HRD10591_15-15-06-491.txt Node
Date: Thu Jul 25 15:15:06 EDT 2019
User: cochatt
Spectrometer: HR+D1059
Trigger mode: 1
Integration Time (sec): 1.000000E-1
Scans to average: 1
Electric dark correction enabled: true
Nonlinearity correction enabled: false
Boxcar width: 0
XAxis mode: Wavelengths
Number of Pixels in Spectrum: 2048
>>>>>Begin Spectral Data<<<<<
223.165	-18.62
223.4	-18.62
223.635	-18.62
223.869	-15.62
224.104	-20.62
224.338	-14.62
224.573	-20.62
224.808	-18.62
225.042	-16.62
225.277	8.38
225.511	1.38
225.746	18.38
225.98	3.38
226.215	5.38
226.449	22.38
226.683	15.38
226.918	31.38
227.152	19.38
227.387	31.38
227.621	30.38
227.856	33.38
228.09	48.38
228.324	43.38
228.559	51.38
228.793	78.38
229.027	135.38
229.262	143.38
229.496	136.38
229.73	139.38
229.964	154.38
230.199	159.38
230.433	155.38
230.667	155.38
230.901	159.38
231.136	159.38
231.37	153.38
231.604	157.38
231.838	201.38
232.072	186.38
232.306	213.38
232.541	185.38
232.775	186.38
233.009	182.38
233.243	185.38
233.477	192.38
233.711	219.38
233.945	233.38
234.179	229.38
234.413	190.38
234.647	193.38
234.881	210.38
235.115	216.38
235.349	239.38
235.583	307.38
235.817	368.38
236.051	352.38
236.285	275.38
236.519	242.38
236.753	228.38
236.987	204.38
237.221	218.38
237.455	235.38
237.689	209.38
237.922	207.38
238.156	206.38
238.39	207.38
238.624	204.38
238.858	207.38
239.091	218.38
239.325	221.38
239.559	215.38
239.793	223.38
240.027	224.38
240.26	237.38
240.494	245.38
240.728	242.38
240.961	241.38
241.195	256.38
241.429	267.38
241.662	295.38
241.896	313.38
242.13	348.38
242.363	438.38
242.597	518.38
242.83	524.38
243.064	505.38
243.298	607.38
243.531	525.38
243.765	369.38
243.998	303.38
244.232	278.38
244.465	296.38
244.699	263.38
244.932	269.38
245.166	273.38
245.399	274.38
245.633	288.38
245.866	298.38
246.099	267.38
246.333	259.38
246.566	275.38
246.8	295.38
247.033	278.38
247.266	289.38
247.5	283.38
247.733	289.38
247.966	288.38
248.2	313.38
248.433	351.38
248.666	377.38
248.899	357.38
249.133	318.38
249.366	345.38
249.599	378.38
249.832	387.38
250.066	392.38
250.299	336.38
250.532	317.38
250.765	309.38
250.998	315.38
251.231	310.38
251.465	312.38
251.698	323.38
251.931	316.38
252.164	317.38
252.397	319.38
252.63	333.38
252.863	321.38
253.096	319.38
253.329	317.38
253.562	339.38
253.795	354.38
254.028	332.38
254.261	320.38
254.494	348.38
254.727	399.38
254.96	443.38
255.193	444.38
255.426	390.38
255.659	345.38
255.892	345.38
256.124	357.38
256.357	364.38
256.59	359.38
256.823	383.38
257.056	423.38
257.289	469.38
257.521	515.38
257.754	439.38
257.987	371.38
258.22	377.38
258.452	373.38
258.685	376.38
258.918	372.38
259.151	390.38
259.383	427.38
259.616	423.38
259.849	449.38
260.081	426.38
260.314	408.38
260.547	403.38
260.779	395.38
261.012	389.38
261.244	393.38
261.477	423.38
261.71	414.38
261.942	419.38
262.175	442.38
262.407	429.38
262.64	426.38
262.872	448.38
263.105	465.38
263.337	497.38
263.57	525.38
263.802	527.38
264.035	538.38
264.267	584.38
264.499	587.38
264.732	578.38
264.964	587.38
265.197	606.38
265.429	602.38
265.661	599.38
265.894	619.38
266.126	674.38
266.358	747.38
266.591	697.38
266.823	647.38
267.055	594.38
267.287	579.38
267.52	553.38
267.752	548.38
267.984	538.38
268.216	548.38
268.448	511.38
268.681	523.38
268.913	515.38
269.145	510.38
269.377	510.38
269.609	491.38
269.841	499.38
270.073	521.38
270.306	623.38
270.538	775.38
270.77	1052.38
271.002	1244.38
271.234	909.38
271.466	669.38
271.698	572.38
271.93	546.38
272.162	529.38
272.394	517.38
272.626	499.38
272.858	501.38
273.09	488.38
273.322	516.38
273.553	492.38
273.785	488.38
274.017	508.38
274.249	494.38
274.481	515.38
274.713	491.38
274.945	501.38
275.176	517.38
275.408	515.38
275.64	500.38
275.872	498.38
276.104	501.38
276.335	523.38
276.567	508.38
276.799	512.38
277.031	523.38
277.262	520.38
277.494	547.38
277.726	589.38
277.957	652.38
278.189	704.38
278.421	679.38
278.652	641.38
278.884	593.38
279.115	565.38
279.347	547.38
279.579	575.38
279.81	551.38
280.042	557.38
280.273	559.38
280.505	572.38
280.736	582.38
280.968	580.38
281.199	636.38
281.431	692.38
281.662	709.38
281.894	649.38
282.125	617.38
282.356	638.38
282.588	640.38
282.819	652.38
283.051	682.38
283.282	730.38
283.513	848.38
283.745	1195.38
283.976	1834.38
284.207	2512.38
284.439	2253.38
284.67	1509.38
284.901	1189.38
285.132	1178.38
285.364	1128.38
285.595	913.38
285.826	823.38
286.057	977.38
286.288	1247.38
286.52	1636.38
286.751	1521.38
286.982	1014.38
287.213	827.38
287.444	736.38
287.675	706.38
287.906	669.38
288.138	672.38
288.369	661.38
288.6	654.38
288.831	648.38
289.062	677.38
289.293	666.38
289.524	669.38
289.755	684.38
289.986	688.38
290.217	669.38
290.448	655.38
290.679	649.38
290.91	659.38
291.141	697.38
291.371	719.38
291.602	738.38
291.833	671.38
292.064	663.38
292.295	634.38
292.526	627.38
292.757	626.38
292.987	610.38
293.218	614.38
293.449	643.38
293.68	614.38
293.91	634.38
294.141	645.38
294.372	619.38
294.603	624.38
294.833	613.38
295.064	639.38
295.295	620.38
295.525	605.38
295.756	626.38
295.987	610.38
296.217	653.38
296.448	626.38
296.679	625.38
296.909	618.38
297.14	639.38
297.37	633.38
297.601	628.38
297.831	629.38
298.062	633.38
298.292	638.38
298.523	663.38
298.753	662.38
298.984	682.38
299.214	649.38
299.445	673.38
299.675	677.38
299.905	699.38
300.136	720.38
300.366	759.38
300.597	963.38
300.827	1246.38
301.057	1612.38
301.288	1630.38
301.518	1121.38
301.748	907.38
301.979	845.38
302.209	820.38
302.439	837.38
302.669	864.38
302.9	984.38
303.13	1300.38
303.36	1848.38
303.59	2385.38
303.82	2165.38
304.051	1362.38
304.281	1029.38
304.511	899.38
304.741	845.38
304.971	789.38
305.201	777.38
305.431	761.38
305.661	733.38
305.891	763.38
306.121	741.38
306.352	715.38
306.582	725.38
306.812	738.38
307.042	756.38
307.272	717.38
307.502	741.38
307.731	715.38
307.961	737.38
308.191	715.38
308.421	709.38
308.651	695.38
308.881	716.38
309.111	718.38
309.341	695.38
309.571	724.38
309.8	736.38
310.03	732.38
310.26	748.38
310.49	722.38
310.72	744.38
310.949	732.38
311.179	741.38
311.409	751.38
311.639	749.38
311.868	759.38
312.098	763.38
312.328	771.38
312.557	755.38
312.787	750.38
313.017	790.38
313.246	765.38
313.476	762.38
313.706	778.38
313.935	807.38
314.165	861.38
314.394	898.38
314.624	852.38
314.853	820.38
315.083	816.38
315.312	839.38
315.542	842.38
315.771	828.38
316.001	851.38
316.23	875.38
316.46	873.38
316.689	972.38
316.919	1118.38
317.148	1503.38
317.377	2232.38
317.607	3197.38
317.836	3278.38
318.065	2004.38
318.295	1416.38
318.524	1185.38
318.753	1068.38
318.983	992.38
319.212	960.38
319.441	915.38
319.67	930.38
319.9	907.38
320.129	899.38
320.358	925.38
320.587	901.38
320.816	879.38
321.046	900.38
321.275	927.38
321.504	895.38
321.733	939.38
321.962	961.38
322.191	962.38
322.42	958.38
322.649	934.38
322.878	953.38
323.108	967.38
323.337	986.38
323.566	974.38
323.795	969.38
324.024	989.38
324.253	1018.38
324.482	1061.38
324.71	1090.38
324.939	1160.38
325.168	1183.38
325.397	1199.38
325.626	1401.38
325.855	1833.38
326.084	2727.38
326.313	3953.38
326.542	4193.38
326.77	2770.38
326.999	1947.38
327.228	1698.38
327.457	1604.38
327.686	1657.38
327.914	1742.38
328.143	1964.38
328.372	2250.38
328.6	2425.38
328.829	2279.38
329.058	2018.38
329.287	1831.38
329.515	1648.38
329.744	1571.38
329.972	1483.38
330.201	1423.38
330.43	1385.38
330.658	1367.38
330.887	1311.38
331.115	1290.38
331.344	1309.38
331.572	1297.38
331.801	1320.38
332.03	1315.38
332.258	1317.38
332.486	1379.38
332.715	1513.38
332.943	1747.38
333.172	2091.38
333.4	2097.38
333.629	1705.38
333.857	1638.38
334.085	1618.38
334.314	1676.38
334.542	1811.38
334.771	2069.38
334.999	2443.38
335.227	2877.38
335.455	3171.38
335.684	3002.38
335.912	2650.38
336.14	2312.38
336.369	2055.38
336.597	1948.38
336.825	1807.38
337.053	1701.38
337.281	1585.38
337.51	1524.38
337.738	1468.38
337.966	1386.38
338.194	1324.38
338.422	1292.38
338.65	1280.38
338.878	1280.38
339.106	1237.38
339.334	1264.38
339.562	1231.38
339.79	1208.38
340.018	1215.38
340.246	1138.38
340.474	1122.38
340.702	1164.38
340.93	1183.38
341.158	1171.38
341.386	1128.38
341.614	1155.38
341.842	1161.38
342.07	1110.38
342.298	1099.38
342.526	1073.38
342.754	1057.38
342.981	1079.38
343.209	1078.38
343.437	1078.38
343.665	1127.38
343.893	1089.38
344.12	1126.38
344.348	1079.38
344.576	1072.38
344.804	1043.38
345.031	1021.38
345.259	1038.38
345.487	1023.38
345.714	1000.38
345.942	988.38
346.17	1017.38
346.397	1009.38
346.625	1008.38
346.853	995.38
347.08	985.38
347.308	996.38
347.535	977.38
347.763	972.38
347.99	970.38
348.218	980.38
348.445	970.38
348.673	992.38
348.9	966.38
349.128	948.38
349.355	968.38
349.583	987.38
349.81	973.38
350.037	957.38
350.265	954.38
350.492	974.38
350.72	960.38
350.947	966.38
351.174	938.38
351.402	962.38
351.629	969.38
351.856	949.38
352.083	955.38
352.311	935.38
352.538	954.38
352.765	915.38
352.992	917.38
353.22	934.38
353.447	917.38
353.674	936.38
353.901	947.38
354.128	945.38
354.355	936.38
354.583	928.38
354.81	947.38
355.037	953.38
355.264	946.38
355.491	960.38
355.718	965.38
355.945	971.38
356.172	977.38
356.399	969.38
356.626	975.38
356.853	979.38
357.08	992.38
357.307	1015.38
357.534	1003.38
357.761	1003.38
357.988	987.38
358.215	999.38
358.441	961.38
358.668	1007.38
358.895	1000.38
359.122	978.38
359.349	986.38
359.576	985.38
359.802	1007.38
360.029	996.38
360.256	971.38
360.483	996.38
360.709	1002.38
360.936	1035.38
361.163	1011.38
361.39	1021.38
361.616	1038.38
361.843	1002.38
362.07	1018.38
362.296	1014.38
362.523	994.38
362.749	987.38
362.976	999.38
363.203	1004.38
363.429	993.38
363.656	998.38
363.882	1001.38
364.109	1007.38
364.335	1000.38
364.562	1019.38
364.788	985.38
365.015	998.38
365.241	1000.38
365.468	1060.38
365.694	1115.38
365.92	1049.38
366.147	1036.38
366.373	1014.38
366.599	1025.38
366.826	1031.38
367.052	1021.38
367.278	1021.38
367.505	987.38
367.731	1037.38
367.957	1012.38
368.184	1067.38
368.41	1043.38
368.636	1026.38
368.862	1039.38
369.089	1036.38
369.315	1047.38
369.541	1027.38
369.767	1061.38
369.993	1057.38
370.219	1049.38
370.445	1046.38
370.672	1053.38
370.898	1068.38
371.124	1102.38
371.35	1083.38
371.576	1078.38
371.802	1124.38
372.028	1081.38
372.254	1101.38
372.48	1095.38
372.706	1116.38
372.932	1091.38
373.158	1063.38
373.384	1113.38
373.61	1124.38
373.835	1115.38
374.061	1095.38
374.287	1128.38
374.513	1136.38
374.739	1143.38
374.965	1123.38
375.191	1128.38
375.416	1163.38
375.642	1139.38
375.868	1148.38
376.094	1100.38
376.319	1101.38
376.545	1106.38
376.771	1084.38
376.997	1087.38
377.222	1087.38
377.448	1066.38
377.674	1069.38
377.899	1076.38
378.125	1095.38
378.35	1091.38
378.576	1083.38
378.802	1104.38
379.027	1101.38
379.253	1134.38
379.478	1167.38
379.704	1294.38
379.929	1679.38
380.155	2353.38
380.38	2550.38
380.606	1734.38
380.831	1304.38
381.057	1187.38
381.282	1138.38
381.507	1121.38
381.733	1123.38
381.958	1119.38
382.184	1073.38
382.409	1090.38
382.634	1069.38
382.86	1093.38
383.085	1059.38
383.31	1060.38
383.535	1042.38
383.761	1066.38
383.986	1096.38
384.211	1100.38
384.436	1093.38
384.662	1087.38
384.887	1095.38
385.112	1085.38
385.337	1119.38
385.562	1100.38
385.787	1109.38
386.013	1112.38
386.238	1125.38
386.463	1125.38
386.688	1123.38
386.913	1089.38
387.138	1118.38
387.363	1144.38
387.588	1091.38
387.813	1091.38
388.038	1096.38
388.263	1118.38
388.488	1102.38
388.713	1111.38
388.938	1089.38
389.163	1096.38
389.387	1113.38
389.612	1117.38
389.837	1097.38
390.062	1103.38
390.287	1126.38
390.512	1143.38
390.736	1109.38
390.961	1161.38
391.186	1159.38
391.411	1151.38
391.636	1149.38
391.86	1182.38
392.085	1162.38
392.31	1177.38
392.534	1157.38
392.759	1155.38
392.984	1138.38
393.208	1105.38
393.433	1123.38
393.658	1092.38
393.882	1109.38
394.107	1097.38
394.331	1129.38
394.556	1149.38
394.78	1156.38
395.005	1171.38
395.229	1136.38
395.454	1171.38
395.678	1161.38
395.903	1155.38
396.127	1193.38
396.352	1145.38
396.576	1141.38
396.801	1155.38
397.025	1141.38
397.249	1148.38
397.474	1181.38
397.698	1177.38
397.922	1208.38
398.147	1197.38
398.371	1202.38
398.595	1244.38
398.82	1255.38
399.044	1277.38
399.268	1353.38
399.492	1432.38
399.717	1469.38
399.941	1503.38
400.165	1433.38
400.389	1366.38
400.613	1286.38
400.837	1293.38
401.062	1258.38
401.286	1254.38
401.51	1233.38
401.734	1217.38
401.958	1222.38
402.182	1230.38
402.406	1215.38
402.63	1288.38
402.854	1259.38
403.078	1279.38
403.302	1276.38
403.526	1290.38
403.75	1282.38
403.974	1330.38
404.198	1285.38
404.422	1293.38
404.645	1281.38
404.869	1285.38
405.093	1314.38
405.317	1288.38
405.541	1268.38
405.765	1319.38
405.988	1308.38
406.212	1313.38
406.436	1299.38
406.66	1326.38
406.883	1296.38
407.107	1348.38
407.331	1375.38
407.555	1402.38
407.778	1361.38
408.002	1345.38
408.226	1336.38
408.449	1333.38
408.673	1310.38
408.896	1305.38
409.12	1319.38
409.344	1306.38
409.567	1290.38
409.791	1270.38
410.014	1288.38
410.238	1255.38
410.461	1255.38
410.685	1250.38
410.908	1272.38
411.132	1245.38
411.355	1253.38
411.578	1227.38
411.802	1199.38
412.025	1225.38
412.249	1229.38
412.472	1236.38
412.695	1215.38
412.919	1196.38
413.142	1217.38
413.365	1214.38
413.589	1223.38
413.812	1219.38
414.035	1216.38
414.258	1217.38
414.482	1218.38
414.705	1233.38
414.928	1201.38
415.151	1193.38
415.374	1193.38
415.597	1159.38
415.821	1204.38
416.044	1181.38
416.267	1173.38
416.49	1184.38
416.713	1157.38
416.936	1161.38
417.159	1175.38
417.382	1156.38
417.605	1167.38
417.828	1159.38
418.051	1181.38
418.274	1191.38
418.497	1194.38
418.72	1180.38
418.943	1153.38
419.166	1242.38
419.389	1348.38
419.611	1281.38
419.834	1239.38
420.057	1184.38
420.28	1171.38
420.503	1160.38
420.726	1160.38
420.948	1155.38
421.171	1167.38
421.394	1188.38
421.617	1184.38
421.839	1178.38
422.062	1187.38
422.285	1167.38
422.507	1193.38
422.73	1164.38
422.953	1187.38
423.175	1182.38
423.398	1228.38
423.621	1183.38
423.843	1167.38
424.066	1176.38
424.288	1194.38
424.511	1196.38
424.733	1168.38
424.956	1161.38
425.178	1151.38
425.401	1153.38
425.623	1142.38
425.846	1138.38
426.068	1131.38
426.291	1149.38
426.513	1146.38
426.735	1110.38
426.958	1140.38
427.18	1104.38
427.402	1105.38
427.625	1093.38
427.847	1087.38
428.069	1105.38
428.292	1124.38
428.514	1088.38
428.736	1080.38
428.958	1084.38
429.181	1067.38
429.403	1052.38
429.625	1091.38
429.847	1058.38
430.069	1081.38
430.292	1110.38
430.514	1130.38
430.736	1147.38
430.958	1095.38
431.18	1072.38
431.402	1065.38
431.624	1059.38
431.846	1054.38
432.068	1070.38
432.29	1093.38
432.512	1075.38
432.734	1076.38
432.956	1075.38
433.178	1093.38
433.4	1096.38
433.622	1079.38
433.844	1088.38
434.066	1074.38
434.287	1057.38
434.509	1077.38
434.731	1062.38
434.953	1121.38
435.175	1123.38
435.397	1107.38
435.618	1099.38
435.84	1078.38
436.062	1058.38
436.284	1066.38
436.505	1082.38
436.727	1071.38
436.949	1067.38
437.17	1076.38
437.392	1050.38
437.614	1070.38
437.835	1005.38
438.057	1046.38
438.278	1013.38
438.5	1050.38
438.721	1074.38
438.943	1058.38
439.165	1075.38
439.386	1071.38
439.608	1137.38
439.829	1097.38
440.05	1143.38
440.272	1158.38
440.493	1117.38
440.715	1123.38
440.936	1128.38
441.158	1129.38
441.379	1122.38
441.6	1188.38
441.822	1180.38
442.043	1221.38
442.264	1256.38
442.486	1183.38
442.707	1160.38
442.928	1159.38
443.149	1152.38
443.371	1127.38
443.592	1141.38
443.813	1162.38
444.034	1152.38
444.255	1209.38
444.476	1187.38
444.698	1237.38
444.919	1280.38
445.14	1307.38
445.361	1221.38
445.582	1211.38
445.803	1148.38
446.024	1154.38
446.245	1178.38
446.466	1179.38
446.687	1125.38
446.908	1131.38
447.129	1109.38
447.35	1101.38
447.571	1086.38
447.792	1069.38
448.013	1072.38
448.234	1059.38
448.455	1064.38
448.675	1070.38
448.896	1107.38
449.117	1139.38
449.338	1186.38
449.559	1211.38
449.779	1107.38
450	1063.38
450.221	1025.38
450.442	1061.38
450.662	1071.38
450.883	1027.38
451.104	1029.38
451.324	1036.38
451.545	1019.38
451.766	1028.38
451.986	1046.38
452.207	1063.38
452.428	1256.38
452.648	1621.38
452.869	1442.38
453.089	1139.38
453.31	1113.38
453.53	1089.38
453.751	1110.38
453.971	1183.38
454.192	1177.38
454.412	1041.38
454.633	1041.38
454.853	1029.38
455.073	1032.38
455.294	973.38
455.514	957.38
455.734	974.38
455.955	967.38
456.175	978.38
456.395	977.38
456.616	994.38
456.836	1016.38
457.056	1047.38
457.276	1006.38
457.497	1029.38
457.717	1033.38
457.937	1031.38
458.157	1020.38
458.377	1032.38
458.598	1047.38
458.818	1041.38
459.038	1053.38
459.258	1027.38
459.478	1080.38
459.698	1078.38
459.918	1112.38
460.138	1093.38
460.358	1166.38
460.578	1116.38
460.798	1179.38
461.018	1192.38
461.238	1161.38
461.458	1174.38
461.678	1185.38
461.898	1210.38
462.118	1193.38
462.338	1209.38
462.558	1231.38
462.777	1264.38
462.997	1309.38
463.217	1336.38
463.437	1388.38
463.657	1382.38
463.876	1325.38
464.096	1329.38
464.316	1267.38
464.536	1240.38
464.755	1236.38
464.975	1243.38
465.195	1171.38
465.414	1111.38
465.634	1091.38
465.854	1100.38
466.073	1078.38
466.293	1099.38
466.512	1087.38
466.732	1108.38
466.951	1142.38
467.171	1145.38
467.391	1111.38
467.61	1091.38
467.829	1068.38
468.049	1054.38
468.268	1076.38
468.488	1021.38
468.707	1045.38
468.927	1051.38
469.146	1042.38
469.365	1043.38
469.585	1050.38
469.804	1060.38
470.023	1116.38
470.243	1146.38
470.462	1124.38
470.681	1186.38
470.901	1276.38
471.12	1388.38
471.339	1375.38
471.558	1165.38
471.777	1124.38
471.997	1111.38
472.216	1079.38
472.435	1062.38
472.654	1021.38
472.873	1038.38
473.092	1059.38
473.311	1040.38
473.53	1071.38
473.749	1119.38
473.968	1108.38
474.187	1053.38
474.406	1053.38
474.625	1076.38
474.844	1089.38
475.063	1088.38
475.282	1046.38
475.501	1052.38
475.72	1071.38
475.939	1075.38
476.158	1075.38
476.377	1113.38
476.596	1102.38
476.814	1105.38
477.033	1131.38
477.252	1139.38
477.471	1159.38
477.69	1180.38
477.908	1203.38
478.127	1201.38
478.346	1215.38
478.564	1225.38
478.783	1284.38
479.002	1274.38
479.22	1255.38
479.439	1265.38
479.658	1260.38
479.876	1257.38
480.095	1251.38
480.313	1269.38
480.532	1299.38
480.751	1279.38
480.969	1254.38
481.188	1263.38
481.406	1207.38
481.624	1255.38
481.843	1259.38
482.061	1281.38
482.28	1265.38
482.498	1269.38
482.717	1287.38
482.935	1254.38
483.153	1319.38
483.372	1335.38
483.59	1324.38
483.808	1352.38
484.027	1346.38
484.245	1397.38
484.463	1526.38
484.681	1681.38
484.9	1537.38
485.118	1493.38
485.336	1447.38
485.554	1475.38
485.772	1505.38
485.99	1656.38
486.209	1805.38
486.427	1563.38
486.645	1407.38
486.863	1395.38
487.081	1364.38
487.299	1339.38
487.517	1364.38
487.735	1364.38
487.953	1417.38
488.171	1366.38
488.389	1362.38
488.607	1353.38
488.825	1316.38
489.043	1307.38
489.261	1283.38
489.479	1323.38
489.696	1303.38
489.914	1334.38
490.132	1316.38
490.35	1354.38
490.568	1346.38
490.786	1344.38
491.003	1329.38
491.221	1405.38
491.439	1434.38
491.657	1403.38
491.874	1421.38
492.092	1423.38
492.31	1455.38
492.527	1430.38
492.745	1452.38
492.963	1412.38
493.18	1378.38
493.398	1395.38
493.615	1416.38
493.833	1380.38
494.05	1401.38
494.268	1439.38
494.485	1422.38
494.703	1383.38
494.92	1368.38
495.138	1386.38
495.355	1399.38
495.573	1441.38
495.79	1418.38
496.008	1428.38
496.225	1428.38
496.442	1436.38
496.66	1500.38
496.877	1534.38
497.094	1523.38
497.312	1489.38
497.529	1470.38
497.746	1498.38
497.963	1530.38
498.181	1540.38
498.398	1599.38
498.615	1620.38
498.832	1672.38
499.049	1783.38
499.267	1848.38
499.484	2004.38
499.701	2058.38
499.918	2137.38
500.135	2233.38
500.352	2357.38
500.569	2408.38
500.786	2366.38
501.003	2334.38
501.22	2225.38
501.437	2067.38
501.654	1909.38
501.871	1864.38
502.088	1783.38
502.305	1734.38
502.522	1657.38
502.739	1634.38
502.956	1595.38
503.172	1515.38
503.389	1477.38
503.606	1479.38
503.823	1475.38
504.04	1441.38
504.256	1437.38
504.473	1448.38
504.69	1432.38
504.907	1431.38
505.123	1401.38
505.34	1366.38
505.557	1293.38
505.773	1302.38
505.99	1284.38
506.207	1248.38
506.423	1285.38
506.64	1256.38
506.856	1250.38
507.073	1272.38
507.289	1266.38
507.506	1232.38
507.722	1196.38
507.939	1203.38
508.155	1235.38
508.372	1226.38
508.588	1179.38
508.805	1164.38
509.021	1195.38
509.238	1201.38
509.454	1249.38
509.67	1277.38
509.887	1225.38
510.103	1185.38
510.319	1185.38
510.536	1206.38
510.752	1160.38
510.968	1185.38
511.184	1130.38
511.401	1146.38
511.617	1131.38
511.833	1133.38
512.049	1122.38
512.265	1122.38
512.481	1116.38
512.698	1117.38
512.914	1124.38
513.13	1139.38
513.346	1124.38
513.562	1135.38
513.778	1128.38
513.994	1149.38
514.21	1175.38
514.426	1205.38
514.642	1195.38
514.858	1183.38
515.074	1156.38
515.29	1166.38
515.506	1149.38
515.721	1155.38
515.937	1163.38
516.153	1152.38
516.369	1187.38
516.585	1229.38
516.801	1184.38
517.016	1234.38
517.232	1265.38
517.448	1251.38
517.664	1290.38
517.879	1289.38
518.095	1247.38
518.311	1275.38
518.527	1251.38
518.742	1245.38
518.958	1221.38
519.173	1283.38
519.389	1212.38
519.605	1205.38
519.82	1191.38
520.036	1194.38
520.251	1156.38
520.467	1130.38
520.682	1124.38
520.898	1146.38
521.113	1139.38
521.329	1116.38
521.544	1102.38
521.76	1125.38
521.975	1119.38
522.19	1110.38
522.406	1137.38
522.621	1101.38
522.836	1081.38
523.052	1126.38
523.267	1076.38
523.482	1128.38
523.698	1113.38
523.913	1100.38
524.128	1114.38
524.343	1100.38
524.559	1139.38
524.774	1131.38
524.989	1123.38
525.204	1108.38
525.419	1110.38
525.634	1084.38
525.849	1109.38
526.064	1083.38
526.28	1081.38
526.495	1084.38
526.71	1060.38
526.925	1082.38
527.14	1113.38
527.355	1088.38
527.57	1102.38
527.785	1114.38
527.999	1123.38
528.214	1131.38
528.429	1136.38
528.644	1135.38
528.859	1182.38
529.074	1184.38
529.289	1164.38
529.503	1172.38
529.718	1179.38
529.933	1149.38
530.148	1139.38
530.363	1159.38
530.577	1160.38
530.792	1145.38
531.007	1151.38
531.221	1151.38
531.436	1157.38
531.651	1205.38
531.865	1188.38
532.08	1205.38
532.295	1243.38
532.509	1305.38
532.724	1256.38
532.938	1269.38
533.153	1339.38
533.367	1401.38
533.582	1399.38
533.796	1428.38
534.011	1368.38
534.225	1314.38
534.44	1307.38
534.654	1305.38
534.868	1279.38
535.083	1260.38
535.297	1268.38
535.511	1235.38
535.726	1237.38
535.94	1189.38
536.154	1184.38
536.369	1187.38
536.583	1169.38
536.797	1147.38
537.011	1141.38
537.225	1128.38
537.44	1126.38
537.654	1122.38
537.868	1078.38
538.082	1088.38
538.296	1077.38
538.51	1118.38
538.724	1118.38
538.938	1124.38
539.153	1122.38
539.367	1085.38
539.581	1078.38
539.795	1075.38
540.009	1050.38
540.222	1055.38
540.436	1047.38
540.65	1031.38
540.864	1085.38
541.078	1099.38
541.292	1167.38
541.506	1267.38
541.72	1317.38
541.934	1268.38
542.147	1196.38
542.361	1127.38
542.575	1094.38
542.789	1056.38
543.002	1050.38
543.216	1038.38
543.43	1032.38
543.644	1019.38
543.857	1050.38
544.071	1075.38
544.285	1064.38
544.498	1053.38
544.712	1077.38
544.925	1066.38
545.139	1070.38
545.352	1047.38
545.566	1092.38
545.779	1074.38
545.993	1085.38
546.206	1083.38
546.42	1079.38
546.633	1071.38
546.847	1077.38
547.06	1105.38
547.274	1089.38
547.487	1055.38
547.7	1074.38
547.914	1075.38
548.127	1057.38
548.34	1085.38
548.554	1053.38
548.767	1075.38
548.98	1095.38
549.193	1041.38
549.407	1069.38
549.62	1054.38
549.833	1088.38
550.046	1067.38
550.259	1092.38
550.473	1075.38
550.686	1076.38
550.899	1057.38
551.112	1066.38
551.325	1046.38
551.538	1052.38
551.751	1073.38
551.964	1029.38
552.177	1065.38
552.39	1075.38
552.603	1104.38
552.816	1145.38
553.029	1167.38
553.242	1180.38
553.455	1145.38
553.667	1173.38
553.88	1175.38
554.093	1153.38
554.306	1170.38
554.519	1175.38
554.732	1162.38
554.944	1218.38
555.157	1197.38
555.37	1219.38
555.583	1252.38
555.795	1312.38
556.008	1349.38
556.221	1419.38
556.433	1498.38
556.646	1516.38
556.859	1475.38
557.071	1483.38
557.284	1392.38
557.496	1411.38
557.709	1387.38
557.921	1405.38
558.134	1387.38
558.346	1422.38
558.559	1459.38
558.771	1478.38
558.984	1571.38
559.196	1565.38
559.409	1595.38
559.621	1495.38
559.833	1463.38
560.046	1393.38
560.258	1310.38
560.47	1301.38
560.683	1289.38
560.895	1250.38
561.107	1205.38
561.32	1165.38
561.532	1138.38
561.744	1114.38
561.956	1138.38
562.168	1085.38
562.381	1085.38
562.593	1083.38
562.805	1089.38
563.017	1075.38
563.229	1096.38
563.441	1124.38
563.653	1047.38
563.865	1050.38
564.077	1018.38
564.289	991.38
564.501	967.38
564.713	995.38
564.925	992.38
565.137	970.38
565.349	966.38
565.561	993.38
565.773	988.38
565.985	975.38
566.197	1007.38
566.408	1038.38
566.62	1066.38
566.832	1101.38
567.044	1112.38
567.255	1099.38
567.467	1085.38
567.679	1132.38
567.891	1148.38
568.102	1245.38
568.314	1413.38
568.526	1243.38
568.737	1119.38
568.949	1021.38
569.161	960.38
569.372	907.38
569.584	880.38
569.795	859.38
570.007	871.38
570.218	873.38
570.43	889.38
570.641	828.38
570.853	832.38
571.064	865.38
571.276	826.38
571.487	839.38
571.698	782.38
571.91	798.38
572.121	809.38
572.333	770.38
572.544	753.38
572.755	806.38
572.966	913.38
573.178	826.38
573.389	789.38
573.6	738.38
573.811	724.38
574.023	756.38
574.234	726.38
574.445	716.38
574.656	701.38
574.867	716.38
575.078	724.38
575.289	721.38
575.501	708.38
575.712	700.38
575.923	695.38
576.134	715.38
576.345	713.38
576.556	727.38
576.767	705.38
576.978	729.38
577.188	692.38
577.399	727.38
577.61	720.38
577.821	727.38
578.032	708.38
578.243	723.38
578.454	749.38
578.665	771.38
578.875	795.38
579.086	800.38
579.297	813.38
579.508	845.38
579.718	909.38
579.929	966.38
580.14	1072.38
580.35	1094.38
580.561	1095.38
580.772	981.38
580.982	938.38
581.193	865.38
581.403	877.38
581.614	843.38
581.825	830.38
582.035	789.38
582.246	741.38
582.456	741.38
582.667	739.38
582.877	700.38
583.087	707.38
583.298	687.38
583.508	658.38
583.719	638.38
583.929	662.38
584.139	655.38
584.35	639.38
584.56	620.38
584.77	623.38
584.981	611.38
585.191	605.38
585.401	603.38
585.611	580.38
585.821	576.38
586.032	587.38
586.242	587.38
586.452	563.38
586.662	564.38
586.872	567.38
587.082	563.38
587.292	553.38
587.502	550.38
587.713	546.38
587.923	549.38
588.133	554.38
588.343	541.38
588.553	523.38
588.762	525.38
588.972	540.38
589.182	533.38
589.392	545.38
589.602	535.38
589.812	507.38
590.022	498.38
590.232	513.38
590.441	498.38
590.651	509.38
590.861	499.38
591.071	529.38
591.281	517.38
591.49	509.38
591.7	529.38
591.91	515.38
592.119	491.38
592.329	516.38
592.539	544.38
592.748	531.38
592.958	537.38
593.167	535.38
593.377	549.38
593.587	567.38
593.796	552.38
594.006	542.38
594.215	542.38
594.424	526.38
594.634	525.38
594.843	519.38
595.053	511.38
595.262	496.38
595.472	496.38
595.681	488.38
595.89	507.38
596.1	495.38
596.309	486.38
596.518	481.38
596.727	465.38
596.937	477.38
597.146	471.38
597.355	460.38
597.564	454.38
597.774	453.38
597.983	427.38
598.192	458.38
598.401	445.38
598.61	444.38
598.819	452.38
599.028	432.38
599.237	424.38
599.446	437.38
599.655	431.38
599.864	427.38
600.073	413.38
600.282	401.38
600.491	433.38
600.7	437.38
600.909	411.38
601.118	420.38
601.327	419.38
601.536	434.38
601.745	450.38
601.953	456.38
602.162	505.38
602.371	458.38
602.58	410.38
602.789	423.38
602.997	417.38
603.206	430.38
603.415	412.38
603.623	417.38
603.832	411.38
604.041	413.38
604.249	397.38
604.458	410.38
604.666	403.38
604.875	415.38
605.084	410.38
605.292	429.38
605.501	408.38
605.709	427.38
605.918	423.38
606.126	409.38
606.334	418.38
606.543	422.38
606.751	447.38
606.96	498.38
607.168	513.38
607.376	445.38
607.585	431.38
607.793	420.38
608.001	421.38
608.21	404.38
608.418	418.38
608.626	401.38
608.834	412.38
609.043	415.38
609.251	408.38
609.459	378.38
609.667	413.38
609.875	389.38
610.083	392.38
610.291	391.38
610.499	388.38
610.707	385.38
610.916	393.38
611.124	388.38
611.332	382.38
611.54	391.38
611.748	377.38
611.955	394.38
612.163	374.38
612.371	365.38
612.579	383.38
612.787	399.38
612.995	393.38
613.203	383.38
613.411	382.38
613.618	376.38
613.826	376.38
614.034	386.38
614.242	379.38
614.449	373.38
614.657	379.38
614.865	361.38
615.072	363.38
615.28	374.38
615.488	394.38
615.695	370.38
615.903	396.38
616.111	379.38
616.318	360.38
616.526	371.38
616.733	370.38
616.941	363.38
617.148	375.38
617.356	372.38
617.563	359.38
617.771	373.38
617.978	363.38
618.185	348.38
618.393	353.38
618.6	384.38
618.807	372.38
619.015	346.38
619.222	372.38
619.429	372.38
619.637	344.38
619.844	348.38
620.051	363.38
620.258	344.38
620.466	343.38
620.673	337.38
620.88	365.38
621.087	348.38
621.294	332.38
621.501	351.38
621.708	351.38
621.915	327.38
622.122	350.38
622.329	339.38
622.536	332.38
622.743	355.38
622.95	341.38
623.157	335.38
623.364	343.38
623.571	330.38
623.778	342.38
623.985	332.38
624.192	337.38
624.399	324.38
624.606	346.38
624.812	340.38
625.019	324.38
625.226	344.38
625.433	337.38
625.639	311.38
625.846	317.38
626.053	313.38
626.259	314.38
626.466	299.38
626.673	307.38
626.879	303.38
627.086	305.38
627.293	323.38
627.499	316.38
627.706	303.38
627.912	321.38
628.119	305.38
628.325	312.38
628.532	320.38
628.738	305.38
628.945	306.38
629.151	312.38
629.357	299.38
629.564	296.38
629.77	292.38
629.976	317.38
630.183	301.38
630.389	297.38
630.595	287.38
630.802	305.38
631.008	311.38
631.214	304.38
631.42	276.38
631.627	282.38
631.833	307.38
632.039	289.38
632.245	285.38
632.451	322.38
632.657	293.38
632.863	309.38
633.069	315.38
633.275	299.38
633.481	299.38
633.688	303.38
633.893	288.38
634.099	291.38
634.305	290.38
634.511	306.38
634.717	289.38
634.923	294.38
635.129	316.38
635.335	340.38
635.541	320.38
635.747	304.38
635.952	315.38
636.158	288.38
636.364	294.38
636.57	294.38
636.775	296.38
636.981	288.38
637.187	290.38
637.392	286.38
637.598	289.38
637.804	277.38
638.009	292.38
638.215	285.38
638.421	293.38
638.626	299.38
638.832	309.38
639.037	299.38
639.243	280.38
639.448	306.38
639.654	299.38
639.859	305.38
640.065	303.38
640.27	314.38
640.475	310.38
640.681	300.38
640.886	303.38
641.091	300.38
641.297	297.38
641.502	300.38
641.707	299.38
641.913	289.38
642.118	316.38
642.323	309.38
642.528	323.38
642.733	322.38
642.939	330.38
643.144	342.38
643.349	341.38
643.554	358.38
643.759	347.38
643.964	381.38
644.169	379.38
644.374	408.38
644.579	432.38
644.784	465.38
644.989	504.38
645.194	548.38
645.399	616.38
645.604	630.38
645.809	519.38
646.014	443.38
646.219	395.38
646.423	378.38
646.628	341.38
646.833	334.38
647.038	333.38
647.243	300.38
647.447	301.38
647.652	285.38
647.857	297.38
648.062	289.38
648.266	289.38
648.471	263.38
648.676	277.38
648.88	265.38
649.085	269.38
649.289	282.38
649.494	264.38
649.698	246.38
649.903	251.38
650.107	241.38
650.312	239.38
650.516	258.38
650.721	263.38
650.925	239.38
651.13	239.38
651.334	244.38
651.539	221.38
651.743	221.38
651.947	229.38
652.152	224.38
652.356	224.38
652.56	210.38
652.764	262.38
652.969	225.38
653.173	235.38
653.377	203.38
653.581	191.38
653.785	201.38
653.99	206.38
654.194	227.38
654.398	200.38
654.602	181.38
654.806	192.38
655.01	200.38
655.214	208.38
655.418	185.38
655.622	202.38
655.826	205.38
656.03	208.38
656.234	226.38
656.438	219.38
656.642	219.38
656.846	212.38
657.049	187.38
657.253	205.38
657.457	194.38
657.661	179.38
657.865	165.38
658.068	176.38
658.272	159.38
658.476	163.38
658.68	143.38
658.883	131.38
659.087	140.38
659.291	148.38
659.494	129.38
659.698	132.38
659.901	127.38
660.105	120.38
660.309	122.38
660.512	129.38
660.716	105.38
660.919	111.38
661.123	114.38
661.326	109.38
661.53	97.38
661.733	105.38
661.936	89.38
662.14	96.38
662.343	98.38
662.546	93.38
662.75	99.38
662.953	96.38
663.156	92.38
663.36	95.38
663.563	93.38
663.766	93.38
663.969	91.38
664.173	89.38
664.376	95.38
664.579	87.38
664.782	73.38
664.985	78.38
665.188	77.38
665.391	91.38
665.594	88.38
665.797	87.38
666	90.38
666.203	81.38
666.406	68.38
666.609	88.38
666.812	100.38
667.015	93.38
667.218	92.38
667.421	80.38
667.624	81.38
667.827	75.38
668.03	75.38
668.232	75.38
668.435	85.38
668.638	79.38
668.841	90.38
669.043	91.38
669.246	85.38
669.449	76.38
669.651	86.38
669.854	88.38
670.057	82.38
670.259	75.38
670.462	76.38
670.665	81.38
670.867	83.38
671.07	82.38
671.272	82.38
671.475	76.38
671.677	81.38
671.88	66.38
672.082	85.38
672.284	82.38
672.487	83.38
672.689	82.38
672.892	89.38
