Data from SnStandardFlinnAPT0064_LampEnergy5.5_LIBS07252019.E.O._I.C._HRD10591_15-16-14-492.txt Node
Date: Thu Jul 25 15:16:14 EDT 2019
User: cochatt
Spectrometer: HR+D1059
Trigger mode: 1
Integration Time (sec): 1.000000E-1
Scans to average: 1
Electric dark correction enabled: true
Nonlinearity correction enabled: false
Boxcar width: 0
XAxis mode: Wavelengths
Number of Pixels in Spectrum: 2048
>>>>>Begin Spectral Data<<<<<
223.165	-12.38
223.4	-12.38
223.635	-12.38
223.869	-12.38
224.104	-19.38
224.338	-21.38
224.573	-22.38
224.808	-15.38
225.042	-10.38
225.277	7.62
225.511	-0.38
225.746	11.62
225.98	10.62
226.215	5.62
226.449	10.62
226.683	12.62
226.918	36.62
227.152	18.62
227.387	33.62
227.621	24.62
227.856	38.62
228.09	39.62
228.324	57.62
228.559	58.62
228.793	75.62
229.027	144.62
229.262	151.62
229.496	147.62
229.73	143.62
229.964	147.62
230.199	150.62
230.433	180.62
230.667	171.62
230.901	149.62
231.136	180.62
231.37	176.62
231.604	186.62
231.838	197.62
232.072	246.62
232.306	240.62
232.541	195.62
232.775	199.62
233.009	207.62
233.243	211.62
233.477	225.62
233.711	218.62
233.945	272.62
234.179	240.62
234.413	209.62
234.647	218.62
234.881	221.62
235.115	241.62
235.349	248.62
235.583	321.62
235.817	410.62
236.051	412.62
236.285	286.62
236.519	232.62
236.753	231.62
236.987	233.62
237.221	241.62
237.455	239.62
237.689	221.62
237.922	218.62
238.156	225.62
238.39	222.62
238.624	228.62
238.858	225.62
239.091	232.62
239.325	248.62
239.559	226.62
239.793	231.62
240.027	230.62
240.26	256.62
240.494	256.62
240.728	270.62
240.961	300.62
241.195	284.62
241.429	273.62
241.662	298.62
241.896	333.62
242.13	374.62
242.363	488.62
242.597	600.62
242.83	587.62
243.064	594.62
243.298	699.62
243.531	572.62
243.765	373.62
243.998	318.62
244.232	306.62
244.465	285.62
244.699	306.62
244.932	302.62
245.166	302.62
245.399	300.62
245.633	272.62
245.866	306.62
246.099	278.62
246.333	279.62
246.566	276.62
246.8	269.62
247.033	295.62
247.266	300.62
247.5	299.62
247.733	300.62
247.966	296.62
248.2	327.62
248.433	370.62
248.666	400.62
248.899	402.62
249.133	357.62
249.366	362.62
249.599	392.62
249.832	406.62
250.066	412.62
250.299	355.62
250.532	346.62
250.765	333.62
250.998	320.62
251.231	330.62
251.465	326.62
251.698	320.62
251.931	332.62
252.164	324.62
252.397	321.62
252.63	326.62
252.863	359.62
253.096	366.62
253.329	336.62
253.562	360.62
253.795	360.62
254.028	371.62
254.261	358.62
254.494	372.62
254.727	421.62
254.96	498.62
255.193	480.62
255.426	423.62
255.659	371.62
255.892	359.62
256.124	386.62
256.357	382.62
256.59	404.62
256.823	424.62
257.056	461.62
257.289	504.62
257.521	576.62
257.754	485.62
257.987	417.62
258.22	378.62
258.452	392.62
258.685	382.62
258.918	406.62
259.151	433.62
259.383	449.62
259.616	481.62
259.849	486.62
260.081	454.62
260.314	438.62
260.547	431.62
260.779	414.62
261.012	419.62
261.244	419.62
261.477	435.62
261.71	425.62
261.942	434.62
262.175	440.62
262.407	443.62
262.64	469.62
262.872	494.62
263.105	512.62
263.337	518.62
263.57	534.62
263.802	553.62
264.035	566.62
264.267	566.62
264.499	590.62
264.732	601.62
264.964	602.62
265.197	615.62
265.429	641.62
265.661	611.62
265.894	647.62
266.126	730.62
266.358	790.62
266.591	757.62
266.823	664.62
267.055	595.62
267.287	612.62
267.52	584.62
267.752	551.62
267.984	564.62
268.216	539.62
268.448	523.62
268.681	538.62
268.913	535.62
269.145	529.62
269.377	531.62
269.609	524.62
269.841	547.62
270.073	563.62
270.306	637.62
270.538	840.62
270.77	1191.62
271.002	1456.62
271.234	1079.62
271.466	730.62
271.698	630.62
271.93	596.62
272.162	544.62
272.394	546.62
272.626	542.62
272.858	534.62
273.09	541.62
273.322	537.62
273.553	510.62
273.785	516.62
274.017	525.62
274.249	507.62
274.481	517.62
274.713	502.62
274.945	522.62
275.176	507.62
275.408	517.62
275.64	536.62
275.872	530.62
276.104	542.62
276.335	536.62
276.567	543.62
276.799	525.62
277.031	534.62
277.262	581.62
277.494	576.62
277.726	616.62
277.957	702.62
278.189	764.62
278.421	733.62
278.652	668.62
278.884	655.62
279.115	618.62
279.347	610.62
279.579	594.62
279.81	586.62
280.042	607.62
280.273	586.62
280.505	616.62
280.736	635.62
280.968	644.62
281.199	676.62
281.431	783.62
281.662	773.62
281.894	701.62
282.125	632.62
282.356	678.62
282.588	689.62
282.819	674.62
283.051	718.62
283.282	792.62
283.513	963.62
283.745	1347.62
283.976	2120.62
284.207	3016.62
284.439	2644.62
284.67	1617.62
284.901	1330.62
285.132	1292.62
285.364	1226.62
285.595	980.62
285.826	915.62
286.057	1100.62
286.288	1466.62
286.52	1952.62
286.751	1804.62
286.982	1120.62
287.213	869.62
287.444	752.62
287.675	720.62
287.906	718.62
288.138	664.62
288.369	686.62
288.6	693.62
288.831	694.62
289.062	704.62
289.293	691.62
289.524	716.62
289.755	706.62
289.986	708.62
290.217	708.62
290.448	713.62
290.679	683.62
290.91	693.62
291.141	752.62
291.371	764.62
291.602	796.62
291.833	750.62
292.064	704.62
292.295	679.62
292.526	658.62
292.757	663.62
292.987	655.62
293.218	636.62
293.449	653.62
293.68	671.62
293.91	671.62
294.141	645.62
294.372	638.62
294.603	653.62
294.833	657.62
295.064	616.62
295.295	664.62
295.525	655.62
295.756	646.62
295.987	654.62
296.217	648.62
296.448	664.62
296.679	645.62
296.909	667.62
297.14	686.62
297.37	672.62
297.601	694.62
297.831	707.62
298.062	671.62
298.292	680.62
298.523	702.62
298.753	716.62
298.984	700.62
299.214	705.62
299.445	716.62
299.675	724.62
299.905	737.62
300.136	747.62
300.366	863.62
300.597	1096.62
300.827	1404.62
301.057	1870.62
301.288	1896.62
301.518	1243.62
301.748	974.62
301.979	910.62
302.209	891.62
302.439	894.62
302.669	951.62
302.9	1107.62
303.13	1503.62
303.36	2197.62
303.59	2893.62
303.82	2556.62
304.051	1554.62
304.281	1118.62
304.511	970.62
304.741	912.62
304.971	848.62
305.201	830.62
305.431	815.62
305.661	779.62
305.891	771.62
306.121	747.62
306.352	773.62
306.582	738.62
306.812	758.62
307.042	769.62
307.272	752.62
307.502	755.62
307.731	766.62
307.961	737.62
308.191	762.62
308.421	764.62
308.651	760.62
308.881	742.62
309.111	747.62
309.341	746.62
309.571	780.62
309.8	783.62
310.03	774.62
310.26	779.62
310.49	784.62
310.72	789.62
310.949	780.62
311.179	793.62
311.409	780.62
311.639	808.62
311.868	811.62
312.098	798.62
312.328	796.62
312.557	814.62
312.787	824.62
313.017	823.62
313.246	802.62
313.476	828.62
313.706	857.62
313.935	891.62
314.165	917.62
314.394	956.62
314.624	902.62
314.853	872.62
315.083	862.62
315.312	892.62
315.542	873.62
315.771	888.62
316.001	935.62
316.23	936.62
316.46	960.62
316.689	1036.62
316.919	1214.62
317.148	1752.62
317.377	2617.62
317.607	3856.62
317.836	3916.62
318.065	2348.62
318.295	1526.62
318.524	1258.62
318.753	1135.62
318.983	1044.62
319.212	994.62
319.441	959.62
319.67	950.62
319.9	913.62
320.129	917.62
320.358	955.62
320.587	932.62
320.816	958.62
321.046	944.62
321.275	964.62
321.504	930.62
321.733	961.62
321.962	992.62
322.191	1008.62
322.42	978.62
322.649	991.62
322.878	984.62
323.108	963.62
323.337	1009.62
323.566	1021.62
323.795	1030.62
324.024	1075.62
324.253	1088.62
324.482	1100.62
324.71	1155.62
324.939	1209.62
325.168	1225.62
325.397	1264.62
325.626	1522.62
325.855	2091.62
326.084	3219.62
326.313	4770.62
326.542	4966.62
326.77	3209.62
326.999	2116.62
327.228	1780.62
327.457	1730.62
327.686	1720.62
327.914	1824.62
328.143	2135.62
328.372	2482.62
328.6	2610.62
328.829	2441.62
329.058	2132.62
329.287	1940.62
329.515	1766.62
329.744	1658.62
329.972	1587.62
330.201	1480.62
330.43	1418.62
330.658	1431.62
330.887	1387.62
331.115	1342.62
331.344	1358.62
331.572	1352.62
331.801	1351.62
332.03	1384.62
332.258	1386.62
332.486	1450.62
332.715	1572.62
332.943	2011.62
333.172	2381.62
333.4	2347.62
333.629	1848.62
333.857	1698.62
334.085	1738.62
334.314	1794.62
334.542	1916.62
334.771	2207.62
334.999	2659.62
335.227	3208.62
335.455	3532.62
335.684	3267.62
335.912	2774.62
336.14	2420.62
336.369	2172.62
336.597	1999.62
336.825	1881.62
337.053	1760.62
337.281	1680.62
337.51	1562.62
337.738	1543.62
337.966	1457.62
338.194	1425.62
338.422	1370.62
338.65	1360.62
338.878	1323.62
339.106	1288.62
339.334	1293.62
339.562	1280.62
339.79	1230.62
340.018	1271.62
340.246	1229.62
340.474	1225.62
340.702	1222.62
340.93	1255.62
341.158	1198.62
341.386	1227.62
341.614	1226.62
341.842	1184.62
342.07	1155.62
342.298	1147.62
342.526	1122.62
342.754	1124.62
342.981	1109.62
343.209	1112.62
343.437	1123.62
343.665	1150.62
343.893	1150.62
344.12	1148.62
344.348	1138.62
344.576	1137.62
344.804	1114.62
345.031	1072.62
345.259	1071.62
345.487	1072.62
345.714	1089.62
345.942	1036.62
346.17	1041.62
346.397	1059.62
346.625	1048.62
346.853	1010.62
347.08	1024.62
347.308	998.62
347.535	1023.62
347.763	1066.62
347.99	1019.62
348.218	1052.62
348.445	1026.62
348.673	1026.62
348.9	1008.62
349.128	997.62
349.355	992.62
349.583	993.62
349.81	1040.62
350.037	985.62
350.265	995.62
350.492	1017.62
350.72	970.62
350.947	982.62
351.174	1010.62
351.402	978.62
351.629	998.62
351.856	996.62
352.083	990.62
352.311	1013.62
352.538	954.62
352.765	1012.62
352.992	986.62
353.22	992.62
353.447	991.62
353.674	987.62
353.901	998.62
354.128	980.62
354.355	969.62
354.583	975.62
354.81	976.62
355.037	991.62
355.264	1018.62
355.491	1026.62
355.718	993.62
355.945	1011.62
356.172	1006.62
356.399	978.62
356.626	1019.62
356.853	1046.62
357.08	1051.62
357.307	1040.62
357.534	1042.62
357.761	1070.62
357.988	1027.62
358.215	1053.62
358.441	1027.62
358.668	1016.62
358.895	1078.62
359.122	1088.62
359.349	1044.62
359.576	1018.62
359.802	1049.62
360.029	1030.62
360.256	1022.62
360.483	1060.62
360.709	1029.62
360.936	1087.62
361.163	1053.62
361.39	1075.62
361.616	1056.62
361.843	1046.62
362.07	1048.62
362.296	1029.62
362.523	1034.62
362.749	1069.62
362.976	1015.62
363.203	1064.62
363.429	1053.62
363.656	1068.62
363.882	1064.62
364.109	1051.62
364.335	1039.62
364.562	1088.62
364.788	1071.62
365.015	1044.62
365.241	1079.62
365.468	1142.62
365.694	1155.62
365.92	1143.62
366.147	1097.62
366.373	1068.62
366.599	1073.62
366.826	1071.62
367.052	1071.62
367.278	1108.62
367.505	1086.62
367.731	1070.62
367.957	1059.62
368.184	1081.62
368.41	1080.62
368.636	1133.62
368.862	1093.62
369.089	1099.62
369.315	1076.62
369.541	1109.62
369.767	1102.62
369.993	1098.62
370.219	1072.62
370.445	1081.62
370.672	1099.62
370.898	1076.62
371.124	1110.62
371.35	1119.62
371.576	1128.62
371.802	1155.62
372.028	1154.62
372.254	1122.62
372.48	1124.62
372.706	1147.62
372.932	1174.62
373.158	1171.62
373.384	1161.62
373.61	1154.62
373.835	1163.62
374.061	1172.62
374.287	1172.62
374.513	1160.62
374.739	1179.62
374.965	1184.62
375.191	1194.62
375.416	1174.62
375.642	1168.62
375.868	1197.62
376.094	1148.62
376.319	1164.62
376.545	1136.62
376.771	1175.62
376.997	1155.62
377.222	1133.62
377.448	1118.62
377.674	1172.62
377.899	1154.62
378.125	1157.62
378.35	1138.62
378.576	1127.62
378.802	1141.62
379.027	1175.62
379.253	1207.62
379.478	1244.62
379.704	1417.62
379.929	1886.62
380.155	2826.62
380.38	3017.62
380.606	1950.62
380.831	1422.62
381.057	1262.62
381.282	1204.62
381.507	1166.62
381.733	1150.62
381.958	1180.62
382.184	1124.62
382.409	1132.62
382.634	1108.62
382.86	1118.62
383.085	1144.62
383.31	1158.62
383.535	1157.62
383.761	1155.62
383.986	1137.62
384.211	1135.62
384.436	1137.62
384.662	1161.62
384.887	1173.62
385.112	1178.62
385.337	1161.62
385.562	1162.62
385.787	1151.62
386.013	1182.62
386.238	1144.62
386.463	1164.62
386.688	1139.62
386.913	1176.62
387.138	1162.62
387.363	1163.62
387.588	1176.62
387.813	1185.62
388.038	1136.62
388.263	1174.62
388.488	1154.62
388.713	1170.62
388.938	1181.62
389.163	1156.62
389.387	1145.62
389.612	1164.62
389.837	1173.62
390.062	1164.62
390.287	1177.62
390.512	1208.62
390.736	1204.62
390.961	1212.62
391.186	1195.62
391.411	1202.62
391.636	1235.62
391.86	1218.62
392.085	1206.62
392.31	1219.62
392.534	1170.62
392.759	1237.62
392.984	1188.62
393.208	1254.62
393.433	1260.62
393.658	1251.62
393.882	1207.62
394.107	1202.62
394.331	1204.62
394.556	1164.62
394.78	1184.62
395.005	1204.62
395.229	1193.62
395.454	1203.62
395.678	1222.62
395.903	1235.62
396.127	1201.62
396.352	1205.62
396.576	1205.62
396.801	1247.62
397.025	1249.62
397.249	1269.62
397.474	1231.62
397.698	1228.62
397.922	1237.62
398.147	1231.62
398.371	1280.62
398.595	1273.62
398.82	1306.62
399.044	1353.62
399.268	1419.62
399.492	1510.62
399.717	1532.62
399.941	1527.62
400.165	1463.62
400.389	1411.62
400.613	1365.62
400.837	1310.62
401.062	1311.62
401.286	1286.62
401.51	1302.62
401.734	1288.62
401.958	1308.62
402.182	1329.62
402.406	1302.62
402.63	1281.62
402.854	1301.62
403.078	1336.62
403.302	1312.62
403.526	1318.62
403.75	1384.62
403.974	1358.62
404.198	1319.62
404.422	1346.62
404.645	1308.62
404.869	1349.62
405.093	1332.62
405.317	1335.62
405.541	1356.62
405.765	1375.62
405.988	1368.62
406.212	1362.62
406.436	1416.62
406.66	1370.62
406.883	1438.62
407.107	1438.62
407.331	1409.62
407.555	1460.62
407.778	1446.62
408.002	1398.62
408.226	1412.62
408.449	1431.62
408.673	1379.62
408.896	1348.62
409.12	1358.62
409.344	1385.62
409.567	1342.62
409.791	1341.62
410.014	1311.62
410.238	1323.62
410.461	1322.62
410.685	1340.62
410.908	1316.62
411.132	1300.62
411.355	1285.62
411.578	1258.62
411.802	1269.62
412.025	1314.62
412.249	1301.62
412.472	1262.62
412.695	1243.62
412.919	1253.62
413.142	1263.62
413.365	1253.62
413.589	1248.62
413.812	1269.62
414.035	1220.62
414.258	1316.62
414.482	1249.62
414.705	1275.62
414.928	1255.62
415.151	1246.62
415.374	1259.62
415.597	1254.62
415.821	1219.62
416.044	1223.62
416.267	1179.62
416.49	1208.62
416.713	1238.62
416.936	1241.62
417.159	1227.62
417.382	1185.62
417.605	1226.62
417.828	1227.62
418.051	1252.62
418.274	1212.62
418.497	1223.62
418.72	1286.62
418.943	1249.62
419.166	1256.62
419.389	1375.62
419.611	1319.62
419.834	1313.62
420.057	1280.62
420.28	1237.62
420.503	1225.62
420.726	1202.62
420.948	1219.62
421.171	1219.62
421.394	1252.62
421.617	1226.62
421.839	1240.62
422.062	1255.62
422.285	1238.62
422.507	1239.62
422.73	1245.62
422.953	1284.62
423.175	1249.62
423.398	1243.62
423.621	1224.62
423.843	1226.62
424.066	1244.62
424.288	1244.62
424.511	1234.62
424.733	1220.62
424.956	1211.62
425.178	1234.62
425.401	1237.62
425.623	1224.62
425.846	1184.62
426.068	1172.62
426.291	1174.62
426.513	1153.62
426.735	1153.62
426.958	1186.62
427.18	1162.62
427.402	1131.62
427.625	1158.62
427.847	1126.62
428.069	1138.62
428.292	1170.62
428.514	1148.62
428.736	1116.62
428.958	1151.62
429.181	1129.62
429.403	1130.62
429.625	1123.62
429.847	1147.62
430.069	1137.62
430.292	1201.62
430.514	1173.62
430.736	1195.62
430.958	1146.62
431.18	1140.62
431.402	1110.62
431.624	1118.62
431.846	1107.62
432.068	1088.62
432.29	1118.62
432.512	1111.62
432.734	1132.62
432.956	1130.62
433.178	1143.62
433.4	1150.62
433.622	1132.62
433.844	1155.62
434.066	1132.62
434.287	1100.62
434.509	1138.62
434.731	1157.62
434.953	1178.62
435.175	1184.62
435.397	1187.62
435.618	1148.62
435.84	1137.62
436.062	1134.62
436.284	1128.62
436.505	1113.62
436.727	1096.62
436.949	1130.62
437.17	1128.62
437.392	1124.62
437.614	1096.62
437.835	1070.62
438.057	1056.62
438.278	1073.62
438.5	1124.62
438.721	1102.62
438.943	1138.62
439.165	1160.62
439.386	1148.62
439.608	1172.62
439.829	1164.62
440.05	1153.62
440.272	1217.62
440.493	1159.62
440.715	1184.62
440.936	1163.62
441.158	1183.62
441.379	1180.62
441.6	1233.62
441.822	1240.62
442.043	1267.62
442.264	1330.62
442.486	1246.62
442.707	1259.62
442.928	1187.62
443.149	1208.62
443.371	1174.62
443.592	1192.62
443.813	1230.62
444.034	1202.62
444.255	1239.62
444.476	1280.62
444.698	1281.62
444.919	1315.62
445.14	1380.62
445.361	1289.62
445.582	1249.62
445.803	1244.62
446.024	1215.62
446.245	1215.62
446.466	1226.62
446.687	1214.62
446.908	1190.62
447.129	1164.62
447.35	1167.62
447.571	1126.62
447.792	1123.62
448.013	1109.62
448.234	1078.62
448.455	1124.62
448.675	1110.62
448.896	1142.62
449.117	1144.62
449.338	1229.62
449.559	1316.62
449.779	1183.62
450	1137.62
450.221	1123.62
450.442	1096.62
450.662	1074.62
450.883	1054.62
451.104	1063.62
451.324	1083.62
451.545	1056.62
451.766	1086.62
451.986	1088.62
452.207	1164.62
452.428	1364.62
452.648	1887.62
452.869	1634.62
453.089	1244.62
453.31	1179.62
453.53	1178.62
453.751	1196.62
453.971	1263.62
454.192	1264.62
454.412	1126.62
454.633	1081.62
454.853	1082.62
455.073	1032.62
455.294	1035.62
455.514	1028.62
455.734	998.62
455.955	1006.62
456.175	1016.62
456.395	1041.62
456.616	1011.62
456.836	1043.62
457.056	1051.62
457.276	1034.62
457.497	1077.62
457.717	1099.62
457.937	1078.62
458.157	1099.62
458.377	1098.62
458.598	1070.62
458.818	1094.62
459.038	1074.62
459.258	1100.62
459.478	1123.62
459.698	1151.62
459.918	1138.62
460.138	1148.62
460.358	1204.62
460.578	1211.62
460.798	1225.62
461.018	1200.62
461.238	1213.62
461.458	1207.62
461.678	1210.62
461.898	1267.62
462.118	1290.62
462.338	1267.62
462.558	1266.62
462.777	1328.62
462.997	1367.62
463.217	1431.62
463.437	1434.62
463.657	1450.62
463.876	1452.62
464.096	1333.62
464.316	1362.62
464.536	1326.62
464.755	1287.62
464.975	1278.62
465.195	1205.62
465.414	1229.62
465.634	1175.62
465.854	1125.62
466.073	1116.62
466.293	1162.62
466.512	1150.62
466.732	1148.62
466.951	1210.62
467.171	1240.62
467.391	1255.62
467.61	1113.62
467.829	1096.62
468.049	1116.62
468.268	1098.62
468.488	1124.62
468.707	1094.62
468.927	1099.62
469.146	1074.62
469.365	1097.62
469.585	1144.62
469.804	1141.62
470.023	1172.62
470.243	1159.62
470.462	1171.62
470.681	1291.62
470.901	1330.62
471.12	1545.62
471.339	1536.62
471.558	1330.62
471.777	1200.62
471.997	1182.62
472.216	1119.62
472.435	1140.62
472.654	1103.62
472.873	1093.62
473.092	1115.62
473.311	1108.62
473.53	1112.62
473.749	1131.62
473.968	1174.62
474.187	1135.62
474.406	1118.62
474.625	1105.62
474.844	1116.62
475.063	1138.62
475.282	1141.62
475.501	1088.62
475.72	1138.62
475.939	1144.62
476.158	1147.62
476.377	1181.62
476.596	1142.62
476.814	1147.62
477.033	1168.62
477.252	1170.62
477.471	1186.62
477.69	1231.62
477.908	1242.62
478.127	1263.62
478.346	1283.62
478.564	1276.62
478.783	1284.62
479.002	1312.62
479.22	1348.62
479.439	1327.62
479.658	1298.62
479.876	1336.62
480.095	1306.62
480.313	1376.62
480.532	1345.62
480.751	1360.62
480.969	1342.62
481.188	1316.62
481.406	1313.62
481.624	1302.62
481.843	1281.62
482.061	1306.62
482.28	1296.62
482.498	1323.62
482.717	1320.62
482.935	1326.62
483.153	1370.62
483.372	1330.62
483.59	1395.62
483.808	1393.62
484.027	1435.62
484.245	1458.62
484.463	1634.62
484.681	1807.62
484.9	1646.62
485.118	1548.62
485.336	1506.62
485.554	1511.62
485.772	1637.62
485.99	1841.62
486.209	1947.62
486.427	1676.62
486.645	1526.62
486.863	1467.62
487.081	1465.62
487.299	1401.62
487.517	1438.62
487.735	1440.62
487.953	1414.62
488.171	1426.62
488.389	1390.62
488.607	1377.62
488.825	1366.62
489.043	1383.62
489.261	1355.62
489.479	1376.62
489.696	1364.62
489.914	1384.62
490.132	1413.62
490.35	1385.62
490.568	1406.62
490.786	1418.62
491.003	1450.62
491.221	1445.62
491.439	1451.62
491.657	1449.62
491.874	1458.62
492.092	1489.62
492.31	1510.62
492.527	1515.62
492.745	1511.62
492.963	1467.62
493.18	1479.62
493.398	1474.62
493.615	1488.62
493.833	1485.62
494.05	1423.62
494.268	1481.62
494.485	1500.62
494.703	1478.62
494.92	1477.62
495.138	1456.62
495.355	1472.62
495.573	1485.62
495.79	1445.62
496.008	1502.62
496.225	1488.62
496.442	1503.62
496.66	1523.62
496.877	1588.62
497.094	1569.62
497.312	1573.62
497.529	1586.62
497.746	1589.62
497.963	1629.62
498.181	1602.62
498.398	1699.62
498.615	1698.62
498.832	1766.62
499.049	1861.62
499.267	1944.62
499.484	2141.62
499.701	2137.62
499.918	2173.62
500.135	2325.62
500.352	2442.62
500.569	2459.62
500.786	2457.62
501.003	2387.62
501.22	2274.62
501.437	2089.62
501.654	1976.62
501.871	1945.62
502.088	1830.62
502.305	1778.62
502.522	1728.62
502.739	1681.62
502.956	1642.62
503.172	1569.62
503.389	1575.62
503.606	1516.62
503.823	1524.62
504.04	1502.62
504.256	1490.62
504.473	1496.62
504.69	1496.62
504.907	1496.62
505.123	1442.62
505.34	1444.62
505.557	1395.62
505.773	1353.62
505.99	1329.62
506.207	1323.62
506.423	1325.62
506.64	1328.62
506.856	1323.62
507.073	1296.62
507.289	1292.62
507.506	1292.62
507.722	1288.62
507.939	1313.62
508.155	1248.62
508.372	1269.62
508.588	1228.62
508.805	1254.62
509.021	1222.62
509.238	1256.62
509.454	1304.62
509.67	1395.62
509.887	1312.62
510.103	1259.62
510.319	1242.62
510.536	1234.62
510.752	1190.62
510.968	1232.62
511.184	1206.62
511.401	1200.62
511.617	1195.62
511.833	1199.62
512.049	1183.62
512.265	1167.62
512.481	1195.62
512.698	1164.62
512.914	1210.62
513.13	1179.62
513.346	1186.62
513.562	1166.62
513.778	1188.62
513.994	1183.62
514.21	1226.62
514.426	1252.62
514.642	1315.62
514.858	1248.62
515.074	1233.62
515.29	1195.62
515.506	1215.62
515.721	1231.62
515.937	1212.62
516.153	1230.62
516.369	1250.62
516.585	1263.62
516.801	1280.62
517.016	1327.62
517.232	1317.62
517.448	1282.62
517.664	1349.62
517.879	1361.62
518.095	1347.62
518.311	1347.62
518.527	1328.62
518.742	1321.62
518.958	1335.62
519.173	1347.62
519.389	1270.62
519.605	1275.62
519.82	1231.62
520.036	1215.62
520.251	1212.62
520.467	1194.62
520.682	1188.62
520.898	1167.62
521.113	1189.62
521.329	1152.62
521.544	1185.62
521.76	1169.62
521.975	1166.62
522.19	1154.62
522.406	1158.62
522.621	1152.62
522.836	1129.62
523.052	1173.62
523.267	1161.62
523.482	1140.62
523.698	1157.62
523.913	1162.62
524.128	1160.62
524.343	1145.62
524.559	1156.62
524.774	1180.62
524.989	1126.62
525.204	1170.62
525.419	1141.62
525.634	1148.62
525.849	1147.62
526.064	1150.62
526.28	1159.62
526.495	1127.62
526.71	1156.62
526.925	1118.62
527.14	1158.62
527.355	1154.62
527.57	1154.62
527.785	1134.62
527.999	1170.62
528.214	1177.62
528.429	1168.62
528.644	1204.62
528.859	1221.62
529.074	1253.62
529.289	1249.62
529.503	1243.62
529.718	1257.62
529.933	1224.62
530.148	1215.62
530.363	1203.62
530.577	1184.62
530.792	1178.62
531.007	1222.62
531.221	1185.62
531.436	1234.62
531.651	1208.62
531.865	1218.62
532.08	1264.62
532.295	1269.62
532.509	1352.62
532.724	1353.62
532.938	1370.62
533.153	1404.62
533.367	1509.62
533.582	1525.62
533.796	1536.62
534.011	1466.62
534.225	1473.62
534.44	1401.62
534.654	1383.62
534.868	1319.62
535.083	1336.62
535.297	1314.62
535.511	1300.62
535.726	1303.62
535.94	1281.62
536.154	1270.62
536.369	1211.62
536.583	1192.62
536.797	1185.62
537.011	1196.62
537.225	1182.62
537.44	1182.62
537.654	1191.62
537.868	1181.62
538.082	1121.62
538.296	1145.62
538.51	1124.62
538.724	1150.62
538.938	1144.62
539.153	1112.62
539.367	1118.62
539.581	1128.62
539.795	1113.62
540.009	1107.62
540.222	1072.62
540.436	1115.62
540.65	1117.62
540.864	1131.62
541.078	1150.62
541.292	1202.62
541.506	1411.62
541.72	1481.62
541.934	1304.62
542.147	1244.62
542.361	1163.62
542.575	1160.62
542.789	1131.62
543.002	1145.62
543.216	1090.62
543.43	1075.62
543.644	1080.62
543.857	1104.62
544.071	1112.62
544.285	1120.62
544.498	1104.62
544.712	1108.62
544.925	1132.62
545.139	1120.62
545.352	1100.62
545.566	1099.62
545.779	1118.62
545.993	1122.62
546.206	1146.62
546.42	1129.62
546.633	1113.62
546.847	1118.62
547.06	1129.62
547.274	1107.62
547.487	1122.62
547.7	1129.62
547.914	1126.62
548.127	1117.62
548.34	1125.62
548.554	1135.62
548.767	1116.62
548.98	1110.62
549.193	1136.62
549.407	1134.62
549.62	1146.62
549.833	1142.62
550.046	1108.62
550.259	1108.62
550.473	1099.62
550.686	1099.62
550.899	1135.62
551.112	1113.62
551.325	1139.62
551.538	1112.62
551.751	1072.62
551.964	1114.62
552.177	1112.62
552.39	1177.62
552.603	1181.62
552.816	1176.62
553.029	1208.62
553.242	1191.62
553.455	1226.62
553.667	1207.62
553.88	1225.62
554.093	1224.62
554.306	1219.62
554.519	1221.62
554.732	1272.62
554.944	1246.62
555.157	1251.62
555.37	1320.62
555.583	1342.62
555.795	1425.62
556.008	1453.62
556.221	1589.62
556.433	1656.62
556.646	1675.62
556.859	1591.62
557.071	1546.62
557.284	1513.62
557.496	1503.62
557.709	1479.62
557.921	1490.62
558.134	1483.62
558.346	1475.62
558.559	1554.62
558.771	1577.62
558.984	1668.62
559.196	1778.62
559.409	1720.62
559.621	1633.62
559.833	1542.62
560.046	1489.62
560.258	1422.62
560.47	1384.62
560.683	1362.62
560.895	1308.62
561.107	1239.62
561.32	1218.62
561.532	1202.62
561.744	1184.62
561.956	1175.62
562.168	1154.62
562.381	1143.62
562.593	1113.62
562.805	1099.62
563.017	1124.62
563.229	1136.62
563.441	1247.62
563.653	1097.62
563.865	1030.62
564.077	1032.62
564.289	1015.62
564.501	1024.62
564.713	1052.62
564.925	1040.62
565.137	1019.62
565.349	1004.62
565.561	994.62
565.773	1063.62
565.985	1016.62
566.197	1056.62
566.408	1093.62
566.62	1103.62
566.832	1142.62
567.044	1149.62
567.255	1152.62
567.467	1129.62
567.679	1160.62
567.891	1212.62
568.102	1350.62
568.314	1566.62
568.526	1305.62
568.737	1173.62
568.949	1047.62
569.161	994.62
569.372	979.62
569.584	949.62
569.795	923.62
570.007	921.62
570.218	928.62
570.43	930.62
570.641	883.62
570.853	867.62
571.064	858.62
571.276	849.62
571.487	844.62
571.698	833.62
571.91	814.62
572.121	822.62
572.333	839.62
572.544	807.62
572.755	882.62
572.966	1006.62
573.178	887.62
573.389	826.62
573.6	782.62
573.811	767.62
574.023	768.62
574.234	756.62
574.445	752.62
574.656	733.62
574.867	736.62
575.078	751.62
575.289	755.62
575.501	736.62
575.712	738.62
575.923	736.62
576.134	759.62
576.345	754.62
576.556	758.62
576.767	721.62
576.978	760.62
577.188	773.62
577.399	741.62
577.61	750.62
577.821	751.62
578.032	745.62
578.243	745.62
578.454	770.62
578.665	804.62
578.875	835.62
579.086	852.62
579.297	860.62
579.508	907.62
579.718	971.62
579.929	1048.62
580.14	1156.62
580.35	1194.62
580.561	1143.62
580.772	1084.62
580.982	987.62
581.193	969.62
581.403	922.62
581.614	871.62
581.825	872.62
582.035	823.62
582.246	824.62
582.456	790.62
582.667	770.62
582.877	740.62
583.087	740.62
583.298	700.62
583.508	675.62
583.719	669.62
583.929	674.62
584.139	649.62
584.35	665.62
584.56	661.62
584.77	628.62
584.981	599.62
585.191	626.62
585.401	614.62
585.611	609.62
585.821	596.62
586.032	606.62
586.242	597.62
586.452	588.62
586.662	599.62
586.872	559.62
587.082	580.62
587.292	583.62
587.502	561.62
587.713	590.62
587.923	569.62
588.133	568.62
588.343	575.62
588.553	564.62
588.762	551.62
588.972	551.62
589.182	570.62
589.392	559.62
589.602	539.62
589.812	546.62
590.022	547.62
590.232	524.62
590.441	529.62
590.651	536.62
590.861	544.62
591.071	522.62
591.281	557.62
591.49	538.62
591.7	539.62
591.91	542.62
592.119	519.62
592.329	536.62
592.539	550.62
592.748	543.62
592.958	564.62
593.167	568.62
593.377	545.62
593.587	575.62
593.796	576.62
594.006	575.62
594.215	574.62
594.424	568.62
594.634	556.62
594.843	549.62
595.053	558.62
595.262	540.62
595.472	529.62
595.681	493.62
595.89	521.62
596.1	506.62
596.309	499.62
596.518	463.62
596.727	482.62
596.937	467.62
597.146	467.62
597.355	485.62
597.564	447.62
597.774	472.62
597.983	469.62
598.192	469.62
598.401	441.62
598.61	440.62
598.819	446.62
599.028	441.62
599.237	430.62
599.446	431.62
599.655	440.62
599.864	455.62
600.073	439.62
600.282	432.62
600.491	437.62
600.7	416.62
600.909	457.62
601.118	438.62
601.327	454.62
601.536	452.62
601.745	459.62
601.953	472.62
602.162	550.62
602.371	489.62
602.58	456.62
602.789	448.62
602.997	438.62
603.206	425.62
603.415	406.62
603.623	442.62
603.832	438.62
604.041	421.62
604.249	418.62
604.458	428.62
604.666	415.62
604.875	424.62
605.084	413.62
605.292	430.62
605.501	422.62
605.709	432.62
605.918	430.62
606.126	422.62
606.334	439.62
606.543	446.62
606.751	456.62
606.96	491.62
607.168	563.62
607.376	467.62
607.585	463.62
607.793	442.62
608.001	431.62
608.21	432.62
608.418	432.62
608.626	419.62
608.834	414.62
609.043	419.62
609.251	405.62
609.459	390.62
609.667	395.62
609.875	408.62
610.083	399.62
610.291	404.62
610.499	404.62
610.707	387.62
610.916	402.62
611.124	382.62
611.332	388.62
611.54	404.62
611.748	400.62
611.955	398.62
612.163	385.62
612.371	374.62
612.579	396.62
612.787	384.62
612.995	412.62
613.203	393.62
613.411	384.62
613.618	395.62
613.826	373.62
614.034	383.62
614.242	386.62
614.449	395.62
614.657	387.62
614.865	379.62
615.072	390.62
615.28	394.62
615.488	391.62
615.695	397.62
615.903	378.62
616.111	386.62
616.318	408.62
616.526	382.62
616.733	406.62
616.941	377.62
617.148	377.62
617.356	362.62
617.563	380.62
617.771	390.62
617.978	376.62
618.185	376.62
618.393	362.62
618.6	384.62
618.807	402.62
619.015	377.62
619.222	379.62
619.429	372.62
619.637	373.62
619.844	341.62
620.051	355.62
620.258	367.62
620.466	352.62
620.673	347.62
620.88	346.62
621.087	325.62
621.294	345.62
621.501	359.62
621.708	353.62
621.915	352.62
622.122	351.62
622.329	358.62
622.536	350.62
622.743	352.62
622.95	353.62
623.157	345.62
623.364	350.62
623.571	348.62
623.778	376.62
623.985	354.62
624.192	352.62
624.399	330.62
624.606	356.62
624.812	335.62
625.019	357.62
625.226	335.62
625.433	344.62
625.639	328.62
625.846	306.62
626.053	308.62
626.259	312.62
626.466	321.62
626.673	316.62
626.879	330.62
627.086	326.62
627.293	329.62
627.499	332.62
627.706	333.62
627.912	326.62
628.119	339.62
628.325	328.62
628.532	322.62
628.738	332.62
628.945	316.62
629.151	305.62
629.357	298.62
629.564	300.62
629.77	305.62
629.976	295.62
630.183	286.62
630.389	309.62
630.595	320.62
630.802	297.62
631.008	296.62
631.214	292.62
631.42	291.62
631.627	293.62
631.833	284.62
632.039	319.62
632.245	294.62
632.451	293.62
632.657	299.62
632.863	295.62
633.069	294.62
633.275	299.62
633.481	288.62
633.688	289.62
633.893	300.62
634.099	295.62
634.305	297.62
634.511	309.62
634.717	308.62
634.923	320.62
635.129	344.62
635.335	373.62
635.541	324.62
635.747	322.62
635.952	304.62
636.158	319.62
636.364	306.62
636.57	299.62
636.775	312.62
636.981	302.62
637.187	288.62
637.392	296.62
637.598	286.62
637.804	304.62
638.009	297.62
638.215	304.62
638.421	299.62
638.626	302.62
638.832	307.62
639.037	294.62
639.243	315.62
639.448	310.62
639.654	306.62
639.859	310.62
640.065	323.62
640.27	319.62
640.475	311.62
640.681	309.62
640.886	285.62
641.091	290.62
641.297	322.62
641.502	319.62
641.707	325.62
641.913	322.62
642.118	312.62
642.323	334.62
642.528	336.62
642.733	346.62
642.939	347.62
643.144	330.62
643.349	356.62
643.554	378.62
643.759	398.62
643.964	395.62
644.169	386.62
644.374	426.62
644.579	441.62
644.784	510.62
644.989	545.62
645.194	603.62
645.399	705.62
645.604	729.62
645.809	581.62
646.014	487.62
646.219	432.62
646.423	394.62
646.628	364.62
646.833	350.62
647.038	313.62
647.243	318.62
647.447	314.62
647.652	311.62
647.857	300.62
648.062	311.62
648.266	296.62
648.471	283.62
648.676	270.62
648.88	281.62
649.085	274.62
649.289	274.62
649.494	272.62
649.698	257.62
649.903	266.62
650.107	244.62
650.312	246.62
650.516	249.62
650.721	246.62
650.925	230.62
651.13	237.62
651.334	239.62
651.539	239.62
651.743	223.62
651.947	229.62
652.152	237.62
652.356	219.62
652.56	256.62
652.764	272.62
652.969	246.62
653.173	234.62
653.377	202.62
653.581	204.62
653.785	216.62
653.99	204.62
654.194	211.62
654.398	202.62
654.602	193.62
654.806	196.62
655.01	213.62
655.214	204.62
655.418	182.62
655.622	209.62
655.826	212.62
656.03	214.62
656.234	227.62
656.438	219.62
656.642	230.62
656.846	215.62
657.049	207.62
657.253	207.62
657.457	186.62
657.661	180.62
657.865	171.62
658.068	165.62
658.272	154.62
658.476	161.62
658.68	149.62
658.883	127.62
659.087	134.62
659.291	142.62
659.494	124.62
659.698	133.62
659.901	131.62
660.105	122.62
660.309	130.62
660.512	112.62
660.716	105.62
660.919	118.62
661.123	98.62
661.326	113.62
661.53	102.62
661.733	120.62
661.936	94.62
662.14	89.62
662.343	96.62
662.546	91.62
662.75	86.62
662.953	98.62
663.156	75.62
663.36	96.62
663.563	98.62
663.766	86.62
663.969	94.62
664.173	84.62
664.376	92.62
664.579	70.62
664.782	79.62
664.985	99.62
665.188	102.62
665.391	83.62
665.594	72.62
665.797	78.62
666	88.62
666.203	95.62
666.406	80.62
666.609	71.62
666.812	89.62
667.015	84.62
667.218	90.62
667.421	83.62
667.624	82.62
667.827	83.62
668.03	87.62
668.232	89.62
668.435	98.62
668.638	78.62
668.841	90.62
669.043	84.62
669.246	91.62
669.449	91.62
669.651	93.62
669.854	85.62
670.057	95.62
670.259	90.62
670.462	85.62
670.665	71.62
670.867	77.62
671.07	87.62
671.272	69.62
671.475	89.62
671.677	61.62
671.88	75.62
672.082	70.62
672.284	85.62
672.487	79.62
672.689	80.62
672.892	78.62
