Data from SnStandardFlinnAPT0064_LampEnergy10_LIBS07252019.E.O._I.C._HRD10591_15-25-32-972.txt Node
Date: Thu Jul 25 15:25:32 EDT 2019
User: cochatt
Spectrometer: HR+D1059
Trigger mode: 1
Integration Time (sec): 1.000000E-1
Scans to average: 1
Electric dark correction enabled: true
Nonlinearity correction enabled: false
Boxcar width: 0
XAxis mode: Wavelengths
Number of Pixels in Spectrum: 2048
>>>>>Begin Spectral Data<<<<<
223.165	-18.94
223.4	-18.94
223.635	-18.94
223.869	-10.94
224.104	-14.94
224.338	-7.94
224.573	-24.94
224.808	-26.94
225.042	10.06
225.277	-7.94
225.511	-2.94
225.746	4.06
225.98	16.06
226.215	8.06
226.449	5.06
226.683	28.06
226.918	28.06
227.152	16.06
227.387	42.06
227.621	32.06
227.856	39.06
228.09	46.06
228.324	57.06
228.559	56.06
228.793	62.06
229.027	71.06
229.262	100.06
229.496	83.06
229.73	66.06
229.964	78.06
230.199	86.06
230.433	73.06
230.667	76.06
230.901	91.06
231.136	81.06
231.37	86.06
231.604	90.06
231.838	101.06
232.072	91.06
232.306	125.06
232.541	87.06
232.775	93.06
233.009	88.06
233.243	74.06
233.477	97.06
233.711	90.06
233.945	99.06
234.179	100.06
234.413	86.06
234.647	86.06
234.881	75.06
235.115	83.06
235.349	87.06
235.583	95.06
235.817	116.06
236.051	121.06
236.285	86.06
236.519	85.06
236.753	84.06
236.987	88.06
237.221	83.06
237.455	94.06
237.689	85.06
237.922	79.06
238.156	73.06
238.39	86.06
238.624	96.06
238.858	82.06
239.091	77.06
239.325	76.06
239.559	78.06
239.793	92.06
240.027	89.06
240.26	78.06
240.494	98.06
240.728	73.06
240.961	93.06
241.195	85.06
241.429	87.06
241.662	93.06
241.896	99.06
242.13	91.06
242.363	108.06
242.597	137.06
242.83	116.06
243.064	122.06
243.298	142.06
243.531	150.06
243.765	105.06
243.998	82.06
244.232	83.06
244.465	98.06
244.699	79.06
244.932	100.06
245.166	86.06
245.399	88.06
245.633	70.06
245.866	93.06
246.099	63.06
246.333	79.06
246.566	100.06
246.8	98.06
247.033	94.06
247.266	92.06
247.5	86.06
247.733	86.06
247.966	94.06
248.2	95.06
248.433	106.06
248.666	114.06
248.899	115.06
249.133	97.06
249.366	93.06
249.599	100.06
249.832	121.06
250.066	117.06
250.299	98.06
250.532	91.06
250.765	76.06
250.998	86.06
251.231	92.06
251.465	85.06
251.698	89.06
251.931	82.06
252.164	79.06
252.397	83.06
252.63	94.06
252.863	102.06
253.096	91.06
253.329	94.06
253.562	97.06
253.795	82.06
254.028	95.06
254.261	90.06
254.494	92.06
254.727	107.06
254.96	138.06
255.193	134.06
255.426	87.06
255.659	94.06
255.892	88.06
256.124	93.06
256.357	90.06
256.59	94.06
256.823	94.06
257.056	108.06
257.289	124.06
257.521	159.06
257.754	111.06
257.987	101.06
258.22	86.06
258.452	83.06
258.685	87.06
258.918	87.06
259.151	92.06
259.383	103.06
259.616	107.06
259.849	154.06
260.081	101.06
260.314	95.06
260.547	82.06
260.779	87.06
261.012	106.06
261.244	85.06
261.477	109.06
261.71	87.06
261.942	88.06
262.175	88.06
262.407	84.06
262.64	87.06
262.872	86.06
263.105	92.06
263.337	93.06
263.57	84.06
263.802	95.06
264.035	103.06
264.267	81.06
264.499	89.06
264.732	95.06
264.964	94.06
265.197	95.06
265.429	94.06
265.661	86.06
265.894	97.06
266.126	113.06
266.358	137.06
266.591	116.06
266.823	99.06
267.055	86.06
267.287	102.06
267.52	87.06
267.752	84.06
267.984	97.06
268.216	85.06
268.448	98.06
268.681	98.06
268.913	90.06
269.145	81.06
269.377	89.06
269.609	90.06
269.841	108.06
270.073	107.06
270.306	122.06
270.538	158.06
270.77	230.06
271.002	281.06
271.234	158.06
271.466	103.06
271.698	97.06
271.93	101.06
272.162	86.06
272.394	90.06
272.626	85.06
272.858	83.06
273.09	89.06
273.322	97.06
273.553	86.06
273.785	88.06
274.017	77.06
274.249	87.06
274.481	83.06
274.713	83.06
274.945	96.06
275.176	91.06
275.408	83.06
275.64	91.06
275.872	110.06
276.104	100.06
276.335	101.06
276.567	103.06
276.799	83.06
277.031	99.06
277.262	95.06
277.494	100.06
277.726	124.06
277.957	145.06
278.189	193.06
278.421	189.06
278.652	158.06
278.884	151.06
279.115	122.06
279.347	97.06
279.579	106.06
279.81	93.06
280.042	102.06
280.273	109.06
280.505	94.06
280.736	118.06
280.968	123.06
281.199	134.06
281.431	198.06
281.662	211.06
281.894	149.06
282.125	108.06
282.356	113.06
282.588	99.06
282.819	113.06
283.051	104.06
283.282	121.06
283.513	167.06
283.745	249.06
283.976	407.06
284.207	559.06
284.439	428.06
284.67	212.06
284.901	195.06
285.132	278.06
285.364	289.06
285.595	181.06
285.826	152.06
286.057	197.06
286.288	318.06
286.52	447.06
286.751	366.06
286.982	151.06
287.213	102.06
287.444	91.06
287.675	104.06
287.906	101.06
288.138	110.06
288.369	94.06
288.6	113.06
288.831	97.06
289.062	102.06
289.293	94.06
289.524	92.06
289.755	89.06
289.986	97.06
290.217	85.06
290.448	96.06
290.679	87.06
290.91	105.06
291.141	126.06
291.371	197.06
291.602	228.06
291.833	150.06
292.064	113.06
292.295	98.06
292.526	93.06
292.757	89.06
292.987	94.06
293.218	91.06
293.449	86.06
293.68	90.06
293.91	91.06
294.141	91.06
294.372	93.06
294.603	94.06
294.833	89.06
295.064	70.06
295.295	99.06
295.525	100.06
295.756	104.06
295.987	95.06
296.217	88.06
296.448	99.06
296.679	95.06
296.909	103.06
297.14	96.06
297.37	95.06
297.601	95.06
297.831	106.06
298.062	89.06
298.292	90.06
298.523	106.06
298.753	95.06
298.984	100.06
299.214	108.06
299.445	99.06
299.675	105.06
299.905	115.06
300.136	123.06
300.366	139.06
300.597	204.06
300.827	337.06
301.057	488.06
301.288	455.06
301.518	212.06
301.748	135.06
301.979	115.06
302.209	117.06
302.439	121.06
302.669	146.06
302.9	213.06
303.13	379.06
303.36	630.06
303.59	891.06
303.82	612.06
304.051	221.06
304.281	137.06
304.511	129.06
304.741	110.06
304.971	106.06
305.201	115.06
305.431	92.06
305.661	99.06
305.891	100.06
306.121	116.06
306.352	108.06
306.582	102.06
306.812	102.06
307.042	111.06
307.272	106.06
307.502	107.06
307.731	97.06
307.961	106.06
308.191	102.06
308.421	100.06
308.651	87.06
308.881	106.06
309.111	88.06
309.341	99.06
309.571	108.06
309.8	100.06
310.03	95.06
310.26	107.06
310.49	107.06
310.72	98.06
310.949	98.06
311.179	114.06
311.409	100.06
311.639	100.06
311.868	98.06
312.098	100.06
312.328	101.06
312.557	86.06
312.787	107.06
313.017	117.06
313.246	112.06
313.476	117.06
313.706	123.06
313.935	135.06
314.165	172.06
314.394	193.06
314.624	143.06
314.853	110.06
315.083	125.06
315.312	125.06
315.542	111.06
315.771	112.06
316.001	111.06
316.23	130.06
316.46	129.06
316.689	161.06
316.919	213.06
317.148	392.06
317.377	646.06
317.607	1023.06
317.836	958.06
318.065	391.06
318.295	185.06
318.524	129.06
318.753	131.06
318.983	129.06
319.212	118.06
319.441	119.06
319.67	104.06
319.9	110.06
320.129	109.06
320.358	121.06
320.587	110.06
320.816	121.06
321.046	119.06
321.275	118.06
321.504	125.06
321.733	144.06
321.962	151.06
322.191	145.06
322.42	139.06
322.649	124.06
322.878	117.06
323.108	109.06
323.337	121.06
323.566	117.06
323.795	122.06
324.024	114.06
324.253	134.06
324.482	150.06
324.71	179.06
324.939	236.06
325.168	201.06
325.397	174.06
325.626	198.06
325.855	362.06
326.084	661.06
326.313	1134.06
326.542	1073.06
326.77	436.06
326.999	218.06
327.228	175.06
327.457	200.06
327.686	188.06
327.914	137.06
328.143	135.06
328.372	126.06
328.6	117.06
328.829	103.06
329.058	104.06
329.287	112.06
329.515	111.06
329.744	113.06
329.972	121.06
330.201	103.06
330.43	121.06
330.658	103.06
330.887	113.06
331.115	120.06
331.344	111.06
331.572	101.06
331.801	100.06
332.03	114.06
332.258	115.06
332.486	142.06
332.715	222.06
332.943	369.06
333.172	558.06
333.4	475.06
333.629	192.06
333.857	143.06
334.085	113.06
334.314	106.06
334.542	121.06
334.771	117.06
334.999	117.06
335.227	114.06
335.455	108.06
335.684	121.06
335.912	105.06
336.14	108.06
336.369	113.06
336.597	120.06
336.825	109.06
337.053	101.06
337.281	113.06
337.51	90.06
337.738	108.06
337.966	88.06
338.194	83.06
338.422	108.06
338.65	108.06
338.878	105.06
339.106	118.06
339.334	115.06
339.562	103.06
339.79	111.06
340.018	108.06
340.246	104.06
340.474	121.06
340.702	103.06
340.93	97.06
341.158	102.06
341.386	105.06
341.614	106.06
341.842	103.06
342.07	115.06
342.298	96.06
342.526	101.06
342.754	118.06
342.981	117.06
343.209	114.06
343.437	90.06
343.665	98.06
343.893	109.06
344.12	111.06
344.348	92.06
344.576	95.06
344.804	110.06
345.031	109.06
345.259	104.06
345.487	99.06
345.714	100.06
345.942	118.06
346.17	116.06
346.397	106.06
346.625	92.06
346.853	106.06
347.08	104.06
347.308	96.06
347.535	108.06
347.763	102.06
347.99	87.06
348.218	104.06
348.445	87.06
348.673	115.06
348.9	127.06
349.128	124.06
349.355	120.06
349.583	109.06
349.81	114.06
350.037	107.06
350.265	117.06
350.492	119.06
350.72	112.06
350.947	110.06
351.174	112.06
351.402	97.06
351.629	113.06
351.856	109.06
352.083	103.06
352.311	125.06
352.538	101.06
352.765	102.06
352.992	101.06
353.22	115.06
353.447	101.06
353.674	115.06
353.901	105.06
354.128	104.06
354.355	99.06
354.583	99.06
354.81	101.06
355.037	93.06
355.264	94.06
355.491	108.06
355.718	95.06
355.945	98.06
356.172	88.06
356.399	101.06
356.626	97.06
356.853	106.06
357.08	107.06
357.307	108.06
357.534	116.06
357.761	102.06
357.988	109.06
358.215	109.06
358.441	99.06
358.668	97.06
358.895	100.06
359.122	103.06
359.349	127.06
359.576	111.06
359.802	106.06
360.029	101.06
360.256	93.06
360.483	104.06
360.709	98.06
360.936	110.06
361.163	92.06
361.39	116.06
361.616	93.06
361.843	96.06
362.07	111.06
362.296	112.06
362.523	98.06
362.749	92.06
362.976	86.06
363.203	109.06
363.429	101.06
363.656	103.06
363.882	94.06
364.109	114.06
364.335	101.06
364.562	98.06
364.788	99.06
365.015	100.06
365.241	111.06
365.468	171.06
365.694	212.06
365.92	175.06
366.147	116.06
366.373	105.06
366.599	98.06
366.826	87.06
367.052	83.06
367.278	116.06
367.505	103.06
367.731	109.06
367.957	107.06
368.184	93.06
368.41	105.06
368.636	101.06
368.862	99.06
369.089	104.06
369.315	108.06
369.541	106.06
369.767	100.06
369.993	110.06
370.219	110.06
370.445	114.06
370.672	90.06
370.898	90.06
371.124	110.06
371.35	106.06
371.576	98.06
371.802	97.06
372.028	111.06
372.254	101.06
372.48	113.06
372.706	104.06
372.932	108.06
373.158	112.06
373.384	104.06
373.61	122.06
373.835	101.06
374.061	105.06
374.287	95.06
374.513	102.06
374.739	102.06
374.965	115.06
375.191	99.06
375.416	102.06
375.642	101.06
375.868	101.06
376.094	108.06
376.319	104.06
376.545	104.06
376.771	96.06
376.997	98.06
377.222	114.06
377.448	92.06
377.674	101.06
377.899	105.06
378.125	93.06
378.35	117.06
378.576	106.06
378.802	97.06
379.027	114.06
379.253	117.06
379.478	145.06
379.704	229.06
379.929	569.06
380.155	1097.06
380.38	1148.06
380.606	387.06
380.831	165.06
381.057	120.06
381.282	103.06
381.507	107.06
381.733	110.06
381.958	115.06
382.184	116.06
382.409	109.06
382.634	95.06
382.86	98.06
383.085	103.06
383.31	106.06
383.535	115.06
383.761	106.06
383.986	97.06
384.211	97.06
384.436	108.06
384.662	97.06
384.887	101.06
385.112	91.06
385.337	98.06
385.562	103.06
385.787	105.06
386.013	101.06
386.238	107.06
386.463	120.06
386.688	98.06
386.913	101.06
387.138	91.06
387.363	105.06
387.588	115.06
387.813	103.06
388.038	115.06
388.263	97.06
388.488	106.06
388.713	109.06
388.938	115.06
389.163	103.06
389.387	102.06
389.612	108.06
389.837	103.06
390.062	106.06
390.287	102.06
390.512	98.06
390.736	98.06
390.961	101.06
391.186	91.06
391.411	106.06
391.636	87.06
391.86	102.06
392.085	95.06
392.31	91.06
392.534	100.06
392.759	89.06
392.984	105.06
393.208	110.06
393.433	127.06
393.658	122.06
393.882	95.06
394.107	92.06
394.331	89.06
394.556	104.06
394.78	101.06
395.005	94.06
395.229	96.06
395.454	117.06
395.678	110.06
395.903	110.06
396.127	98.06
396.352	98.06
396.576	102.06
396.801	111.06
397.025	108.06
397.249	108.06
397.474	106.06
397.698	97.06
397.922	92.06
398.147	100.06
398.371	78.06
398.595	82.06
398.82	93.06
399.044	85.06
399.268	101.06
399.492	79.06
399.717	103.06
399.941	95.06
400.165	83.06
400.389	102.06
400.613	102.06
400.837	104.06
401.062	87.06
401.286	81.06
401.51	98.06
401.734	97.06
401.958	81.06
402.182	111.06
402.406	96.06
402.63	84.06
402.854	92.06
403.078	97.06
403.302	87.06
403.526	99.06
403.75	85.06
403.974	105.06
404.198	93.06
404.422	103.06
404.645	93.06
404.869	97.06
405.093	95.06
405.317	107.06
405.541	91.06
405.765	105.06
405.988	123.06
406.212	105.06
406.436	93.06
406.66	99.06
406.883	98.06
407.107	98.06
407.331	93.06
407.555	95.06
407.778	107.06
408.002	97.06
408.226	101.06
408.449	95.06
408.673	95.06
408.896	105.06
409.12	98.06
409.344	97.06
409.567	77.06
409.791	89.06
410.014	105.06
410.238	107.06
410.461	110.06
410.685	107.06
410.908	109.06
411.132	106.06
411.355	92.06
411.578	89.06
411.802	101.06
412.025	88.06
412.249	88.06
412.472	94.06
412.695	99.06
412.919	100.06
413.142	107.06
413.365	81.06
413.589	102.06
413.812	102.06
414.035	94.06
414.258	103.06
414.482	89.06
414.705	87.06
414.928	110.06
415.151	105.06
415.374	95.06
415.597	110.06
415.821	88.06
416.044	100.06
416.267	97.06
416.49	98.06
416.713	88.06
416.936	94.06
417.159	98.06
417.382	92.06
417.605	100.06
417.828	99.06
418.051	100.06
418.274	91.06
418.497	82.06
418.72	109.06
418.943	97.06
419.166	107.06
419.389	104.06
419.611	114.06
419.834	101.06
420.057	88.06
420.28	92.06
420.503	100.06
420.726	95.06
420.948	101.06
421.171	79.06
421.394	95.06
421.617	107.06
421.839	103.06
422.062	94.06
422.285	73.06
422.507	97.06
422.73	108.06
422.953	128.06
423.175	91.06
423.398	93.06
423.621	94.06
423.843	82.06
424.066	98.06
424.288	101.06
424.511	106.06
424.733	101.06
424.956	96.06
425.178	111.06
425.401	84.06
425.623	89.06
425.846	99.06
426.068	91.06
426.291	88.06
426.513	96.06
426.735	87.06
426.958	81.06
427.18	104.06
427.402	93.06
427.625	103.06
427.847	87.06
428.069	93.06
428.292	93.06
428.514	106.06
428.736	107.06
428.958	113.06
429.181	88.06
429.403	101.06
429.625	87.06
429.847	107.06
430.069	97.06
430.292	123.06
430.514	113.06
430.736	99.06
430.958	98.06
431.18	106.06
431.402	105.06
431.624	83.06
431.846	79.06
432.068	83.06
432.29	111.06
432.512	95.06
432.734	101.06
432.956	98.06
433.178	89.06
433.4	85.06
433.622	97.06
433.844	100.06
434.066	84.06
434.287	91.06
434.509	101.06
434.731	100.06
434.953	108.06
435.175	89.06
435.397	105.06
435.618	94.06
435.84	84.06
436.062	83.06
436.284	70.06
436.505	88.06
436.727	89.06
436.949	85.06
437.17	97.06
437.392	89.06
437.614	83.06
437.835	75.06
438.057	74.06
438.278	76.06
438.5	88.06
438.721	89.06
438.943	104.06
439.165	106.06
439.386	105.06
439.608	97.06
439.829	113.06
440.05	113.06
440.272	100.06
440.493	94.06
440.715	98.06
440.936	95.06
441.158	104.06
441.379	107.06
441.6	91.06
441.822	105.06
442.043	94.06
442.264	142.06
442.486	119.06
442.707	99.06
442.928	100.06
443.149	95.06
443.371	93.06
443.592	94.06
443.813	98.06
444.034	87.06
444.255	94.06
444.476	79.06
444.698	95.06
444.919	86.06
445.14	221.06
445.361	164.06
445.582	99.06
445.803	87.06
446.024	96.06
446.245	112.06
446.466	110.06
446.687	107.06
446.908	86.06
447.129	101.06
447.35	98.06
447.571	102.06
447.792	100.06
448.013	87.06
448.234	89.06
448.455	100.06
448.675	102.06
448.896	93.06
449.117	97.06
449.338	133.06
449.559	129.06
449.779	105.06
450	103.06
450.221	99.06
450.442	98.06
450.662	100.06
450.883	90.06
451.104	109.06
451.324	119.06
451.545	111.06
451.766	100.06
451.986	113.06
452.207	179.06
452.428	422.06
452.648	990.06
452.869	572.06
453.089	172.06
453.31	120.06
453.53	98.06
453.751	118.06
453.971	144.06
454.192	137.06
454.412	128.06
454.633	96.06
454.853	95.06
455.073	95.06
455.294	101.06
455.514	103.06
455.734	92.06
455.955	94.06
456.175	102.06
456.395	94.06
456.616	84.06
456.836	89.06
457.056	82.06
457.276	93.06
457.497	98.06
457.717	121.06
457.937	114.06
458.157	88.06
458.377	105.06
458.598	88.06
458.818	84.06
459.038	93.06
459.258	85.06
459.478	79.06
459.698	87.06
459.918	91.06
460.138	91.06
460.358	106.06
460.578	97.06
460.798	103.06
461.018	102.06
461.238	95.06
461.458	86.06
461.678	85.06
461.898	93.06
462.118	93.06
462.338	89.06
462.558	87.06
462.777	97.06
462.997	94.06
463.217	105.06
463.437	113.06
463.657	155.06
463.876	169.06
464.096	119.06
464.316	101.06
464.536	94.06
464.755	101.06
464.975	98.06
465.195	86.06
465.414	96.06
465.634	85.06
465.854	89.06
466.073	93.06
466.293	105.06
466.512	99.06
466.732	89.06
466.951	113.06
467.171	125.06
467.391	126.06
467.61	121.06
467.829	83.06
468.049	103.06
468.268	100.06
468.488	101.06
468.707	87.06
468.927	92.06
469.146	116.06
469.365	86.06
469.585	85.06
469.804	86.06
470.023	102.06
470.243	99.06
470.462	109.06
470.681	117.06
470.901	125.06
471.12	159.06
471.339	177.06
471.558	110.06
471.777	121.06
471.997	105.06
472.216	97.06
472.435	92.06
472.654	97.06
472.873	83.06
473.092	100.06
473.311	85.06
473.53	102.06
473.749	91.06
473.968	81.06
474.187	94.06
474.406	88.06
474.625	101.06
474.844	102.06
475.063	94.06
475.282	104.06
475.501	99.06
475.72	120.06
475.939	101.06
476.158	86.06
476.377	113.06
476.596	104.06
476.814	87.06
477.033	105.06
477.252	99.06
477.471	93.06
477.69	102.06
477.908	97.06
478.127	99.06
478.346	107.06
478.564	88.06
478.783	99.06
479.002	97.06
479.22	100.06
479.439	98.06
479.658	108.06
479.876	92.06
480.095	102.06
480.313	98.06
480.532	104.06
480.751	97.06
480.969	109.06
481.188	102.06
481.406	87.06
481.624	109.06
481.843	116.06
482.061	107.06
482.28	107.06
482.498	115.06
482.717	99.06
482.935	98.06
483.153	92.06
483.372	106.06
483.59	107.06
483.808	95.06
484.027	119.06
484.245	114.06
484.463	156.06
484.681	173.06
484.9	127.06
485.118	93.06
485.336	110.06
485.554	100.06
485.772	101.06
485.99	158.06
486.209	203.06
486.427	127.06
486.645	107.06
486.863	106.06
487.081	106.06
487.299	101.06
487.517	98.06
487.735	97.06
487.953	110.06
488.171	106.06
488.389	108.06
488.607	102.06
488.825	93.06
489.043	102.06
489.261	96.06
489.479	80.06
489.696	102.06
489.914	105.06
490.132	89.06
490.35	101.06
490.568	97.06
490.786	120.06
491.003	100.06
491.221	109.06
491.439	105.06
491.657	106.06
491.874	101.06
492.092	90.06
492.31	92.06
492.527	116.06
492.745	101.06
492.963	106.06
493.18	108.06
493.398	98.06
493.615	102.06
493.833	106.06
494.05	104.06
494.268	103.06
494.485	102.06
494.703	100.06
494.92	99.06
495.138	100.06
495.355	106.06
495.573	107.06
495.79	101.06
496.008	100.06
496.225	101.06
496.442	111.06
496.66	122.06
496.877	153.06
497.094	145.06
497.312	105.06
497.529	90.06
497.746	85.06
497.963	109.06
498.181	104.06
498.398	97.06
498.615	94.06
498.832	95.06
499.049	103.06
499.267	114.06
499.484	147.06
499.701	115.06
499.918	95.06
500.135	105.06
500.352	94.06
500.569	103.06
500.786	115.06
501.003	104.06
501.22	93.06
501.437	92.06
501.654	93.06
501.871	96.06
502.088	97.06
502.305	94.06
502.522	87.06
502.739	86.06
502.956	102.06
503.172	99.06
503.389	102.06
503.606	101.06
503.823	97.06
504.04	94.06
504.256	97.06
504.473	90.06
504.69	114.06
504.907	106.06
505.123	111.06
505.34	102.06
505.557	91.06
505.773	106.06
505.99	94.06
506.207	107.06
506.423	96.06
506.64	100.06
506.856	108.06
507.073	99.06
507.289	102.06
507.506	89.06
507.722	79.06
507.939	95.06
508.155	99.06
508.372	109.06
508.588	100.06
508.805	107.06
509.021	83.06
509.238	96.06
509.454	110.06
509.67	120.06
509.887	108.06
510.103	97.06
510.319	100.06
510.536	96.06
510.752	91.06
510.968	102.06
511.184	104.06
511.401	95.06
511.617	111.06
511.833	94.06
512.049	104.06
512.265	99.06
512.481	98.06
512.698	90.06
512.914	107.06
513.13	109.06
513.346	96.06
513.562	95.06
513.778	86.06
513.994	103.06
514.21	91.06
514.426	131.06
514.642	154.06
514.858	109.06
515.074	106.06
515.29	105.06
515.506	93.06
515.721	87.06
515.937	101.06
516.153	92.06
516.369	94.06
516.585	109.06
516.801	89.06
517.016	87.06
517.232	95.06
517.448	95.06
517.664	96.06
517.879	99.06
518.095	101.06
518.311	99.06
518.527	106.06
518.742	109.06
518.958	96.06
519.173	148.06
519.389	122.06
519.605	85.06
519.82	87.06
520.036	99.06
520.251	93.06
520.467	101.06
520.682	101.06
520.898	97.06
521.113	84.06
521.329	91.06
521.544	92.06
521.76	85.06
521.975	103.06
522.19	102.06
522.406	108.06
522.621	93.06
522.836	80.06
523.052	89.06
523.267	88.06
523.482	87.06
523.698	90.06
523.913	89.06
524.128	102.06
524.343	100.06
524.559	102.06
524.774	95.06
524.989	97.06
525.204	94.06
525.419	106.06
525.634	110.06
525.849	95.06
526.064	98.06
526.28	93.06
526.495	99.06
526.71	105.06
526.925	110.06
527.14	103.06
527.355	85.06
527.57	92.06
527.785	109.06
527.999	90.06
528.214	101.06
528.429	98.06
528.644	97.06
528.859	89.06
529.074	103.06
529.289	108.06
529.503	101.06
529.718	101.06
529.933	108.06
530.148	93.06
530.363	106.06
530.577	79.06
530.792	95.06
531.007	97.06
531.221	90.06
531.436	97.06
531.651	88.06
531.865	96.06
532.08	97.06
532.295	106.06
532.509	122.06
532.724	105.06
532.938	99.06
533.153	98.06
533.367	96.06
533.582	101.06
533.796	110.06
534.011	86.06
534.225	104.06
534.44	108.06
534.654	98.06
534.868	101.06
535.083	88.06
535.297	93.06
535.511	94.06
535.726	90.06
535.94	95.06
536.154	100.06
536.369	98.06
536.583	98.06
536.797	98.06
537.011	85.06
537.225	85.06
537.44	87.06
537.654	99.06
537.868	92.06
538.082	78.06
538.296	109.06
538.51	103.06
538.724	90.06
538.938	101.06
539.153	118.06
539.367	109.06
539.581	97.06
539.795	108.06
540.009	83.06
540.222	102.06
540.436	98.06
540.65	92.06
540.864	115.06
541.078	105.06
541.292	125.06
541.506	166.06
541.72	169.06
541.934	114.06
542.147	100.06
542.361	105.06
542.575	106.06
542.789	85.06
543.002	89.06
543.216	88.06
543.43	97.06
543.644	97.06
543.857	96.06
544.071	91.06
544.285	118.06
544.498	99.06
544.712	123.06
544.925	108.06
545.139	87.06
545.352	97.06
545.566	108.06
545.779	101.06
545.993	106.06
546.206	100.06
546.42	107.06
546.633	101.06
546.847	102.06
547.06	123.06
547.274	108.06
547.487	108.06
547.7	103.06
547.914	101.06
548.127	115.06
548.34	107.06
548.554	102.06
548.767	106.06
548.98	91.06
549.193	94.06
549.407	100.06
549.62	108.06
549.833	99.06
550.046	106.06
550.259	105.06
550.473	107.06
550.686	111.06
550.899	121.06
551.112	113.06
551.325	85.06
551.538	113.06
551.751	101.06
551.964	113.06
552.177	89.06
552.39	99.06
552.603	100.06
552.816	109.06
553.029	96.06
553.242	98.06
553.455	106.06
553.667	113.06
553.88	115.06
554.093	99.06
554.306	117.06
554.519	106.06
554.732	113.06
554.944	107.06
555.157	101.06
555.37	100.06
555.583	101.06
555.795	106.06
556.008	100.06
556.221	142.06
556.433	129.06
556.646	115.06
556.859	95.06
557.071	114.06
557.284	117.06
557.496	105.06
557.709	97.06
557.921	110.06
558.134	91.06
558.346	88.06
558.559	97.06
558.771	105.06
558.984	97.06
559.196	101.06
559.409	114.06
559.621	103.06
559.833	94.06
560.046	93.06
560.258	107.06
560.47	122.06
560.683	101.06
560.895	89.06
561.107	97.06
561.32	101.06
561.532	114.06
561.744	101.06
561.956	108.06
562.168	93.06
562.381	109.06
562.593	115.06
562.805	139.06
563.017	160.06
563.229	200.06
563.441	427.06
563.653	175.06
563.865	123.06
564.077	105.06
564.289	110.06
564.501	101.06
564.713	91.06
564.925	88.06
565.137	99.06
565.349	98.06
565.561	103.06
565.773	91.06
565.985	95.06
566.197	88.06
566.408	107.06
566.62	102.06
566.832	102.06
567.044	99.06
567.255	90.06
567.467	108.06
567.679	105.06
567.891	114.06
568.102	143.06
568.314	197.06
568.526	128.06
568.737	107.06
568.949	112.06
569.161	86.06
569.372	89.06
569.584	99.06
569.795	97.06
570.007	94.06
570.218	124.06
570.43	139.06
570.641	105.06
570.853	85.06
571.064	93.06
571.276	103.06
571.487	96.06
571.698	92.06
571.91	100.06
572.121	83.06
572.333	93.06
572.544	91.06
572.755	121.06
572.966	164.06
573.178	121.06
573.389	98.06
573.6	83.06
573.811	92.06
574.023	95.06
574.234	90.06
574.445	115.06
574.656	92.06
574.867	95.06
575.078	86.06
575.289	93.06
575.501	93.06
575.712	91.06
575.923	92.06
576.134	77.06
576.345	97.06
576.556	91.06
576.767	86.06
576.978	105.06
577.188	94.06
577.399	90.06
577.61	112.06
577.821	87.06
578.032	92.06
578.243	89.06
578.454	98.06
578.665	96.06
578.875	98.06
579.086	89.06
579.297	103.06
579.508	96.06
579.718	91.06
579.929	94.06
580.14	82.06
580.35	84.06
580.561	91.06
580.772	102.06
580.982	95.06
581.193	74.06
581.403	101.06
581.614	88.06
581.825	101.06
582.035	97.06
582.246	104.06
582.456	80.06
582.667	89.06
582.877	104.06
583.087	112.06
583.298	86.06
583.508	113.06
583.719	83.06
583.929	103.06
584.139	95.06
584.35	88.06
584.56	95.06
584.77	94.06
584.981	92.06
585.191	83.06
585.401	89.06
585.611	99.06
585.821	97.06
586.032	74.06
586.242	90.06
586.452	93.06
586.662	89.06
586.872	98.06
587.082	93.06
587.292	89.06
587.502	82.06
587.713	79.06
587.923	91.06
588.133	85.06
588.343	100.06
588.553	89.06
588.762	102.06
588.972	102.06
589.182	121.06
589.392	115.06
589.602	95.06
589.812	110.06
590.022	107.06
590.232	102.06
590.441	92.06
590.651	84.06
590.861	91.06
591.071	91.06
591.281	103.06
591.49	98.06
591.7	89.06
591.91	93.06
592.119	99.06
592.329	92.06
592.539	95.06
592.748	86.06
592.958	86.06
593.167	86.06
593.377	100.06
593.587	104.06
593.796	91.06
594.006	88.06
594.215	90.06
594.424	99.06
594.634	88.06
594.843	79.06
595.053	81.06
595.262	77.06
595.472	101.06
595.681	90.06
595.89	99.06
596.1	95.06
596.309	102.06
596.518	79.06
596.727	98.06
596.937	102.06
597.146	96.06
597.355	95.06
597.564	86.06
597.774	92.06
597.983	92.06
598.192	90.06
598.401	93.06
598.61	82.06
598.819	85.06
599.028	88.06
599.237	89.06
599.446	92.06
599.655	83.06
599.864	95.06
600.073	114.06
600.282	79.06
600.491	99.06
600.7	100.06
600.909	95.06
601.118	101.06
601.327	97.06
601.536	89.06
601.745	107.06
601.953	105.06
602.162	137.06
602.371	125.06
602.58	108.06
602.789	101.06
602.997	100.06
603.206	95.06
603.415	90.06
603.623	94.06
603.832	95.06
604.041	95.06
604.249	94.06
604.458	89.06
604.666	79.06
604.875	78.06
605.084	83.06
605.292	72.06
605.501	102.06
605.709	100.06
605.918	78.06
606.126	99.06
606.334	108.06
606.543	89.06
606.751	107.06
606.96	147.06
607.168	146.06
607.376	107.06
607.585	106.06
607.793	93.06
608.001	97.06
608.21	93.06
608.418	110.06
608.626	84.06
608.834	103.06
609.043	89.06
609.251	88.06
609.459	93.06
609.667	95.06
609.875	106.06
610.083	87.06
610.291	102.06
610.499	91.06
610.707	92.06
610.916	94.06
611.124	87.06
611.332	84.06
611.54	89.06
611.748	87.06
611.955	94.06
612.163	94.06
612.371	89.06
612.579	74.06
612.787	95.06
612.995	80.06
613.203	85.06
613.411	89.06
613.618	92.06
613.826	82.06
614.034	83.06
614.242	85.06
614.449	77.06
614.657	94.06
614.865	94.06
615.072	106.06
615.28	103.06
615.488	90.06
615.695	90.06
615.903	99.06
616.111	85.06
616.318	108.06
616.526	96.06
616.733	82.06
616.941	101.06
617.148	79.06
617.356	104.06
617.563	102.06
617.771	99.06
617.978	88.06
618.185	85.06
618.393	101.06
618.6	97.06
618.807	93.06
619.015	95.06
619.222	88.06
619.429	98.06
619.637	96.06
619.844	98.06
620.051	89.06
620.258	85.06
620.466	91.06
620.673	88.06
620.88	77.06
621.087	93.06
621.294	94.06
621.501	99.06
621.708	93.06
621.915	88.06
622.122	100.06
622.329	91.06
622.536	95.06
622.743	101.06
622.95	88.06
623.157	91.06
623.364	97.06
623.571	94.06
623.778	101.06
623.985	101.06
624.192	81.06
624.399	87.06
624.606	98.06
624.812	89.06
625.019	91.06
625.226	89.06
625.433	91.06
625.639	86.06
625.846	101.06
626.053	90.06
626.259	93.06
626.466	86.06
626.673	91.06
626.879	100.06
627.086	92.06
627.293	108.06
627.499	82.06
627.706	81.06
627.912	87.06
628.119	90.06
628.325	76.06
628.532	73.06
628.738	89.06
628.945	79.06
629.151	84.06
629.357	83.06
629.564	95.06
629.77	94.06
629.976	83.06
630.183	87.06
630.389	90.06
630.595	99.06
630.802	99.06
631.008	84.06
631.214	85.06
631.42	92.06
631.627	92.06
631.833	104.06
632.039	80.06
632.245	88.06
632.451	80.06
632.657	95.06
632.863	88.06
633.069	92.06
633.275	80.06
633.481	95.06
633.688	94.06
633.893	76.06
634.099	93.06
634.305	99.06
634.511	85.06
634.717	83.06
634.923	81.06
635.129	105.06
635.335	131.06
635.541	105.06
635.747	89.06
635.952	96.06
636.158	91.06
636.364	105.06
636.57	81.06
636.775	74.06
636.981	85.06
637.187	89.06
637.392	84.06
637.598	90.06
637.804	83.06
638.009	73.06
638.215	89.06
638.421	81.06
638.626	83.06
638.832	87.06
639.037	82.06
639.243	91.06
639.448	97.06
639.654	78.06
639.859	86.06
640.065	80.06
640.27	80.06
640.475	82.06
640.681	83.06
640.886	71.06
641.091	86.06
641.297	84.06
641.502	85.06
641.707	85.06
641.913	90.06
642.118	88.06
642.323	106.06
642.528	94.06
642.733	99.06
642.939	91.06
643.144	84.06
643.349	85.06
643.554	91.06
643.759	82.06
643.964	81.06
644.169	85.06
644.374	92.06
644.579	88.06
644.784	95.06
644.989	97.06
645.194	81.06
645.399	99.06
645.604	103.06
645.809	99.06
646.014	78.06
646.219	87.06
646.423	85.06
646.628	97.06
646.833	79.06
647.038	79.06
647.243	93.06
647.447	97.06
647.652	97.06
647.857	85.06
648.062	101.06
648.266	102.06
648.471	93.06
648.676	85.06
648.88	76.06
649.085	77.06
649.289	90.06
649.494	93.06
649.698	92.06
649.903	98.06
650.107	92.06
650.312	86.06
650.516	94.06
650.721	88.06
650.925	90.06
651.13	90.06
651.334	83.06
651.539	81.06
651.743	77.06
651.947	83.06
652.152	91.06
652.356	89.06
652.56	84.06
652.764	106.06
652.969	94.06
653.173	88.06
653.377	92.06
653.581	71.06
653.785	90.06
653.99	86.06
654.194	93.06
654.398	76.06
654.602	87.06
654.806	99.06
655.01	89.06
655.214	101.06
655.418	99.06
655.622	84.06
655.826	87.06
656.03	97.06
656.234	81.06
656.438	90.06
656.642	80.06
656.846	76.06
657.049	87.06
657.253	81.06
657.457	88.06
657.661	77.06
657.865	75.06
658.068	91.06
658.272	86.06
658.476	86.06
658.68	80.06
658.883	80.06
659.087	86.06
659.291	92.06
659.494	85.06
659.698	81.06
659.901	79.06
660.105	82.06
660.309	100.06
660.512	83.06
660.716	75.06
660.919	86.06
661.123	76.06
661.326	86.06
661.53	103.06
661.733	78.06
661.936	75.06
662.14	87.06
662.343	84.06
662.546	84.06
662.75	83.06
662.953	90.06
663.156	96.06
663.36	86.06
663.563	89.06
663.766	77.06
663.969	79.06
664.173	85.06
664.376	82.06
664.579	91.06
664.782	71.06
664.985	79.06
665.188	78.06
665.391	80.06
665.594	72.06
665.797	97.06
666	92.06
666.203	90.06
666.406	71.06
666.609	92.06
666.812	92.06
667.015	77.06
667.218	89.06
667.421	87.06
667.624	92.06
667.827	96.06
668.03	79.06
668.232	90.06
668.435	88.06
668.638	77.06
668.841	79.06
669.043	92.06
669.246	88.06
669.449	80.06
669.651	79.06
669.854	78.06
670.057	87.06
670.259	101.06
670.462	79.06
670.665	87.06
670.867	82.06
671.07	88.06
671.272	78.06
671.475	78.06
671.677	80.06
671.88	85.06
672.082	89.06
672.284	88.06
672.487	88.06
672.689	88.06
672.892	88.06
