Data from SnStandardFlinnAPT0064_QswitchEnergy10_LIBS07252019.E.O._I.C._HRD10591_15-26-42-973.txt Node
Date: Thu Jul 25 15:26:42 EDT 2019
User: cochatt
Spectrometer: HR+D1059
Trigger mode: 1
Integration Time (sec): 1.000000E-1
Scans to average: 1
Electric dark correction enabled: true
Nonlinearity correction enabled: false
Boxcar width: 0
XAxis mode: Wavelengths
Number of Pixels in Spectrum: 2048
>>>>>Begin Spectral Data<<<<<
223.165	-19.12
223.4	-19.12
223.635	-19.12
223.869	-20.12
224.104	-14.12
224.338	-8.12
224.573	-18.12
224.808	-1.12
225.042	-6.12
225.277	9.88
225.511	-14.12
225.746	1.88
225.98	-10.12
226.215	22.88
226.449	13.88
226.683	16.88
226.918	17.88
227.152	27.88
227.387	3.88
227.621	30.88
227.856	43.88
228.09	33.88
228.324	46.88
228.559	46.88
228.793	40.88
229.027	67.88
229.262	73.88
229.496	67.88
229.73	56.88
229.964	56.88
230.199	81.88
230.433	77.88
230.667	68.88
230.901	73.88
231.136	85.88
231.37	79.88
231.604	80.88
231.838	90.88
232.072	98.88
232.306	121.88
232.541	85.88
232.775	59.88
233.009	78.88
233.243	100.88
233.477	87.88
233.711	89.88
233.945	90.88
234.179	84.88
234.413	84.88
234.647	70.88
234.881	74.88
235.115	80.88
235.349	81.88
235.583	93.88
235.817	115.88
236.051	104.88
236.285	90.88
236.519	92.88
236.753	76.88
236.987	96.88
237.221	74.88
237.455	74.88
237.689	77.88
237.922	80.88
238.156	58.88
238.39	79.88
238.624	83.88
238.858	77.88
239.091	68.88
239.325	72.88
239.559	69.88
239.793	86.88
240.027	82.88
240.26	66.88
240.494	70.88
240.728	72.88
240.961	88.88
241.195	75.88
241.429	81.88
241.662	86.88
241.896	86.88
242.13	93.88
242.363	108.88
242.597	138.88
242.83	137.88
243.064	128.88
243.298	146.88
243.531	140.88
243.765	104.88
243.998	84.88
244.232	71.88
244.465	83.88
244.699	65.88
244.932	83.88
245.166	82.88
245.399	77.88
245.633	78.88
245.866	85.88
246.099	88.88
246.333	85.88
246.566	84.88
246.8	88.88
247.033	76.88
247.266	63.88
247.5	80.88
247.733	82.88
247.966	75.88
248.2	90.88
248.433	95.88
248.666	112.88
248.899	112.88
249.133	79.88
249.366	99.88
249.599	100.88
249.832	115.88
250.066	104.88
250.299	77.88
250.532	84.88
250.765	70.88
250.998	81.88
251.231	89.88
251.465	71.88
251.698	91.88
251.931	62.88
252.164	76.88
252.397	82.88
252.63	86.88
252.863	94.88
253.096	85.88
253.329	88.88
253.562	86.88
253.795	95.88
254.028	81.88
254.261	81.88
254.494	81.88
254.727	111.88
254.96	116.88
255.193	117.88
255.426	92.88
255.659	80.88
255.892	83.88
256.124	84.88
256.357	84.88
256.59	99.88
256.823	99.88
257.056	85.88
257.289	136.88
257.521	156.88
257.754	112.88
257.987	78.88
258.22	83.88
258.452	72.88
258.685	74.88
258.918	74.88
259.151	90.88
259.383	99.88
259.616	112.88
259.849	139.88
260.081	103.88
260.314	78.88
260.547	78.88
260.779	86.88
261.012	90.88
261.244	70.88
261.477	83.88
261.71	82.88
261.942	97.88
262.175	85.88
262.407	77.88
262.64	57.88
262.872	79.88
263.105	78.88
263.337	85.88
263.57	88.88
263.802	78.88
264.035	81.88
264.267	71.88
264.499	77.88
264.732	94.88
264.964	77.88
265.197	70.88
265.429	90.88
265.661	85.88
265.894	89.88
266.126	120.88
266.358	148.88
266.591	146.88
266.823	109.88
267.055	76.88
267.287	81.88
267.52	78.88
267.752	81.88
267.984	77.88
268.216	95.88
268.448	82.88
268.681	76.88
268.913	96.88
269.145	78.88
269.377	74.88
269.609	85.88
269.841	90.88
270.073	102.88
270.306	118.88
270.538	163.88
270.77	288.88
271.002	344.88
271.234	182.88
271.466	106.88
271.698	91.88
271.93	90.88
272.162	80.88
272.394	90.88
272.626	78.88
272.858	87.88
273.09	75.88
273.322	92.88
273.553	100.88
273.785	74.88
274.017	97.88
274.249	81.88
274.481	83.88
274.713	84.88
274.945	86.88
275.176	80.88
275.408	91.88
275.64	83.88
275.872	81.88
276.104	84.88
276.335	71.88
276.567	95.88
276.799	89.88
277.031	78.88
277.262	81.88
277.494	93.88
277.726	112.88
277.957	148.88
278.189	219.88
278.421	203.88
278.652	186.88
278.884	158.88
279.115	118.88
279.347	99.88
279.579	98.88
279.81	88.88
280.042	72.88
280.273	92.88
280.505	90.88
280.736	107.88
280.968	120.88
281.199	142.88
281.431	207.88
281.662	221.88
281.894	134.88
282.125	112.88
282.356	107.88
282.588	86.88
282.819	106.88
283.051	98.88
283.282	118.88
283.513	170.88
283.745	285.88
283.976	499.88
284.207	693.88
284.439	527.88
284.67	239.88
284.901	214.88
285.132	300.88
285.364	338.88
285.595	203.88
285.826	159.88
286.057	216.88
286.288	368.88
286.52	552.88
286.751	455.88
286.982	174.88
287.213	108.88
287.444	101.88
287.675	87.88
287.906	100.88
288.138	96.88
288.369	95.88
288.6	89.88
288.831	105.88
289.062	77.88
289.293	70.88
289.524	89.88
289.755	93.88
289.986	87.88
290.217	85.88
290.448	85.88
290.679	103.88
290.91	124.88
291.141	153.88
291.371	225.88
291.602	234.88
291.833	187.88
292.064	100.88
292.295	92.88
292.526	82.88
292.757	90.88
292.987	102.88
293.218	90.88
293.449	85.88
293.68	88.88
293.91	89.88
294.141	95.88
294.372	91.88
294.603	91.88
294.833	85.88
295.064	100.88
295.295	78.88
295.525	97.88
295.756	91.88
295.987	89.88
296.217	86.88
296.448	72.88
296.679	84.88
296.909	81.88
297.14	82.88
297.37	96.88
297.601	105.88
297.831	89.88
298.062	94.88
298.292	81.88
298.523	77.88
298.753	111.88
298.984	105.88
299.214	102.88
299.445	104.88
299.675	110.88
299.905	107.88
300.136	118.88
300.366	141.88
300.597	240.88
300.827	394.88
301.057	598.88
301.288	566.88
301.518	251.88
301.748	137.88
301.979	133.88
302.209	115.88
302.439	134.88
302.669	157.88
302.9	234.88
303.13	446.88
303.36	790.88
303.59	1069.88
303.82	766.88
304.051	281.88
304.281	146.88
304.511	114.88
304.741	110.88
304.971	98.88
305.201	88.88
305.431	96.88
305.661	84.88
305.891	80.88
306.121	89.88
306.352	105.88
306.582	108.88
306.812	93.88
307.042	104.88
307.272	104.88
307.502	88.88
307.731	92.88
307.961	100.88
308.191	92.88
308.421	99.88
308.651	96.88
308.881	117.88
309.111	101.88
309.341	102.88
309.571	86.88
309.8	116.88
310.03	100.88
310.26	107.88
310.49	94.88
310.72	102.88
310.949	96.88
311.179	109.88
311.409	100.88
311.639	98.88
311.868	102.88
312.098	112.88
312.328	104.88
312.557	114.88
312.787	101.88
313.017	108.88
313.246	120.88
313.476	109.88
313.706	128.88
313.935	130.88
314.165	184.88
314.394	206.88
314.624	158.88
314.853	115.88
315.083	126.88
315.312	110.88
315.542	106.88
315.771	109.88
316.001	123.88
316.23	116.88
316.46	120.88
316.689	153.88
316.919	217.88
317.148	443.88
317.377	816.88
317.607	1318.88
317.836	1210.88
318.065	462.88
318.295	202.88
318.524	151.88
318.753	132.88
318.983	116.88
319.212	113.88
319.441	116.88
319.67	114.88
319.9	116.88
320.129	116.88
320.358	100.88
320.587	104.88
320.816	120.88
321.046	114.88
321.275	113.88
321.504	122.88
321.733	140.88
321.962	128.88
322.191	140.88
322.42	118.88
322.649	114.88
322.878	110.88
323.108	115.88
323.337	102.88
323.566	121.88
323.795	116.88
324.024	119.88
324.253	128.88
324.482	162.88
324.71	198.88
324.939	249.88
325.168	198.88
325.397	173.88
325.626	224.88
325.855	403.88
326.084	809.88
326.313	1402.88
326.542	1398.88
326.77	539.88
326.999	239.88
327.228	178.88
327.457	175.88
327.686	202.88
327.914	153.88
328.143	130.88
328.372	117.88
328.6	128.88
328.829	122.88
329.058	115.88
329.287	102.88
329.515	104.88
329.744	105.88
329.972	110.88
330.201	106.88
330.43	99.88
330.658	116.88
330.887	100.88
331.115	90.88
331.344	104.88
331.572	116.88
331.801	112.88
332.03	111.88
332.258	121.88
332.486	158.88
332.715	246.88
332.943	442.88
333.172	684.88
333.4	580.88
333.629	228.88
333.857	124.88
334.085	107.88
334.314	113.88
334.542	131.88
334.771	100.88
334.999	110.88
335.227	98.88
335.455	124.88
335.684	104.88
335.912	101.88
336.14	109.88
336.369	99.88
336.597	90.88
336.825	118.88
337.053	105.88
337.281	84.88
337.51	98.88
337.738	90.88
337.966	111.88
338.194	96.88
338.422	106.88
338.65	100.88
338.878	116.88
339.106	102.88
339.334	108.88
339.562	117.88
339.79	108.88
340.018	88.88
340.246	94.88
340.474	95.88
340.702	105.88
340.93	112.88
341.158	99.88
341.386	103.88
341.614	112.88
341.842	98.88
342.07	101.88
342.298	104.88
342.526	106.88
342.754	108.88
342.981	105.88
343.209	100.88
343.437	104.88
343.665	93.88
343.893	106.88
344.12	96.88
344.348	105.88
344.576	90.88
344.804	108.88
345.031	116.88
345.259	114.88
345.487	110.88
345.714	124.88
345.942	101.88
346.17	100.88
346.397	105.88
346.625	107.88
346.853	107.88
347.08	86.88
347.308	110.88
347.535	85.88
347.763	104.88
347.99	100.88
348.218	101.88
348.445	89.88
348.673	98.88
348.9	99.88
349.128	105.88
349.355	117.88
349.583	108.88
349.81	94.88
350.037	117.88
350.265	103.88
350.492	113.88
350.72	105.88
350.947	106.88
351.174	111.88
351.402	113.88
351.629	109.88
351.856	101.88
352.083	94.88
352.311	101.88
352.538	109.88
352.765	103.88
352.992	95.88
353.22	91.88
353.447	102.88
353.674	90.88
353.901	96.88
354.128	108.88
354.355	89.88
354.583	74.88
354.81	115.88
355.037	89.88
355.264	112.88
355.491	94.88
355.718	90.88
355.945	89.88
356.172	94.88
356.399	99.88
356.626	102.88
356.853	104.88
357.08	99.88
357.307	98.88
357.534	104.88
357.761	106.88
357.988	97.88
358.215	117.88
358.441	107.88
358.668	101.88
358.895	92.88
359.122	115.88
359.349	97.88
359.576	96.88
359.802	97.88
360.029	101.88
360.256	98.88
360.483	90.88
360.709	111.88
360.936	121.88
361.163	102.88
361.39	87.88
361.616	106.88
361.843	99.88
362.07	113.88
362.296	98.88
362.523	91.88
362.749	96.88
362.976	97.88
363.203	105.88
363.429	104.88
363.656	111.88
363.882	111.88
364.109	108.88
364.335	102.88
364.562	102.88
364.788	97.88
365.015	108.88
365.241	117.88
365.468	166.88
365.694	219.88
365.92	190.88
366.147	110.88
366.373	99.88
366.599	90.88
366.826	95.88
367.052	100.88
367.278	113.88
367.505	86.88
367.731	89.88
367.957	103.88
368.184	92.88
368.41	116.88
368.636	106.88
368.862	99.88
369.089	104.88
369.315	93.88
369.541	97.88
369.767	104.88
369.993	84.88
370.219	95.88
370.445	100.88
370.672	118.88
370.898	88.88
371.124	86.88
371.35	107.88
371.576	104.88
371.802	101.88
372.028	92.88
372.254	91.88
372.48	98.88
372.706	104.88
372.932	110.88
373.158	98.88
373.384	111.88
373.61	99.88
373.835	110.88
374.061	106.88
374.287	99.88
374.513	101.88
374.739	92.88
374.965	98.88
375.191	93.88
375.416	100.88
375.642	101.88
375.868	102.88
376.094	117.88
376.319	100.88
376.545	97.88
376.771	112.88
376.997	96.88
377.222	97.88
377.448	111.88
377.674	104.88
377.899	97.88
378.125	102.88
378.35	109.88
378.576	112.88
378.802	115.88
379.027	125.88
379.253	140.88
379.478	153.88
379.704	289.88
379.929	687.88
380.155	1403.88
380.38	1449.88
380.606	484.88
380.831	169.88
381.057	135.88
381.282	104.88
381.507	98.88
381.733	114.88
381.958	98.88
382.184	104.88
382.409	98.88
382.634	116.88
382.86	109.88
383.085	101.88
383.31	106.88
383.535	108.88
383.761	97.88
383.986	88.88
384.211	91.88
384.436	88.88
384.662	99.88
384.887	99.88
385.112	101.88
385.337	99.88
385.562	111.88
385.787	101.88
386.013	122.88
386.238	95.88
386.463	106.88
386.688	116.88
386.913	106.88
387.138	109.88
387.363	99.88
387.588	94.88
387.813	94.88
388.038	99.88
388.263	96.88
388.488	85.88
388.713	106.88
388.938	115.88
389.163	101.88
389.387	94.88
389.612	96.88
389.837	92.88
390.062	85.88
390.287	106.88
390.512	93.88
390.736	99.88
390.961	95.88
391.186	94.88
391.411	105.88
391.636	96.88
391.86	98.88
392.085	90.88
392.31	85.88
392.534	82.88
392.759	84.88
392.984	95.88
393.208	112.88
393.433	120.88
393.658	123.88
393.882	102.88
394.107	95.88
394.331	86.88
394.556	88.88
394.78	91.88
395.005	79.88
395.229	76.88
395.454	94.88
395.678	97.88
395.903	98.88
396.127	97.88
396.352	92.88
396.576	104.88
396.801	109.88
397.025	105.88
397.249	100.88
397.474	100.88
397.698	95.88
397.922	96.88
398.147	93.88
398.371	94.88
398.595	95.88
398.82	92.88
399.044	84.88
399.268	85.88
399.492	94.88
399.717	101.88
399.941	94.88
400.165	84.88
400.389	83.88
400.613	98.88
400.837	89.88
401.062	96.88
401.286	97.88
401.51	93.88
401.734	86.88
401.958	86.88
402.182	94.88
402.406	100.88
402.63	94.88
402.854	77.88
403.078	98.88
403.302	91.88
403.526	93.88
403.75	92.88
403.974	74.88
404.198	96.88
404.422	75.88
404.645	87.88
404.869	93.88
405.093	100.88
405.317	99.88
405.541	115.88
405.765	114.88
405.988	125.88
406.212	115.88
406.436	99.88
406.66	93.88
406.883	89.88
407.107	99.88
407.331	100.88
407.555	83.88
407.778	68.88
408.002	94.88
408.226	95.88
408.449	104.88
408.673	100.88
408.896	102.88
409.12	95.88
409.344	98.88
409.567	97.88
409.791	91.88
410.014	97.88
410.238	80.88
410.461	80.88
410.685	93.88
410.908	89.88
411.132	98.88
411.355	100.88
411.578	77.88
411.802	93.88
412.025	81.88
412.249	69.88
412.472	95.88
412.695	86.88
412.919	91.88
413.142	111.88
413.365	97.88
413.589	117.88
413.812	115.88
414.035	105.88
414.258	89.88
414.482	90.88
414.705	99.88
414.928	90.88
415.151	101.88
415.374	93.88
415.597	101.88
415.821	95.88
416.044	92.88
416.267	104.88
416.49	89.88
416.713	94.88
416.936	92.88
417.159	79.88
417.382	94.88
417.605	105.88
417.828	83.88
418.051	82.88
418.274	100.88
418.497	105.88
418.72	88.88
418.943	85.88
419.166	104.88
419.389	98.88
419.611	95.88
419.834	94.88
420.057	93.88
420.28	95.88
420.503	99.88
420.726	95.88
420.948	98.88
421.171	90.88
421.394	88.88
421.617	89.88
421.839	98.88
422.062	92.88
422.285	92.88
422.507	98.88
422.73	110.88
422.953	128.88
423.175	114.88
423.398	88.88
423.621	86.88
423.843	75.88
424.066	114.88
424.288	80.88
424.511	89.88
424.733	92.88
424.956	88.88
425.178	92.88
425.401	85.88
425.623	88.88
425.846	90.88
426.068	79.88
426.291	82.88
426.513	91.88
426.735	91.88
426.958	93.88
427.18	80.88
427.402	86.88
427.625	90.88
427.847	86.88
428.069	86.88
428.292	90.88
428.514	111.88
428.736	92.88
428.958	98.88
429.181	84.88
429.403	88.88
429.625	84.88
429.847	94.88
430.069	92.88
430.292	97.88
430.514	86.88
430.736	84.88
430.958	83.88
431.18	82.88
431.402	84.88
431.624	92.88
431.846	96.88
432.068	84.88
432.29	82.88
432.512	92.88
432.734	88.88
432.956	87.88
433.178	84.88
433.4	85.88
433.622	93.88
433.844	89.88
434.066	92.88
434.287	97.88
434.509	92.88
434.731	95.88
434.953	95.88
435.175	84.88
435.397	108.88
435.618	90.88
435.84	79.88
436.062	84.88
436.284	91.88
436.505	82.88
436.727	80.88
436.949	87.88
437.17	86.88
437.392	90.88
437.614	93.88
437.835	76.88
438.057	86.88
438.278	88.88
438.5	98.88
438.721	93.88
438.943	89.88
439.165	100.88
439.386	99.88
439.608	91.88
439.829	78.88
440.05	99.88
440.272	118.88
440.493	97.88
440.715	94.88
440.936	85.88
441.158	83.88
441.379	93.88
441.6	83.88
441.822	85.88
442.043	98.88
442.264	122.88
442.486	95.88
442.707	101.88
442.928	99.88
443.149	78.88
443.371	93.88
443.592	84.88
443.813	76.88
444.034	96.88
444.255	80.88
444.476	85.88
444.698	88.88
444.919	90.88
445.14	209.88
445.361	146.88
445.582	99.88
445.803	81.88
446.024	90.88
446.245	101.88
446.466	99.88
446.687	82.88
446.908	96.88
447.129	91.88
447.35	85.88
447.571	91.88
447.792	78.88
448.013	92.88
448.234	79.88
448.455	90.88
448.675	99.88
448.896	98.88
449.117	99.88
449.338	122.88
449.559	152.88
449.779	101.88
450	90.88
450.221	100.88
450.442	127.88
450.662	117.88
450.883	104.88
451.104	112.88
451.324	107.88
451.545	120.88
451.766	110.88
451.986	123.88
452.207	182.88
452.428	487.88
452.648	1164.88
452.869	672.88
453.089	189.88
453.31	109.88
453.53	95.88
453.751	114.88
453.971	152.88
454.192	131.88
454.412	105.88
454.633	88.88
454.853	99.88
455.073	92.88
455.294	90.88
455.514	91.88
455.734	79.88
455.955	85.88
456.175	81.88
456.395	89.88
456.616	88.88
456.836	104.88
457.056	97.88
457.276	83.88
457.497	122.88
457.717	120.88
457.937	89.88
458.157	99.88
458.377	93.88
458.598	76.88
458.818	84.88
459.038	80.88
459.258	88.88
459.478	74.88
459.698	72.88
459.918	90.88
460.138	90.88
460.358	94.88
460.578	89.88
460.798	80.88
461.018	92.88
461.238	95.88
461.458	85.88
461.678	70.88
461.898	93.88
462.118	84.88
462.338	77.88
462.558	92.88
462.777	93.88
462.997	103.88
463.217	112.88
463.437	143.88
463.657	171.88
463.876	185.88
464.096	113.88
464.316	95.88
464.536	89.88
464.755	87.88
464.975	64.88
465.195	96.88
465.414	83.88
465.634	79.88
465.854	90.88
466.073	86.88
466.293	87.88
466.512	90.88
466.732	114.88
466.951	104.88
467.171	120.88
467.391	118.88
467.61	107.88
467.829	85.88
468.049	107.88
468.268	97.88
468.488	86.88
468.707	88.88
468.927	82.88
469.146	88.88
469.365	100.88
469.585	102.88
469.804	105.88
470.023	91.88
470.243	96.88
470.462	97.88
470.681	106.88
470.901	122.88
471.12	152.88
471.339	194.88
471.558	114.88
471.777	105.88
471.997	108.88
472.216	96.88
472.435	95.88
472.654	84.88
472.873	105.88
473.092	101.88
473.311	101.88
473.53	93.88
473.749	105.88
473.968	96.88
474.187	93.88
474.406	77.88
474.625	97.88
474.844	90.88
475.063	83.88
475.282	76.88
475.501	98.88
475.72	89.88
475.939	77.88
476.158	83.88
476.377	108.88
476.596	94.88
476.814	86.88
477.033	104.88
477.252	86.88
477.471	94.88
477.69	89.88
477.908	94.88
478.127	93.88
478.346	87.88
478.564	90.88
478.783	85.88
479.002	89.88
479.22	106.88
479.439	94.88
479.658	82.88
479.876	95.88
480.095	96.88
480.313	100.88
480.532	95.88
480.751	77.88
480.969	106.88
481.188	99.88
481.406	89.88
481.624	82.88
481.843	117.88
482.061	91.88
482.28	97.88
482.498	94.88
482.717	90.88
482.935	93.88
483.153	85.88
483.372	104.88
483.59	78.88
483.808	100.88
484.027	108.88
484.245	115.88
484.463	150.88
484.681	194.88
484.9	132.88
485.118	109.88
485.336	92.88
485.554	96.88
485.772	115.88
485.99	164.88
486.209	226.88
486.427	158.88
486.645	104.88
486.863	96.88
487.081	84.88
487.299	87.88
487.517	99.88
487.735	79.88
487.953	87.88
488.171	79.88
488.389	88.88
488.607	86.88
488.825	93.88
489.043	98.88
489.261	86.88
489.479	100.88
489.696	79.88
489.914	96.88
490.132	94.88
490.35	98.88
490.568	90.88
490.786	90.88
491.003	103.88
491.221	105.88
491.439	90.88
491.657	99.88
491.874	111.88
492.092	106.88
492.31	98.88
492.527	99.88
492.745	109.88
492.963	109.88
493.18	107.88
493.398	97.88
493.615	95.88
493.833	105.88
494.05	96.88
494.268	68.88
494.485	89.88
494.703	101.88
494.92	97.88
495.138	101.88
495.355	91.88
495.573	100.88
495.79	101.88
496.008	88.88
496.225	95.88
496.442	122.88
496.66	102.88
496.877	148.88
497.094	152.88
497.312	108.88
497.529	88.88
497.746	92.88
497.963	102.88
498.181	93.88
498.398	92.88
498.615	102.88
498.832	77.88
499.049	106.88
499.267	116.88
499.484	140.88
499.701	109.88
499.918	79.88
500.135	96.88
500.352	107.88
500.569	100.88
500.786	93.88
501.003	94.88
501.22	98.88
501.437	95.88
501.654	98.88
501.871	83.88
502.088	97.88
502.305	93.88
502.522	90.88
502.739	115.88
502.956	96.88
503.172	110.88
503.389	84.88
503.606	94.88
503.823	87.88
504.04	90.88
504.256	85.88
504.473	85.88
504.69	95.88
504.907	96.88
505.123	105.88
505.34	101.88
505.557	85.88
505.773	75.88
505.99	83.88
506.207	82.88
506.423	109.88
506.64	101.88
506.856	82.88
507.073	90.88
507.289	92.88
507.506	89.88
507.722	79.88
507.939	102.88
508.155	91.88
508.372	83.88
508.588	97.88
508.805	92.88
509.021	86.88
509.238	92.88
509.454	142.88
509.67	157.88
509.887	91.88
510.103	106.88
510.319	88.88
510.536	87.88
510.752	98.88
510.968	89.88
511.184	96.88
511.401	84.88
511.617	87.88
511.833	90.88
512.049	89.88
512.265	90.88
512.481	86.88
512.698	89.88
512.914	97.88
513.13	82.88
513.346	80.88
513.562	83.88
513.778	87.88
513.994	96.88
514.21	102.88
514.426	137.88
514.642	169.88
514.858	127.88
515.074	96.88
515.29	80.88
515.506	86.88
515.721	97.88
515.937	87.88
516.153	94.88
516.369	95.88
516.585	89.88
516.801	95.88
517.016	96.88
517.232	85.88
517.448	100.88
517.664	94.88
517.879	92.88
518.095	99.88
518.311	96.88
518.527	102.88
518.742	75.88
518.958	111.88
519.173	126.88
519.389	113.88
519.605	93.88
519.82	84.88
520.036	99.88
520.251	92.88
520.467	77.88
520.682	102.88
520.898	80.88
521.113	89.88
521.329	86.88
521.544	88.88
521.76	100.88
521.975	104.88
522.19	98.88
522.406	94.88
522.621	95.88
522.836	83.88
523.052	88.88
523.267	103.88
523.482	93.88
523.698	90.88
523.913	86.88
524.128	95.88
524.343	86.88
524.559	86.88
524.774	97.88
524.989	96.88
525.204	86.88
525.419	101.88
525.634	90.88
525.849	89.88
526.064	96.88
526.28	91.88
526.495	91.88
526.71	97.88
526.925	93.88
527.14	84.88
527.355	96.88
527.57	94.88
527.785	81.88
527.999	99.88
528.214	99.88
528.429	88.88
528.644	88.88
528.859	90.88
529.074	76.88
529.289	96.88
529.503	96.88
529.718	88.88
529.933	87.88
530.148	80.88
530.363	100.88
530.577	97.88
530.792	93.88
531.007	84.88
531.221	87.88
531.436	90.88
531.651	84.88
531.865	114.88
532.08	102.88
532.295	104.88
532.509	140.88
532.724	110.88
532.938	91.88
533.153	89.88
533.367	77.88
533.582	94.88
533.796	93.88
534.011	80.88
534.225	82.88
534.44	91.88
534.654	105.88
534.868	98.88
535.083	97.88
535.297	86.88
535.511	89.88
535.726	92.88
535.94	75.88
536.154	86.88
536.369	91.88
536.583	92.88
536.797	86.88
537.011	83.88
537.225	93.88
537.44	94.88
537.654	92.88
537.868	80.88
538.082	85.88
538.296	88.88
538.51	90.88
538.724	92.88
538.938	81.88
539.153	92.88
539.367	101.88
539.581	99.88
539.795	92.88
540.009	75.88
540.222	112.88
540.436	83.88
540.65	86.88
540.864	99.88
541.078	95.88
541.292	114.88
541.506	191.88
541.72	172.88
541.934	124.88
542.147	106.88
542.361	99.88
542.575	100.88
542.789	104.88
543.002	98.88
543.216	99.88
543.43	80.88
543.644	79.88
543.857	81.88
544.071	101.88
544.285	97.88
544.498	97.88
544.712	106.88
544.925	94.88
545.139	111.88
545.352	98.88
545.566	95.88
545.779	88.88
545.993	105.88
546.206	81.88
546.42	90.88
546.633	91.88
546.847	111.88
547.06	87.88
547.274	92.88
547.487	89.88
547.7	110.88
547.914	96.88
548.127	99.88
548.34	83.88
548.554	86.88
548.767	93.88
548.98	97.88
549.193	109.88
549.407	116.88
549.62	112.88
549.833	93.88
550.046	92.88
550.259	101.88
550.473	99.88
550.686	92.88
550.899	101.88
551.112	95.88
551.325	101.88
551.538	83.88
551.751	82.88
551.964	103.88
552.177	100.88
552.39	85.88
552.603	99.88
552.816	89.88
553.029	109.88
553.242	88.88
553.455	86.88
553.667	94.88
553.88	104.88
554.093	90.88
554.306	96.88
554.519	96.88
554.732	104.88
554.944	110.88
555.157	92.88
555.37	81.88
555.583	95.88
555.795	111.88
556.008	110.88
556.221	132.88
556.433	107.88
556.646	105.88
556.859	98.88
557.071	104.88
557.284	119.88
557.496	110.88
557.709	107.88
557.921	104.88
558.134	88.88
558.346	94.88
558.559	92.88
558.771	88.88
558.984	109.88
559.196	96.88
559.409	100.88
559.621	97.88
559.833	94.88
560.046	99.88
560.258	96.88
560.47	92.88
560.683	92.88
560.895	92.88
561.107	96.88
561.32	95.88
561.532	97.88
561.744	93.88
561.956	89.88
562.168	101.88
562.381	104.88
562.593	90.88
562.805	116.88
563.017	149.88
563.229	225.88
563.441	521.88
563.653	182.88
563.865	116.88
564.077	95.88
564.289	93.88
564.501	97.88
564.713	82.88
564.925	88.88
565.137	97.88
565.349	102.88
565.561	94.88
565.773	79.88
565.985	83.88
566.197	85.88
566.408	96.88
566.62	69.88
566.832	88.88
567.044	94.88
567.255	90.88
567.467	91.88
567.679	95.88
567.891	110.88
568.102	174.88
568.314	218.88
568.526	150.88
568.737	104.88
568.949	108.88
569.161	107.88
569.372	93.88
569.584	97.88
569.795	85.88
570.007	75.88
570.218	115.88
570.43	145.88
570.641	101.88
570.853	73.88
571.064	77.88
571.276	80.88
571.487	89.88
571.698	94.88
571.91	99.88
572.121	91.88
572.333	96.88
572.544	111.88
572.755	120.88
572.966	184.88
573.178	140.88
573.389	84.88
573.6	85.88
573.811	78.88
574.023	83.88
574.234	94.88
574.445	77.88
574.656	92.88
574.867	86.88
575.078	89.88
575.289	94.88
575.501	79.88
575.712	84.88
575.923	77.88
576.134	81.88
576.345	77.88
576.556	75.88
576.767	86.88
576.978	81.88
577.188	77.88
577.399	96.88
577.61	100.88
577.821	84.88
578.032	85.88
578.243	89.88
578.454	91.88
578.665	92.88
578.875	84.88
579.086	80.88
579.297	82.88
579.508	74.88
579.718	84.88
579.929	81.88
580.14	73.88
580.35	88.88
580.561	100.88
580.772	97.88
580.982	74.88
581.193	81.88
581.403	93.88
581.614	85.88
581.825	88.88
582.035	78.88
582.246	89.88
582.456	97.88
582.667	80.88
582.877	120.88
583.087	97.88
583.298	88.88
583.508	89.88
583.719	88.88
583.929	86.88
584.139	87.88
584.35	100.88
584.56	88.88
584.77	92.88
584.981	84.88
585.191	83.88
585.401	70.88
585.611	87.88
585.821	81.88
586.032	87.88
586.242	97.88
586.452	77.88
586.662	82.88
586.872	59.88
587.082	84.88
587.292	73.88
587.502	77.88
587.713	85.88
587.923	84.88
588.133	80.88
588.343	91.88
588.553	77.88
588.762	84.88
588.972	91.88
589.182	121.88
589.392	112.88
589.602	99.88
589.812	98.88
590.022	93.88
590.232	80.88
590.441	95.88
590.651	93.88
590.861	74.88
591.071	64.88
591.281	84.88
591.49	82.88
591.7	77.88
591.91	99.88
592.119	90.88
592.329	87.88
592.539	71.88
592.748	88.88
592.958	85.88
593.167	83.88
593.377	91.88
593.587	79.88
593.796	84.88
594.006	81.88
594.215	96.88
594.424	81.88
594.634	92.88
594.843	81.88
595.053	76.88
595.262	79.88
595.472	86.88
595.681	90.88
595.89	96.88
596.1	73.88
596.309	76.88
596.518	70.88
596.727	88.88
596.937	81.88
597.146	81.88
597.355	89.88
597.564	83.88
597.774	80.88
597.983	77.88
598.192	76.88
598.401	96.88
598.61	84.88
598.819	89.88
599.028	76.88
599.237	93.88
599.446	82.88
599.655	92.88
599.864	82.88
600.073	86.88
600.282	78.88
600.491	76.88
600.7	78.88
600.909	87.88
601.118	83.88
601.327	78.88
601.536	95.88
601.745	96.88
601.953	112.88
602.162	132.88
602.371	94.88
602.58	99.88
602.789	85.88
602.997	92.88
603.206	88.88
603.415	82.88
603.623	88.88
603.832	94.88
604.041	89.88
604.249	91.88
604.458	85.88
604.666	87.88
604.875	85.88
605.084	83.88
605.292	88.88
605.501	97.88
605.709	104.88
605.918	90.88
606.126	106.88
606.334	96.88
606.543	93.88
606.751	120.88
606.96	158.88
607.168	166.88
607.376	105.88
607.585	103.88
607.793	79.88
608.001	84.88
608.21	84.88
608.418	80.88
608.626	83.88
608.834	87.88
609.043	94.88
609.251	80.88
609.459	89.88
609.667	89.88
609.875	89.88
610.083	77.88
610.291	87.88
610.499	94.88
610.707	85.88
610.916	90.88
611.124	100.88
611.332	87.88
611.54	88.88
611.748	80.88
611.955	77.88
612.163	88.88
612.371	85.88
612.579	90.88
612.787	75.88
612.995	78.88
613.203	82.88
613.411	95.88
613.618	78.88
613.826	83.88
614.034	84.88
614.242	94.88
614.449	87.88
614.657	88.88
614.865	89.88
615.072	94.88
615.28	96.88
615.488	102.88
615.695	99.88
615.903	92.88
616.111	88.88
616.318	83.88
616.526	93.88
616.733	85.88
616.941	77.88
617.148	89.88
617.356	74.88
617.563	90.88
617.771	74.88
617.978	87.88
618.185	77.88
618.393	95.88
618.6	95.88
618.807	72.88
619.015	78.88
619.222	89.88
619.429	86.88
619.637	89.88
619.844	93.88
620.051	88.88
620.258	83.88
620.466	96.88
620.673	86.88
620.88	101.88
621.087	82.88
621.294	88.88
621.501	83.88
621.708	90.88
621.915	92.88
622.122	84.88
622.329	92.88
622.536	93.88
622.743	63.88
622.95	82.88
623.157	81.88
623.364	70.88
623.571	93.88
623.778	82.88
623.985	82.88
624.192	96.88
624.399	72.88
624.606	94.88
624.812	80.88
625.019	74.88
625.226	85.88
625.433	82.88
625.639	82.88
625.846	67.88
626.053	81.88
626.259	74.88
626.466	96.88
626.673	75.88
626.879	79.88
627.086	90.88
627.293	88.88
627.499	89.88
627.706	70.88
627.912	79.88
628.119	89.88
628.325	80.88
628.532	93.88
628.738	88.88
628.945	75.88
629.151	85.88
629.357	81.88
629.564	86.88
629.77	86.88
629.976	86.88
630.183	79.88
630.389	74.88
630.595	79.88
630.802	74.88
631.008	94.88
631.214	77.88
631.42	66.88
631.627	90.88
631.833	81.88
632.039	99.88
632.245	90.88
632.451	88.88
632.657	85.88
632.863	98.88
633.069	94.88
633.275	86.88
633.481	81.88
633.688	83.88
633.893	86.88
634.099	73.88
634.305	82.88
634.511	89.88
634.717	65.88
634.923	86.88
635.129	108.88
635.335	117.88
635.541	106.88
635.747	83.88
635.952	78.88
636.158	72.88
636.364	82.88
636.57	93.88
636.775	97.88
636.981	72.88
637.187	93.88
637.392	79.88
637.598	78.88
637.804	91.88
638.009	77.88
638.215	84.88
638.421	83.88
638.626	69.88
638.832	62.88
639.037	80.88
639.243	84.88
639.448	83.88
639.654	88.88
639.859	69.88
640.065	91.88
640.27	92.88
640.475	88.88
640.681	70.88
640.886	86.88
641.091	76.88
641.297	85.88
641.502	77.88
641.707	99.88
641.913	91.88
642.118	81.88
642.323	78.88
642.528	86.88
642.733	84.88
642.939	71.88
643.144	73.88
643.349	83.88
643.554	90.88
643.759	83.88
643.964	88.88
644.169	96.88
644.374	75.88
644.579	81.88
644.784	93.88
644.989	90.88
645.194	80.88
645.399	89.88
645.604	92.88
645.809	78.88
646.014	89.88
646.219	72.88
646.423	77.88
646.628	95.88
646.833	89.88
647.038	90.88
647.243	77.88
647.447	67.88
647.652	79.88
647.857	84.88
648.062	96.88
648.266	88.88
648.471	84.88
648.676	79.88
648.88	78.88
649.085	68.88
649.289	73.88
649.494	79.88
649.698	87.88
649.903	89.88
650.107	78.88
650.312	77.88
650.516	77.88
650.721	94.88
650.925	81.88
651.13	84.88
651.334	73.88
651.539	84.88
651.743	77.88
651.947	73.88
652.152	73.88
652.356	86.88
652.56	111.88
652.764	96.88
652.969	78.88
653.173	87.88
653.377	79.88
653.581	67.88
653.785	74.88
653.99	83.88
654.194	91.88
654.398	85.88
654.602	83.88
654.806	86.88
655.01	87.88
655.214	76.88
655.418	71.88
655.622	74.88
655.826	91.88
656.03	76.88
656.234	81.88
656.438	72.88
656.642	85.88
656.846	85.88
657.049	84.88
657.253	86.88
657.457	78.88
657.661	76.88
657.865	88.88
658.068	80.88
658.272	93.88
658.476	69.88
658.68	84.88
658.883	68.88
659.087	83.88
659.291	82.88
659.494	70.88
659.698	71.88
659.901	70.88
660.105	78.88
660.309	85.88
660.512	82.88
660.716	77.88
660.919	100.88
661.123	78.88
661.326	74.88
661.53	61.88
661.733	82.88
661.936	80.88
662.14	87.88
662.343	68.88
662.546	81.88
662.75	74.88
662.953	77.88
663.156	104.88
663.36	78.88
663.563	76.88
663.766	86.88
663.969	73.88
664.173	68.88
664.376	71.88
664.579	77.88
664.782	88.88
664.985	69.88
665.188	66.88
665.391	82.88
665.594	95.88
665.797	95.88
666	68.88
666.203	78.88
666.406	81.88
666.609	90.88
666.812	79.88
667.015	80.88
667.218	73.88
667.421	78.88
667.624	75.88
667.827	70.88
668.03	75.88
668.232	77.88
668.435	76.88
668.638	78.88
668.841	82.88
669.043	73.88
669.246	88.88
669.449	82.88
669.651	85.88
669.854	71.88
670.057	89.88
670.259	64.88
670.462	80.88
670.665	78.88
670.867	78.88
671.07	65.88
671.272	78.88
671.475	72.88
671.677	67.88
671.88	77.88
672.082	84.88
672.284	69.88
672.487	97.88
672.689	85.88
672.892	76.88
