Data from SnStandardFlinnAPT0064_LampEnergy10_LIBS07252019.E.O._I.C._HRD10591_15-21-14-494.txt Node
Date: Thu Jul 25 15:21:14 EDT 2019
User: cochatt
Spectrometer: HR+D1059
Trigger mode: 1
Integration Time (sec): 1.000000E-1
Scans to average: 1
Electric dark correction enabled: true
Nonlinearity correction enabled: false
Boxcar width: 0
XAxis mode: Wavelengths
Number of Pixels in Spectrum: 2048
>>>>>Begin Spectral Data<<<<<
223.165	-26.25
223.4	-26.25
223.635	-26.25
223.869	-20.25
224.104	-15.25
224.338	-15.25
224.573	-25.25
224.808	-10.25
225.042	-10.25
225.277	3.75
225.511	-0.25
225.746	-2.25
225.98	16.75
226.215	4.75
226.449	11.75
226.683	20.75
226.918	30.75
227.152	36.75
227.387	32.75
227.621	37.75
227.856	35.75
228.09	39.75
228.324	43.75
228.559	59.75
228.793	111.75
229.027	293.75
229.262	326.75
229.496	306.75
229.73	292.75
229.964	290.75
230.199	308.75
230.433	295.75
230.667	313.75
230.901	330.75
231.136	337.75
231.37	337.75
231.604	358.75
231.838	412.75
232.072	517.75
232.306	567.75
232.541	468.75
232.775	399.75
233.009	395.75
233.243	420.75
233.477	457.75
233.711	523.75
233.945	589.75
234.179	478.75
234.413	447.75
234.647	434.75
234.881	467.75
235.115	510.75
235.349	600.75
235.583	760.75
235.817	988.75
236.051	983.75
236.285	654.75
236.519	513.75
236.753	492.75
236.987	505.75
237.221	511.75
237.455	497.75
237.689	459.75
237.922	451.75
238.156	472.75
238.39	498.75
238.624	476.75
238.858	471.75
239.091	463.75
239.325	475.75
239.559	483.75
239.793	485.75
240.027	522.75
240.26	540.75
240.494	541.75
240.728	562.75
240.961	592.75
241.195	648.75
241.429	675.75
241.662	687.75
241.896	783.75
242.13	924.75
242.363	1237.75
242.597	1569.75
242.83	1531.75
243.064	1499.75
243.298	1760.75
243.531	1445.75
243.765	934.75
243.998	782.75
244.232	687.75
244.465	667.75
244.699	632.75
244.932	648.75
245.166	689.75
245.399	665.75
245.633	669.75
245.866	662.75
246.099	653.75
246.333	658.75
246.566	658.75
246.8	616.75
247.033	635.75
247.266	613.75
247.5	653.75
247.733	696.75
247.966	683.75
248.2	731.75
248.433	870.75
248.666	1014.75
248.899	939.75
249.133	869.75
249.366	848.75
249.599	952.75
249.832	1045.75
250.066	1059.75
250.299	836.75
250.532	767.75
250.765	747.75
250.998	731.75
251.231	739.75
251.465	726.75
251.698	736.75
251.931	749.75
252.164	729.75
252.397	788.75
252.63	765.75
252.863	797.75
253.096	762.75
253.329	773.75
253.562	763.75
253.795	768.75
254.028	777.75
254.261	796.75
254.494	853.75
254.727	995.75
254.96	1217.75
255.193	1211.75
255.426	963.75
255.659	859.75
255.892	841.75
256.124	859.75
256.357	876.75
256.59	883.75
256.823	943.75
257.056	1084.75
257.289	1334.75
257.521	1472.75
257.754	1169.75
257.987	953.75
258.22	923.75
258.452	877.75
258.685	905.75
258.918	950.75
259.151	994.75
259.383	1099.75
259.616	1211.75
259.849	1257.75
260.081	1079.75
260.314	996.75
260.547	928.75
260.779	917.75
261.012	959.75
261.244	940.75
261.477	937.75
261.71	978.75
261.942	982.75
262.175	1015.75
262.407	1045.75
262.64	1040.75
262.872	1082.75
263.105	1131.75
263.337	1202.75
263.57	1281.75
263.802	1289.75
264.035	1303.75
264.267	1332.75
264.499	1350.75
264.732	1431.75
264.964	1419.75
265.197	1404.75
265.429	1437.75
265.661	1488.75
265.894	1583.75
266.126	1731.75
266.358	1960.75
266.591	1910.75
266.823	1616.75
267.055	1443.75
267.287	1393.75
267.52	1344.75
267.752	1286.75
267.984	1275.75
268.216	1266.75
268.448	1224.75
268.681	1232.75
268.913	1203.75
269.145	1232.75
269.377	1219.75
269.609	1277.75
269.841	1292.75
270.073	1352.75
270.306	1555.75
270.538	2113.75
270.77	3170.75
271.002	3852.75
271.234	2724.75
271.466	1849.75
271.698	1511.75
271.93	1406.75
272.162	1290.75
272.394	1266.75
272.626	1234.75
272.858	1192.75
273.09	1191.75
273.322	1194.75
273.553	1189.75
273.785	1184.75
274.017	1176.75
274.249	1201.75
274.481	1203.75
274.713	1222.75
274.945	1221.75
275.176	1196.75
275.408	1225.75
275.64	1204.75
275.872	1220.75
276.104	1245.75
276.335	1240.75
276.567	1273.75
276.799	1295.75
277.031	1310.75
277.262	1309.75
277.494	1388.75
277.726	1543.75
277.957	1821.75
278.189	2067.75
278.421	1924.75
278.652	1706.75
278.884	1637.75
279.115	1485.75
279.347	1368.75
279.579	1375.75
279.81	1396.75
280.042	1375.75
280.273	1379.75
280.505	1436.75
280.736	1461.75
280.968	1537.75
281.199	1737.75
281.431	2004.75
281.662	2063.75
281.894	1773.75
282.125	1599.75
282.356	1599.75
282.588	1610.75
282.819	1709.75
283.051	1812.75
283.282	2017.75
283.513	2423.75
283.745	3489.75
283.976	5547.75
284.207	7871.75
284.439	7149.75
284.67	4441.75
284.901	3661.75
285.132	3715.75
285.364	3481.75
285.595	2679.75
285.826	2369.75
286.057	2791.75
286.288	3765.75
286.52	5082.75
286.751	4673.75
286.982	2977.75
287.213	2269.75
287.444	1939.75
287.675	1843.75
287.906	1745.75
288.138	1688.75
288.369	1694.75
288.6	1694.75
288.831	1647.75
289.062	1645.75
289.293	1654.75
289.524	1651.75
289.755	1629.75
289.986	1744.75
290.217	1704.75
290.448	1699.75
290.679	1713.75
290.91	1765.75
291.141	1869.75
291.371	1968.75
291.602	2113.75
291.833	1943.75
292.064	1733.75
292.295	1648.75
292.526	1626.75
292.757	1560.75
292.987	1579.75
293.218	1595.75
293.449	1596.75
293.68	1564.75
293.91	1569.75
294.141	1587.75
294.372	1526.75
294.603	1567.75
294.833	1571.75
295.064	1533.75
295.295	1530.75
295.525	1546.75
295.756	1561.75
295.987	1540.75
296.217	1572.75
296.448	1564.75
296.679	1579.75
296.909	1615.75
297.14	1611.75
297.37	1616.75
297.601	1641.75
297.831	1624.75
298.062	1624.75
298.292	1593.75
298.523	1684.75
298.753	1703.75
298.984	1704.75
299.214	1772.75
299.445	1760.75
299.675	1762.75
299.905	1821.75
300.136	1910.75
300.366	2095.75
300.597	2665.75
300.827	3812.75
301.057	5101.75
301.288	5070.75
301.518	3296.75
301.748	2514.75
301.979	2315.75
302.209	2251.75
302.439	2271.75
302.669	2425.75
302.9	2920.75
303.13	4065.75
303.36	5913.75
303.59	7922.75
303.82	6905.75
304.051	4117.75
304.281	3036.75
304.511	2521.75
304.741	2313.75
304.971	2128.75
305.201	2045.75
305.431	1987.75
305.661	1941.75
305.891	1910.75
306.121	1879.75
306.352	1848.75
306.582	1800.75
306.812	1772.75
307.042	1791.75
307.272	1821.75
307.502	1795.75
307.731	1824.75
307.961	1801.75
308.191	1804.75
308.421	1760.75
308.651	1812.75
308.881	1759.75
309.111	1791.75
309.341	1812.75
309.571	1848.75
309.8	1846.75
310.03	1835.75
310.26	1854.75
310.49	1862.75
310.72	1865.75
310.949	1870.75
311.179	1849.75
311.409	1910.75
311.639	1890.75
311.868	1921.75
312.098	1911.75
312.328	1929.75
312.557	1956.75
312.787	1947.75
313.017	1972.75
313.246	1983.75
313.476	1950.75
313.706	2066.75
313.935	2224.75
314.165	2342.75
314.394	2445.75
314.624	2395.75
314.853	2176.75
315.083	2143.75
315.312	2145.75
315.542	2164.75
315.771	2184.75
316.001	2240.75
316.23	2313.75
316.46	2401.75
316.689	2653.75
316.919	3145.75
317.148	4451.75
317.377	6936.75
317.607	10157.75
317.836	10513.75
318.065	6450.75
318.295	4194.75
318.524	3371.75
318.753	2886.75
318.983	2717.75
319.212	2527.75
319.441	2472.75
319.67	2441.75
319.9	2344.75
320.129	2321.75
320.358	2325.75
320.587	2364.75
320.816	2342.75
321.046	2306.75
321.275	2395.75
321.504	2372.75
321.733	2419.75
321.962	2487.75
322.191	2538.75
322.42	2454.75
322.649	2501.75
322.878	2440.75
323.108	2433.75
323.337	2492.75
323.566	2529.75
323.795	2600.75
324.024	2638.75
324.253	2703.75
324.482	2811.75
324.71	2926.75
324.939	3155.75
325.168	3228.75
325.397	3332.75
325.626	4017.75
325.855	5478.75
326.084	8583.75
326.313	12415.75
326.542	13148.75
326.77	8907.75
326.999	5821.75
327.228	4884.75
327.457	4737.75
327.686	4751.75
327.914	5079.75
328.143	5991.75
328.372	7156.75
328.6	7815.75
328.829	7003.75
329.058	5756.75
329.287	5051.75
329.515	4635.75
329.744	4257.75
329.972	4058.75
330.201	3895.75
330.43	3707.75
330.658	3589.75
330.887	3545.75
331.115	3485.75
331.344	3430.75
331.572	3455.75
331.801	3471.75
332.03	3461.75
332.258	3564.75
332.486	3700.75
332.715	4287.75
332.943	5200.75
333.172	6545.75
333.4	6397.75
333.629	4956.75
333.857	4439.75
334.085	4444.75
334.314	4690.75
334.542	5079.75
334.771	6004.75
334.999	7403.75
335.227	9528.75
335.455	10434.75
335.684	9417.75
335.912	7681.75
336.14	6492.75
336.369	5648.75
336.597	5208.75
336.825	4812.75
337.053	4535.75
337.281	4227.75
337.51	3993.75
337.738	3883.75
337.966	3735.75
338.194	3545.75
338.422	3484.75
338.65	3380.75
338.878	3306.75
339.106	3223.75
339.334	3195.75
339.562	3128.75
339.79	3046.75
340.018	3057.75
340.246	3026.75
340.474	3015.75
340.702	3033.75
340.93	3022.75
341.158	3009.75
341.386	3008.75
341.614	2986.75
341.842	2871.75
342.07	2795.75
342.298	2808.75
342.526	2780.75
342.754	2721.75
342.981	2674.75
343.209	2711.75
343.437	2699.75
343.665	2801.75
343.893	2839.75
344.12	2781.75
344.348	2771.75
344.576	2706.75
344.804	2703.75
345.031	2649.75
345.259	2654.75
345.487	2585.75
345.714	2582.75
345.942	2533.75
346.17	2582.75
346.397	2517.75
346.625	2565.75
346.853	2497.75
347.08	2535.75
347.308	2521.75
347.535	2496.75
347.763	2479.75
347.99	2441.75
348.218	2455.75
348.445	2468.75
348.673	2440.75
348.9	2479.75
349.128	2452.75
349.355	2432.75
349.583	2453.75
349.81	2422.75
350.037	2397.75
350.265	2445.75
350.492	2425.75
350.72	2387.75
350.947	2421.75
351.174	2394.75
351.402	2403.75
351.629	2387.75
351.856	2368.75
352.083	2440.75
352.311	2370.75
352.538	2385.75
352.765	2356.75
352.992	2387.75
353.22	2355.75
353.447	2356.75
353.674	2366.75
353.901	2390.75
354.128	2360.75
354.355	2376.75
354.583	2383.75
354.81	2419.75
355.037	2413.75
355.264	2423.75
355.491	2412.75
355.718	2420.75
355.945	2420.75
356.172	2434.75
356.399	2427.75
356.626	2458.75
356.853	2515.75
357.08	2520.75
357.307	2534.75
357.534	2555.75
357.761	2619.75
357.988	2595.75
358.215	2509.75
358.441	2584.75
358.668	2555.75
358.895	2561.75
359.122	2558.75
359.349	2527.75
359.576	2536.75
359.802	2505.75
360.029	2489.75
360.256	2558.75
360.483	2541.75
360.709	2513.75
360.936	2543.75
361.163	2547.75
361.39	2531.75
361.616	2536.75
361.843	2544.75
362.07	2539.75
362.296	2555.75
362.523	2509.75
362.749	2551.75
362.976	2476.75
363.203	2493.75
363.429	2508.75
363.656	2516.75
363.882	2497.75
364.109	2519.75
364.335	2501.75
364.562	2496.75
364.788	2509.75
365.015	2563.75
365.241	2629.75
365.468	2716.75
365.694	2922.75
365.92	2767.75
366.147	2605.75
366.373	2557.75
366.599	2574.75
366.826	2591.75
367.052	2574.75
367.278	2624.75
367.505	2635.75
367.731	2582.75
367.957	2604.75
368.184	2602.75
368.41	2610.75
368.636	2628.75
368.862	2697.75
369.089	2615.75
369.315	2630.75
369.541	2645.75
369.767	2654.75
369.993	2623.75
370.219	2609.75
370.445	2659.75
370.672	2687.75
370.898	2636.75
371.124	2645.75
371.35	2685.75
371.576	2711.75
371.802	2719.75
372.028	2718.75
372.254	2751.75
372.48	2748.75
372.706	2783.75
372.932	2808.75
373.158	2779.75
373.384	2788.75
373.61	2757.75
373.835	2815.75
374.061	2821.75
374.287	2858.75
374.513	2877.75
374.739	2901.75
374.965	2907.75
375.191	2837.75
375.416	2941.75
375.642	2884.75
375.868	2861.75
376.094	2817.75
376.319	2780.75
376.545	2708.75
376.771	2795.75
376.997	2703.75
377.222	2711.75
377.448	2681.75
377.674	2727.75
377.899	2748.75
378.125	2701.75
378.35	2678.75
378.576	2710.75
378.802	2727.75
379.027	2778.75
379.253	2854.75
379.478	3034.75
379.704	3583.75
379.929	4989.75
380.155	7770.75
380.38	8403.75
380.606	5103.75
380.831	3659.75
381.057	3189.75
381.282	2880.75
381.507	2867.75
381.733	2771.75
381.958	2723.75
382.184	2724.75
382.409	2706.75
382.634	2615.75
382.86	2649.75
383.085	2644.75
383.31	2680.75
383.535	2686.75
383.761	2725.75
383.986	2667.75
384.211	2761.75
384.436	2743.75
384.662	2777.75
384.887	2776.75
385.112	2705.75
385.337	2749.75
385.562	2741.75
385.787	2790.75
386.013	2792.75
386.238	2766.75
386.463	2779.75
386.688	2796.75
386.913	2770.75
387.138	2701.75
387.363	2742.75
387.588	2702.75
387.813	2785.75
388.038	2736.75
388.263	2779.75
388.488	2779.75
388.713	2727.75
388.938	2723.75
389.163	2689.75
389.387	2770.75
389.612	2737.75
389.837	2766.75
390.062	2707.75
390.287	2785.75
390.512	2786.75
390.736	2830.75
390.961	2897.75
391.186	2841.75
391.411	2875.75
391.636	2841.75
391.86	2882.75
392.085	2892.75
392.31	2911.75
392.534	2865.75
392.759	2827.75
392.984	2799.75
393.208	2836.75
393.433	2847.75
393.658	2807.75
393.882	2721.75
394.107	2813.75
394.331	2790.75
394.556	2830.75
394.78	2784.75
395.005	2793.75
395.229	2789.75
395.454	2831.75
395.678	2855.75
395.903	2833.75
396.127	2888.75
396.352	2813.75
396.576	2826.75
396.801	2845.75
397.025	2933.75
397.249	2923.75
397.474	2887.75
397.698	2910.75
397.922	2936.75
398.147	2944.75
398.371	2963.75
398.595	2991.75
398.82	3053.75
399.044	3224.75
399.268	3316.75
399.492	3598.75
399.717	3656.75
399.941	3607.75
400.165	3453.75
400.389	3332.75
400.613	3232.75
400.837	3126.75
401.062	3123.75
401.286	3069.75
401.51	3029.75
401.734	2977.75
401.958	3078.75
402.182	3031.75
402.406	3004.75
402.63	3048.75
402.854	3043.75
403.078	3085.75
403.302	3143.75
403.526	3100.75
403.75	3120.75
403.974	3213.75
404.198	3108.75
404.422	3148.75
404.645	3199.75
404.869	3195.75
405.093	3152.75
405.317	3110.75
405.541	3215.75
405.765	3241.75
405.988	3290.75
406.212	3223.75
406.436	3201.75
406.66	3283.75
406.883	3258.75
407.107	3401.75
407.331	3395.75
407.555	3506.75
407.778	3414.75
408.002	3357.75
408.226	3395.75
408.449	3375.75
408.673	3343.75
408.896	3262.75
409.12	3224.75
409.344	3229.75
409.567	3182.75
409.791	3151.75
410.014	3156.75
410.238	3136.75
410.461	3134.75
410.685	3116.75
410.908	3112.75
411.132	3143.75
411.355	3007.75
411.578	3012.75
411.802	3043.75
412.025	3029.75
412.249	3043.75
412.472	3024.75
412.695	3025.75
412.919	2918.75
413.142	2987.75
413.365	2968.75
413.589	3018.75
413.812	2913.75
414.035	2938.75
414.258	2966.75
414.482	3041.75
414.705	2979.75
414.928	2949.75
415.151	2941.75
415.374	2897.75
415.597	2862.75
415.821	2833.75
416.044	2837.75
416.267	2847.75
416.49	2843.75
416.713	2854.75
416.936	2881.75
417.159	2819.75
417.382	2815.75
417.605	2795.75
417.828	2816.75
418.051	2851.75
418.274	2879.75
418.497	2899.75
418.72	2999.75
418.943	2902.75
419.166	3049.75
419.389	3196.75
419.611	3099.75
419.834	3026.75
420.057	2957.75
420.28	2946.75
420.503	2827.75
420.726	2881.75
420.948	2861.75
421.171	2851.75
421.394	2882.75
421.617	2863.75
421.839	2941.75
422.062	2889.75
422.285	2813.75
422.507	2895.75
422.73	2884.75
422.953	2913.75
423.175	2963.75
423.398	2893.75
423.621	2822.75
423.843	2871.75
424.066	2864.75
424.288	2811.75
424.511	2875.75
424.733	2851.75
424.956	2835.75
425.178	2852.75
425.401	2852.75
425.623	2831.75
425.846	2796.75
426.068	2723.75
426.291	2710.75
426.513	2750.75
426.735	2755.75
426.958	2768.75
427.18	2668.75
427.402	2685.75
427.625	2678.75
427.847	2621.75
428.069	2629.75
428.292	2683.75
428.514	2648.75
428.736	2601.75
428.958	2636.75
429.181	2618.75
429.403	2607.75
429.625	2658.75
429.847	2606.75
430.069	2688.75
430.292	2776.75
430.514	2865.75
430.736	2848.75
430.958	2623.75
431.18	2632.75
431.402	2625.75
431.624	2613.75
431.846	2620.75
432.068	2556.75
432.29	2565.75
432.512	2581.75
432.734	2620.75
432.956	2632.75
433.178	2595.75
433.4	2631.75
433.622	2657.75
433.844	2653.75
434.066	2630.75
434.287	2624.75
434.509	2707.75
434.731	2743.75
434.953	2731.75
435.175	2759.75
435.397	2749.75
435.618	2643.75
435.84	2667.75
436.062	2593.75
436.284	2561.75
436.505	2539.75
436.727	2567.75
436.949	2585.75
437.17	2653.75
437.392	2550.75
437.614	2569.75
437.835	2513.75
438.057	2537.75
438.278	2555.75
438.5	2561.75
438.721	2614.75
438.943	2652.75
439.165	2700.75
439.386	2715.75
439.608	2737.75
439.829	2718.75
440.05	2734.75
440.272	2846.75
440.493	2738.75
440.715	2665.75
440.936	2731.75
441.158	2789.75
441.379	2710.75
441.6	2847.75
441.822	2900.75
442.043	3041.75
442.264	3119.75
442.486	2957.75
442.707	2849.75
442.928	2785.75
443.149	2808.75
443.371	2815.75
443.592	2788.75
443.813	2835.75
444.034	2850.75
444.255	2872.75
444.476	2906.75
444.698	2986.75
444.919	3004.75
445.14	3076.75
445.361	2943.75
445.582	2931.75
445.803	2832.75
446.024	2788.75
446.245	2771.75
446.466	2748.75
446.687	2749.75
446.908	2748.75
447.129	2647.75
447.35	2637.75
447.571	2590.75
447.792	2534.75
448.013	2584.75
448.234	2571.75
448.455	2565.75
448.675	2625.75
448.896	2670.75
449.117	2766.75
449.338	2964.75
449.559	3080.75
449.779	2797.75
450	2593.75
450.221	2549.75
450.442	2584.75
450.662	2551.75
450.883	2551.75
451.104	2540.75
451.324	2500.75
451.545	2553.75
451.766	2536.75
451.986	2575.75
452.207	2804.75
452.428	3551.75
452.648	5313.75
452.869	4477.75
453.089	3091.75
453.31	2942.75
453.53	2881.75
453.751	3010.75
453.971	3165.75
454.192	3003.75
454.412	2689.75
454.633	2507.75
454.853	2483.75
455.073	2420.75
455.294	2441.75
455.514	2371.75
455.734	2404.75
455.955	2338.75
456.175	2408.75
456.395	2383.75
456.616	2392.75
456.836	2451.75
457.056	2457.75
457.276	2451.75
457.497	2594.75
457.717	2585.75
457.937	2605.75
458.157	2561.75
458.377	2558.75
458.598	2576.75
458.818	2601.75
459.038	2649.75
459.258	2632.75
459.478	2622.75
459.698	2661.75
459.918	2718.75
460.138	2691.75
460.358	2750.75
460.578	2824.75
460.798	2797.75
461.018	2862.75
461.238	2820.75
461.458	2851.75
461.678	2889.75
461.898	2995.75
462.118	2999.75
462.338	3005.75
462.558	3097.75
462.777	3095.75
462.997	3275.75
463.217	3317.75
463.437	3492.75
463.657	3563.75
463.876	3531.75
464.096	3344.75
464.316	3165.75
464.536	3169.75
464.755	3087.75
464.975	3034.75
465.195	2927.75
465.414	2814.75
465.634	2677.75
465.854	2663.75
466.073	2693.75
466.293	2690.75
466.512	2635.75
466.732	2648.75
466.951	2760.75
467.171	2977.75
467.391	2919.75
467.61	2697.75
467.829	2617.75
468.049	2611.75
468.268	2557.75
468.488	2559.75
468.707	2507.75
468.927	2595.75
469.146	2563.75
469.365	2599.75
469.585	2617.75
469.804	2650.75
470.023	2751.75
470.243	2730.75
470.462	2818.75
470.681	2961.75
470.901	3273.75
471.12	3709.75
471.339	3742.75
471.558	3166.75
471.777	2865.75
471.997	2731.75
472.216	2703.75
472.435	2642.75
472.654	2570.75
472.873	2548.75
473.092	2587.75
473.311	2635.75
473.53	2646.75
473.749	2633.75
473.968	2776.75
474.187	2645.75
474.406	2593.75
474.625	2569.75
474.844	2622.75
475.063	2565.75
475.282	2611.75
475.501	2563.75
475.72	2620.75
475.939	2707.75
476.158	2693.75
476.377	2716.75
476.596	2687.75
476.814	2752.75
477.033	2689.75
477.252	2721.75
477.471	2780.75
477.69	2897.75
477.908	2940.75
478.127	2944.75
478.346	2985.75
478.564	3004.75
478.783	2997.75
479.002	3072.75
479.22	3100.75
479.439	3074.75
479.658	3042.75
479.876	3093.75
480.095	3160.75
480.313	3199.75
480.532	3197.75
480.751	3197.75
480.969	3192.75
481.188	3172.75
481.406	3127.75
481.624	3103.75
481.843	3135.75
482.061	3109.75
482.28	3123.75
482.498	3103.75
482.717	3121.75
482.935	3201.75
483.153	3161.75
483.372	3188.75
483.59	3235.75
483.808	3316.75
484.027	3373.75
484.245	3628.75
484.463	4040.75
484.681	4462.75
484.9	4094.75
485.118	3859.75
485.336	3694.75
485.554	3808.75
485.772	3996.75
485.99	4501.75
486.209	4832.75
486.427	4063.75
486.645	3653.75
486.863	3481.75
487.081	3411.75
487.299	3340.75
487.517	3351.75
487.735	3347.75
487.953	3365.75
488.171	3325.75
488.389	3280.75
488.607	3244.75
488.825	3253.75
489.043	3210.75
489.261	3255.75
489.479	3234.75
489.696	3295.75
489.914	3191.75
490.132	3256.75
490.35	3315.75
490.568	3320.75
490.786	3291.75
491.003	3364.75
491.221	3378.75
491.439	3405.75
491.657	3375.75
491.874	3411.75
492.092	3411.75
492.31	3428.75
492.527	3399.75
492.745	3429.75
492.963	3354.75
493.18	3365.75
493.398	3372.75
493.615	3382.75
493.833	3355.75
494.05	3365.75
494.268	3377.75
494.485	3414.75
494.703	3394.75
494.92	3409.75
495.138	3369.75
495.355	3437.75
495.573	3439.75
495.79	3404.75
496.008	3467.75
496.225	3475.75
496.442	3599.75
496.66	3664.75
496.877	3826.75
497.094	3752.75
497.312	3678.75
497.529	3664.75
497.746	3772.75
497.963	3768.75
498.181	3858.75
498.398	3937.75
498.615	4090.75
498.832	4207.75
499.049	4393.75
499.267	4800.75
499.484	5128.75
499.701	5045.75
499.918	5174.75
500.135	5493.75
500.352	5647.75
500.569	5753.75
500.786	5734.75
501.003	5466.75
501.22	5335.75
501.437	4951.75
501.654	4655.75
501.871	4576.75
502.088	4298.75
502.305	4245.75
502.522	4123.75
502.739	3999.75
502.956	3857.75
503.172	3724.75
503.389	3667.75
503.606	3623.75
503.823	3640.75
504.04	3540.75
504.256	3470.75
504.473	3527.75
504.69	3520.75
504.907	3506.75
505.123	3479.75
505.34	3327.75
505.557	3223.75
505.773	3201.75
505.99	3184.75
506.207	3139.75
506.423	3125.75
506.64	3053.75
506.856	3051.75
507.073	3011.75
507.289	2997.75
507.506	3042.75
507.722	2991.75
507.939	2943.75
508.155	2987.75
508.372	2963.75
508.588	2979.75
508.805	2917.75
509.021	2924.75
509.238	2953.75
509.454	3153.75
509.67	3335.75
509.887	3067.75
510.103	2999.75
510.319	2896.75
510.536	2956.75
510.752	2871.75
510.968	2870.75
511.184	2812.75
511.401	2843.75
511.617	2824.75
511.833	2830.75
512.049	2807.75
512.265	2804.75
512.481	2817.75
512.698	2785.75
512.914	2814.75
513.13	2790.75
513.346	2818.75
513.562	2786.75
513.778	2864.75
513.994	2865.75
514.21	2950.75
514.426	3151.75
514.642	3241.75
514.858	2941.75
515.074	2901.75
515.29	2861.75
515.506	2849.75
515.721	2863.75
515.937	2839.75
516.153	2883.75
516.369	2955.75
516.585	3025.75
516.801	3028.75
517.016	3069.75
517.232	3170.75
517.448	3168.75
517.664	3179.75
517.879	3206.75
518.095	3214.75
518.311	3218.75
518.527	3133.75
518.742	3077.75
518.958	3158.75
519.173	3188.75
519.389	3111.75
519.605	2941.75
519.82	2941.75
520.036	2939.75
520.251	2852.75
520.467	2805.75
520.682	2809.75
520.898	2843.75
521.113	2728.75
521.329	2774.75
521.544	2732.75
521.76	2779.75
521.975	2782.75
522.19	2747.75
522.406	2721.75
522.621	2736.75
522.836	2668.75
523.052	2720.75
523.267	2696.75
523.482	2707.75
523.698	2766.75
523.913	2703.75
524.128	2687.75
524.343	2679.75
524.559	2675.75
524.774	2700.75
524.989	2713.75
525.204	2694.75
525.419	2670.75
525.634	2648.75
525.849	2709.75
526.064	2692.75
526.28	2715.75
526.495	2717.75
526.71	2697.75
526.925	2737.75
527.14	2714.75
527.355	2697.75
527.57	2739.75
527.785	2703.75
527.999	2749.75
528.214	2788.75
528.429	2762.75
528.644	2766.75
528.859	2818.75
529.074	2846.75
529.289	2904.75
529.503	2904.75
529.718	2880.75
529.933	2895.75
530.148	2884.75
530.363	2847.75
530.577	2813.75
530.792	2897.75
531.007	2918.75
531.221	2960.75
531.436	2963.75
531.651	2968.75
531.865	2987.75
532.08	3059.75
532.295	3146.75
532.509	3397.75
532.724	3381.75
532.938	3439.75
533.153	3536.75
533.367	3837.75
533.582	3985.75
533.796	3975.75
534.011	3766.75
534.225	3588.75
534.44	3463.75
534.654	3367.75
534.868	3280.75
535.083	3271.75
535.297	3245.75
535.511	3168.75
535.726	3095.75
535.94	3029.75
536.154	2967.75
536.369	2979.75
536.583	2959.75
536.797	2886.75
537.011	2853.75
537.225	2838.75
537.44	2807.75
537.654	2799.75
537.868	2755.75
538.082	2743.75
538.296	2716.75
538.51	2696.75
538.724	2721.75
538.938	2679.75
539.153	2637.75
539.367	2635.75
539.581	2611.75
539.795	2557.75
540.009	2584.75
540.222	2552.75
540.436	2545.75
540.65	2598.75
540.864	2626.75
541.078	2678.75
541.292	2781.75
541.506	3239.75
541.72	3489.75
541.934	2973.75
542.147	2856.75
542.361	2745.75
542.575	2662.75
542.789	2592.75
543.002	2565.75
543.216	2499.75
543.43	2480.75
543.644	2476.75
543.857	2457.75
544.071	2501.75
544.285	2540.75
544.498	2541.75
544.712	2555.75
544.925	2534.75
545.139	2482.75
545.352	2489.75
545.566	2507.75
545.779	2531.75
545.993	2574.75
546.206	2500.75
546.42	2475.75
546.633	2539.75
546.847	2510.75
547.06	2526.75
547.274	2536.75
547.487	2555.75
547.7	2528.75
547.914	2505.75
548.127	2532.75
548.34	2557.75
548.554	2538.75
548.767	2503.75
548.98	2525.75
549.193	2534.75
549.407	2508.75
549.62	2547.75
549.833	2596.75
550.046	2554.75
550.259	2552.75
550.473	2501.75
550.686	2609.75
550.899	2557.75
551.112	2525.75
551.325	2519.75
551.538	2549.75
551.751	2550.75
551.964	2475.75
552.177	2562.75
552.39	2581.75
552.603	2667.75
552.816	2674.75
553.029	2701.75
553.242	2817.75
553.455	2830.75
553.667	2806.75
553.88	2832.75
554.093	2853.75
554.306	2858.75
554.519	2887.75
554.732	2888.75
554.944	2981.75
555.157	3088.75
555.37	3106.75
555.583	3292.75
555.795	3383.75
556.008	3707.75
556.221	4147.75
556.433	4457.75
556.646	4475.75
556.859	4278.75
557.071	4076.75
557.284	3939.75
557.496	3803.75
557.709	3726.75
557.921	3676.75
558.134	3691.75
558.346	3725.75
558.559	3908.75
558.771	4116.75
558.984	4513.75
559.196	4889.75
559.409	4637.75
559.621	4245.75
559.833	3972.75
560.046	3744.75
560.258	3543.75
560.47	3366.75
560.683	3201.75
560.895	3113.75
561.107	2950.75
561.32	2917.75
561.532	2851.75
561.744	2737.75
561.956	2759.75
562.168	2687.75
562.381	2633.75
562.593	2614.75
562.805	2668.75
563.017	2732.75
563.229	2713.75
563.441	3122.75
563.653	2650.75
563.865	2453.75
564.077	2454.75
564.289	2369.75
564.501	2384.75
564.713	2345.75
564.925	2357.75
565.137	2337.75
565.349	2332.75
565.561	2344.75
565.773	2369.75
565.985	2373.75
566.197	2381.75
566.408	2430.75
566.62	2530.75
566.832	2577.75
567.044	2588.75
567.255	2594.75
567.467	2587.75
567.679	2625.75
567.891	2830.75
568.102	3102.75
568.314	3553.75
568.526	3085.75
568.737	2701.75
568.949	2481.75
569.161	2329.75
569.372	2203.75
569.584	2142.75
569.795	2116.75
570.007	2146.75
570.218	2131.75
570.43	2248.75
570.641	2075.75
570.853	2004.75
571.064	2023.75
571.276	1968.75
571.487	1912.75
571.698	1877.75
571.91	1828.75
572.121	1872.75
572.333	1865.75
572.544	1837.75
572.755	1996.75
572.966	2254.75
573.178	2097.75
573.389	1847.75
573.6	1823.75
573.811	1792.75
574.023	1768.75
574.234	1733.75
574.445	1698.75
574.656	1715.75
574.867	1687.75
575.078	1707.75
575.289	1745.75
575.501	1719.75
575.712	1681.75
575.923	1679.75
576.134	1699.75
576.345	1700.75
576.556	1691.75
576.767	1687.75
576.978	1716.75
577.188	1704.75
577.399	1684.75
577.61	1726.75
577.821	1745.75
578.032	1744.75
578.243	1793.75
578.454	1829.75
578.665	1861.75
578.875	1921.75
579.086	1965.75
579.297	2038.75
579.508	2209.75
579.718	2433.75
579.929	2753.75
580.14	3315.75
580.35	3373.75
580.561	2989.75
580.772	2671.75
580.982	2508.75
581.193	2340.75
581.403	2172.75
581.614	2111.75
581.825	1997.75
582.035	1966.75
582.246	1853.75
582.456	1841.75
582.667	1807.75
582.877	1800.75
583.087	1701.75
583.298	1627.75
583.508	1628.75
583.719	1563.75
583.929	1559.75
584.139	1522.75
584.35	1478.75
584.56	1471.75
584.77	1460.75
584.981	1415.75
585.191	1416.75
585.401	1432.75
585.611	1343.75
585.821	1376.75
586.032	1371.75
586.242	1344.75
586.452	1328.75
586.662	1309.75
586.872	1285.75
587.082	1285.75
587.292	1254.75
587.502	1289.75
587.713	1250.75
587.923	1278.75
588.133	1217.75
588.343	1221.75
588.553	1248.75
588.762	1205.75
588.972	1204.75
589.182	1232.75
589.392	1211.75
589.602	1193.75
589.812	1166.75
590.022	1220.75
590.232	1158.75
590.441	1161.75
590.651	1198.75
590.861	1153.75
591.071	1181.75
591.281	1154.75
591.49	1157.75
591.7	1198.75
591.91	1211.75
592.119	1141.75
592.329	1198.75
592.539	1192.75
592.748	1216.75
592.958	1208.75
593.167	1208.75
593.377	1216.75
593.587	1230.75
593.796	1214.75
594.006	1251.75
594.215	1229.75
594.424	1189.75
594.634	1191.75
594.843	1180.75
595.053	1185.75
595.262	1159.75
595.472	1137.75
595.681	1102.75
595.89	1079.75
596.1	1075.75
596.309	1056.75
596.518	1051.75
596.727	1043.75
596.937	1046.75
597.146	1039.75
597.355	1021.75
597.564	993.75
597.774	984.75
597.983	964.75
598.192	973.75
598.401	985.75
598.61	948.75
598.819	969.75
599.028	964.75
599.237	977.75
599.446	953.75
599.655	960.75
599.864	944.75
600.073	882.75
600.282	942.75
600.491	908.75
600.7	941.75
600.909	898.75
601.118	957.75
601.327	940.75
601.536	921.75
601.745	980.75
601.953	1055.75
602.162	1194.75
602.371	1046.75
602.58	975.75
602.789	951.75
602.997	926.75
603.206	919.75
603.415	894.75
603.623	934.75
603.832	891.75
604.041	915.75
604.249	881.75
604.458	898.75
604.666	863.75
604.875	886.75
605.084	842.75
605.292	864.75
605.501	902.75
605.709	877.75
605.918	893.75
606.126	878.75
606.334	910.75
606.543	917.75
606.751	987.75
606.96	1107.75
607.168	1225.75
607.376	1041.75
607.585	970.75
607.793	920.75
608.001	916.75
608.21	898.75
608.418	865.75
608.626	880.75
608.834	875.75
609.043	843.75
609.251	855.75
609.459	832.75
609.667	845.75
609.875	820.75
610.083	819.75
610.291	802.75
610.499	840.75
610.707	813.75
610.916	817.75
611.124	807.75
611.332	822.75
611.54	809.75
611.748	772.75
611.955	803.75
612.163	808.75
612.371	803.75
612.579	791.75
612.787	800.75
612.995	791.75
613.203	793.75
613.411	805.75
613.618	776.75
613.826	805.75
614.034	787.75
614.242	792.75
614.449	769.75
614.657	766.75
614.865	771.75
615.072	763.75
615.28	791.75
615.488	816.75
615.695	804.75
615.903	793.75
616.111	785.75
616.318	787.75
616.526	774.75
616.733	787.75
616.941	744.75
617.148	759.75
617.356	760.75
617.563	779.75
617.771	787.75
617.978	757.75
618.185	748.75
618.393	761.75
618.6	769.75
618.807	751.75
619.015	768.75
619.222	752.75
619.429	728.75
619.637	748.75
619.844	717.75
620.051	727.75
620.258	693.75
620.466	697.75
620.673	692.75
620.88	684.75
621.087	676.75
621.294	701.75
621.501	681.75
621.708	691.75
621.915	685.75
622.122	688.75
622.329	696.75
622.536	704.75
622.743	683.75
622.95	683.75
623.157	691.75
623.364	673.75
623.571	683.75
623.778	694.75
623.985	683.75
624.192	688.75
624.399	653.75
624.606	675.75
624.812	668.75
625.019	653.75
625.226	640.75
625.433	644.75
625.639	634.75
625.846	641.75
626.053	635.75
626.259	646.75
626.466	629.75
626.673	628.75
626.879	602.75
627.086	605.75
627.293	627.75
627.499	622.75
627.706	650.75
627.912	652.75
628.119	630.75
628.325	635.75
628.532	629.75
628.738	629.75
628.945	621.75
629.151	593.75
629.357	605.75
629.564	598.75
629.77	608.75
629.976	605.75
630.183	577.75
630.389	604.75
630.595	599.75
630.802	606.75
631.008	565.75
631.214	591.75
631.42	573.75
631.627	579.75
631.833	581.75
632.039	572.75
632.245	604.75
632.451	593.75
632.657	576.75
632.863	565.75
633.069	583.75
633.275	559.75
633.481	550.75
633.688	561.75
633.893	579.75
634.099	595.75
634.305	592.75
634.511	569.75
634.717	589.75
634.923	595.75
635.129	675.75
635.335	755.75
635.541	667.75
635.747	615.75
635.952	605.75
636.158	604.75
636.364	580.75
636.57	573.75
636.775	582.75
636.981	603.75
637.187	549.75
637.392	562.75
637.598	577.75
637.804	590.75
638.009	589.75
638.215	584.75
638.421	602.75
638.626	591.75
638.832	569.75
639.037	579.75
639.243	574.75
639.448	596.75
639.654	600.75
639.859	613.75
640.065	600.75
640.27	604.75
640.475	613.75
640.681	597.75
640.886	596.75
641.091	622.75
641.297	629.75
641.502	633.75
641.707	628.75
641.913	627.75
642.118	642.75
642.323	643.75
642.528	686.75
642.733	686.75
642.939	693.75
643.144	719.75
643.349	755.75
643.554	770.75
643.759	806.75
643.964	824.75
644.169	896.75
644.374	964.75
644.579	1036.75
644.784	1148.75
644.989	1294.75
645.194	1561.75
645.399	1876.75
645.604	2067.75
645.809	1484.75
646.014	1179.75
646.219	960.75
646.423	877.75
646.628	757.75
646.833	712.75
647.038	653.75
647.243	651.75
647.447	623.75
647.652	632.75
647.857	571.75
648.062	589.75
648.266	569.75
648.471	542.75
648.676	544.75
648.88	544.75
649.085	528.75
649.289	519.75
649.494	509.75
649.698	500.75
649.903	489.75
650.107	487.75
650.312	495.75
650.516	484.75
650.721	475.75
650.925	472.75
651.13	457.75
651.334	437.75
651.539	433.75
651.743	419.75
651.947	422.75
652.152	423.75
652.356	430.75
652.56	448.75
652.764	494.75
652.969	429.75
653.173	384.75
653.377	391.75
653.581	384.75
653.785	380.75
653.99	374.75
654.194	372.75
654.398	357.75
654.602	367.75
654.806	351.75
655.01	336.75
655.214	361.75
655.418	354.75
655.622	343.75
655.826	360.75
656.03	352.75
656.234	373.75
656.438	365.75
656.642	372.75
656.846	367.75
657.049	335.75
657.253	341.75
657.457	301.75
657.661	283.75
657.865	289.75
658.068	264.75
658.272	247.75
658.476	224.75
658.68	220.75
658.883	212.75
659.087	212.75
659.291	197.75
659.494	187.75
659.698	188.75
659.901	170.75
660.105	175.75
660.309	172.75
660.512	168.75
660.716	144.75
660.919	144.75
661.123	149.75
661.326	131.75
661.53	129.75
661.733	109.75
661.936	115.75
662.14	102.75
662.343	110.75
662.546	113.75
662.75	110.75
662.953	102.75
663.156	83.75
663.36	106.75
663.563	107.75
663.766	90.75
663.969	69.75
664.173	86.75
664.376	79.75
664.579	82.75
664.782	79.75
664.985	93.75
665.188	92.75
665.391	84.75
665.594	85.75
665.797	59.75
666	87.75
666.203	73.75
666.406	87.75
666.609	87.75
666.812	62.75
667.015	73.75
667.218	84.75
667.421	83.75
667.624	86.75
667.827	92.75
668.03	98.75
668.232	86.75
668.435	91.75
668.638	83.75
668.841	84.75
669.043	74.75
669.246	89.75
669.449	87.75
669.651	74.75
669.854	85.75
670.057	89.75
670.259	80.75
670.462	79.75
670.665	85.75
670.867	100.75
671.07	72.75
671.272	87.75
671.475	82.75
671.677	86.75
671.88	90.75
672.082	94.75
672.284	81.75
672.487	86.75
672.689	64.75
672.892	77.75
