Data from SnStandardFlinnAPT0064_QswitchEnergy10_LIBS07252019.E.O._I.C._HRD10591_15-27-28-974.txt Node
Date: Thu Jul 25 15:27:28 EDT 2019
User: cochatt
Spectrometer: HR+D1059
Trigger mode: 1
Integration Time (sec): 1.000000E-1
Scans to average: 1
Electric dark correction enabled: true
Nonlinearity correction enabled: false
Boxcar width: 0
XAxis mode: Wavelengths
Number of Pixels in Spectrum: 2048
>>>>>Begin Spectral Data<<<<<
223.165	-18.25
223.4	-18.25
223.635	-18.25
223.869	-6.25
224.104	-4.25
224.338	-8.25
224.573	-25.25
224.808	-12.25
225.042	-6.25
225.277	-27.25
225.511	-3.25
225.746	5.75
225.98	21.75
226.215	-4.25
226.449	21.75
226.683	14.75
226.918	31.75
227.152	19.75
227.387	40.75
227.621	39.75
227.856	40.75
228.09	39.75
228.324	54.75
228.559	65.75
228.793	56.75
229.027	71.75
229.262	77.75
229.496	69.75
229.73	71.75
229.964	86.75
230.199	81.75
230.433	76.75
230.667	89.75
230.901	68.75
231.136	92.75
231.37	86.75
231.604	82.75
231.838	92.75
232.072	114.75
232.306	109.75
232.541	94.75
232.775	82.75
233.009	87.75
233.243	88.75
233.477	98.75
233.711	109.75
233.945	107.75
234.179	101.75
234.413	83.75
234.647	83.75
234.881	86.75
235.115	96.75
235.349	81.75
235.583	101.75
235.817	125.75
236.051	128.75
236.285	99.75
236.519	79.75
236.753	65.75
236.987	94.75
237.221	89.75
237.455	76.75
237.689	84.75
237.922	79.75
238.156	75.75
238.39	83.75
238.624	104.75
238.858	110.75
239.091	83.75
239.325	76.75
239.559	85.75
239.793	94.75
240.027	83.75
240.26	81.75
240.494	96.75
240.728	83.75
240.961	76.75
241.195	97.75
241.429	89.75
241.662	95.75
241.896	83.75
242.13	93.75
242.363	116.75
242.597	151.75
242.83	132.75
243.064	142.75
243.298	166.75
243.531	144.75
243.765	100.75
243.998	84.75
244.232	80.75
244.465	84.75
244.699	76.75
244.932	79.75
245.166	87.75
245.399	84.75
245.633	88.75
245.866	88.75
246.099	86.75
246.333	70.75
246.566	70.75
246.8	91.75
247.033	69.75
247.266	68.75
247.5	102.75
247.733	79.75
247.966	83.75
248.2	102.75
248.433	120.75
248.666	129.75
248.899	122.75
249.133	99.75
249.366	90.75
249.599	98.75
249.832	133.75
250.066	121.75
250.299	93.75
250.532	73.75
250.765	74.75
250.998	86.75
251.231	74.75
251.465	84.75
251.698	89.75
251.931	88.75
252.164	75.75
252.397	93.75
252.63	95.75
252.863	86.75
253.096	100.75
253.329	89.75
253.562	88.75
253.795	75.75
254.028	81.75
254.261	86.75
254.494	88.75
254.727	115.75
254.96	141.75
255.193	139.75
255.426	84.75
255.659	88.75
255.892	93.75
256.124	102.75
256.357	78.75
256.59	90.75
256.823	90.75
257.056	107.75
257.289	136.75
257.521	180.75
257.754	117.75
257.987	102.75
258.22	82.75
258.452	91.75
258.685	95.75
258.918	76.75
259.151	104.75
259.383	98.75
259.616	124.75
259.849	129.75
260.081	106.75
260.314	87.75
260.547	79.75
260.779	86.75
261.012	102.75
261.244	78.75
261.477	79.75
261.71	92.75
261.942	87.75
262.175	99.75
262.407	76.75
262.64	92.75
262.872	88.75
263.105	81.75
263.337	89.75
263.57	66.75
263.802	100.75
264.035	90.75
264.267	93.75
264.499	87.75
264.732	100.75
264.964	90.75
265.197	89.75
265.429	85.75
265.661	105.75
265.894	98.75
266.126	118.75
266.358	155.75
266.591	153.75
266.823	85.75
267.055	89.75
267.287	98.75
267.52	83.75
267.752	93.75
267.984	86.75
268.216	95.75
268.448	84.75
268.681	81.75
268.913	90.75
269.145	111.75
269.377	88.75
269.609	102.75
269.841	101.75
270.073	106.75
270.306	111.75
270.538	188.75
270.77	301.75
271.002	329.75
271.234	201.75
271.466	126.75
271.698	100.75
271.93	87.75
272.162	94.75
272.394	101.75
272.626	75.75
272.858	91.75
273.09	67.75
273.322	86.75
273.553	98.75
273.785	93.75
274.017	86.75
274.249	91.75
274.481	94.75
274.713	74.75
274.945	90.75
275.176	87.75
275.408	90.75
275.64	90.75
275.872	94.75
276.104	97.75
276.335	118.75
276.567	106.75
276.799	93.75
277.031	73.75
277.262	106.75
277.494	104.75
277.726	131.75
277.957	167.75
278.189	236.75
278.421	208.75
278.652	179.75
278.884	154.75
279.115	135.75
279.347	97.75
279.579	92.75
279.81	97.75
280.042	113.75
280.273	102.75
280.505	102.75
280.736	100.75
280.968	110.75
281.199	162.75
281.431	212.75
281.662	229.75
281.894	152.75
282.125	106.75
282.356	126.75
282.588	106.75
282.819	103.75
283.051	120.75
283.282	153.75
283.513	165.75
283.745	292.75
283.976	508.75
284.207	748.75
284.439	551.75
284.67	241.75
284.901	245.75
285.132	308.75
285.364	363.75
285.595	206.75
285.826	168.75
286.057	236.75
286.288	373.75
286.52	561.75
286.751	461.75
286.982	167.75
287.213	128.75
287.444	110.75
287.675	85.75
287.906	105.75
288.138	91.75
288.369	85.75
288.6	78.75
288.831	101.75
289.062	78.75
289.293	94.75
289.524	97.75
289.755	102.75
289.986	89.75
290.217	100.75
290.448	99.75
290.679	113.75
290.91	127.75
291.141	156.75
291.371	205.75
291.602	229.75
291.833	162.75
292.064	102.75
292.295	94.75
292.526	98.75
292.757	103.75
292.987	100.75
293.218	89.75
293.449	97.75
293.68	83.75
293.91	90.75
294.141	87.75
294.372	101.75
294.603	97.75
294.833	93.75
295.064	93.75
295.295	94.75
295.525	112.75
295.756	105.75
295.987	98.75
296.217	100.75
296.448	92.75
296.679	106.75
296.909	106.75
297.14	100.75
297.37	111.75
297.601	97.75
297.831	112.75
298.062	106.75
298.292	98.75
298.523	93.75
298.753	97.75
298.984	110.75
299.214	101.75
299.445	101.75
299.675	99.75
299.905	115.75
300.136	116.75
300.366	149.75
300.597	259.75
300.827	418.75
301.057	662.75
301.288	572.75
301.518	236.75
301.748	131.75
301.979	121.75
302.209	125.75
302.439	124.75
302.669	155.75
302.9	272.75
303.13	445.75
303.36	780.75
303.59	1089.75
303.82	760.75
304.051	261.75
304.281	144.75
304.511	120.75
304.741	122.75
304.971	110.75
305.201	118.75
305.431	106.75
305.661	99.75
305.891	100.75
306.121	104.75
306.352	95.75
306.582	109.75
306.812	108.75
307.042	106.75
307.272	106.75
307.502	93.75
307.731	113.75
307.961	100.75
308.191	92.75
308.421	114.75
308.651	94.75
308.881	99.75
309.111	100.75
309.341	107.75
309.571	116.75
309.8	111.75
310.03	97.75
310.26	97.75
310.49	107.75
310.72	103.75
310.949	111.75
311.179	102.75
311.409	115.75
311.639	107.75
311.868	113.75
312.098	126.75
312.328	119.75
312.557	118.75
312.787	101.75
313.017	119.75
313.246	118.75
313.476	117.75
313.706	124.75
313.935	144.75
314.165	179.75
314.394	196.75
314.624	148.75
314.853	124.75
315.083	137.75
315.312	118.75
315.542	118.75
315.771	121.75
316.001	137.75
316.23	143.75
316.46	149.75
316.689	167.75
316.919	230.75
317.148	457.75
317.377	847.75
317.607	1366.75
317.836	1246.75
318.065	462.75
318.295	206.75
318.524	152.75
318.753	139.75
318.983	125.75
319.212	129.75
319.441	127.75
319.67	113.75
319.9	123.75
320.129	124.75
320.358	119.75
320.587	106.75
320.816	98.75
321.046	117.75
321.275	127.75
321.504	115.75
321.733	131.75
321.962	145.75
322.191	150.75
322.42	142.75
322.649	123.75
322.878	115.75
323.108	125.75
323.337	122.75
323.566	113.75
323.795	121.75
324.024	131.75
324.253	134.75
324.482	163.75
324.71	218.75
324.939	242.75
325.168	212.75
325.397	185.75
325.626	233.75
325.855	444.75
326.084	842.75
326.313	1403.75
326.542	1435.75
326.77	553.75
326.999	239.75
327.228	203.75
327.457	191.75
327.686	211.75
327.914	146.75
328.143	130.75
328.372	129.75
328.6	120.75
328.829	108.75
329.058	107.75
329.287	99.75
329.515	119.75
329.744	122.75
329.972	113.75
330.201	105.75
330.43	97.75
330.658	100.75
330.887	116.75
331.115	124.75
331.344	124.75
331.572	110.75
331.801	112.75
332.03	122.75
332.258	139.75
332.486	165.75
332.715	271.75
332.943	464.75
333.172	694.75
333.4	586.75
333.629	241.75
333.857	149.75
334.085	125.75
334.314	110.75
334.542	119.75
334.771	123.75
334.999	127.75
335.227	120.75
335.455	122.75
335.684	127.75
335.912	102.75
336.14	116.75
336.369	105.75
336.597	120.75
336.825	124.75
337.053	93.75
337.281	110.75
337.51	125.75
337.738	90.75
337.966	106.75
338.194	117.75
338.422	108.75
338.65	111.75
338.878	114.75
339.106	126.75
339.334	124.75
339.562	115.75
339.79	115.75
340.018	95.75
340.246	108.75
340.474	106.75
340.702	114.75
340.93	109.75
341.158	108.75
341.386	108.75
341.614	112.75
341.842	121.75
342.07	117.75
342.298	102.75
342.526	120.75
342.754	113.75
342.981	111.75
343.209	105.75
343.437	108.75
343.665	97.75
343.893	101.75
344.12	98.75
344.348	125.75
344.576	106.75
344.804	119.75
345.031	118.75
345.259	105.75
345.487	105.75
345.714	106.75
345.942	105.75
346.17	108.75
346.397	104.75
346.625	95.75
346.853	112.75
347.08	100.75
347.308	121.75
347.535	113.75
347.763	117.75
347.99	100.75
348.218	114.75
348.445	106.75
348.673	115.75
348.9	111.75
349.128	121.75
349.355	124.75
349.583	120.75
349.81	104.75
350.037	133.75
350.265	101.75
350.492	114.75
350.72	104.75
350.947	109.75
351.174	109.75
351.402	95.75
351.629	125.75
351.856	105.75
352.083	113.75
352.311	118.75
352.538	114.75
352.765	106.75
352.992	102.75
353.22	109.75
353.447	97.75
353.674	106.75
353.901	109.75
354.128	108.75
354.355	93.75
354.583	100.75
354.81	94.75
355.037	91.75
355.264	115.75
355.491	108.75
355.718	98.75
355.945	97.75
356.172	103.75
356.399	117.75
356.626	94.75
356.853	108.75
357.08	102.75
357.307	118.75
357.534	107.75
357.761	102.75
357.988	93.75
358.215	110.75
358.441	110.75
358.668	99.75
358.895	127.75
359.122	115.75
359.349	124.75
359.576	120.75
359.802	116.75
360.029	99.75
360.256	107.75
360.483	96.75
360.709	107.75
360.936	95.75
361.163	109.75
361.39	105.75
361.616	117.75
361.843	108.75
362.07	110.75
362.296	106.75
362.523	116.75
362.749	106.75
362.976	101.75
363.203	99.75
363.429	109.75
363.656	106.75
363.882	104.75
364.109	110.75
364.335	125.75
364.562	100.75
364.788	112.75
365.015	110.75
365.241	127.75
365.468	168.75
365.694	214.75
365.92	193.75
366.147	121.75
366.373	114.75
366.599	101.75
366.826	103.75
367.052	101.75
367.278	87.75
367.505	77.75
367.731	108.75
367.957	96.75
368.184	110.75
368.41	114.75
368.636	118.75
368.862	92.75
369.089	101.75
369.315	107.75
369.541	115.75
369.767	127.75
369.993	115.75
370.219	77.75
370.445	98.75
370.672	108.75
370.898	102.75
371.124	107.75
371.35	118.75
371.576	107.75
371.802	100.75
372.028	106.75
372.254	114.75
372.48	103.75
372.706	116.75
372.932	113.75
373.158	117.75
373.384	110.75
373.61	108.75
373.835	129.75
374.061	113.75
374.287	96.75
374.513	103.75
374.739	107.75
374.965	129.75
375.191	114.75
375.416	98.75
375.642	107.75
375.868	110.75
376.094	91.75
376.319	100.75
376.545	101.75
376.771	109.75
376.997	102.75
377.222	111.75
377.448	105.75
377.674	114.75
377.899	103.75
378.125	103.75
378.35	99.75
378.576	114.75
378.802	131.75
379.027	130.75
379.253	142.75
379.478	161.75
379.704	248.75
379.929	708.75
380.155	1413.75
380.38	1437.75
380.606	476.75
380.831	174.75
381.057	115.75
381.282	109.75
381.507	121.75
381.733	102.75
381.958	97.75
382.184	103.75
382.409	104.75
382.634	113.75
382.86	105.75
383.085	106.75
383.31	93.75
383.535	125.75
383.761	94.75
383.986	106.75
384.211	95.75
384.436	93.75
384.662	98.75
384.887	114.75
385.112	117.75
385.337	92.75
385.562	94.75
385.787	107.75
386.013	118.75
386.238	110.75
386.463	99.75
386.688	113.75
386.913	112.75
387.138	106.75
387.363	102.75
387.588	101.75
387.813	117.75
388.038	108.75
388.263	119.75
388.488	113.75
388.713	89.75
388.938	102.75
389.163	98.75
389.387	86.75
389.612	114.75
389.837	109.75
390.062	111.75
390.287	90.75
390.512	109.75
390.736	103.75
390.961	102.75
391.186	109.75
391.411	101.75
391.636	107.75
391.86	102.75
392.085	83.75
392.31	92.75
392.534	107.75
392.759	94.75
392.984	114.75
393.208	114.75
393.433	135.75
393.658	134.75
393.882	117.75
394.107	110.75
394.331	106.75
394.556	101.75
394.78	116.75
395.005	108.75
395.229	99.75
395.454	107.75
395.678	97.75
395.903	102.75
396.127	116.75
396.352	120.75
396.576	98.75
396.801	125.75
397.025	125.75
397.249	116.75
397.474	101.75
397.698	87.75
397.922	89.75
398.147	76.75
398.371	103.75
398.595	95.75
398.82	114.75
399.044	80.75
399.268	111.75
399.492	103.75
399.717	93.75
399.941	79.75
400.165	101.75
400.389	88.75
400.613	94.75
400.837	97.75
401.062	102.75
401.286	93.75
401.51	89.75
401.734	94.75
401.958	106.75
402.182	109.75
402.406	87.75
402.63	106.75
402.854	95.75
403.078	96.75
403.302	92.75
403.526	105.75
403.75	114.75
403.974	95.75
404.198	93.75
404.422	90.75
404.645	108.75
404.869	102.75
405.093	98.75
405.317	99.75
405.541	103.75
405.765	129.75
405.988	137.75
406.212	122.75
406.436	114.75
406.66	107.75
406.883	94.75
407.107	93.75
407.331	97.75
407.555	95.75
407.778	100.75
408.002	110.75
408.226	98.75
408.449	94.75
408.673	104.75
408.896	106.75
409.12	110.75
409.344	101.75
409.567	108.75
409.791	100.75
410.014	113.75
410.238	113.75
410.461	100.75
410.685	96.75
410.908	103.75
411.132	107.75
411.355	108.75
411.578	109.75
411.802	95.75
412.025	85.75
412.249	115.75
412.472	105.75
412.695	101.75
412.919	106.75
413.142	93.75
413.365	92.75
413.589	78.75
413.812	98.75
414.035	108.75
414.258	104.75
414.482	100.75
414.705	109.75
414.928	97.75
415.151	94.75
415.374	103.75
415.597	93.75
415.821	95.75
416.044	102.75
416.267	100.75
416.49	99.75
416.713	99.75
416.936	96.75
417.159	81.75
417.382	98.75
417.605	86.75
417.828	99.75
418.051	98.75
418.274	86.75
418.497	97.75
418.72	101.75
418.943	84.75
419.166	91.75
419.389	119.75
419.611	97.75
419.834	110.75
420.057	99.75
420.28	90.75
420.503	106.75
420.726	96.75
420.948	100.75
421.171	107.75
421.394	112.75
421.617	99.75
421.839	103.75
422.062	98.75
422.285	101.75
422.507	107.75
422.73	120.75
422.953	133.75
423.175	99.75
423.398	101.75
423.621	97.75
423.843	95.75
424.066	92.75
424.288	98.75
424.511	102.75
424.733	93.75
424.956	121.75
425.178	101.75
425.401	97.75
425.623	88.75
425.846	88.75
426.068	96.75
426.291	100.75
426.513	99.75
426.735	100.75
426.958	84.75
427.18	95.75
427.402	111.75
427.625	107.75
427.847	101.75
428.069	101.75
428.292	95.75
428.514	87.75
428.736	106.75
428.958	87.75
429.181	110.75
429.403	102.75
429.625	94.75
429.847	102.75
430.069	106.75
430.292	102.75
430.514	97.75
430.736	98.75
430.958	90.75
431.18	96.75
431.402	91.75
431.624	109.75
431.846	92.75
432.068	95.75
432.29	101.75
432.512	103.75
432.734	113.75
432.956	92.75
433.178	99.75
433.4	83.75
433.622	98.75
433.844	89.75
434.066	95.75
434.287	97.75
434.509	107.75
434.731	92.75
434.953	88.75
435.175	82.75
435.397	97.75
435.618	90.75
435.84	86.75
436.062	85.75
436.284	97.75
436.505	102.75
436.727	95.75
436.949	97.75
437.17	107.75
437.392	91.75
437.614	107.75
437.835	92.75
438.057	98.75
438.278	95.75
438.5	96.75
438.721	100.75
438.943	118.75
439.165	100.75
439.386	88.75
439.608	100.75
439.829	106.75
440.05	113.75
440.272	117.75
440.493	99.75
440.715	92.75
440.936	96.75
441.158	91.75
441.379	96.75
441.6	102.75
441.822	106.75
442.043	124.75
442.264	151.75
442.486	113.75
442.707	110.75
442.928	84.75
443.149	89.75
443.371	97.75
443.592	90.75
443.813	101.75
444.034	115.75
444.255	108.75
444.476	113.75
444.698	97.75
444.919	91.75
445.14	188.75
445.361	137.75
445.582	87.75
445.803	101.75
446.024	91.75
446.245	100.75
446.466	99.75
446.687	119.75
446.908	113.75
447.129	90.75
447.35	98.75
447.571	97.75
447.792	84.75
448.013	102.75
448.234	102.75
448.455	102.75
448.675	94.75
448.896	100.75
449.117	110.75
449.338	126.75
449.559	143.75
449.779	116.75
450	118.75
450.221	109.75
450.442	108.75
450.662	119.75
450.883	115.75
451.104	110.75
451.324	123.75
451.545	106.75
451.766	106.75
451.986	126.75
452.207	187.75
452.428	467.75
452.648	1126.75
452.869	635.75
453.089	177.75
453.31	129.75
453.53	115.75
453.751	126.75
453.971	151.75
454.192	149.75
454.412	107.75
454.633	101.75
454.853	102.75
455.073	98.75
455.294	102.75
455.514	110.75
455.734	90.75
455.955	87.75
456.175	103.75
456.395	105.75
456.616	114.75
456.836	113.75
457.056	94.75
457.276	89.75
457.497	109.75
457.717	121.75
457.937	113.75
458.157	99.75
458.377	104.75
458.598	80.75
458.818	104.75
459.038	85.75
459.258	88.75
459.478	91.75
459.698	80.75
459.918	100.75
460.138	94.75
460.358	102.75
460.578	86.75
460.798	90.75
461.018	83.75
461.238	99.75
461.458	93.75
461.678	91.75
461.898	95.75
462.118	95.75
462.338	97.75
462.558	99.75
462.777	84.75
462.997	82.75
463.217	92.75
463.437	135.75
463.657	172.75
463.876	184.75
464.096	119.75
464.316	97.75
464.536	109.75
464.755	117.75
464.975	87.75
465.195	91.75
465.414	101.75
465.634	106.75
465.854	105.75
466.073	95.75
466.293	93.75
466.512	102.75
466.732	115.75
466.951	105.75
467.171	125.75
467.391	143.75
467.61	110.75
467.829	105.75
468.049	113.75
468.268	102.75
468.488	101.75
468.707	88.75
468.927	113.75
469.146	89.75
469.365	102.75
469.585	103.75
469.804	113.75
470.023	97.75
470.243	101.75
470.462	105.75
470.681	96.75
470.901	124.75
471.12	175.75
471.339	213.75
471.558	127.75
471.777	128.75
471.997	107.75
472.216	109.75
472.435	98.75
472.654	94.75
472.873	98.75
473.092	93.75
473.311	92.75
473.53	98.75
473.749	91.75
473.968	104.75
474.187	91.75
474.406	86.75
474.625	93.75
474.844	98.75
475.063	95.75
475.282	104.75
475.501	106.75
475.72	99.75
475.939	101.75
476.158	107.75
476.377	111.75
476.596	96.75
476.814	119.75
477.033	87.75
477.252	89.75
477.471	99.75
477.69	101.75
477.908	114.75
478.127	101.75
478.346	95.75
478.564	93.75
478.783	106.75
479.002	113.75
479.22	103.75
479.439	102.75
479.658	96.75
479.876	97.75
480.095	89.75
480.313	100.75
480.532	107.75
480.751	96.75
480.969	100.75
481.188	85.75
481.406	98.75
481.624	108.75
481.843	101.75
482.061	114.75
482.28	107.75
482.498	96.75
482.717	91.75
482.935	96.75
483.153	94.75
483.372	102.75
483.59	100.75
483.808	102.75
484.027	117.75
484.245	121.75
484.463	165.75
484.681	217.75
484.9	145.75
485.118	111.75
485.336	107.75
485.554	99.75
485.772	121.75
485.99	188.75
486.209	270.75
486.427	163.75
486.645	124.75
486.863	112.75
487.081	106.75
487.299	98.75
487.517	92.75
487.735	100.75
487.953	103.75
488.171	113.75
488.389	89.75
488.607	101.75
488.825	109.75
489.043	99.75
489.261	109.75
489.479	105.75
489.696	111.75
489.914	96.75
490.132	109.75
490.35	95.75
490.568	105.75
490.786	89.75
491.003	101.75
491.221	113.75
491.439	116.75
491.657	116.75
491.874	103.75
492.092	94.75
492.31	105.75
492.527	99.75
492.745	110.75
492.963	96.75
493.18	98.75
493.398	116.75
493.615	104.75
493.833	109.75
494.05	100.75
494.268	98.75
494.485	105.75
494.703	107.75
494.92	110.75
495.138	105.75
495.355	107.75
495.573	115.75
495.79	109.75
496.008	101.75
496.225	102.75
496.442	117.75
496.66	107.75
496.877	159.75
497.094	161.75
497.312	110.75
497.529	106.75
497.746	104.75
497.963	102.75
498.181	89.75
498.398	98.75
498.615	110.75
498.832	92.75
499.049	109.75
499.267	137.75
499.484	149.75
499.701	101.75
499.918	104.75
500.135	105.75
500.352	110.75
500.569	105.75
500.786	107.75
501.003	89.75
501.22	92.75
501.437	94.75
501.654	90.75
501.871	94.75
502.088	89.75
502.305	109.75
502.522	98.75
502.739	74.75
502.956	86.75
503.172	106.75
503.389	87.75
503.606	91.75
503.823	109.75
504.04	113.75
504.256	99.75
504.473	92.75
504.69	91.75
504.907	99.75
505.123	119.75
505.34	111.75
505.557	106.75
505.773	97.75
505.99	97.75
506.207	108.75
506.423	110.75
506.64	107.75
506.856	103.75
507.073	102.75
507.289	118.75
507.506	91.75
507.722	93.75
507.939	94.75
508.155	102.75
508.372	86.75
508.588	109.75
508.805	91.75
509.021	99.75
509.238	99.75
509.454	134.75
509.67	149.75
509.887	106.75
510.103	94.75
510.319	92.75
510.536	94.75
510.752	102.75
510.968	92.75
511.184	101.75
511.401	94.75
511.617	105.75
511.833	89.75
512.049	98.75
512.265	100.75
512.481	108.75
512.698	96.75
512.914	107.75
513.13	111.75
513.346	92.75
513.562	109.75
513.778	82.75
513.994	96.75
514.21	111.75
514.426	137.75
514.642	169.75
514.858	113.75
515.074	107.75
515.29	88.75
515.506	97.75
515.721	99.75
515.937	98.75
516.153	100.75
516.369	109.75
516.585	87.75
516.801	95.75
517.016	97.75
517.232	85.75
517.448	88.75
517.664	107.75
517.879	93.75
518.095	101.75
518.311	99.75
518.527	99.75
518.742	110.75
518.958	114.75
519.173	151.75
519.389	115.75
519.605	98.75
519.82	104.75
520.036	95.75
520.251	101.75
520.467	105.75
520.682	100.75
520.898	96.75
521.113	95.75
521.329	95.75
521.544	88.75
521.76	92.75
521.975	91.75
522.19	101.75
522.406	80.75
522.621	90.75
522.836	97.75
523.052	95.75
523.267	82.75
523.482	99.75
523.698	101.75
523.913	99.75
524.128	97.75
524.343	100.75
524.559	91.75
524.774	94.75
524.989	100.75
525.204	99.75
525.419	102.75
525.634	111.75
525.849	91.75
526.064	90.75
526.28	92.75
526.495	94.75
526.71	84.75
526.925	104.75
527.14	97.75
527.355	110.75
527.57	99.75
527.785	112.75
527.999	86.75
528.214	93.75
528.429	100.75
528.644	93.75
528.859	89.75
529.074	104.75
529.289	95.75
529.503	112.75
529.718	104.75
529.933	99.75
530.148	102.75
530.363	90.75
530.577	87.75
530.792	97.75
531.007	91.75
531.221	85.75
531.436	97.75
531.651	114.75
531.865	94.75
532.08	93.75
532.295	114.75
532.509	131.75
532.724	122.75
532.938	88.75
533.153	101.75
533.367	98.75
533.582	100.75
533.796	92.75
534.011	94.75
534.225	85.75
534.44	93.75
534.654	99.75
534.868	99.75
535.083	102.75
535.297	97.75
535.511	95.75
535.726	88.75
535.94	101.75
536.154	91.75
536.369	103.75
536.583	97.75
536.797	104.75
537.011	106.75
537.225	100.75
537.44	97.75
537.654	107.75
537.868	97.75
538.082	82.75
538.296	91.75
538.51	106.75
538.724	101.75
538.938	92.75
539.153	102.75
539.367	90.75
539.581	92.75
539.795	92.75
540.009	97.75
540.222	99.75
540.436	105.75
540.65	98.75
540.864	111.75
541.078	110.75
541.292	141.75
541.506	189.75
541.72	193.75
541.934	114.75
542.147	118.75
542.361	100.75
542.575	87.75
542.789	111.75
543.002	107.75
543.216	90.75
543.43	95.75
543.644	93.75
543.857	102.75
544.071	97.75
544.285	119.75
544.498	110.75
544.712	96.75
544.925	109.75
545.139	91.75
545.352	105.75
545.566	110.75
545.779	100.75
545.993	86.75
546.206	115.75
546.42	97.75
546.633	109.75
546.847	101.75
547.06	99.75
547.274	111.75
547.487	110.75
547.7	109.75
547.914	115.75
548.127	104.75
548.34	108.75
548.554	91.75
548.767	102.75
548.98	105.75
549.193	104.75
549.407	91.75
549.62	94.75
549.833	103.75
550.046	100.75
550.259	83.75
550.473	90.75
550.686	95.75
550.899	86.75
551.112	109.75
551.325	107.75
551.538	98.75
551.751	110.75
551.964	90.75
552.177	110.75
552.39	107.75
552.603	110.75
552.816	106.75
553.029	90.75
553.242	105.75
553.455	98.75
553.667	89.75
553.88	94.75
554.093	103.75
554.306	99.75
554.519	101.75
554.732	86.75
554.944	114.75
555.157	94.75
555.37	92.75
555.583	87.75
555.795	103.75
556.008	111.75
556.221	148.75
556.433	119.75
556.646	113.75
556.859	109.75
557.071	103.75
557.284	134.75
557.496	96.75
557.709	104.75
557.921	107.75
558.134	102.75
558.346	96.75
558.559	108.75
558.771	110.75
558.984	100.75
559.196	106.75
559.409	105.75
559.621	110.75
559.833	108.75
560.046	95.75
560.258	93.75
560.47	88.75
560.683	98.75
560.895	81.75
561.107	95.75
561.32	100.75
561.532	107.75
561.744	98.75
561.956	95.75
562.168	105.75
562.381	88.75
562.593	109.75
562.805	141.75
563.017	161.75
563.229	221.75
563.441	482.75
563.653	177.75
563.865	101.75
564.077	101.75
564.289	106.75
564.501	92.75
564.713	98.75
564.925	110.75
565.137	104.75
565.349	104.75
565.561	109.75
565.773	111.75
565.985	85.75
566.197	91.75
566.408	98.75
566.62	105.75
566.832	92.75
567.044	98.75
567.255	111.75
567.467	110.75
567.679	96.75
567.891	126.75
568.102	158.75
568.314	233.75
568.526	142.75
568.737	107.75
568.949	101.75
569.161	119.75
569.372	102.75
569.584	97.75
569.795	87.75
570.007	100.75
570.218	104.75
570.43	150.75
570.641	106.75
570.853	102.75
571.064	104.75
571.276	103.75
571.487	93.75
571.698	113.75
571.91	91.75
572.121	103.75
572.333	105.75
572.544	110.75
572.755	147.75
572.966	202.75
573.178	119.75
573.389	110.75
573.6	98.75
573.811	98.75
574.023	88.75
574.234	93.75
574.445	102.75
574.656	88.75
574.867	89.75
575.078	99.75
575.289	102.75
575.501	98.75
575.712	100.75
575.923	104.75
576.134	93.75
576.345	103.75
576.556	108.75
576.767	97.75
576.978	89.75
577.188	103.75
577.399	97.75
577.61	105.75
577.821	94.75
578.032	90.75
578.243	101.75
578.454	103.75
578.665	91.75
578.875	100.75
579.086	85.75
579.297	92.75
579.508	93.75
579.718	103.75
579.929	94.75
580.14	102.75
580.35	84.75
580.561	95.75
580.772	100.75
580.982	93.75
581.193	88.75
581.403	84.75
581.614	89.75
581.825	95.75
582.035	94.75
582.246	98.75
582.456	99.75
582.667	102.75
582.877	102.75
583.087	106.75
583.298	99.75
583.508	105.75
583.719	95.75
583.929	95.75
584.139	99.75
584.35	101.75
584.56	82.75
584.77	84.75
584.981	84.75
585.191	89.75
585.401	99.75
585.611	92.75
585.821	104.75
586.032	81.75
586.242	95.75
586.452	101.75
586.662	94.75
586.872	85.75
587.082	88.75
587.292	90.75
587.502	89.75
587.713	96.75
587.923	87.75
588.133	97.75
588.343	96.75
588.553	93.75
588.762	84.75
588.972	105.75
589.182	126.75
589.392	125.75
589.602	104.75
589.812	113.75
590.022	95.75
590.232	89.75
590.441	99.75
590.651	82.75
590.861	85.75
591.071	69.75
591.281	91.75
591.49	94.75
591.7	90.75
591.91	85.75
592.119	90.75
592.329	111.75
592.539	110.75
592.748	94.75
592.958	90.75
593.167	91.75
593.377	100.75
593.587	94.75
593.796	102.75
594.006	99.75
594.215	88.75
594.424	90.75
594.634	88.75
594.843	94.75
595.053	90.75
595.262	90.75
595.472	99.75
595.681	98.75
595.89	103.75
596.1	101.75
596.309	83.75
596.518	88.75
596.727	105.75
596.937	94.75
597.146	100.75
597.355	95.75
597.564	108.75
597.774	107.75
597.983	104.75
598.192	85.75
598.401	86.75
598.61	93.75
598.819	89.75
599.028	92.75
599.237	93.75
599.446	98.75
599.655	87.75
599.864	98.75
600.073	95.75
600.282	113.75
600.491	101.75
600.7	81.75
600.909	89.75
601.118	115.75
601.327	98.75
601.536	87.75
601.745	103.75
601.953	138.75
602.162	147.75
602.371	106.75
602.58	102.75
602.789	87.75
602.997	86.75
603.206	101.75
603.415	90.75
603.623	101.75
603.832	105.75
604.041	97.75
604.249	89.75
604.458	97.75
604.666	94.75
604.875	100.75
605.084	100.75
605.292	98.75
605.501	99.75
605.709	92.75
605.918	93.75
606.126	105.75
606.334	97.75
606.543	98.75
606.751	130.75
606.96	171.75
607.168	163.75
607.376	127.75
607.585	111.75
607.793	107.75
608.001	102.75
608.21	93.75
608.418	105.75
608.626	101.75
608.834	103.75
609.043	101.75
609.251	87.75
609.459	82.75
609.667	92.75
609.875	84.75
610.083	98.75
610.291	94.75
610.499	113.75
610.707	90.75
610.916	106.75
611.124	88.75
611.332	109.75
611.54	101.75
611.748	94.75
611.955	100.75
612.163	107.75
612.371	106.75
612.579	86.75
612.787	91.75
612.995	99.75
613.203	85.75
613.411	61.75
613.618	91.75
613.826	106.75
614.034	99.75
614.242	86.75
614.449	95.75
614.657	93.75
614.865	98.75
615.072	100.75
615.28	108.75
615.488	108.75
615.695	101.75
615.903	111.75
616.111	101.75
616.318	108.75
616.526	79.75
616.733	105.75
616.941	97.75
617.148	99.75
617.356	108.75
617.563	93.75
617.771	92.75
617.978	97.75
618.185	102.75
618.393	91.75
618.6	100.75
618.807	104.75
619.015	99.75
619.222	89.75
619.429	91.75
619.637	97.75
619.844	80.75
620.051	83.75
620.258	93.75
620.466	85.75
620.673	99.75
620.88	107.75
621.087	100.75
621.294	89.75
621.501	91.75
621.708	84.75
621.915	92.75
622.122	78.75
622.329	96.75
622.536	100.75
622.743	96.75
622.95	89.75
623.157	92.75
623.364	88.75
623.571	76.75
623.778	99.75
623.985	97.75
624.192	92.75
624.399	89.75
624.606	91.75
624.812	94.75
625.019	87.75
625.226	92.75
625.433	95.75
625.639	100.75
625.846	78.75
626.053	92.75
626.259	85.75
626.466	92.75
626.673	94.75
626.879	89.75
627.086	91.75
627.293	102.75
627.499	93.75
627.706	98.75
627.912	97.75
628.119	89.75
628.325	109.75
628.532	90.75
628.738	108.75
628.945	97.75
629.151	90.75
629.357	92.75
629.564	85.75
629.77	101.75
629.976	93.75
630.183	76.75
630.389	88.75
630.595	106.75
630.802	102.75
631.008	85.75
631.214	84.75
631.42	99.75
631.627	84.75
631.833	86.75
632.039	86.75
632.245	91.75
632.451	84.75
632.657	102.75
632.863	85.75
633.069	91.75
633.275	100.75
633.481	95.75
633.688	80.75
633.893	106.75
634.099	89.75
634.305	85.75
634.511	86.75
634.717	92.75
634.923	94.75
635.129	128.75
635.335	137.75
635.541	94.75
635.747	91.75
635.952	95.75
636.158	104.75
636.364	90.75
636.57	92.75
636.775	94.75
636.981	89.75
637.187	84.75
637.392	102.75
637.598	96.75
637.804	100.75
638.009	92.75
638.215	92.75
638.421	91.75
638.626	101.75
638.832	104.75
639.037	68.75
639.243	82.75
639.448	94.75
639.654	100.75
639.859	85.75
640.065	79.75
640.27	95.75
640.475	83.75
640.681	87.75
640.886	81.75
641.091	92.75
641.297	88.75
641.502	98.75
641.707	92.75
641.913	79.75
642.118	87.75
642.323	85.75
642.528	103.75
642.733	99.75
642.939	91.75
643.144	90.75
643.349	98.75
643.554	100.75
643.759	93.75
643.964	86.75
644.169	93.75
644.374	83.75
644.579	98.75
644.784	89.75
644.989	98.75
645.194	82.75
645.399	106.75
645.604	90.75
645.809	94.75
646.014	78.75
646.219	97.75
646.423	99.75
646.628	94.75
646.833	82.75
647.038	100.75
647.243	96.75
647.447	91.75
647.652	97.75
647.857	82.75
648.062	94.75
648.266	84.75
648.471	105.75
648.676	97.75
648.88	92.75
649.085	86.75
649.289	94.75
649.494	74.75
649.698	98.75
649.903	94.75
650.107	88.75
650.312	93.75
650.516	88.75
650.721	92.75
650.925	79.75
651.13	94.75
651.334	87.75
651.539	78.75
651.743	83.75
651.947	85.75
652.152	97.75
652.356	83.75
652.56	109.75
652.764	123.75
652.969	91.75
653.173	71.75
653.377	82.75
653.581	98.75
653.785	84.75
653.99	86.75
654.194	89.75
654.398	87.75
654.602	84.75
654.806	89.75
655.01	95.75
655.214	103.75
655.418	82.75
655.622	86.75
655.826	93.75
656.03	85.75
656.234	99.75
656.438	94.75
656.642	73.75
656.846	78.75
657.049	87.75
657.253	89.75
657.457	90.75
657.661	76.75
657.865	74.75
658.068	84.75
658.272	88.75
658.476	92.75
658.68	93.75
658.883	93.75
659.087	86.75
659.291	72.75
659.494	76.75
659.698	91.75
659.901	91.75
660.105	87.75
660.309	92.75
660.512	72.75
660.716	78.75
660.919	91.75
661.123	104.75
661.326	100.75
661.53	100.75
661.733	101.75
661.936	90.75
662.14	86.75
662.343	92.75
662.546	80.75
662.75	82.75
662.953	83.75
663.156	87.75
663.36	81.75
663.563	73.75
663.766	68.75
663.969	89.75
664.173	84.75
664.376	92.75
664.579	96.75
664.782	73.75
664.985	84.75
665.188	80.75
665.391	78.75
665.594	84.75
665.797	85.75
666	85.75
666.203	77.75
666.406	77.75
666.609	91.75
666.812	92.75
667.015	87.75
667.218	102.75
667.421	82.75
667.624	94.75
667.827	84.75
668.03	88.75
668.232	76.75
668.435	81.75
668.638	76.75
668.841	100.75
669.043	100.75
669.246	78.75
669.449	82.75
669.651	74.75
669.854	84.75
670.057	93.75
670.259	84.75
670.462	82.75
670.665	88.75
670.867	83.75
671.07	82.75
671.272	94.75
671.475	101.75
671.677	82.75
671.88	81.75
672.082	92.75
672.284	89.75
672.487	94.75
672.689	92.75
672.892	90.75
