Data from SnStandardFlinnAPT0064_LampEnergy10_LIBS07252019.E.O._I.C._HRD10591_15-20-34-494.txt Node
Date: Thu Jul 25 15:20:34 EDT 2019
User: cochatt
Spectrometer: HR+D1059
Trigger mode: 1
Integration Time (sec): 1.000000E-1
Scans to average: 1
Electric dark correction enabled: true
Nonlinearity correction enabled: false
Boxcar width: 0
XAxis mode: Wavelengths
Number of Pixels in Spectrum: 2048
>>>>>Begin Spectral Data<<<<<
223.165	-23.62
223.4	-23.62
223.635	-23.62
223.869	-25.62
224.104	-17.62
224.338	-11.62
224.573	-21.62
224.808	-17.62
225.042	-6.62
225.277	7.38
225.511	6.38
225.746	15.38
225.98	3.38
226.215	11.38
226.449	13.38
226.683	20.38
226.918	14.38
227.152	32.38
227.387	31.38
227.621	54.38
227.856	44.38
228.09	42.38
228.324	55.38
228.559	67.38
228.793	116.38
229.027	316.38
229.262	340.38
229.496	305.38
229.73	293.38
229.964	291.38
230.199	323.38
230.433	311.38
230.667	334.38
230.901	310.38
231.136	316.38
231.37	370.38
231.604	411.38
231.838	444.38
232.072	526.38
232.306	575.38
232.541	490.38
232.775	435.38
233.009	400.38
233.243	414.38
233.477	447.38
233.711	502.38
233.945	586.38
234.179	525.38
234.413	464.38
234.647	436.38
234.881	463.38
235.115	511.38
235.349	633.38
235.583	784.38
235.817	1011.38
236.051	1022.38
236.285	662.38
236.519	534.38
236.753	500.38
236.987	511.38
237.221	532.38
237.455	535.38
237.689	473.38
237.922	458.38
238.156	467.38
238.39	506.38
238.624	513.38
238.858	494.38
239.091	467.38
239.325	500.38
239.559	487.38
239.793	496.38
240.027	514.38
240.26	527.38
240.494	540.38
240.728	574.38
240.961	634.38
241.195	662.38
241.429	703.38
241.662	742.38
241.896	816.38
242.13	953.38
242.363	1279.38
242.597	1678.38
242.83	1572.38
243.064	1562.38
243.298	1848.38
243.531	1511.38
243.765	991.38
243.998	787.38
244.232	720.38
244.465	674.38
244.699	672.38
244.932	637.38
245.166	672.38
245.399	688.38
245.633	690.38
245.866	679.38
246.099	675.38
246.333	660.38
246.566	638.38
246.8	624.38
247.033	647.38
247.266	634.38
247.5	642.38
247.733	648.38
247.966	716.38
248.2	758.38
248.433	864.38
248.666	1020.38
248.899	963.38
249.133	859.38
249.366	862.38
249.599	958.38
249.832	1095.38
250.066	1122.38
250.299	881.38
250.532	798.38
250.765	736.38
250.998	725.38
251.231	726.38
251.465	737.38
251.698	738.38
251.931	739.38
252.164	746.38
252.397	764.38
252.63	795.38
252.863	811.38
253.096	785.38
253.329	775.38
253.562	769.38
253.795	780.38
254.028	789.38
254.261	817.38
254.494	862.38
254.727	1024.38
254.96	1230.38
255.193	1266.38
255.426	985.38
255.659	868.38
255.892	847.38
256.124	862.38
256.357	898.38
256.59	885.38
256.823	998.38
257.056	1126.38
257.289	1357.38
257.521	1494.38
257.754	1210.38
257.987	985.38
258.22	918.38
258.452	880.38
258.685	895.38
258.918	944.38
259.151	969.38
259.383	1074.38
259.616	1214.38
259.849	1281.38
260.081	1072.38
260.314	998.38
260.547	927.38
260.779	934.38
261.012	971.38
261.244	953.38
261.477	976.38
261.71	978.38
261.942	1014.38
262.175	999.38
262.407	1020.38
262.64	1044.38
262.872	1110.38
263.105	1136.38
263.337	1203.38
263.57	1273.38
263.802	1331.38
264.035	1311.38
264.267	1322.38
264.499	1369.38
264.732	1443.38
264.964	1434.38
265.197	1432.38
265.429	1420.38
265.661	1433.38
265.894	1558.38
266.126	1795.38
266.358	1949.38
266.591	1935.38
266.823	1617.38
267.055	1447.38
267.287	1353.38
267.52	1297.38
267.752	1276.38
267.984	1262.38
268.216	1242.38
268.448	1255.38
268.681	1246.38
268.913	1211.38
269.145	1208.38
269.377	1227.38
269.609	1236.38
269.841	1283.38
270.073	1406.38
270.306	1608.38
270.538	2214.38
270.77	3289.38
271.002	4085.38
271.234	2838.38
271.466	1844.38
271.698	1534.38
271.93	1397.38
272.162	1321.38
272.394	1287.38
272.626	1250.38
272.858	1261.38
273.09	1227.38
273.322	1202.38
273.553	1216.38
273.785	1199.38
274.017	1187.38
274.249	1221.38
274.481	1222.38
274.713	1193.38
274.945	1191.38
275.176	1222.38
275.408	1204.38
275.64	1242.38
275.872	1222.38
276.104	1263.38
276.335	1288.38
276.567	1283.38
276.799	1266.38
277.031	1310.38
277.262	1335.38
277.494	1386.38
277.726	1553.38
277.957	1842.38
278.189	2102.38
278.421	1992.38
278.652	1803.38
278.884	1639.38
279.115	1518.38
279.347	1411.38
279.579	1396.38
279.81	1377.38
280.042	1408.38
280.273	1406.38
280.505	1408.38
280.736	1503.38
280.968	1586.38
281.199	1768.38
281.431	2006.38
281.662	2140.38
281.894	1828.38
282.125	1647.38
282.356	1624.38
282.588	1673.38
282.819	1730.38
283.051	1825.38
283.282	2006.38
283.513	2511.38
283.745	3643.38
283.976	5839.38
284.207	8337.38
284.439	7481.38
284.67	4607.38
284.901	3792.38
285.132	3832.38
285.364	3570.38
285.595	2699.38
285.826	2432.38
286.057	2878.38
286.288	3967.38
286.52	5264.38
286.751	4986.38
286.982	3055.38
287.213	2308.38
287.444	2025.38
287.675	1863.38
287.906	1818.38
288.138	1738.38
288.369	1682.38
288.6	1680.38
288.831	1659.38
289.062	1633.38
289.293	1662.38
289.524	1651.38
289.755	1641.38
289.986	1691.38
290.217	1703.38
290.448	1718.38
290.679	1733.38
290.91	1751.38
291.141	1863.38
291.371	2035.38
291.602	2121.38
291.833	1893.38
292.064	1714.38
292.295	1673.38
292.526	1680.38
292.757	1619.38
292.987	1564.38
293.218	1604.38
293.449	1614.38
293.68	1582.38
293.91	1558.38
294.141	1604.38
294.372	1562.38
294.603	1567.38
294.833	1553.38
295.064	1578.38
295.295	1586.38
295.525	1518.38
295.756	1538.38
295.987	1522.38
296.217	1542.38
296.448	1531.38
296.679	1552.38
296.909	1530.38
297.14	1609.38
297.37	1633.38
297.601	1636.38
297.831	1567.38
298.062	1650.38
298.292	1648.38
298.523	1691.38
298.753	1685.38
298.984	1665.38
299.214	1717.38
299.445	1754.38
299.675	1769.38
299.905	1864.38
300.136	1904.38
300.366	2194.38
300.597	2792.38
300.827	3878.38
301.057	5331.38
301.288	5365.38
301.518	3402.38
301.748	2603.38
301.979	2358.38
302.209	2241.38
302.439	2291.38
302.669	2445.38
302.9	2965.38
303.13	4270.38
303.36	6249.38
303.59	8487.38
303.82	7344.38
304.051	4232.38
304.281	3054.38
304.511	2518.38
304.741	2330.38
304.971	2179.38
305.201	2057.38
305.431	2033.38
305.661	1979.38
305.891	1916.38
306.121	1854.38
306.352	1896.38
306.582	1894.38
306.812	1828.38
307.042	1833.38
307.272	1866.38
307.502	1804.38
307.731	1805.38
307.961	1776.38
308.191	1784.38
308.421	1776.38
308.651	1790.38
308.881	1781.38
309.111	1776.38
309.341	1810.38
309.571	1838.38
309.8	1827.38
310.03	1866.38
310.26	1866.38
310.49	1854.38
310.72	1847.38
310.949	1852.38
311.179	1879.38
311.409	1884.38
311.639	1916.38
311.868	1900.38
312.098	1952.38
312.328	1948.38
312.557	1946.38
312.787	1976.38
313.017	1976.38
313.246	1974.38
313.476	1945.38
313.706	2101.38
313.935	2181.38
314.165	2332.38
314.394	2491.38
314.624	2378.38
314.853	2186.38
315.083	2150.38
315.312	2184.38
315.542	2178.38
315.771	2190.38
316.001	2200.38
316.23	2324.38
316.46	2449.38
316.689	2698.38
316.919	3263.38
317.148	4663.38
317.377	7300.38
317.607	10726.38
317.836	11052.38
318.065	6791.38
318.295	4305.38
318.524	3454.38
318.753	3014.38
318.983	2735.38
319.212	2579.38
319.441	2535.38
319.67	2430.38
319.9	2376.38
320.129	2384.38
320.358	2316.38
320.587	2296.38
320.816	2312.38
321.046	2339.38
321.275	2363.38
321.504	2328.38
321.733	2399.38
321.962	2499.38
322.191	2532.38
322.42	2499.38
322.649	2517.38
322.878	2460.38
323.108	2472.38
323.337	2548.38
323.566	2582.38
323.795	2593.38
324.024	2654.38
324.253	2713.38
324.482	2864.38
324.71	2954.38
324.939	3195.38
325.168	3243.38
325.397	3401.38
325.626	4054.38
325.855	5705.38
326.084	9032.38
326.313	12999.38
326.542	13620.38
326.77	9196.38
326.999	5983.38
327.228	4978.38
327.457	4820.38
327.686	4758.38
327.914	5122.38
328.143	6042.38
328.372	7235.38
328.6	7931.38
328.829	6979.38
329.058	5844.38
329.287	5054.38
329.515	4642.38
329.744	4315.38
329.972	4044.38
330.201	3854.38
330.43	3708.38
330.658	3619.38
330.887	3572.38
331.115	3510.38
331.344	3537.38
331.572	3438.38
331.801	3495.38
332.03	3480.38
332.258	3467.38
332.486	3777.38
332.715	4277.38
332.943	5311.38
333.172	6644.38
333.4	6631.38
333.629	5017.38
333.857	4473.38
334.085	4527.38
334.314	4662.38
334.542	5097.38
334.771	6068.38
334.999	7442.38
335.227	9415.38
335.455	10534.38
335.684	9441.38
335.912	7662.38
336.14	6424.38
336.369	5698.38
336.597	5170.38
336.825	4790.38
337.053	4550.38
337.281	4219.38
337.51	4032.38
337.738	3782.38
337.966	3658.38
338.194	3549.38
338.422	3424.38
338.65	3380.38
338.878	3321.38
339.106	3226.38
339.334	3146.38
339.562	3140.38
339.79	3092.38
340.018	3072.38
340.246	2992.38
340.474	3006.38
340.702	3051.38
340.93	3034.38
341.158	3023.38
341.386	3027.38
341.614	2979.38
341.842	2906.38
342.07	2829.38
342.298	2782.38
342.526	2736.38
342.754	2697.38
342.981	2660.38
343.209	2695.38
343.437	2738.38
343.665	2804.38
343.893	2813.38
344.12	2789.38
344.348	2807.38
344.576	2692.38
344.804	2706.38
345.031	2577.38
345.259	2611.38
345.487	2571.38
345.714	2582.38
345.942	2516.38
346.17	2535.38
346.397	2474.38
346.625	2524.38
346.853	2498.38
347.08	2482.38
347.308	2548.38
347.535	2496.38
347.763	2483.38
347.99	2442.38
348.218	2475.38
348.445	2431.38
348.673	2430.38
348.9	2431.38
349.128	2417.38
349.355	2439.38
349.583	2411.38
349.81	2418.38
350.037	2377.38
350.265	2376.38
350.492	2344.38
350.72	2363.38
350.947	2374.38
351.174	2392.38
351.402	2423.38
351.629	2401.38
351.856	2398.38
352.083	2373.38
352.311	2337.38
352.538	2361.38
352.765	2350.38
352.992	2385.38
353.22	2341.38
353.447	2356.38
353.674	2342.38
353.901	2413.38
354.128	2378.38
354.355	2359.38
354.583	2379.38
354.81	2420.38
355.037	2423.38
355.264	2404.38
355.491	2438.38
355.718	2404.38
355.945	2407.38
356.172	2462.38
356.399	2446.38
356.626	2486.38
356.853	2514.38
357.08	2476.38
357.307	2577.38
357.534	2581.38
357.761	2548.38
357.988	2580.38
358.215	2545.38
358.441	2554.38
358.668	2480.38
358.895	2558.38
359.122	2464.38
359.349	2498.38
359.576	2531.38
359.802	2514.38
360.029	2505.38
360.256	2533.38
360.483	2506.38
360.709	2536.38
360.936	2513.38
361.163	2536.38
361.39	2530.38
361.616	2549.38
361.843	2511.38
362.07	2523.38
362.296	2546.38
362.523	2538.38
362.749	2548.38
362.976	2517.38
363.203	2518.38
363.429	2489.38
363.656	2534.38
363.882	2505.38
364.109	2506.38
364.335	2509.38
364.562	2527.38
364.788	2523.38
365.015	2508.38
365.241	2588.38
365.468	2793.38
365.694	2923.38
365.92	2830.38
366.147	2660.38
366.373	2551.38
366.599	2625.38
366.826	2564.38
367.052	2585.38
367.278	2610.38
367.505	2587.38
367.731	2624.38
367.957	2566.38
368.184	2638.38
368.41	2648.38
368.636	2645.38
368.862	2610.38
369.089	2615.38
369.315	2603.38
369.541	2596.38
369.767	2594.38
369.993	2572.38
370.219	2581.38
370.445	2624.38
370.672	2671.38
370.898	2670.38
371.124	2650.38
371.35	2691.38
371.576	2734.38
371.802	2723.38
372.028	2661.38
372.254	2738.38
372.48	2727.38
372.706	2725.38
372.932	2721.38
373.158	2784.38
373.384	2789.38
373.61	2768.38
373.835	2774.38
374.061	2798.38
374.287	2771.38
374.513	2836.38
374.739	2880.38
374.965	2872.38
375.191	2915.38
375.416	2888.38
375.642	2816.38
375.868	2842.38
376.094	2809.38
376.319	2762.38
376.545	2758.38
376.771	2719.38
376.997	2700.38
377.222	2692.38
377.448	2677.38
377.674	2722.38
377.899	2710.38
378.125	2751.38
378.35	2702.38
378.576	2693.38
378.802	2743.38
379.027	2783.38
379.253	2838.38
379.478	3017.38
379.704	3614.38
379.929	5152.38
380.155	8140.38
380.38	8730.38
380.606	5337.38
380.831	3734.38
381.057	3211.38
381.282	2929.38
381.507	2791.38
381.733	2822.38
381.958	2764.38
382.184	2734.38
382.409	2711.38
382.634	2683.38
382.86	2708.38
383.085	2665.38
383.31	2656.38
383.535	2652.38
383.761	2682.38
383.986	2680.38
384.211	2724.38
384.436	2730.38
384.662	2710.38
384.887	2739.38
385.112	2752.38
385.337	2812.38
385.562	2754.38
385.787	2755.38
386.013	2739.38
386.238	2775.38
386.463	2767.38
386.688	2767.38
386.913	2745.38
387.138	2762.38
387.363	2790.38
387.588	2772.38
387.813	2726.38
388.038	2715.38
388.263	2741.38
388.488	2783.38
388.713	2766.38
388.938	2722.38
389.163	2694.38
389.387	2740.38
389.612	2726.38
389.837	2718.38
390.062	2700.38
390.287	2768.38
390.512	2775.38
390.736	2857.38
390.961	2898.38
391.186	2849.38
391.411	2899.38
391.636	2835.38
391.86	2855.38
392.085	2892.38
392.31	2847.38
392.534	2832.38
392.759	2773.38
392.984	2779.38
393.208	2782.38
393.433	2836.38
393.658	2806.38
393.882	2787.38
394.107	2760.38
394.331	2802.38
394.556	2762.38
394.78	2790.38
395.005	2828.38
395.229	2797.38
395.454	2810.38
395.678	2855.38
395.903	2841.38
396.127	2880.38
396.352	2840.38
396.576	2855.38
396.801	2850.38
397.025	2868.38
397.249	2895.38
397.474	2868.38
397.698	2892.38
397.922	2939.38
398.147	2887.38
398.371	2944.38
398.595	3006.38
398.82	3084.38
399.044	3183.38
399.268	3324.38
399.492	3519.38
399.717	3636.38
399.941	3662.38
400.165	3486.38
400.389	3374.38
400.613	3214.38
400.837	3164.38
401.062	3122.38
401.286	3020.38
401.51	3015.38
401.734	3061.38
401.958	3072.38
402.182	3078.38
402.406	3038.38
402.63	3063.38
402.854	3105.38
403.078	3056.38
403.302	3131.38
403.526	3140.38
403.75	3111.38
403.974	3172.38
404.198	3102.38
404.422	3175.38
404.645	3178.38
404.869	3128.38
405.093	3160.38
405.317	3109.38
405.541	3220.38
405.765	3213.38
405.988	3270.38
406.212	3270.38
406.436	3225.38
406.66	3293.38
406.883	3270.38
407.107	3383.38
407.331	3398.38
407.555	3424.38
407.778	3427.38
408.002	3429.38
408.226	3390.38
408.449	3402.38
408.673	3305.38
408.896	3230.38
409.12	3216.38
409.344	3210.38
409.567	3191.38
409.791	3186.38
410.014	3163.38
410.238	3104.38
410.461	3149.38
410.685	3107.38
410.908	3050.38
411.132	3059.38
411.355	2991.38
411.578	3026.38
411.802	3016.38
412.025	2994.38
412.249	3041.38
412.472	2994.38
412.695	2980.38
412.919	2952.38
413.142	2962.38
413.365	3003.38
413.589	3014.38
413.812	2993.38
414.035	2992.38
414.258	2990.38
414.482	2950.38
414.705	2964.38
414.928	2963.38
415.151	2999.38
415.374	2974.38
415.597	2881.38
415.821	2872.38
416.044	2887.38
416.267	2882.38
416.49	2847.38
416.713	2896.38
416.936	2897.38
417.159	2866.38
417.382	2781.38
417.605	2866.38
417.828	2830.38
418.051	2875.38
418.274	2890.38
418.497	2864.38
418.72	2943.38
418.943	2838.38
419.166	3019.38
419.389	3181.38
419.611	3114.38
419.834	3032.38
420.057	3001.38
420.28	2851.38
420.503	2842.38
420.726	2866.38
420.948	2858.38
421.171	2855.38
421.394	2843.38
421.617	2847.38
421.839	2896.38
422.062	2936.38
422.285	2822.38
422.507	2900.38
422.73	2966.38
422.953	2928.38
423.175	2940.38
423.398	2968.38
423.621	2843.38
423.843	2898.38
424.066	2871.38
424.288	2865.38
424.511	2901.38
424.733	2800.38
424.956	2817.38
425.178	2852.38
425.401	2759.38
425.623	2788.38
425.846	2748.38
426.068	2816.38
426.291	2731.38
426.513	2722.38
426.735	2706.38
426.958	2757.38
427.18	2700.38
427.402	2738.38
427.625	2731.38
427.847	2652.38
428.069	2650.38
428.292	2696.38
428.514	2625.38
428.736	2664.38
428.958	2680.38
429.181	2594.38
429.403	2631.38
429.625	2624.38
429.847	2647.38
430.069	2715.38
430.292	2787.38
430.514	2866.38
430.736	2834.38
430.958	2676.38
431.18	2644.38
431.402	2634.38
431.624	2586.38
431.846	2581.38
432.068	2573.38
432.29	2624.38
432.512	2606.38
432.734	2651.38
432.956	2566.38
433.178	2622.38
433.4	2612.38
433.622	2648.38
433.844	2653.38
434.066	2626.38
434.287	2649.38
434.509	2648.38
434.731	2736.38
434.953	2735.38
435.175	2734.38
435.397	2755.38
435.618	2675.38
435.84	2654.38
436.062	2535.38
436.284	2610.38
436.505	2586.38
436.727	2592.38
436.949	2609.38
437.17	2626.38
437.392	2584.38
437.614	2530.38
437.835	2532.38
438.057	2520.38
438.278	2486.38
438.5	2563.38
438.721	2588.38
438.943	2683.38
439.165	2751.38
439.386	2757.38
439.608	2684.38
439.829	2682.38
440.05	2833.38
440.272	2823.38
440.493	2715.38
440.715	2699.38
440.936	2720.38
441.158	2710.38
441.379	2777.38
441.6	2901.38
441.822	2926.38
442.043	3098.38
442.264	3212.38
442.486	2981.38
442.707	2862.38
442.928	2791.38
443.149	2819.38
443.371	2810.38
443.592	2798.38
443.813	2848.38
444.034	2874.38
444.255	2856.38
444.476	2933.38
444.698	2972.38
444.919	3048.38
445.14	3070.38
445.361	2922.38
445.582	2897.38
445.803	2795.38
446.024	2784.38
446.245	2747.38
446.466	2803.38
446.687	2755.38
446.908	2744.38
447.129	2702.38
447.35	2642.38
447.571	2622.38
447.792	2545.38
448.013	2552.38
448.234	2592.38
448.455	2606.38
448.675	2651.38
448.896	2686.38
449.117	2798.38
449.338	2936.38
449.559	3145.38
449.779	2862.38
450	2568.38
450.221	2469.38
450.442	2538.38
450.662	2530.38
450.883	2510.38
451.104	2506.38
451.324	2525.38
451.545	2541.38
451.766	2536.38
451.986	2576.38
452.207	2803.38
452.428	3670.38
452.648	5511.38
452.869	4578.38
453.089	3178.38
453.31	2953.38
453.53	2947.38
453.751	3050.38
453.971	3251.38
454.192	3140.38
454.412	2735.38
454.633	2560.38
454.853	2542.38
455.073	2479.38
455.294	2425.38
455.514	2386.38
455.734	2408.38
455.955	2344.38
456.175	2355.38
456.395	2407.38
456.616	2417.38
456.836	2488.38
457.056	2447.38
457.276	2456.38
457.497	2654.38
457.717	2616.38
457.937	2561.38
458.157	2526.38
458.377	2543.38
458.598	2535.38
458.818	2598.38
459.038	2576.38
459.258	2598.38
459.478	2648.38
459.698	2681.38
459.918	2696.38
460.138	2704.38
460.358	2800.38
460.578	2809.38
460.798	2843.38
461.018	2879.38
461.238	2842.38
461.458	2849.38
461.678	2876.38
461.898	3022.38
462.118	3004.38
462.338	2990.38
462.558	3051.38
462.777	3149.38
462.997	3188.38
463.217	3330.38
463.437	3455.38
463.657	3602.38
463.876	3580.38
464.096	3335.38
464.316	3204.38
464.536	3151.38
464.755	3050.38
464.975	2969.38
465.195	2928.38
465.414	2863.38
465.634	2775.38
465.854	2683.38
466.073	2704.38
466.293	2680.38
466.512	2589.38
466.732	2681.38
466.951	2802.38
467.171	2984.38
467.391	2936.38
467.61	2667.38
467.829	2602.38
468.049	2578.38
468.268	2511.38
468.488	2573.38
468.707	2573.38
468.927	2579.38
469.146	2598.38
469.365	2608.38
469.585	2627.38
469.804	2663.38
470.023	2708.38
470.243	2737.38
470.462	2847.38
470.681	3029.38
470.901	3346.38
471.12	3803.38
471.339	3882.38
471.558	3172.38
471.777	2928.38
471.997	2754.38
472.216	2661.38
472.435	2630.38
472.654	2595.38
472.873	2561.38
473.092	2611.38
473.311	2590.38
473.53	2619.38
473.749	2683.38
473.968	2767.38
474.187	2617.38
474.406	2572.38
474.625	2600.38
474.844	2617.38
475.063	2612.38
475.282	2624.38
475.501	2593.38
475.72	2622.38
475.939	2679.38
476.158	2696.38
476.377	2742.38
476.596	2704.38
476.814	2694.38
477.033	2688.38
477.252	2756.38
477.471	2778.38
477.69	2888.38
477.908	2938.38
478.127	2924.38
478.346	2915.38
478.564	2974.38
478.783	3002.38
479.002	3085.38
479.22	3066.38
479.439	3102.38
479.658	3074.38
479.876	3133.38
480.095	3139.38
480.313	3142.38
480.532	3220.38
480.751	3190.38
480.969	3160.38
481.188	3124.38
481.406	3174.38
481.624	3043.38
481.843	3111.38
482.061	3238.38
482.28	3201.38
482.498	3166.38
482.717	3169.38
482.935	3172.38
483.153	3216.38
483.372	3282.38
483.59	3239.38
483.808	3371.38
484.027	3449.38
484.245	3668.38
484.463	4105.38
484.681	4608.38
484.9	4150.38
485.118	3850.38
485.336	3761.38
485.554	3742.38
485.772	4024.38
485.99	4600.38
486.209	4987.38
486.427	4125.38
486.645	3660.38
486.863	3488.38
487.081	3437.38
487.299	3380.38
487.517	3278.38
487.735	3360.38
487.953	3386.38
488.171	3374.38
488.389	3359.38
488.607	3249.38
488.825	3188.38
489.043	3270.38
489.261	3176.38
489.479	3224.38
489.696	3186.38
489.914	3242.38
490.132	3298.38
490.35	3257.38
490.568	3225.38
490.786	3276.38
491.003	3347.38
491.221	3390.38
491.439	3424.38
491.657	3324.38
491.874	3394.38
492.092	3438.38
492.31	3422.38
492.527	3350.38
492.745	3350.38
492.963	3395.38
493.18	3390.38
493.398	3334.38
493.615	3396.38
493.833	3394.38
494.05	3397.38
494.268	3388.38
494.485	3379.38
494.703	3442.38
494.92	3429.38
495.138	3419.38
495.355	3437.38
495.573	3408.38
495.79	3422.38
496.008	3448.38
496.225	3500.38
496.442	3544.38
496.66	3660.38
496.877	3880.38
497.094	3836.38
497.312	3706.38
497.529	3671.38
497.746	3706.38
497.963	3786.38
498.181	3850.38
498.398	3947.38
498.615	4088.38
498.832	4212.38
499.049	4393.38
499.267	4781.38
499.484	5073.38
499.701	5063.38
499.918	5231.38
500.135	5400.38
500.352	5725.38
500.569	5812.38
500.786	5677.38
501.003	5540.38
501.22	5249.38
501.437	4983.38
501.654	4763.38
501.871	4543.38
502.088	4368.38
502.305	4150.38
502.522	4053.38
502.739	3960.38
502.956	3839.38
503.172	3745.38
503.389	3698.38
503.606	3603.38
503.823	3571.38
504.04	3501.38
504.256	3520.38
504.473	3519.38
504.69	3543.38
504.907	3462.38
505.123	3409.38
505.34	3363.38
505.557	3291.38
505.773	3235.38
505.99	3190.38
506.207	3164.38
506.423	3083.38
506.64	3094.38
506.856	3037.38
507.073	3034.38
507.289	3039.38
507.506	3018.38
507.722	2967.38
507.939	3030.38
508.155	2938.38
508.372	2917.38
508.588	2934.38
508.805	2902.38
509.021	2966.38
509.238	2953.38
509.454	3163.38
509.67	3343.38
509.887	3158.38
510.103	2968.38
510.319	2928.38
510.536	2912.38
510.752	2918.38
510.968	2869.38
511.184	2903.38
511.401	2841.38
511.617	2835.38
511.833	2827.38
512.049	2814.38
512.265	2822.38
512.481	2755.38
512.698	2813.38
512.914	2810.38
513.13	2803.38
513.346	2826.38
513.562	2819.38
513.778	2879.38
513.994	2862.38
514.21	2907.38
514.426	3118.38
514.642	3297.38
514.858	3020.38
515.074	2905.38
515.29	2858.38
515.506	2904.38
515.721	2903.38
515.937	2905.38
516.153	2909.38
516.369	2970.38
516.585	2925.38
516.801	3024.38
517.016	3079.38
517.232	3126.38
517.448	3113.38
517.664	3233.38
517.879	3228.38
518.095	3241.38
518.311	3227.38
518.527	3120.38
518.742	3128.38
518.958	3193.38
519.173	3230.38
519.389	3110.38
519.605	2999.38
519.82	2928.38
520.036	2931.38
520.251	2871.38
520.467	2774.38
520.682	2821.38
520.898	2820.38
521.113	2833.38
521.329	2753.38
521.544	2723.38
521.76	2768.38
521.975	2763.38
522.19	2758.38
522.406	2788.38
522.621	2746.38
522.836	2695.38
523.052	2729.38
523.267	2719.38
523.482	2711.38
523.698	2704.38
523.913	2661.38
524.128	2701.38
524.343	2697.38
524.559	2670.38
524.774	2647.38
524.989	2668.38
525.204	2704.38
525.419	2675.38
525.634	2704.38
525.849	2689.38
526.064	2705.38
526.28	2670.38
526.495	2670.38
526.71	2722.38
526.925	2710.38
527.14	2671.38
527.355	2710.38
527.57	2681.38
527.785	2766.38
527.999	2744.38
528.214	2747.38
528.429	2781.38
528.644	2804.38
528.859	2838.38
529.074	2924.38
529.289	2909.38
529.503	2867.38
529.718	2956.38
529.933	2891.38
530.148	2828.38
530.363	2871.38
530.577	2868.38
530.792	2840.38
531.007	2863.38
531.221	2915.38
531.436	2978.38
531.651	2999.38
531.865	2987.38
532.08	3045.38
532.295	3142.38
532.509	3369.38
532.724	3370.38
532.938	3378.38
533.153	3508.38
533.367	3793.38
533.582	4019.38
533.796	3964.38
534.011	3829.38
534.225	3631.38
534.44	3475.38
534.654	3428.38
534.868	3322.38
535.083	3216.38
535.297	3242.38
535.511	3123.38
535.726	3122.38
535.94	3050.38
536.154	2963.38
536.369	2929.38
536.583	2896.38
536.797	2844.38
537.011	2849.38
537.225	2819.38
537.44	2806.38
537.654	2826.38
537.868	2729.38
538.082	2744.38
538.296	2696.38
538.51	2716.38
538.724	2661.38
538.938	2706.38
539.153	2634.38
539.367	2671.38
539.581	2573.38
539.795	2620.38
540.009	2581.38
540.222	2558.38
540.436	2632.38
540.65	2634.38
540.864	2601.38
541.078	2698.38
541.292	2834.38
541.506	3326.38
541.72	3539.38
541.934	3074.38
542.147	2850.38
542.361	2756.38
542.575	2675.38
542.789	2563.38
543.002	2510.38
543.216	2515.38
543.43	2500.38
543.644	2495.38
543.857	2519.38
544.071	2567.38
544.285	2562.38
544.498	2520.38
544.712	2531.38
544.925	2504.38
545.139	2525.38
545.352	2499.38
545.566	2567.38
545.779	2546.38
545.993	2547.38
546.206	2524.38
546.42	2575.38
546.633	2527.38
546.847	2516.38
547.06	2508.38
547.274	2539.38
547.487	2518.38
547.7	2492.38
547.914	2550.38
548.127	2517.38
548.34	2537.38
548.554	2558.38
548.767	2518.38
548.98	2548.38
549.193	2540.38
549.407	2545.38
549.62	2575.38
549.833	2539.38
550.046	2577.38
550.259	2563.38
550.473	2505.38
550.686	2531.38
550.899	2527.38
551.112	2553.38
551.325	2532.38
551.538	2548.38
551.751	2542.38
551.964	2560.38
552.177	2594.38
552.39	2591.38
552.603	2688.38
552.816	2683.38
553.029	2706.38
553.242	2785.38
553.455	2817.38
553.667	2807.38
553.88	2844.38
554.093	2846.38
554.306	2910.38
554.519	2928.38
554.732	2898.38
554.944	2994.38
555.157	3071.38
555.37	3140.38
555.583	3226.38
555.795	3422.38
556.008	3754.38
556.221	4147.38
556.433	4540.38
556.646	4530.38
556.859	4256.38
557.071	4144.38
557.284	3984.38
557.496	3858.38
557.709	3800.38
557.921	3670.38
558.134	3700.38
558.346	3760.38
558.559	3859.38
558.771	4123.38
558.984	4619.38
559.196	4920.38
559.409	4680.38
559.621	4291.38
559.833	3974.38
560.046	3748.38
560.258	3532.38
560.47	3412.38
560.683	3252.38
560.895	3122.38
561.107	2995.38
561.32	2935.38
561.532	2795.38
561.744	2766.38
561.956	2722.38
562.168	2688.38
562.381	2665.38
562.593	2664.38
562.805	2674.38
563.017	2742.38
563.229	2752.38
563.441	3191.38
563.653	2696.38
563.865	2467.38
564.077	2438.38
564.289	2391.38
564.501	2385.38
564.713	2371.38
564.925	2342.38
565.137	2326.38
565.349	2351.38
565.561	2357.38
565.773	2384.38
565.985	2414.38
566.197	2367.38
566.408	2473.38
566.62	2524.38
566.832	2572.38
567.044	2628.38
567.255	2601.38
567.467	2646.38
567.679	2649.38
567.891	2898.38
568.102	3162.38
568.314	3604.38
568.526	3146.38
568.737	2724.38
568.949	2464.38
569.161	2363.38
569.372	2222.38
569.584	2186.38
569.795	2159.38
570.007	2141.38
570.218	2178.38
570.43	2273.38
570.641	2054.38
570.853	2001.38
571.064	1974.38
571.276	1965.38
571.487	1914.38
571.698	1862.38
571.91	1856.38
572.121	1848.38
572.333	1867.38
572.544	1876.38
572.755	1992.38
572.966	2360.38
573.178	2105.38
573.389	1923.38
573.6	1811.38
573.811	1767.38
574.023	1729.38
574.234	1759.38
574.445	1736.38
574.656	1697.38
574.867	1698.38
575.078	1699.38
575.289	1704.38
575.501	1698.38
575.712	1675.38
575.923	1674.38
576.134	1693.38
576.345	1704.38
576.556	1718.38
576.767	1659.38
576.978	1701.38
577.188	1742.38
577.399	1740.38
577.61	1756.38
577.821	1742.38
578.032	1760.38
578.243	1819.38
578.454	1874.38
578.665	1891.38
578.875	1931.38
579.086	1999.38
579.297	2073.38
579.508	2223.38
579.718	2417.38
579.929	2853.38
580.14	3290.38
580.35	3380.38
580.561	3062.38
580.772	2769.38
580.982	2529.38
581.193	2338.38
581.403	2220.38
581.614	2120.38
581.825	2007.38
582.035	1945.38
582.246	1874.38
582.456	1819.38
582.667	1779.38
582.877	1790.38
583.087	1659.38
583.298	1653.38
583.508	1639.38
583.719	1578.38
583.929	1522.38
584.139	1491.38
584.35	1489.38
584.56	1475.38
584.77	1464.38
584.981	1416.38
585.191	1415.38
585.401	1386.38
585.611	1353.38
585.821	1346.38
586.032	1344.38
586.242	1336.38
586.452	1342.38
586.662	1307.38
586.872	1275.38
587.082	1303.38
587.292	1284.38
587.502	1270.38
587.713	1250.38
587.923	1230.38
588.133	1232.38
588.343	1211.38
588.553	1247.38
588.762	1215.38
588.972	1219.38
589.182	1196.38
589.392	1209.38
589.602	1180.38
589.812	1189.38
590.022	1165.38
590.232	1162.38
590.441	1182.38
590.651	1156.38
590.861	1181.38
591.071	1174.38
591.281	1173.38
591.49	1165.38
591.7	1156.38
591.91	1173.38
592.119	1160.38
592.329	1163.38
592.539	1190.38
592.748	1210.38
592.958	1238.38
593.167	1211.38
593.377	1215.38
593.587	1222.38
593.796	1221.38
594.006	1226.38
594.215	1216.38
594.424	1203.38
594.634	1168.38
594.843	1163.38
595.053	1146.38
595.262	1113.38
595.472	1099.38
595.681	1066.38
595.89	1084.38
596.1	1056.38
596.309	1034.38
596.518	1050.38
596.727	1037.38
596.937	1027.38
597.146	1026.38
597.355	1017.38
597.564	1006.38
597.774	1019.38
597.983	979.38
598.192	977.38
598.401	981.38
598.61	964.38
598.819	964.38
599.028	945.38
599.237	954.38
599.446	971.38
599.655	958.38
599.864	912.38
600.073	912.38
600.282	933.38
600.491	940.38
600.7	938.38
600.909	924.38
601.118	932.38
601.327	910.38
601.536	949.38
601.745	979.38
601.953	1063.38
602.162	1227.38
602.371	1070.38
602.58	966.38
602.789	965.38
602.997	934.38
603.206	906.38
603.415	921.38
603.623	928.38
603.832	878.38
604.041	917.38
604.249	925.38
604.458	884.38
604.666	878.38
604.875	857.38
605.084	874.38
605.292	865.38
605.501	897.38
605.709	896.38
605.918	918.38
606.126	902.38
606.334	923.38
606.543	935.38
606.751	1003.38
606.96	1134.38
607.168	1225.38
607.376	1051.38
607.585	971.38
607.793	920.38
608.001	892.38
608.21	892.38
608.418	874.38
608.626	868.38
608.834	894.38
609.043	878.38
609.251	860.38
609.459	834.38
609.667	845.38
609.875	801.38
610.083	810.38
610.291	832.38
610.499	818.38
610.707	817.38
610.916	802.38
611.124	810.38
611.332	832.38
611.54	816.38
611.748	810.38
611.955	809.38
612.163	816.38
612.371	804.38
612.579	793.38
612.787	774.38
612.995	797.38
613.203	804.38
613.411	793.38
613.618	799.38
613.826	800.38
614.034	792.38
614.242	778.38
614.449	778.38
614.657	791.38
614.865	788.38
615.072	810.38
615.28	800.38
615.488	807.38
615.695	798.38
615.903	773.38
616.111	812.38
616.318	775.38
616.526	775.38
616.733	790.38
616.941	751.38
617.148	788.38
617.356	768.38
617.563	771.38
617.771	769.38
617.978	741.38
618.185	768.38
618.393	746.38
618.6	723.38
618.807	737.38
619.015	767.38
619.222	741.38
619.429	723.38
619.637	725.38
619.844	726.38
620.051	718.38
620.258	714.38
620.466	726.38
620.673	721.38
620.88	682.38
621.087	681.38
621.294	683.38
621.501	675.38
621.708	692.38
621.915	696.38
622.122	699.38
622.329	696.38
622.536	711.38
622.743	674.38
622.95	699.38
623.157	694.38
623.364	703.38
623.571	666.38
623.778	701.38
623.985	664.38
624.192	683.38
624.399	652.38
624.606	670.38
624.812	658.38
625.019	667.38
625.226	669.38
625.433	662.38
625.639	641.38
625.846	632.38
626.053	615.38
626.259	635.38
626.466	630.38
626.673	613.38
626.879	608.38
627.086	629.38
627.293	616.38
627.499	623.38
627.706	613.38
627.912	642.38
628.119	634.38
628.325	626.38
628.532	642.38
628.738	638.38
628.945	599.38
629.151	616.38
629.357	605.38
629.564	603.38
629.77	616.38
629.976	617.38
630.183	608.38
630.389	585.38
630.595	590.38
630.802	600.38
631.008	591.38
631.214	574.38
631.42	572.38
631.627	592.38
631.833	597.38
632.039	592.38
632.245	582.38
632.451	565.38
632.657	592.38
632.863	575.38
633.069	594.38
633.275	596.38
633.481	582.38
633.688	571.38
633.893	583.38
634.099	591.38
634.305	568.38
634.511	585.38
634.717	586.38
634.923	598.38
635.129	696.38
635.335	789.38
635.541	681.38
635.747	632.38
635.952	593.38
636.158	607.38
636.364	593.38
636.57	595.38
636.775	582.38
636.981	598.38
637.187	570.38
637.392	585.38
637.598	562.38
637.804	557.38
638.009	585.38
638.215	561.38
638.421	574.38
638.626	586.38
638.832	587.38
639.037	575.38
639.243	616.38
639.448	576.38
639.654	584.38
639.859	602.38
640.065	603.38
640.27	601.38
640.475	612.38
640.681	617.38
640.886	634.38
641.091	617.38
641.297	634.38
641.502	634.38
641.707	619.38
641.913	659.38
642.118	651.38
642.323	658.38
642.528	665.38
642.733	688.38
642.939	698.38
643.144	710.38
643.349	753.38
643.554	769.38
643.759	833.38
643.964	845.38
644.169	920.38
644.374	949.38
644.579	1046.38
644.784	1154.38
644.989	1314.38
645.194	1530.38
645.399	1922.38
645.604	2100.38
645.809	1519.38
646.014	1162.38
646.219	944.38
646.423	845.38
646.628	774.38
646.833	694.38
647.038	678.38
647.243	650.38
647.447	639.38
647.652	612.38
647.857	573.38
648.062	577.38
648.266	558.38
648.471	569.38
648.676	548.38
648.88	540.38
649.085	544.38
649.289	546.38
649.494	518.38
649.698	495.38
649.903	500.38
650.107	469.38
650.312	472.38
650.516	477.38
650.721	476.38
650.925	455.38
651.13	443.38
651.334	443.38
651.539	446.38
651.743	444.38
651.947	418.38
652.152	408.38
652.356	414.38
652.56	470.38
652.764	523.38
652.969	456.38
653.173	431.38
653.377	393.38
653.581	390.38
653.785	378.38
653.99	384.38
654.194	357.38
654.398	364.38
654.602	369.38
654.806	347.38
655.01	356.38
655.214	356.38
655.418	338.38
655.622	352.38
655.826	336.38
656.03	362.38
656.234	351.38
656.438	361.38
656.642	379.38
656.846	366.38
657.049	343.38
657.253	315.38
657.457	289.38
657.661	288.38
657.865	274.38
658.068	250.38
658.272	236.38
658.476	241.38
658.68	220.38
658.883	210.38
659.087	182.38
659.291	195.38
659.494	191.38
659.698	188.38
659.901	192.38
660.105	152.38
660.309	147.38
660.512	147.38
660.716	140.38
660.919	139.38
661.123	148.38
661.326	139.38
661.53	121.38
661.733	115.38
661.936	125.38
662.14	131.38
662.343	113.38
662.546	104.38
662.75	108.38
662.953	89.38
663.156	101.38
663.36	89.38
663.563	90.38
663.766	98.38
663.969	100.38
664.173	97.38
664.376	92.38
664.579	106.38
664.782	90.38
664.985	91.38
665.188	84.38
665.391	94.38
665.594	93.38
665.797	89.38
666	86.38
666.203	70.38
666.406	89.38
666.609	97.38
666.812	93.38
667.015	84.38
667.218	88.38
667.421	76.38
667.624	82.38
667.827	80.38
668.03	82.38
668.232	82.38
668.435	71.38
668.638	81.38
668.841	81.38
669.043	77.38
669.246	82.38
669.449	65.38
669.651	89.38
669.854	87.38
670.057	67.38
670.259	69.38
670.462	80.38
670.665	76.38
670.867	79.38
671.07	90.38
671.272	81.38
671.475	87.38
671.677	97.38
671.88	82.38
672.082	98.38
672.284	86.38
672.487	89.38
672.689	79.38
672.892	76.38
