Data from SnStandardFlinnAPT0064_QswitchEnergy10_LIBS07252019.E.O._I.C._HRD10591_15-26-13-972.txt Node
Date: Thu Jul 25 15:26:13 EDT 2019
User: cochatt
Spectrometer: HR+D1059
Trigger mode: 1
Integration Time (sec): 1.000000E-1
Scans to average: 1
Electric dark correction enabled: true
Nonlinearity correction enabled: false
Boxcar width: 0
XAxis mode: Wavelengths
Number of Pixels in Spectrum: 2048
>>>>>Begin Spectral Data<<<<<
223.165	-14.62
223.4	-14.62
223.635	-14.62
223.869	-27.62
224.104	-14.62
224.338	-5.62
224.573	-8.62
224.808	-10.62
225.042	-22.62
225.277	-14.62
225.511	-12.62
225.746	14.38
225.98	7.38
226.215	9.38
226.449	14.38
226.683	22.38
226.918	29.38
227.152	34.38
227.387	36.38
227.621	34.38
227.856	53.38
228.09	31.38
228.324	53.38
228.559	52.38
228.793	53.38
229.027	67.38
229.262	69.38
229.496	55.38
229.73	72.38
229.964	79.38
230.199	64.38
230.433	78.38
230.667	76.38
230.901	82.38
231.136	76.38
231.37	86.38
231.604	94.38
231.838	104.38
232.072	121.38
232.306	105.38
232.541	95.38
232.775	87.38
233.009	90.38
233.243	85.38
233.477	79.38
233.711	90.38
233.945	112.38
234.179	101.38
234.413	101.38
234.647	85.38
234.881	86.38
235.115	90.38
235.349	80.38
235.583	111.38
235.817	122.38
236.051	130.38
236.285	91.38
236.519	73.38
236.753	82.38
236.987	85.38
237.221	81.38
237.455	81.38
237.689	80.38
237.922	85.38
238.156	79.38
238.39	73.38
238.624	84.38
238.858	85.38
239.091	82.38
239.325	86.38
239.559	81.38
239.793	78.38
240.027	83.38
240.26	77.38
240.494	80.38
240.728	90.38
240.961	86.38
241.195	88.38
241.429	102.38
241.662	74.38
241.896	84.38
242.13	85.38
242.363	121.38
242.597	139.38
242.83	122.38
243.064	138.38
243.298	161.38
243.531	121.38
243.765	85.38
243.998	87.38
244.232	92.38
244.465	78.38
244.699	73.38
244.932	67.38
245.166	93.38
245.399	85.38
245.633	82.38
245.866	83.38
246.099	82.38
246.333	84.38
246.566	73.38
246.8	90.38
247.033	81.38
247.266	87.38
247.5	89.38
247.733	82.38
247.966	93.38
248.2	99.38
248.433	106.38
248.666	121.38
248.899	111.38
249.133	92.38
249.366	91.38
249.599	97.38
249.832	102.38
250.066	109.38
250.299	82.38
250.532	75.38
250.765	90.38
250.998	91.38
251.231	79.38
251.465	81.38
251.698	80.38
251.931	74.38
252.164	74.38
252.397	79.38
252.63	86.38
252.863	101.38
253.096	93.38
253.329	86.38
253.562	100.38
253.795	90.38
254.028	79.38
254.261	88.38
254.494	92.38
254.727	106.38
254.96	119.38
255.193	117.38
255.426	91.38
255.659	77.38
255.892	99.38
256.124	97.38
256.357	81.38
256.59	86.38
256.823	90.38
257.056	98.38
257.289	127.38
257.521	163.38
257.754	119.38
257.987	96.38
258.22	83.38
258.452	82.38
258.685	81.38
258.918	73.38
259.151	88.38
259.383	119.38
259.616	119.38
259.849	126.38
260.081	99.38
260.314	74.38
260.547	86.38
260.779	85.38
261.012	78.38
261.244	98.38
261.477	97.38
261.71	82.38
261.942	78.38
262.175	90.38
262.407	84.38
262.64	69.38
262.872	84.38
263.105	86.38
263.337	88.38
263.57	86.38
263.802	93.38
264.035	85.38
264.267	99.38
264.499	75.38
264.732	101.38
264.964	90.38
265.197	98.38
265.429	101.38
265.661	90.38
265.894	95.38
266.126	96.38
266.358	133.38
266.591	129.38
266.823	91.38
267.055	88.38
267.287	101.38
267.52	79.38
267.752	86.38
267.984	90.38
268.216	80.38
268.448	89.38
268.681	90.38
268.913	89.38
269.145	94.38
269.377	103.38
269.609	101.38
269.841	88.38
270.073	96.38
270.306	114.38
270.538	182.38
270.77	267.38
271.002	330.38
271.234	159.38
271.466	101.38
271.698	98.38
271.93	86.38
272.162	92.38
272.394	86.38
272.626	89.38
272.858	87.38
273.09	84.38
273.322	85.38
273.553	90.38
273.785	87.38
274.017	88.38
274.249	86.38
274.481	88.38
274.713	75.38
274.945	97.38
275.176	78.38
275.408	83.38
275.64	93.38
275.872	95.38
276.104	102.38
276.335	90.38
276.567	99.38
276.799	88.38
277.031	90.38
277.262	83.38
277.494	103.38
277.726	122.38
277.957	159.38
278.189	221.38
278.421	211.38
278.652	176.38
278.884	162.38
279.115	131.38
279.347	102.38
279.579	90.38
279.81	102.38
280.042	96.38
280.273	97.38
280.505	113.38
280.736	117.38
280.968	109.38
281.199	141.38
281.431	205.38
281.662	220.38
281.894	136.38
282.125	118.38
282.356	101.38
282.588	104.38
282.819	106.38
283.051	96.38
283.282	138.38
283.513	173.38
283.745	271.38
283.976	455.38
284.207	665.38
284.439	498.38
284.67	233.38
284.901	220.38
285.132	277.38
285.364	305.38
285.595	188.38
285.826	156.38
286.057	215.38
286.288	349.38
286.52	520.38
286.751	414.38
286.982	171.38
287.213	119.38
287.444	105.38
287.675	101.38
287.906	102.38
288.138	106.38
288.369	104.38
288.6	90.38
288.831	88.38
289.062	84.38
289.293	97.38
289.524	85.38
289.755	102.38
289.986	95.38
290.217	98.38
290.448	105.38
290.679	120.38
290.91	111.38
291.141	152.38
291.371	197.38
291.602	211.38
291.833	156.38
292.064	120.38
292.295	103.38
292.526	91.38
292.757	97.38
292.987	90.38
293.218	102.38
293.449	99.38
293.68	95.38
293.91	85.38
294.141	95.38
294.372	101.38
294.603	91.38
294.833	92.38
295.064	85.38
295.295	98.38
295.525	93.38
295.756	99.38
295.987	89.38
296.217	99.38
296.448	96.38
296.679	92.38
296.909	89.38
297.14	103.38
297.37	77.38
297.601	106.38
297.831	90.38
298.062	86.38
298.292	107.38
298.523	112.38
298.753	103.38
298.984	103.38
299.214	103.38
299.445	110.38
299.675	122.38
299.905	125.38
300.136	117.38
300.366	138.38
300.597	223.38
300.827	379.38
301.057	587.38
301.288	507.38
301.518	213.38
301.748	129.38
301.979	120.38
302.209	117.38
302.439	136.38
302.669	138.38
302.9	227.38
303.13	393.38
303.36	723.38
303.59	976.38
303.82	686.38
304.051	233.38
304.281	139.38
304.511	118.38
304.741	117.38
304.971	112.38
305.201	102.38
305.431	101.38
305.661	99.38
305.891	103.38
306.121	110.38
306.352	111.38
306.582	103.38
306.812	105.38
307.042	109.38
307.272	105.38
307.502	106.38
307.731	99.38
307.961	93.38
308.191	102.38
308.421	105.38
308.651	96.38
308.881	97.38
309.111	80.38
309.341	97.38
309.571	102.38
309.8	104.38
310.03	105.38
310.26	110.38
310.49	95.38
310.72	115.38
310.949	115.38
311.179	107.38
311.409	102.38
311.639	105.38
311.868	98.38
312.098	111.38
312.328	107.38
312.557	119.38
312.787	105.38
313.017	102.38
313.246	103.38
313.476	86.38
313.706	111.38
313.935	135.38
314.165	158.38
314.394	201.38
314.624	144.38
314.853	112.38
315.083	126.38
315.312	116.38
315.542	122.38
315.771	125.38
316.001	117.38
316.23	127.38
316.46	133.38
316.689	176.38
316.919	214.38
317.148	419.38
317.377	724.38
317.607	1191.38
317.836	1151.38
318.065	445.38
318.295	198.38
318.524	143.38
318.753	125.38
318.983	116.38
319.212	126.38
319.441	109.38
319.67	112.38
319.9	106.38
320.129	118.38
320.358	90.38
320.587	110.38
320.816	126.38
321.046	118.38
321.275	123.38
321.504	120.38
321.733	137.38
321.962	138.38
322.191	146.38
322.42	137.38
322.649	130.38
322.878	117.38
323.108	117.38
323.337	106.38
323.566	121.38
323.795	129.38
324.024	118.38
324.253	118.38
324.482	162.38
324.71	205.38
324.939	246.38
325.168	210.38
325.397	167.38
325.626	225.38
325.855	395.38
326.084	762.38
326.313	1296.38
326.542	1286.38
326.77	519.38
326.999	207.38
327.228	189.38
327.457	198.38
327.686	181.38
327.914	138.38
328.143	134.38
328.372	126.38
328.6	112.38
328.829	109.38
329.058	119.38
329.287	109.38
329.515	101.38
329.744	112.38
329.972	106.38
330.201	95.38
330.43	112.38
330.658	110.38
330.887	99.38
331.115	110.38
331.344	107.38
331.572	111.38
331.801	112.38
332.03	115.38
332.258	120.38
332.486	137.38
332.715	224.38
332.943	405.38
333.172	647.38
333.4	542.38
333.629	200.38
333.857	138.38
334.085	110.38
334.314	123.38
334.542	126.38
334.771	119.38
334.999	123.38
335.227	114.38
335.455	121.38
335.684	100.38
335.912	115.38
336.14	115.38
336.369	121.38
336.597	98.38
336.825	103.38
337.053	114.38
337.281	99.38
337.51	105.38
337.738	111.38
337.966	110.38
338.194	115.38
338.422	107.38
338.65	99.38
338.878	101.38
339.106	102.38
339.334	111.38
339.562	105.38
339.79	107.38
340.018	112.38
340.246	117.38
340.474	103.38
340.702	95.38
340.93	109.38
341.158	111.38
341.386	100.38
341.614	109.38
341.842	113.38
342.07	111.38
342.298	116.38
342.526	101.38
342.754	106.38
342.981	98.38
343.209	110.38
343.437	117.38
343.665	109.38
343.893	93.38
344.12	91.38
344.348	109.38
344.576	107.38
344.804	101.38
345.031	105.38
345.259	98.38
345.487	105.38
345.714	98.38
345.942	103.38
346.17	105.38
346.397	112.38
346.625	98.38
346.853	106.38
347.08	106.38
347.308	91.38
347.535	99.38
347.763	109.38
347.99	73.38
348.218	102.38
348.445	100.38
348.673	111.38
348.9	113.38
349.128	110.38
349.355	103.38
349.583	118.38
349.81	109.38
350.037	98.38
350.265	111.38
350.492	103.38
350.72	100.38
350.947	96.38
351.174	121.38
351.402	108.38
351.629	104.38
351.856	108.38
352.083	92.38
352.311	101.38
352.538	96.38
352.765	102.38
352.992	106.38
353.22	97.38
353.447	104.38
353.674	93.38
353.901	115.38
354.128	106.38
354.355	90.38
354.583	90.38
354.81	110.38
355.037	103.38
355.264	99.38
355.491	97.38
355.718	98.38
355.945	98.38
356.172	109.38
356.399	98.38
356.626	96.38
356.853	89.38
357.08	92.38
357.307	100.38
357.534	95.38
357.761	110.38
357.988	92.38
358.215	106.38
358.441	101.38
358.668	112.38
358.895	103.38
359.122	117.38
359.349	105.38
359.576	115.38
359.802	105.38
360.029	116.38
360.256	108.38
360.483	98.38
360.709	105.38
360.936	113.38
361.163	115.38
361.39	118.38
361.616	103.38
361.843	103.38
362.07	112.38
362.296	99.38
362.523	107.38
362.749	110.38
362.976	95.38
363.203	106.38
363.429	97.38
363.656	91.38
363.882	109.38
364.109	118.38
364.335	106.38
364.562	88.38
364.788	91.38
365.015	101.38
365.241	109.38
365.468	151.38
365.694	192.38
365.92	175.38
366.147	102.38
366.373	96.38
366.599	99.38
366.826	94.38
367.052	107.38
367.278	98.38
367.505	92.38
367.731	104.38
367.957	94.38
368.184	106.38
368.41	109.38
368.636	112.38
368.862	92.38
369.089	93.38
369.315	106.38
369.541	95.38
369.767	103.38
369.993	99.38
370.219	93.38
370.445	96.38
370.672	103.38
370.898	115.38
371.124	85.38
371.35	106.38
371.576	102.38
371.802	94.38
372.028	97.38
372.254	110.38
372.48	97.38
372.706	114.38
372.932	116.38
373.158	107.38
373.384	101.38
373.61	111.38
373.835	110.38
374.061	88.38
374.287	104.38
374.513	100.38
374.739	93.38
374.965	105.38
375.191	114.38
375.416	102.38
375.642	101.38
375.868	105.38
376.094	121.38
376.319	100.38
376.545	96.38
376.771	101.38
376.997	109.38
377.222	97.38
377.448	109.38
377.674	106.38
377.899	104.38
378.125	98.38
378.35	109.38
378.576	119.38
378.802	99.38
379.027	109.38
379.253	127.38
379.478	155.38
379.704	278.38
379.929	631.38
380.155	1290.38
380.38	1344.38
380.606	429.38
380.831	173.38
381.057	132.38
381.282	110.38
381.507	103.38
381.733	103.38
381.958	96.38
382.184	88.38
382.409	95.38
382.634	96.38
382.86	96.38
383.085	103.38
383.31	87.38
383.535	90.38
383.761	109.38
383.986	100.38
384.211	97.38
384.436	96.38
384.662	103.38
384.887	102.38
385.112	95.38
385.337	97.38
385.562	95.38
385.787	93.38
386.013	100.38
386.238	104.38
386.463	105.38
386.688	93.38
386.913	100.38
387.138	98.38
387.363	109.38
387.588	100.38
387.813	90.38
388.038	98.38
388.263	98.38
388.488	98.38
388.713	87.38
388.938	101.38
389.163	93.38
389.387	110.38
389.612	95.38
389.837	100.38
390.062	106.38
390.287	93.38
390.512	100.38
390.736	105.38
390.961	91.38
391.186	100.38
391.411	101.38
391.636	106.38
391.86	94.38
392.085	91.38
392.31	92.38
392.534	95.38
392.759	93.38
392.984	92.38
393.208	106.38
393.433	126.38
393.658	120.38
393.882	104.38
394.107	86.38
394.331	85.38
394.556	90.38
394.78	112.38
395.005	97.38
395.229	101.38
395.454	96.38
395.678	102.38
395.903	96.38
396.127	94.38
396.352	98.38
396.576	109.38
396.801	102.38
397.025	123.38
397.249	105.38
397.474	99.38
397.698	89.38
397.922	90.38
398.147	99.38
398.371	120.38
398.595	94.38
398.82	105.38
399.044	98.38
399.268	95.38
399.492	95.38
399.717	87.38
399.941	87.38
400.165	86.38
400.389	98.38
400.613	87.38
400.837	106.38
401.062	94.38
401.286	102.38
401.51	82.38
401.734	101.38
401.958	104.38
402.182	105.38
402.406	100.38
402.63	103.38
402.854	84.38
403.078	94.38
403.302	111.38
403.526	93.38
403.75	103.38
403.974	101.38
404.198	98.38
404.422	91.38
404.645	100.38
404.869	95.38
405.093	91.38
405.317	105.38
405.541	96.38
405.765	116.38
405.988	112.38
406.212	101.38
406.436	99.38
406.66	110.38
406.883	100.38
407.107	81.38
407.331	92.38
407.555	101.38
407.778	90.38
408.002	94.38
408.226	110.38
408.449	113.38
408.673	92.38
408.896	100.38
409.12	90.38
409.344	102.38
409.567	98.38
409.791	89.38
410.014	91.38
410.238	95.38
410.461	96.38
410.685	86.38
410.908	94.38
411.132	92.38
411.355	103.38
411.578	103.38
411.802	89.38
412.025	83.38
412.249	95.38
412.472	77.38
412.695	109.38
412.919	99.38
413.142	93.38
413.365	96.38
413.589	95.38
413.812	96.38
414.035	110.38
414.258	93.38
414.482	103.38
414.705	99.38
414.928	95.38
415.151	106.38
415.374	82.38
415.597	90.38
415.821	85.38
416.044	87.38
416.267	103.38
416.49	95.38
416.713	93.38
416.936	82.38
417.159	96.38
417.382	92.38
417.605	88.38
417.828	98.38
418.051	100.38
418.274	112.38
418.497	103.38
418.72	106.38
418.943	103.38
419.166	105.38
419.389	96.38
419.611	113.38
419.834	100.38
420.057	86.38
420.28	103.38
420.503	97.38
420.726	92.38
420.948	83.38
421.171	86.38
421.394	86.38
421.617	91.38
421.839	93.38
422.062	99.38
422.285	94.38
422.507	101.38
422.73	126.38
422.953	128.38
423.175	106.38
423.398	99.38
423.621	95.38
423.843	103.38
424.066	95.38
424.288	92.38
424.511	92.38
424.733	86.38
424.956	81.38
425.178	101.38
425.401	88.38
425.623	86.38
425.846	92.38
426.068	86.38
426.291	95.38
426.513	91.38
426.735	89.38
426.958	84.38
427.18	111.38
427.402	90.38
427.625	101.38
427.847	91.38
428.069	106.38
428.292	101.38
428.514	81.38
428.736	95.38
428.958	84.38
429.181	98.38
429.403	83.38
429.625	86.38
429.847	89.38
430.069	99.38
430.292	87.38
430.514	95.38
430.736	104.38
430.958	90.38
431.18	89.38
431.402	94.38
431.624	89.38
431.846	91.38
432.068	86.38
432.29	103.38
432.512	100.38
432.734	81.38
432.956	89.38
433.178	87.38
433.4	89.38
433.622	86.38
433.844	97.38
434.066	81.38
434.287	99.38
434.509	94.38
434.731	85.38
434.953	88.38
435.175	85.38
435.397	96.38
435.618	84.38
435.84	86.38
436.062	93.38
436.284	85.38
436.505	84.38
436.727	90.38
436.949	105.38
437.17	99.38
437.392	106.38
437.614	72.38
437.835	108.38
438.057	88.38
438.278	98.38
438.5	83.38
438.721	89.38
438.943	99.38
439.165	101.38
439.386	111.38
439.608	104.38
439.829	111.38
440.05	115.38
440.272	120.38
440.493	100.38
440.715	109.38
440.936	85.38
441.158	101.38
441.379	86.38
441.6	81.38
441.822	92.38
442.043	105.38
442.264	115.38
442.486	109.38
442.707	94.38
442.928	88.38
443.149	95.38
443.371	82.38
443.592	87.38
443.813	86.38
444.034	98.38
444.255	94.38
444.476	95.38
444.698	99.38
444.919	100.38
445.14	211.38
445.361	151.38
445.582	95.38
445.803	106.38
446.024	97.38
446.245	84.38
446.466	93.38
446.687	85.38
446.908	94.38
447.129	91.38
447.35	93.38
447.571	101.38
447.792	99.38
448.013	88.38
448.234	93.38
448.455	84.38
448.675	85.38
448.896	93.38
449.117	105.38
449.338	138.38
449.559	139.38
449.779	113.38
450	94.38
450.221	90.38
450.442	97.38
450.662	119.38
450.883	113.38
451.104	109.38
451.324	117.38
451.545	102.38
451.766	116.38
451.986	133.38
452.207	176.38
452.428	443.38
452.648	1051.38
452.869	584.38
453.089	176.38
453.31	103.38
453.53	105.38
453.751	132.38
453.971	151.38
454.192	137.38
454.412	106.38
454.633	97.38
454.853	100.38
455.073	99.38
455.294	81.38
455.514	104.38
455.734	89.38
455.955	90.38
456.175	88.38
456.395	86.38
456.616	111.38
456.836	93.38
457.056	85.38
457.276	91.38
457.497	98.38
457.717	108.38
457.937	107.38
458.157	109.38
458.377	82.38
458.598	97.38
458.818	89.38
459.038	80.38
459.258	85.38
459.478	82.38
459.698	95.38
459.918	97.38
460.138	97.38
460.358	91.38
460.578	99.38
460.798	87.38
461.018	89.38
461.238	88.38
461.458	103.38
461.678	88.38
461.898	72.38
462.118	92.38
462.338	101.38
462.558	98.38
462.777	106.38
462.997	107.38
463.217	111.38
463.437	114.38
463.657	151.38
463.876	167.38
464.096	115.38
464.316	84.38
464.536	93.38
464.755	95.38
464.975	92.38
465.195	78.38
465.414	80.38
465.634	85.38
465.854	101.38
466.073	87.38
466.293	93.38
466.512	98.38
466.732	101.38
466.951	99.38
467.171	127.38
467.391	110.38
467.61	111.38
467.829	105.38
468.049	95.38
468.268	96.38
468.488	89.38
468.707	87.38
468.927	91.38
469.146	92.38
469.365	91.38
469.585	101.38
469.804	104.38
470.023	89.38
470.243	101.38
470.462	113.38
470.681	109.38
470.901	112.38
471.12	173.38
471.339	185.38
471.558	121.38
471.777	98.38
471.997	103.38
472.216	104.38
472.435	100.38
472.654	81.38
472.873	97.38
473.092	86.38
473.311	91.38
473.53	87.38
473.749	89.38
473.968	103.38
474.187	94.38
474.406	93.38
474.625	83.38
474.844	92.38
475.063	98.38
475.282	101.38
475.501	78.38
475.72	77.38
475.939	90.38
476.158	95.38
476.377	106.38
476.596	92.38
476.814	78.38
477.033	97.38
477.252	89.38
477.471	81.38
477.69	91.38
477.908	94.38
478.127	84.38
478.346	90.38
478.564	100.38
478.783	78.38
479.002	74.38
479.22	98.38
479.439	94.38
479.658	97.38
479.876	94.38
480.095	86.38
480.313	75.38
480.532	88.38
480.751	97.38
480.969	98.38
481.188	95.38
481.406	80.38
481.624	96.38
481.843	95.38
482.061	94.38
482.28	86.38
482.498	98.38
482.717	106.38
482.935	95.38
483.153	102.38
483.372	104.38
483.59	120.38
483.808	111.38
484.027	92.38
484.245	106.38
484.463	152.38
484.681	200.38
484.9	131.38
485.118	108.38
485.336	116.38
485.554	115.38
485.772	125.38
485.99	171.38
486.209	221.38
486.427	153.38
486.645	102.38
486.863	109.38
487.081	89.38
487.299	103.38
487.517	95.38
487.735	94.38
487.953	101.38
488.171	91.38
488.389	99.38
488.607	99.38
488.825	99.38
489.043	101.38
489.261	97.38
489.479	84.38
489.696	94.38
489.914	94.38
490.132	98.38
490.35	96.38
490.568	86.38
490.786	86.38
491.003	109.38
491.221	103.38
491.439	127.38
491.657	111.38
491.874	112.38
492.092	113.38
492.31	97.38
492.527	105.38
492.745	102.38
492.963	113.38
493.18	103.38
493.398	117.38
493.615	89.38
493.833	91.38
494.05	101.38
494.268	113.38
494.485	121.38
494.703	98.38
494.92	106.38
495.138	98.38
495.355	99.38
495.573	118.38
495.79	100.38
496.008	106.38
496.225	113.38
496.442	86.38
496.66	107.38
496.877	137.38
497.094	135.38
497.312	98.38
497.529	86.38
497.746	100.38
497.963	96.38
498.181	103.38
498.398	91.38
498.615	112.38
498.832	94.38
499.049	91.38
499.267	126.38
499.484	133.38
499.701	102.38
499.918	86.38
500.135	85.38
500.352	88.38
500.569	88.38
500.786	104.38
501.003	85.38
501.22	97.38
501.437	93.38
501.654	104.38
501.871	90.38
502.088	94.38
502.305	97.38
502.522	84.38
502.739	99.38
502.956	94.38
503.172	99.38
503.389	99.38
503.606	93.38
503.823	73.38
504.04	89.38
504.256	105.38
504.473	100.38
504.69	89.38
504.907	103.38
505.123	97.38
505.34	98.38
505.557	105.38
505.773	103.38
505.99	91.38
506.207	100.38
506.423	95.38
506.64	85.38
506.856	84.38
507.073	90.38
507.289	91.38
507.506	87.38
507.722	88.38
507.939	94.38
508.155	100.38
508.372	89.38
508.588	94.38
508.805	90.38
509.021	83.38
509.238	95.38
509.454	129.38
509.67	153.38
509.887	114.38
510.103	86.38
510.319	95.38
510.536	101.38
510.752	122.38
510.968	111.38
511.184	90.38
511.401	89.38
511.617	90.38
511.833	102.38
512.049	100.38
512.265	97.38
512.481	88.38
512.698	91.38
512.914	83.38
513.13	83.38
513.346	86.38
513.562	80.38
513.778	98.38
513.994	102.38
514.21	89.38
514.426	129.38
514.642	162.38
514.858	120.38
515.074	101.38
515.29	103.38
515.506	102.38
515.721	86.38
515.937	90.38
516.153	94.38
516.369	92.38
516.585	82.38
516.801	90.38
517.016	89.38
517.232	80.38
517.448	98.38
517.664	89.38
517.879	112.38
518.095	93.38
518.311	105.38
518.527	103.38
518.742	94.38
518.958	116.38
519.173	129.38
519.389	117.38
519.605	102.38
519.82	94.38
520.036	112.38
520.251	108.38
520.467	103.38
520.682	92.38
520.898	89.38
521.113	89.38
521.329	90.38
521.544	92.38
521.76	91.38
521.975	95.38
522.19	76.38
522.406	79.38
522.621	83.38
522.836	90.38
523.052	82.38
523.267	94.38
523.482	94.38
523.698	90.38
523.913	97.38
524.128	97.38
524.343	99.38
524.559	102.38
524.774	84.38
524.989	86.38
525.204	92.38
525.419	90.38
525.634	86.38
525.849	98.38
526.064	91.38
526.28	96.38
526.495	104.38
526.71	89.38
526.925	92.38
527.14	90.38
527.355	95.38
527.57	102.38
527.785	97.38
527.999	88.38
528.214	77.38
528.429	93.38
528.644	82.38
528.859	97.38
529.074	101.38
529.289	98.38
529.503	87.38
529.718	90.38
529.933	95.38
530.148	93.38
530.363	86.38
530.577	82.38
530.792	84.38
531.007	95.38
531.221	85.38
531.436	88.38
531.651	89.38
531.865	100.38
532.08	90.38
532.295	97.38
532.509	109.38
532.724	124.38
532.938	100.38
533.153	96.38
533.367	97.38
533.582	93.38
533.796	95.38
534.011	99.38
534.225	98.38
534.44	88.38
534.654	96.38
534.868	114.38
535.083	88.38
535.297	91.38
535.511	93.38
535.726	98.38
535.94	83.38
536.154	75.38
536.369	88.38
536.583	83.38
536.797	103.38
537.011	84.38
537.225	91.38
537.44	99.38
537.654	75.38
537.868	82.38
538.082	95.38
538.296	90.38
538.51	85.38
538.724	75.38
538.938	86.38
539.153	94.38
539.367	108.38
539.581	88.38
539.795	82.38
540.009	94.38
540.222	93.38
540.436	96.38
540.65	100.38
540.864	100.38
541.078	100.38
541.292	120.38
541.506	183.38
541.72	180.38
541.934	108.38
542.147	115.38
542.361	89.38
542.575	98.38
542.789	82.38
543.002	106.38
543.216	93.38
543.43	86.38
543.644	81.38
543.857	99.38
544.071	99.38
544.285	93.38
544.498	99.38
544.712	115.38
544.925	96.38
545.139	97.38
545.352	113.38
545.566	83.38
545.779	93.38
545.993	103.38
546.206	97.38
546.42	89.38
546.633	96.38
546.847	90.38
547.06	104.38
547.274	102.38
547.487	97.38
547.7	103.38
547.914	96.38
548.127	105.38
548.34	113.38
548.554	101.38
548.767	93.38
548.98	101.38
549.193	94.38
549.407	97.38
549.62	102.38
549.833	99.38
550.046	97.38
550.259	101.38
550.473	101.38
550.686	96.38
550.899	108.38
551.112	86.38
551.325	111.38
551.538	91.38
551.751	97.38
551.964	86.38
552.177	98.38
552.39	103.38
552.603	89.38
552.816	97.38
553.029	106.38
553.242	93.38
553.455	101.38
553.667	100.38
553.88	106.38
554.093	105.38
554.306	101.38
554.519	93.38
554.732	96.38
554.944	84.38
555.157	92.38
555.37	104.38
555.583	88.38
555.795	94.38
556.008	97.38
556.221	131.38
556.433	121.38
556.646	98.38
556.859	102.38
557.071	95.38
557.284	121.38
557.496	105.38
557.709	101.38
557.921	114.38
558.134	110.38
558.346	99.38
558.559	94.38
558.771	102.38
558.984	104.38
559.196	92.38
559.409	84.38
559.621	100.38
559.833	108.38
560.046	90.38
560.258	87.38
560.47	105.38
560.683	95.38
560.895	74.38
561.107	90.38
561.32	99.38
561.532	84.38
561.744	93.38
561.956	91.38
562.168	85.38
562.381	102.38
562.593	104.38
562.805	143.38
563.017	140.38
563.229	205.38
563.441	434.38
563.653	149.38
563.865	106.38
564.077	103.38
564.289	104.38
564.501	102.38
564.713	84.38
564.925	98.38
565.137	93.38
565.349	109.38
565.561	89.38
565.773	94.38
565.985	93.38
566.197	109.38
566.408	97.38
566.62	85.38
566.832	83.38
567.044	96.38
567.255	97.38
567.467	89.38
567.679	94.38
567.891	111.38
568.102	159.38
568.314	225.38
568.526	135.38
568.737	114.38
568.949	107.38
569.161	89.38
569.372	96.38
569.584	95.38
569.795	96.38
570.007	100.38
570.218	115.38
570.43	149.38
570.641	114.38
570.853	90.38
571.064	79.38
571.276	94.38
571.487	90.38
571.698	99.38
571.91	81.38
572.121	111.38
572.333	90.38
572.544	117.38
572.755	125.38
572.966	174.38
573.178	125.38
573.389	105.38
573.6	87.38
573.811	77.38
574.023	94.38
574.234	88.38
574.445	103.38
574.656	94.38
574.867	73.38
575.078	84.38
575.289	81.38
575.501	90.38
575.712	77.38
575.923	86.38
576.134	82.38
576.345	97.38
576.556	86.38
576.767	85.38
576.978	92.38
577.188	95.38
577.399	100.38
577.61	94.38
577.821	76.38
578.032	89.38
578.243	97.38
578.454	98.38
578.665	88.38
578.875	82.38
579.086	92.38
579.297	85.38
579.508	100.38
579.718	91.38
579.929	89.38
580.14	85.38
580.35	101.38
580.561	95.38
580.772	93.38
580.982	89.38
581.193	85.38
581.403	87.38
581.614	94.38
581.825	97.38
582.035	94.38
582.246	89.38
582.456	95.38
582.667	91.38
582.877	110.38
583.087	105.38
583.298	91.38
583.508	103.38
583.719	81.38
583.929	97.38
584.139	104.38
584.35	108.38
584.56	88.38
584.77	81.38
584.981	85.38
585.191	87.38
585.401	87.38
585.611	77.38
585.821	89.38
586.032	98.38
586.242	79.38
586.452	83.38
586.662	84.38
586.872	94.38
587.082	89.38
587.292	80.38
587.502	90.38
587.713	89.38
587.923	81.38
588.133	96.38
588.343	92.38
588.553	87.38
588.762	87.38
588.972	92.38
589.182	122.38
589.392	90.38
589.602	95.38
589.812	106.38
590.022	103.38
590.232	88.38
590.441	94.38
590.651	90.38
590.861	102.38
591.071	97.38
591.281	81.38
591.49	80.38
591.7	88.38
591.91	88.38
592.119	99.38
592.329	94.38
592.539	92.38
592.748	91.38
592.958	101.38
593.167	86.38
593.377	93.38
593.587	99.38
593.796	97.38
594.006	103.38
594.215	79.38
594.424	84.38
594.634	88.38
594.843	97.38
595.053	80.38
595.262	86.38
595.472	86.38
595.681	100.38
595.89	96.38
596.1	107.38
596.309	111.38
596.518	83.38
596.727	98.38
596.937	91.38
597.146	94.38
597.355	71.38
597.564	93.38
597.774	87.38
597.983	86.38
598.192	93.38
598.401	94.38
598.61	86.38
598.819	102.38
599.028	88.38
599.237	101.38
599.446	79.38
599.655	94.38
599.864	83.38
600.073	95.38
600.282	96.38
600.491	86.38
600.7	85.38
600.909	94.38
601.118	84.38
601.327	92.38
601.536	104.38
601.745	95.38
601.953	111.38
602.162	138.38
602.371	115.38
602.58	87.38
602.789	84.38
602.997	88.38
603.206	90.38
603.415	92.38
603.623	83.38
603.832	89.38
604.041	87.38
604.249	95.38
604.458	72.38
604.666	86.38
604.875	91.38
605.084	108.38
605.292	96.38
605.501	83.38
605.709	95.38
605.918	109.38
606.126	98.38
606.334	98.38
606.543	78.38
606.751	114.38
606.96	150.38
607.168	167.38
607.376	109.38
607.585	109.38
607.793	89.38
608.001	98.38
608.21	98.38
608.418	81.38
608.626	94.38
608.834	93.38
609.043	93.38
609.251	110.38
609.459	72.38
609.667	79.38
609.875	84.38
610.083	94.38
610.291	87.38
610.499	107.38
610.707	87.38
610.916	97.38
611.124	103.38
611.332	87.38
611.54	91.38
611.748	86.38
611.955	104.38
612.163	98.38
612.371	94.38
612.579	99.38
612.787	90.38
612.995	77.38
613.203	91.38
613.411	104.38
613.618	97.38
613.826	91.38
614.034	94.38
614.242	82.38
614.449	102.38
614.657	94.38
614.865	103.38
615.072	94.38
615.28	113.38
615.488	105.38
615.695	92.38
615.903	85.38
616.111	87.38
616.318	88.38
616.526	87.38
616.733	93.38
616.941	86.38
617.148	81.38
617.356	93.38
617.563	83.38
617.771	102.38
617.978	85.38
618.185	93.38
618.393	86.38
618.6	83.38
618.807	97.38
619.015	97.38
619.222	101.38
619.429	89.38
619.637	106.38
619.844	87.38
620.051	80.38
620.258	80.38
620.466	94.38
620.673	103.38
620.88	92.38
621.087	89.38
621.294	83.38
621.501	95.38
621.708	86.38
621.915	96.38
622.122	94.38
622.329	98.38
622.536	88.38
622.743	91.38
622.95	98.38
623.157	89.38
623.364	100.38
623.571	81.38
623.778	102.38
623.985	102.38
624.192	88.38
624.399	77.38
624.606	71.38
624.812	68.38
625.019	82.38
625.226	88.38
625.433	80.38
625.639	82.38
625.846	94.38
626.053	87.38
626.259	76.38
626.466	83.38
626.673	70.38
626.879	84.38
627.086	102.38
627.293	96.38
627.499	83.38
627.706	95.38
627.912	84.38
628.119	76.38
628.325	101.38
628.532	100.38
628.738	93.38
628.945	90.38
629.151	86.38
629.357	84.38
629.564	84.38
629.77	91.38
629.976	98.38
630.183	92.38
630.389	98.38
630.595	85.38
630.802	83.38
631.008	95.38
631.214	89.38
631.42	78.38
631.627	93.38
631.833	102.38
632.039	92.38
632.245	89.38
632.451	101.38
632.657	109.38
632.863	89.38
633.069	77.38
633.275	89.38
633.481	79.38
633.688	88.38
633.893	94.38
634.099	88.38
634.305	74.38
634.511	87.38
634.717	85.38
634.923	95.38
635.129	110.38
635.335	135.38
635.541	102.38
635.747	100.38
635.952	105.38
636.158	93.38
636.364	99.38
636.57	80.38
636.775	81.38
636.981	83.38
637.187	75.38
637.392	82.38
637.598	83.38
637.804	97.38
638.009	93.38
638.215	94.38
638.421	94.38
638.626	80.38
638.832	89.38
639.037	106.38
639.243	93.38
639.448	90.38
639.654	86.38
639.859	69.38
640.065	80.38
640.27	87.38
640.475	80.38
640.681	78.38
640.886	68.38
641.091	84.38
641.297	82.38
641.502	96.38
641.707	74.38
641.913	92.38
642.118	86.38
642.323	94.38
642.528	82.38
642.733	82.38
642.939	75.38
643.144	80.38
643.349	81.38
643.554	80.38
643.759	89.38
643.964	82.38
644.169	73.38
644.374	89.38
644.579	94.38
644.784	78.38
644.989	98.38
645.194	99.38
645.399	93.38
645.604	100.38
645.809	89.38
646.014	90.38
646.219	93.38
646.423	95.38
646.628	79.38
646.833	85.38
647.038	88.38
647.243	86.38
647.447	103.38
647.652	95.38
647.857	80.38
648.062	77.38
648.266	86.38
648.471	103.38
648.676	92.38
648.88	90.38
649.085	88.38
649.289	84.38
649.494	94.38
649.698	82.38
649.903	83.38
650.107	82.38
650.312	82.38
650.516	80.38
650.721	88.38
650.925	84.38
651.13	88.38
651.334	86.38
651.539	87.38
651.743	86.38
651.947	93.38
652.152	73.38
652.356	89.38
652.56	89.38
652.764	97.38
652.969	94.38
653.173	87.38
653.377	89.38
653.581	94.38
653.785	75.38
653.99	80.38
654.194	90.38
654.398	78.38
654.602	87.38
654.806	83.38
655.01	87.38
655.214	64.38
655.418	95.38
655.622	75.38
655.826	73.38
656.03	79.38
656.234	89.38
656.438	89.38
656.642	85.38
656.846	86.38
657.049	77.38
657.253	86.38
657.457	88.38
657.661	81.38
657.865	77.38
658.068	82.38
658.272	77.38
658.476	75.38
658.68	91.38
658.883	79.38
659.087	82.38
659.291	85.38
659.494	85.38
659.698	83.38
659.901	80.38
660.105	85.38
660.309	84.38
660.512	82.38
660.716	87.38
660.919	78.38
661.123	89.38
661.326	75.38
661.53	79.38
661.733	84.38
661.936	85.38
662.14	77.38
662.343	77.38
662.546	87.38
662.75	86.38
662.953	92.38
663.156	100.38
663.36	82.38
663.563	91.38
663.766	98.38
663.969	98.38
664.173	86.38
664.376	78.38
664.579	68.38
664.782	95.38
664.985	86.38
665.188	77.38
665.391	80.38
665.594	94.38
665.797	57.38
666	73.38
666.203	94.38
666.406	83.38
666.609	89.38
666.812	83.38
667.015	72.38
667.218	81.38
667.421	77.38
667.624	74.38
667.827	96.38
668.03	74.38
668.232	85.38
668.435	89.38
668.638	97.38
668.841	70.38
669.043	72.38
669.246	57.38
669.449	87.38
669.651	64.38
669.854	79.38
670.057	71.38
670.259	77.38
670.462	92.38
670.665	99.38
670.867	94.38
671.07	85.38
671.272	68.38
671.475	95.38
671.677	75.38
671.88	73.38
672.082	81.38
672.284	87.38
672.487	69.38
672.689	88.38
672.892	95.38
