Data from SnStandardFlinnAPT0064_LampEnergy10_LIBS07252019.E.O._I.C._HRD10591_15-22-30-495.txt Node
Date: Thu Jul 25 15:22:30 EDT 2019
User: cochatt
Spectrometer: HR+D1059
Trigger mode: 1
Integration Time (sec): 1.000000E-1
Scans to average: 1
Electric dark correction enabled: true
Nonlinearity correction enabled: false
Boxcar width: 0
XAxis mode: Wavelengths
Number of Pixels in Spectrum: 2048
>>>>>Begin Spectral Data<<<<<
223.165	-33.19
223.4	-33.19
223.635	-33.19
223.869	-24.19
224.104	-1.19
224.338	-17.19
224.573	4.81
224.808	-14.19
225.042	-14.19
225.277	-3.19
225.511	-3.19
225.746	-3.19
225.98	-4.19
226.215	5.81
226.449	19.81
226.683	26.81
226.918	22.81
227.152	37.81
227.387	32.81
227.621	28.81
227.856	49.81
228.09	49.81
228.324	53.81
228.559	56.81
228.793	114.81
229.027	286.81
229.262	336.81
229.496	308.81
229.73	290.81
229.964	287.81
230.199	276.81
230.433	292.81
230.667	314.81
230.901	335.81
231.136	319.81
231.37	347.81
231.604	366.81
231.838	438.81
232.072	510.81
232.306	572.81
232.541	464.81
232.775	416.81
233.009	400.81
233.243	394.81
233.477	442.81
233.711	512.81
233.945	599.81
234.179	514.81
234.413	439.81
234.647	457.81
234.881	457.81
235.115	509.81
235.349	615.81
235.583	751.81
235.817	1010.81
236.051	988.81
236.285	644.81
236.519	510.81
236.753	490.81
236.987	518.81
237.221	538.81
237.455	493.81
237.689	468.81
237.922	449.81
238.156	449.81
238.39	491.81
238.624	482.81
238.858	469.81
239.091	470.81
239.325	491.81
239.559	474.81
239.793	473.81
240.027	513.81
240.26	524.81
240.494	545.81
240.728	558.81
240.961	570.81
241.195	654.81
241.429	652.81
241.662	681.81
241.896	799.81
242.13	927.81
242.363	1240.81
242.597	1676.81
242.83	1510.81
243.064	1507.81
243.298	1842.81
243.531	1521.81
243.765	948.81
243.998	756.81
244.232	671.81
244.465	664.81
244.699	638.81
244.932	646.81
245.166	646.81
245.399	666.81
245.633	673.81
245.866	689.81
246.099	662.81
246.333	626.81
246.566	631.81
246.8	624.81
247.033	631.81
247.266	627.81
247.5	642.81
247.733	692.81
247.966	726.81
248.2	767.81
248.433	856.81
248.666	1002.81
248.899	940.81
249.133	841.81
249.366	872.81
249.599	959.81
249.832	1072.81
250.066	1081.81
250.299	851.81
250.532	760.81
250.765	741.81
250.998	752.81
251.231	752.81
251.465	711.81
251.698	737.81
251.931	740.81
252.164	752.81
252.397	772.81
252.63	757.81
252.863	784.81
253.096	775.81
253.329	791.81
253.562	774.81
253.795	787.81
254.028	807.81
254.261	809.81
254.494	882.81
254.727	995.81
254.96	1238.81
255.193	1226.81
255.426	963.81
255.659	894.81
255.892	873.81
256.124	873.81
256.357	878.81
256.59	916.81
256.823	926.81
257.056	1084.81
257.289	1343.81
257.521	1459.81
257.754	1188.81
257.987	974.81
258.22	937.81
258.452	911.81
258.685	909.81
258.918	921.81
259.151	938.81
259.383	1102.81
259.616	1185.81
259.849	1282.81
260.081	1076.81
260.314	954.81
260.547	941.81
260.779	919.81
261.012	936.81
261.244	960.81
261.477	959.81
261.71	964.81
261.942	1004.81
262.175	1009.81
262.407	1045.81
262.64	1054.81
262.872	1089.81
263.105	1133.81
263.337	1202.81
263.57	1266.81
263.802	1312.81
264.035	1293.81
264.267	1346.81
264.499	1359.81
264.732	1384.81
264.964	1429.81
265.197	1432.81
265.429	1430.81
265.661	1443.81
265.894	1600.81
266.126	1750.81
266.358	1991.81
266.591	1920.81
266.823	1623.81
267.055	1481.81
267.287	1375.81
267.52	1344.81
267.752	1296.81
267.984	1274.81
268.216	1246.81
268.448	1274.81
268.681	1253.81
268.913	1213.81
269.145	1228.81
269.377	1244.81
269.609	1252.81
269.841	1272.81
270.073	1394.81
270.306	1593.81
270.538	2197.81
270.77	3204.81
271.002	3948.81
271.234	2724.81
271.466	1802.81
271.698	1466.81
271.93	1369.81
272.162	1316.81
272.394	1239.81
272.626	1260.81
272.858	1217.81
273.09	1226.81
273.322	1239.81
273.553	1182.81
273.785	1188.81
274.017	1227.81
274.249	1201.81
274.481	1224.81
274.713	1161.81
274.945	1243.81
275.176	1189.81
275.408	1232.81
275.64	1217.81
275.872	1218.81
276.104	1239.81
276.335	1255.81
276.567	1290.81
276.799	1264.81
277.031	1281.81
277.262	1320.81
277.494	1376.81
277.726	1515.81
277.957	1836.81
278.189	2098.81
278.421	1951.81
278.652	1716.81
278.884	1694.81
279.115	1460.81
279.347	1420.81
279.579	1372.81
279.81	1389.81
280.042	1388.81
280.273	1414.81
280.505	1450.81
280.736	1480.81
280.968	1549.81
281.199	1777.81
281.431	2020.81
281.662	2104.81
281.894	1754.81
282.125	1628.81
282.356	1638.81
282.588	1617.81
282.819	1656.81
283.051	1782.81
283.282	2036.81
283.513	2427.81
283.745	3543.81
283.976	5747.81
284.207	8167.81
284.439	7287.81
284.67	4492.81
284.901	3685.81
285.132	3656.81
285.364	3593.81
285.595	2729.81
285.826	2378.81
286.057	2825.81
286.288	3927.81
286.52	5302.81
286.751	4862.81
286.982	2966.81
287.213	2202.81
287.444	1950.81
287.675	1835.81
287.906	1758.81
288.138	1729.81
288.369	1692.81
288.6	1673.81
288.831	1694.81
289.062	1682.81
289.293	1642.81
289.524	1698.81
289.755	1716.81
289.986	1699.81
290.217	1656.81
290.448	1678.81
290.679	1749.81
290.91	1727.81
291.141	1856.81
291.371	2017.81
291.602	2147.81
291.833	1943.81
292.064	1780.81
292.295	1662.81
292.526	1658.81
292.757	1630.81
292.987	1614.81
293.218	1572.81
293.449	1572.81
293.68	1610.81
293.91	1581.81
294.141	1587.81
294.372	1567.81
294.603	1570.81
294.833	1560.81
295.064	1559.81
295.295	1518.81
295.525	1538.81
295.756	1551.81
295.987	1533.81
296.217	1558.81
296.448	1600.81
296.679	1546.81
296.909	1622.81
297.14	1584.81
297.37	1618.81
297.601	1637.81
297.831	1637.81
298.062	1625.81
298.292	1623.81
298.523	1681.81
298.753	1698.81
298.984	1693.81
299.214	1725.81
299.445	1712.81
299.675	1774.81
299.905	1803.81
300.136	1903.81
300.366	2108.81
300.597	2734.81
300.827	3884.81
301.057	5226.81
301.288	5203.81
301.518	3299.81
301.748	2530.81
301.979	2302.81
302.209	2264.81
302.439	2312.81
302.669	2412.81
302.9	2932.81
303.13	4167.81
303.36	6204.81
303.59	8371.81
303.82	7197.81
304.051	4135.81
304.281	2941.81
304.511	2480.81
304.741	2283.81
304.971	2166.81
305.201	2047.81
305.431	2020.81
305.661	1935.81
305.891	1895.81
306.121	1862.81
306.352	1863.81
306.582	1836.81
306.812	1777.81
307.042	1840.81
307.272	1837.81
307.502	1816.81
307.731	1859.81
307.961	1820.81
308.191	1794.81
308.421	1813.81
308.651	1811.81
308.881	1806.81
309.111	1814.81
309.341	1771.81
309.571	1836.81
309.8	1866.81
310.03	1857.81
310.26	1830.81
310.49	1870.81
310.72	1871.81
310.949	1879.81
311.179	1889.81
311.409	1892.81
311.639	1890.81
311.868	1956.81
312.098	1937.81
312.328	1940.81
312.557	1961.81
312.787	1958.81
313.017	1925.81
313.246	2036.81
313.476	2020.81
313.706	2119.81
313.935	2206.81
314.165	2362.81
314.394	2438.81
314.624	2326.81
314.853	2167.81
315.083	2140.81
315.312	2160.81
315.542	2194.81
315.771	2175.81
316.001	2252.81
316.23	2272.81
316.46	2417.81
316.689	2618.81
316.919	3210.81
317.148	4619.81
317.377	7076.81
317.607	10737.81
317.836	10982.81
318.065	6486.81
318.295	4206.81
318.524	3305.81
318.753	2820.81
318.983	2717.81
319.212	2544.81
319.441	2526.81
319.67	2410.81
319.9	2340.81
320.129	2392.81
320.358	2370.81
320.587	2356.81
320.816	2340.81
321.046	2310.81
321.275	2353.81
321.504	2420.81
321.733	2444.81
321.962	2541.81
322.191	2503.81
322.42	2468.81
322.649	2456.81
322.878	2454.81
323.108	2449.81
323.337	2541.81
323.566	2530.81
323.795	2576.81
324.024	2644.81
324.253	2726.81
324.482	2832.81
324.71	2946.81
324.939	3191.81
325.168	3226.81
325.397	3352.81
325.626	4030.81
325.855	5606.81
326.084	8722.81
326.313	12850.81
326.542	13476.81
326.77	8868.81
326.999	5806.81
327.228	4772.81
327.457	4640.81
327.686	4669.81
327.914	4953.81
328.143	5961.81
328.372	7081.81
328.6	7622.81
328.829	6830.81
329.058	5642.81
329.287	4963.81
329.515	4576.81
329.744	4235.81
329.972	3974.81
330.201	3797.81
330.43	3683.81
330.658	3562.81
330.887	3590.81
331.115	3482.81
331.344	3440.81
331.572	3422.81
331.801	3482.81
332.03	3412.81
332.258	3538.81
332.486	3734.81
332.715	4249.81
332.943	5236.81
333.172	6626.81
333.4	6538.81
333.629	4841.81
333.857	4477.81
334.085	4390.81
334.314	4636.81
334.542	5058.81
334.771	5962.81
334.999	7376.81
335.227	9217.81
335.455	10266.81
335.684	9215.81
335.912	7521.81
336.14	6290.81
336.369	5657.81
336.597	5141.81
336.825	4752.81
337.053	4414.81
337.281	4158.81
337.51	3954.81
337.738	3894.81
337.966	3714.81
338.194	3594.81
338.422	3466.81
338.65	3361.81
338.878	3337.81
339.106	3229.81
339.334	3157.81
339.562	3152.81
339.79	3042.81
340.018	3109.81
340.246	3036.81
340.474	3014.81
340.702	3064.81
340.93	3038.81
341.158	3080.81
341.386	3032.81
341.614	2984.81
341.842	2885.81
342.07	2836.81
342.298	2800.81
342.526	2786.81
342.754	2734.81
342.981	2675.81
343.209	2719.81
343.437	2787.81
343.665	2760.81
343.893	2857.81
344.12	2848.81
344.348	2793.81
344.576	2774.81
344.804	2694.81
345.031	2656.81
345.259	2620.81
345.487	2609.81
345.714	2576.81
345.942	2547.81
346.17	2572.81
346.397	2541.81
346.625	2564.81
346.853	2532.81
347.08	2542.81
347.308	2548.81
347.535	2553.81
347.763	2512.81
347.99	2498.81
348.218	2511.81
348.445	2480.81
348.673	2461.81
348.9	2474.81
349.128	2434.81
349.355	2446.81
349.583	2453.81
349.81	2452.81
350.037	2498.81
350.265	2440.81
350.492	2389.81
350.72	2406.81
350.947	2377.81
351.174	2383.81
351.402	2439.81
351.629	2392.81
351.856	2400.81
352.083	2386.81
352.311	2430.81
352.538	2371.81
352.765	2358.81
352.992	2362.81
353.22	2372.81
353.447	2378.81
353.674	2452.81
353.901	2403.81
354.128	2374.81
354.355	2443.81
354.583	2394.81
354.81	2435.81
355.037	2468.81
355.264	2436.81
355.491	2478.81
355.718	2437.81
355.945	2422.81
356.172	2426.81
356.399	2476.81
356.626	2441.81
356.853	2513.81
357.08	2532.81
357.307	2516.81
357.534	2582.81
357.761	2560.81
357.988	2599.81
358.215	2582.81
358.441	2548.81
358.668	2532.81
358.895	2484.81
359.122	2510.81
359.349	2530.81
359.576	2562.81
359.802	2542.81
360.029	2558.81
360.256	2554.81
360.483	2514.81
360.709	2587.81
360.936	2520.81
361.163	2542.81
361.39	2537.81
361.616	2548.81
361.843	2561.81
362.07	2585.81
362.296	2579.81
362.523	2541.81
362.749	2595.81
362.976	2572.81
363.203	2552.81
363.429	2522.81
363.656	2540.81
363.882	2536.81
364.109	2544.81
364.335	2497.81
364.562	2514.81
364.788	2513.81
365.015	2569.81
365.241	2617.81
365.468	2762.81
365.694	2946.81
365.92	2852.81
366.147	2644.81
366.373	2568.81
366.599	2598.81
366.826	2647.81
367.052	2631.81
367.278	2648.81
367.505	2645.81
367.731	2610.81
367.957	2576.81
368.184	2638.81
368.41	2707.81
368.636	2656.81
368.862	2670.81
369.089	2657.81
369.315	2648.81
369.541	2684.81
369.767	2664.81
369.993	2615.81
370.219	2618.81
370.445	2671.81
370.672	2707.81
370.898	2673.81
371.124	2686.81
371.35	2730.81
371.576	2741.81
371.802	2761.81
372.028	2774.81
372.254	2770.81
372.48	2803.81
372.706	2789.81
372.932	2834.81
373.158	2766.81
373.384	2787.81
373.61	2826.81
373.835	2804.81
374.061	2840.81
374.287	2850.81
374.513	2841.81
374.739	2870.81
374.965	2924.81
375.191	2918.81
375.416	2888.81
375.642	2839.81
375.868	2882.81
376.094	2836.81
376.319	2842.81
376.545	2830.81
376.771	2782.81
376.997	2789.81
377.222	2775.81
377.448	2723.81
377.674	2756.81
377.899	2723.81
378.125	2736.81
378.35	2740.81
378.576	2766.81
378.802	2774.81
379.027	2799.81
379.253	2902.81
379.478	2996.81
379.704	3598.81
379.929	5208.81
380.155	8033.81
380.38	8734.81
380.606	5186.81
380.831	3658.81
381.057	3170.81
381.282	2936.81
381.507	2851.81
381.733	2777.81
381.958	2745.81
382.184	2750.81
382.409	2772.81
382.634	2719.81
382.86	2664.81
383.085	2666.81
383.31	2655.81
383.535	2713.81
383.761	2678.81
383.986	2716.81
384.211	2738.81
384.436	2791.81
384.662	2824.81
384.887	2807.81
385.112	2741.81
385.337	2800.81
385.562	2796.81
385.787	2804.81
386.013	2775.81
386.238	2814.81
386.463	2838.81
386.688	2780.81
386.913	2729.81
387.138	2721.81
387.363	2812.81
387.588	2756.81
387.813	2760.81
388.038	2787.81
388.263	2759.81
388.488	2772.81
388.713	2809.81
388.938	2802.81
389.163	2792.81
389.387	2788.81
389.612	2762.81
389.837	2787.81
390.062	2742.81
390.287	2807.81
390.512	2804.81
390.736	2825.81
390.961	2874.81
391.186	2840.81
391.411	2960.81
391.636	2956.81
391.86	2983.81
392.085	2942.81
392.31	2896.81
392.534	2926.81
392.759	2858.81
392.984	2826.81
393.208	2881.81
393.433	2905.81
393.658	2922.81
393.882	2821.81
394.107	2825.81
394.331	2832.81
394.556	2802.81
394.78	2833.81
395.005	2840.81
395.229	2840.81
395.454	2866.81
395.678	2922.81
395.903	2940.81
396.127	2868.81
396.352	2876.81
396.576	2882.81
396.801	2900.81
397.025	2943.81
397.249	2880.81
397.474	2994.81
397.698	2974.81
397.922	2992.81
398.147	2955.81
398.371	2973.81
398.595	3067.81
398.82	3068.81
399.044	3185.81
399.268	3406.81
399.492	3592.81
399.717	3698.81
399.941	3632.81
400.165	3567.81
400.389	3392.81
400.613	3319.81
400.837	3161.81
401.062	3126.81
401.286	3089.81
401.51	3120.81
401.734	3029.81
401.958	3056.81
402.182	3080.81
402.406	3048.81
402.63	3107.81
402.854	3073.81
403.078	3121.81
403.302	3138.81
403.526	3236.81
403.75	3190.81
403.974	3201.81
404.198	3167.81
404.422	3237.81
404.645	3204.81
404.869	3190.81
405.093	3171.81
405.317	3159.81
405.541	3238.81
405.765	3253.81
405.988	3306.81
406.212	3231.81
406.436	3276.81
406.66	3330.81
406.883	3314.81
407.107	3362.81
407.331	3430.81
407.555	3496.81
407.778	3437.81
408.002	3409.81
408.226	3390.81
408.449	3418.81
408.673	3343.81
408.896	3266.81
409.12	3193.81
409.344	3274.81
409.567	3208.81
409.791	3230.81
410.014	3164.81
410.238	3173.81
410.461	3143.81
410.685	3122.81
410.908	3139.81
411.132	3090.81
411.355	2994.81
411.578	3048.81
411.802	3026.81
412.025	3087.81
412.249	3045.81
412.472	3112.81
412.695	3010.81
412.919	3000.81
413.142	3011.81
413.365	2984.81
413.589	3018.81
413.812	3008.81
414.035	2997.81
414.258	3046.81
414.482	2996.81
414.705	3055.81
414.928	2995.81
415.151	2978.81
415.374	2995.81
415.597	2957.81
415.821	2919.81
416.044	2867.81
416.267	2885.81
416.49	2904.81
416.713	2841.81
416.936	2874.81
417.159	2873.81
417.382	2831.81
417.605	2787.81
417.828	2801.81
418.051	2848.81
418.274	2936.81
418.497	2928.81
418.72	2990.81
418.943	2886.81
419.166	3086.81
419.389	3208.81
419.611	3204.81
419.834	3121.81
420.057	2977.81
420.28	2957.81
420.503	2851.81
420.726	2876.81
420.948	2872.81
421.171	2852.81
421.394	2855.81
421.617	2888.81
421.839	2872.81
422.062	2909.81
422.285	2874.81
422.507	2902.81
422.73	2900.81
422.953	2999.81
423.175	2964.81
423.398	2967.81
423.621	2889.81
423.843	2899.81
424.066	2900.81
424.288	2861.81
424.511	2882.81
424.733	2862.81
424.956	2850.81
425.178	2866.81
425.401	2823.81
425.623	2870.81
425.846	2814.81
426.068	2778.81
426.291	2797.81
426.513	2742.81
426.735	2752.81
426.958	2756.81
427.18	2766.81
427.402	2718.81
427.625	2775.81
427.847	2681.81
428.069	2678.81
428.292	2721.81
428.514	2675.81
428.736	2643.81
428.958	2698.81
429.181	2642.81
429.403	2592.81
429.625	2650.81
429.847	2722.81
430.069	2742.81
430.292	2813.81
430.514	2902.81
430.736	2849.81
430.958	2664.81
431.18	2658.81
431.402	2648.81
431.624	2566.81
431.846	2564.81
432.068	2610.81
432.29	2608.81
432.512	2565.81
432.734	2625.81
432.956	2618.81
433.178	2628.81
433.4	2664.81
433.622	2652.81
433.844	2676.81
434.066	2670.81
434.287	2652.81
434.509	2673.81
434.731	2732.81
434.953	2752.81
435.175	2783.81
435.397	2741.81
435.618	2671.81
435.84	2661.81
436.062	2652.81
436.284	2656.81
436.505	2653.81
436.727	2631.81
436.949	2637.81
437.17	2638.81
437.392	2594.81
437.614	2590.81
437.835	2498.81
438.057	2585.81
438.278	2548.81
438.5	2571.81
438.721	2579.81
438.943	2671.81
439.165	2711.81
439.386	2746.81
439.608	2700.81
439.829	2730.81
440.05	2777.81
440.272	2874.81
440.493	2728.81
440.715	2744.81
440.936	2759.81
441.158	2783.81
441.379	2802.81
441.6	2882.81
441.822	2908.81
442.043	3074.81
442.264	3246.81
442.486	2958.81
442.707	2893.81
442.928	2836.81
443.149	2836.81
443.371	2822.81
443.592	2806.81
443.813	2832.81
444.034	2871.81
444.255	2921.81
444.476	2984.81
444.698	2992.81
444.919	3026.81
445.14	3128.81
445.361	2996.81
445.582	2898.81
445.803	2870.81
446.024	2819.81
446.245	2828.81
446.466	2758.81
446.687	2772.81
446.908	2719.81
447.129	2678.81
447.35	2698.81
447.571	2631.81
447.792	2622.81
448.013	2626.81
448.234	2549.81
448.455	2618.81
448.675	2653.81
448.896	2681.81
449.117	2759.81
449.338	2967.81
449.559	3141.81
449.779	2839.81
450	2614.81
450.221	2569.81
450.442	2580.81
450.662	2572.81
450.883	2589.81
451.104	2518.81
451.324	2494.81
451.545	2510.81
451.766	2537.81
451.986	2611.81
452.207	2824.81
452.428	3616.81
452.648	5490.81
452.869	4558.81
453.089	3061.81
453.31	2942.81
453.53	2927.81
453.751	2981.81
453.971	3189.81
454.192	3118.81
454.412	2741.81
454.633	2518.81
454.853	2494.81
455.073	2473.81
455.294	2501.81
455.514	2402.81
455.734	2446.81
455.955	2373.81
456.175	2399.81
456.395	2438.81
456.616	2442.81
456.836	2459.81
457.056	2501.81
457.276	2492.81
457.497	2618.81
457.717	2660.81
457.937	2580.81
458.157	2581.81
458.377	2574.81
458.598	2597.81
458.818	2626.81
459.038	2593.81
459.258	2666.81
459.478	2636.81
459.698	2668.81
459.918	2687.81
460.138	2760.81
460.358	2770.81
460.578	2791.81
460.798	2849.81
461.018	2874.81
461.238	2856.81
461.458	2917.81
461.678	2912.81
461.898	3001.81
462.118	2993.81
462.338	3038.81
462.558	3148.81
462.777	3160.81
462.997	3222.81
463.217	3374.81
463.437	3445.81
463.657	3614.81
463.876	3640.81
464.096	3387.81
464.316	3193.81
464.536	3139.81
464.755	3077.81
464.975	2999.81
465.195	2950.81
465.414	2817.81
465.634	2759.81
465.854	2682.81
466.073	2725.81
466.293	2653.81
466.512	2678.81
466.732	2680.81
466.951	2770.81
467.171	3024.81
467.391	2949.81
467.61	2713.81
467.829	2609.81
468.049	2640.81
468.268	2591.81
468.488	2572.81
468.707	2582.81
468.927	2547.81
469.146	2535.81
469.365	2582.81
469.585	2649.81
469.804	2641.81
470.023	2737.81
470.243	2820.81
470.462	2825.81
470.681	2984.81
470.901	3239.81
471.12	3860.81
471.339	3798.81
471.558	3159.81
471.777	2868.81
471.997	2714.81
472.216	2639.81
472.435	2650.81
472.654	2593.81
472.873	2572.81
473.092	2582.81
473.311	2622.81
473.53	2602.81
473.749	2704.81
473.968	2826.81
474.187	2658.81
474.406	2601.81
474.625	2599.81
474.844	2638.81
475.063	2656.81
475.282	2619.81
475.501	2642.81
475.72	2629.81
475.939	2650.81
476.158	2696.81
476.377	2809.81
476.596	2799.81
476.814	2784.81
477.033	2775.81
477.252	2782.81
477.471	2794.81
477.69	2916.81
477.908	2936.81
478.127	2975.81
478.346	2978.81
478.564	2975.81
478.783	3004.81
479.002	3058.81
479.22	3103.81
479.439	3128.81
479.658	3126.81
479.876	3118.81
480.095	3143.81
480.313	3212.81
480.532	3229.81
480.751	3214.81
480.969	3161.81
481.188	3159.81
481.406	3095.81
481.624	3141.81
481.843	3194.81
482.061	3201.81
482.28	3185.81
482.498	3217.81
482.717	3145.81
482.935	3206.81
483.153	3220.81
483.372	3237.81
483.59	3316.81
483.808	3304.81
484.027	3404.81
484.245	3644.81
484.463	4060.81
484.681	4602.81
484.9	4131.81
485.118	3806.81
485.336	3720.81
485.554	3762.81
485.772	4009.81
485.99	4527.81
486.209	4967.81
486.427	4145.81
486.645	3672.81
486.863	3542.81
487.081	3452.81
487.299	3375.81
487.517	3390.81
487.735	3372.81
487.953	3440.81
488.171	3384.81
488.389	3269.81
488.607	3233.81
488.825	3247.81
489.043	3216.81
489.261	3199.81
489.479	3223.81
489.696	3260.81
489.914	3258.81
490.132	3281.81
490.35	3314.81
490.568	3254.81
490.786	3313.81
491.003	3322.81
491.221	3389.81
491.439	3425.81
491.657	3365.81
491.874	3410.81
492.092	3385.81
492.31	3440.81
492.527	3338.81
492.745	3376.81
492.963	3386.81
493.18	3351.81
493.398	3395.81
493.615	3365.81
493.833	3414.81
494.05	3390.81
494.268	3414.81
494.485	3444.81
494.703	3406.81
494.92	3368.81
495.138	3439.81
495.355	3438.81
495.573	3462.81
495.79	3471.81
496.008	3516.81
496.225	3463.81
496.442	3596.81
496.66	3683.81
496.877	3828.81
497.094	3822.81
497.312	3721.81
497.529	3692.81
497.746	3688.81
497.963	3741.81
498.181	3931.81
498.398	4010.81
498.615	4109.81
498.832	4250.81
499.049	4476.81
499.267	4866.81
499.484	5117.81
499.701	5082.81
499.918	5207.81
500.135	5469.81
500.352	5734.81
500.569	5804.81
500.786	5766.81
501.003	5571.81
501.22	5327.81
501.437	5054.81
501.654	4760.81
501.871	4542.81
502.088	4407.81
502.305	4259.81
502.522	4040.81
502.739	4007.81
502.956	3886.81
503.172	3780.81
503.389	3732.81
503.606	3668.81
503.823	3643.81
504.04	3620.81
504.256	3669.81
504.473	3542.81
504.69	3538.81
504.907	3541.81
505.123	3458.81
505.34	3365.81
505.557	3372.81
505.773	3271.81
505.99	3246.81
506.207	3212.81
506.423	3126.81
506.64	3122.81
506.856	3068.81
507.073	3059.81
507.289	3059.81
507.506	3023.81
507.722	3011.81
507.939	3004.81
508.155	2953.81
508.372	3005.81
508.588	3010.81
508.805	2940.81
509.021	2954.81
509.238	3008.81
509.454	3206.81
509.67	3389.81
509.887	3146.81
510.103	3009.81
510.319	2935.81
510.536	2908.81
510.752	2926.81
510.968	2965.81
511.184	2870.81
511.401	2895.81
511.617	2835.81
511.833	2897.81
512.049	2869.81
512.265	2804.81
512.481	2840.81
512.698	2788.81
512.914	2860.81
513.13	2876.81
513.346	2827.81
513.562	2829.81
513.778	2872.81
513.994	2898.81
514.21	2950.81
514.426	3165.81
514.642	3276.81
514.858	3043.81
515.074	2971.81
515.29	2958.81
515.506	2915.81
515.721	2904.81
515.937	2887.81
516.153	2910.81
516.369	3016.81
516.585	2972.81
516.801	3020.81
517.016	3087.81
517.232	3119.81
517.448	3183.81
517.664	3246.81
517.879	3240.81
518.095	3226.81
518.311	3219.81
518.527	3160.81
518.742	3162.81
518.958	3170.81
519.173	3205.81
519.389	3128.81
519.605	3037.81
519.82	2953.81
520.036	2916.81
520.251	2850.81
520.467	2862.81
520.682	2843.81
520.898	2822.81
521.113	2780.81
521.329	2808.81
521.544	2797.81
521.76	2765.81
521.975	2787.81
522.19	2769.81
522.406	2784.81
522.621	2780.81
522.836	2737.81
523.052	2752.81
523.267	2674.81
523.482	2694.81
523.698	2710.81
523.913	2697.81
524.128	2699.81
524.343	2698.81
524.559	2703.81
524.774	2653.81
524.989	2736.81
525.204	2677.81
525.419	2696.81
525.634	2647.81
525.849	2661.81
526.064	2687.81
526.28	2708.81
526.495	2713.81
526.71	2712.81
526.925	2705.81
527.14	2704.81
527.355	2706.81
527.57	2740.81
527.785	2729.81
527.999	2761.81
528.214	2770.81
528.429	2806.81
528.644	2804.81
528.859	2846.81
529.074	2863.81
529.289	2882.81
529.503	2849.81
529.718	2871.81
529.933	2894.81
530.148	2905.81
530.363	2934.81
530.577	2896.81
530.792	2858.81
531.007	2872.81
531.221	2910.81
531.436	2967.81
531.651	3016.81
531.865	2983.81
532.08	3106.81
532.295	3117.81
532.509	3353.81
532.724	3382.81
532.938	3402.81
533.153	3544.81
533.367	3785.81
533.582	4035.81
533.796	3860.81
534.011	3772.81
534.225	3598.81
534.44	3449.81
534.654	3374.81
534.868	3291.81
535.083	3231.81
535.297	3125.81
535.511	3081.81
535.726	3066.81
535.94	3088.81
536.154	3021.81
536.369	2937.81
536.583	2915.81
536.797	2907.81
537.011	2860.81
537.225	2855.81
537.44	2782.81
537.654	2786.81
537.868	2772.81
538.082	2709.81
538.296	2768.81
538.51	2709.81
538.724	2697.81
538.938	2708.81
539.153	2671.81
539.367	2661.81
539.581	2655.81
539.795	2609.81
540.009	2598.81
540.222	2626.81
540.436	2573.81
540.65	2588.81
540.864	2585.81
541.078	2694.81
541.292	2856.81
541.506	3392.81
541.72	3526.81
541.934	3044.81
542.147	2852.81
542.361	2762.81
542.575	2636.81
542.789	2604.81
543.002	2566.81
543.216	2556.81
543.43	2489.81
543.644	2503.81
543.857	2511.81
544.071	2534.81
544.285	2592.81
544.498	2533.81
544.712	2523.81
544.925	2546.81
545.139	2515.81
545.352	2555.81
545.566	2519.81
545.779	2579.81
545.993	2552.81
546.206	2576.81
546.42	2525.81
546.633	2561.81
546.847	2565.81
547.06	2534.81
547.274	2536.81
547.487	2570.81
547.7	2533.81
547.914	2510.81
548.127	2529.81
548.34	2536.81
548.554	2531.81
548.767	2513.81
548.98	2583.81
549.193	2541.81
549.407	2533.81
549.62	2558.81
549.833	2598.81
550.046	2538.81
550.259	2512.81
550.473	2541.81
550.686	2510.81
550.899	2550.81
551.112	2537.81
551.325	2507.81
551.538	2567.81
551.751	2551.81
551.964	2512.81
552.177	2542.81
552.39	2595.81
552.603	2655.81
552.816	2669.81
553.029	2692.81
553.242	2769.81
553.455	2796.81
553.667	2828.81
553.88	2794.81
554.093	2802.81
554.306	2812.81
554.519	2788.81
554.732	2907.81
554.944	2925.81
555.157	2968.81
555.37	3076.81
555.583	3188.81
555.795	3429.81
556.008	3633.81
556.221	4125.81
556.433	4489.81
556.646	4457.81
556.859	4251.81
557.071	3976.81
557.284	3924.81
557.496	3740.81
557.709	3681.81
557.921	3576.81
558.134	3588.81
558.346	3670.81
558.559	3827.81
558.771	4017.81
558.984	4475.81
559.196	4862.81
559.409	4561.81
559.621	4122.81
559.833	3842.81
560.046	3672.81
560.258	3506.81
560.47	3297.81
560.683	3199.81
560.895	3049.81
561.107	2990.81
561.32	2896.81
561.532	2832.81
561.744	2802.81
561.956	2708.81
562.168	2652.81
562.381	2605.81
562.593	2592.81
562.805	2690.81
563.017	2673.81
563.229	2733.81
563.441	3121.81
563.653	2628.81
563.865	2440.81
564.077	2426.81
564.289	2369.81
564.501	2366.81
564.713	2356.81
564.925	2373.81
565.137	2370.81
565.349	2354.81
565.561	2371.81
565.773	2382.81
565.985	2393.81
566.197	2396.81
566.408	2494.81
566.62	2527.81
566.832	2607.81
567.044	2553.81
567.255	2645.81
567.467	2626.81
567.679	2685.81
567.891	2832.81
568.102	3202.81
568.314	3658.81
568.526	3139.81
568.737	2739.81
568.949	2490.81
569.161	2356.81
569.372	2269.81
569.584	2196.81
569.795	2152.81
570.007	2135.81
570.218	2174.81
570.43	2242.81
570.641	2074.81
570.853	1968.81
571.064	1991.81
571.276	1992.81
571.487	1902.81
571.698	1919.81
571.91	1916.81
572.121	1844.81
572.333	1867.81
572.544	1874.81
572.755	1998.81
572.966	2360.81
573.178	2112.81
573.389	1877.81
573.6	1821.81
573.811	1757.81
574.023	1784.81
574.234	1745.81
574.445	1718.81
574.656	1720.81
574.867	1736.81
575.078	1719.81
575.289	1708.81
575.501	1681.81
575.712	1695.81
575.923	1684.81
576.134	1676.81
576.345	1697.81
576.556	1717.81
576.767	1662.81
576.978	1722.81
577.188	1712.81
577.399	1711.81
577.61	1701.81
577.821	1755.81
578.032	1778.81
578.243	1791.81
578.454	1845.81
578.665	1877.81
578.875	1896.81
579.086	1979.81
579.297	2102.81
579.508	2192.81
579.718	2384.81
579.929	2761.81
580.14	3237.81
580.35	3336.81
580.561	2946.81
580.772	2653.81
580.982	2460.81
581.193	2284.81
581.403	2183.81
581.614	2037.81
581.825	1987.81
582.035	1970.81
582.246	1811.81
582.456	1872.81
582.667	1780.81
582.877	1763.81
583.087	1714.81
583.298	1631.81
583.508	1619.81
583.719	1571.81
583.929	1557.81
584.139	1500.81
584.35	1463.81
584.56	1453.81
584.77	1472.81
584.981	1426.81
585.191	1428.81
585.401	1408.81
585.611	1374.81
585.821	1358.81
586.032	1333.81
586.242	1346.81
586.452	1348.81
586.662	1342.81
586.872	1313.81
587.082	1313.81
587.292	1292.81
587.502	1278.81
587.713	1255.81
587.923	1248.81
588.133	1249.81
588.343	1236.81
588.553	1209.81
588.762	1262.81
588.972	1188.81
589.182	1262.81
589.392	1234.81
589.602	1206.81
589.812	1202.81
590.022	1191.81
590.232	1163.81
590.441	1159.81
590.651	1204.81
590.861	1152.81
591.071	1184.81
591.281	1184.81
591.49	1176.81
591.7	1177.81
591.91	1142.81
592.119	1183.81
592.329	1184.81
592.539	1189.81
592.748	1182.81
592.958	1211.81
593.167	1201.81
593.377	1231.81
593.587	1249.81
593.796	1204.81
594.006	1234.81
594.215	1244.81
594.424	1216.81
594.634	1188.81
594.843	1172.81
595.053	1186.81
595.262	1119.81
595.472	1094.81
595.681	1102.81
595.89	1058.81
596.1	1075.81
596.309	1051.81
596.518	1072.81
596.727	1072.81
596.937	1046.81
597.146	1022.81
597.355	1035.81
597.564	1000.81
597.774	997.81
597.983	981.81
598.192	950.81
598.401	997.81
598.61	971.81
598.819	971.81
599.028	956.81
599.237	969.81
599.446	942.81
599.655	979.81
599.864	944.81
600.073	954.81
600.282	930.81
600.491	936.81
600.7	930.81
600.909	912.81
601.118	956.81
601.327	933.81
601.536	946.81
601.745	996.81
601.953	1087.81
602.162	1242.81
602.371	1086.81
602.58	971.81
602.789	964.81
602.997	944.81
603.206	919.81
603.415	914.81
603.623	914.81
603.832	918.81
604.041	910.81
604.249	901.81
604.458	898.81
604.666	894.81
604.875	878.81
605.084	898.81
605.292	891.81
605.501	892.81
605.709	893.81
605.918	888.81
606.126	880.81
606.334	921.81
606.543	930.81
606.751	996.81
606.96	1140.81
607.168	1234.81
607.376	1029.81
607.585	959.81
607.793	958.81
608.001	889.81
608.21	878.81
608.418	882.81
608.626	883.81
608.834	868.81
609.043	865.81
609.251	854.81
609.459	829.81
609.667	824.81
609.875	844.81
610.083	852.81
610.291	844.81
610.499	847.81
610.707	847.81
610.916	826.81
611.124	800.81
611.332	819.81
611.54	827.81
611.748	832.81
611.955	795.81
612.163	792.81
612.371	788.81
612.579	785.81
612.787	802.81
612.995	781.81
613.203	796.81
613.411	789.81
613.618	782.81
613.826	793.81
614.034	796.81
614.242	787.81
614.449	792.81
614.657	765.81
614.865	800.81
615.072	830.81
615.28	813.81
615.488	801.81
615.695	806.81
615.903	785.81
616.111	784.81
616.318	810.81
616.526	805.81
616.733	786.81
616.941	794.81
617.148	774.81
617.356	766.81
617.563	760.81
617.771	740.81
617.978	752.81
618.185	792.81
618.393	746.81
618.6	767.81
618.807	742.81
619.015	743.81
619.222	747.81
619.429	742.81
619.637	727.81
619.844	727.81
620.051	730.81
620.258	719.81
620.466	712.81
620.673	672.81
620.88	691.81
621.087	695.81
621.294	681.81
621.501	679.81
621.708	676.81
621.915	689.81
622.122	707.81
622.329	700.81
622.536	699.81
622.743	694.81
622.95	704.81
623.157	693.81
623.364	676.81
623.571	716.81
623.778	712.81
623.985	660.81
624.192	690.81
624.399	681.81
624.606	665.81
624.812	687.81
625.019	653.81
625.226	666.81
625.433	644.81
625.639	627.81
625.846	647.81
626.053	658.81
626.259	656.81
626.466	624.81
626.673	636.81
626.879	610.81
627.086	628.81
627.293	622.81
627.499	636.81
627.706	644.81
627.912	651.81
628.119	672.81
628.325	622.81
628.532	646.81
628.738	633.81
628.945	632.81
629.151	616.81
629.357	623.81
629.564	614.81
629.77	610.81
629.976	608.81
630.183	598.81
630.389	609.81
630.595	598.81
630.802	612.81
631.008	591.81
631.214	598.81
631.42	568.81
631.627	602.81
631.833	589.81
632.039	570.81
632.245	613.81
632.451	594.81
632.657	569.81
632.863	577.81
633.069	577.81
633.275	591.81
633.481	565.81
633.688	575.81
633.893	568.81
634.099	584.81
634.305	593.81
634.511	585.81
634.717	568.81
634.923	627.81
635.129	690.81
635.335	775.81
635.541	660.81
635.747	612.81
635.952	598.81
636.158	576.81
636.364	594.81
636.57	593.81
636.775	588.81
636.981	589.81
637.187	582.81
637.392	570.81
637.598	590.81
637.804	564.81
638.009	582.81
638.215	570.81
638.421	576.81
638.626	585.81
638.832	565.81
639.037	583.81
639.243	592.81
639.448	605.81
639.654	578.81
639.859	586.81
640.065	610.81
640.27	623.81
640.475	618.81
640.681	604.81
640.886	615.81
641.091	621.81
641.297	622.81
641.502	624.81
641.707	634.81
641.913	650.81
642.118	652.81
642.323	648.81
642.528	668.81
642.733	673.81
642.939	704.81
643.144	701.81
643.349	718.81
643.554	757.81
643.759	786.81
643.964	841.81
644.169	885.81
644.374	934.81
644.579	1021.81
644.784	1135.81
644.989	1309.81
645.194	1522.81
645.399	1942.81
645.604	2145.81
645.809	1532.81
646.014	1146.81
646.219	961.81
646.423	823.81
646.628	754.81
646.833	709.81
647.038	658.81
647.243	638.81
647.447	622.81
647.652	609.81
647.857	568.81
648.062	582.81
648.266	567.81
648.471	573.81
648.676	552.81
648.88	552.81
649.085	520.81
649.289	520.81
649.494	517.81
649.698	491.81
649.903	480.81
650.107	480.81
650.312	481.81
650.516	449.81
650.721	460.81
650.925	454.81
651.13	442.81
651.334	434.81
651.539	429.81
651.743	422.81
651.947	425.81
652.152	411.81
652.356	429.81
652.56	438.81
652.764	515.81
652.969	458.81
653.173	431.81
653.377	405.81
653.581	382.81
653.785	368.81
653.99	385.81
654.194	383.81
654.398	339.81
654.602	334.81
654.806	344.81
655.01	340.81
655.214	355.81
655.418	340.81
655.622	342.81
655.826	349.81
656.03	364.81
656.234	364.81
656.438	369.81
656.642	353.81
656.846	343.81
657.049	328.81
657.253	330.81
657.457	309.81
657.661	287.81
657.865	266.81
658.068	245.81
658.272	231.81
658.476	231.81
658.68	220.81
658.883	238.81
659.087	223.81
659.291	197.81
659.494	197.81
659.698	188.81
659.901	174.81
660.105	165.81
660.309	142.81
660.512	156.81
660.716	156.81
660.919	148.81
661.123	161.81
661.326	144.81
661.53	124.81
661.733	121.81
661.936	108.81
662.14	118.81
662.343	116.81
662.546	117.81
662.75	114.81
662.953	108.81
663.156	103.81
663.36	94.81
663.563	78.81
663.766	93.81
663.969	88.81
664.173	85.81
664.376	86.81
664.579	78.81
664.782	83.81
664.985	89.81
665.188	90.81
665.391	101.81
665.594	89.81
665.797	85.81
666	72.81
666.203	80.81
666.406	87.81
666.609	88.81
666.812	95.81
667.015	87.81
667.218	88.81
667.421	85.81
667.624	97.81
667.827	79.81
668.03	64.81
668.232	72.81
668.435	76.81
668.638	88.81
668.841	82.81
669.043	89.81
669.246	74.81
669.449	81.81
669.651	89.81
669.854	91.81
670.057	74.81
670.259	92.81
670.462	67.81
670.665	75.81
670.867	74.81
671.07	83.81
671.272	88.81
671.475	82.81
671.677	78.81
671.88	92.81
672.082	81.81
672.284	76.81
672.487	81.81
672.689	90.81
672.892	88.81
