Data from SnStandardFlinnAPT0064_LampEnergy10_LIBS07252019.E.O._I.C._HRD10591_15-21-17-493.txt Node
Date: Thu Jul 25 15:21:17 EDT 2019
User: cochatt
Spectrometer: HR+D1059
Trigger mode: 1
Integration Time (sec): 1.000000E-1
Scans to average: 1
Electric dark correction enabled: true
Nonlinearity correction enabled: false
Boxcar width: 0
XAxis mode: Wavelengths
Number of Pixels in Spectrum: 2048
>>>>>Begin Spectral Data<<<<<
223.165	-23.75
223.4	-23.75
223.635	-23.75
223.869	-26.75
224.104	-12.75
224.338	-22.75
224.573	-4.75
224.808	-7.75
225.042	-11.75
225.277	-0.75
225.511	-3.75
225.746	4.25
225.98	8.25
226.215	13.25
226.449	24.25
226.683	1.25
226.918	35.25
227.152	28.25
227.387	42.25
227.621	31.25
227.856	35.25
228.09	51.25
228.324	53.25
228.559	53.25
228.793	124.25
229.027	316.25
229.262	334.25
229.496	309.25
229.73	296.25
229.964	303.25
230.199	290.25
230.433	293.25
230.667	317.25
230.901	320.25
231.136	342.25
231.37	344.25
231.604	371.25
231.838	439.25
232.072	533.25
232.306	556.25
232.541	454.25
232.775	437.25
233.009	401.25
233.243	410.25
233.477	451.25
233.711	503.25
233.945	547.25
234.179	502.25
234.413	456.25
234.647	451.25
234.881	479.25
235.115	497.25
235.349	609.25
235.583	793.25
235.817	1037.25
236.051	989.25
236.285	628.25
236.519	533.25
236.753	500.25
236.987	481.25
237.221	528.25
237.455	514.25
237.689	472.25
237.922	465.25
238.156	466.25
238.39	482.25
238.624	477.25
238.858	476.25
239.091	476.25
239.325	485.25
239.559	502.25
239.793	513.25
240.027	500.25
240.26	520.25
240.494	547.25
240.728	602.25
240.961	602.25
241.195	649.25
241.429	665.25
241.662	708.25
241.896	805.25
242.13	951.25
242.363	1255.25
242.597	1639.25
242.83	1527.25
243.064	1599.25
243.298	1843.25
243.531	1517.25
243.765	955.25
243.998	792.25
244.232	703.25
244.465	666.25
244.699	661.25
244.932	656.25
245.166	642.25
245.399	683.25
245.633	692.25
245.866	696.25
246.099	696.25
246.333	637.25
246.566	645.25
246.8	611.25
247.033	631.25
247.266	641.25
247.5	667.25
247.733	673.25
247.966	717.25
248.2	753.25
248.433	887.25
248.666	998.25
248.899	967.25
249.133	831.25
249.366	861.25
249.599	951.25
249.832	1079.25
250.066	1079.25
250.299	858.25
250.532	758.25
250.765	756.25
250.998	735.25
251.231	741.25
251.465	763.25
251.698	725.25
251.931	740.25
252.164	729.25
252.397	767.25
252.63	771.25
252.863	805.25
253.096	771.25
253.329	786.25
253.562	771.25
253.795	794.25
254.028	799.25
254.261	812.25
254.494	868.25
254.727	992.25
254.96	1220.25
255.193	1247.25
255.426	954.25
255.659	858.25
255.892	861.25
256.124	869.25
256.357	883.25
256.59	907.25
256.823	995.25
257.056	1123.25
257.289	1367.25
257.521	1461.25
257.754	1175.25
257.987	994.25
258.22	931.25
258.452	891.25
258.685	923.25
258.918	948.25
259.151	989.25
259.383	1069.25
259.616	1221.25
259.849	1295.25
260.081	1085.25
260.314	991.25
260.547	952.25
260.779	943.25
261.012	979.25
261.244	953.25
261.477	983.25
261.71	1001.25
261.942	975.25
262.175	1021.25
262.407	1003.25
262.64	1071.25
262.872	1112.25
263.105	1137.25
263.337	1210.25
263.57	1243.25
263.802	1299.25
264.035	1309.25
264.267	1350.25
264.499	1365.25
264.732	1405.25
264.964	1459.25
265.197	1418.25
265.429	1429.25
265.661	1490.25
265.894	1565.25
266.126	1747.25
266.358	1977.25
266.591	1894.25
266.823	1578.25
267.055	1435.25
267.287	1402.25
267.52	1346.25
267.752	1327.25
267.984	1293.25
268.216	1258.25
268.448	1221.25
268.681	1247.25
268.913	1237.25
269.145	1221.25
269.377	1247.25
269.609	1240.25
269.841	1285.25
270.073	1376.25
270.306	1594.25
270.538	2161.25
270.77	3267.25
271.002	3991.25
271.234	2761.25
271.466	1881.25
271.698	1498.25
271.93	1375.25
272.162	1325.25
272.394	1280.25
272.626	1274.25
272.858	1229.25
273.09	1225.25
273.322	1215.25
273.553	1203.25
273.785	1183.25
274.017	1177.25
274.249	1183.25
274.481	1208.25
274.713	1219.25
274.945	1210.25
275.176	1219.25
275.408	1228.25
275.64	1241.25
275.872	1213.25
276.104	1268.25
276.335	1279.25
276.567	1288.25
276.799	1246.25
277.031	1315.25
277.262	1327.25
277.494	1419.25
277.726	1568.25
277.957	1818.25
278.189	2093.25
278.421	1973.25
278.652	1716.25
278.884	1665.25
279.115	1477.25
279.347	1429.25
279.579	1385.25
279.81	1379.25
280.042	1400.25
280.273	1395.25
280.505	1451.25
280.736	1505.25
280.968	1615.25
281.199	1765.25
281.431	1996.25
281.662	2091.25
281.894	1787.25
282.125	1611.25
282.356	1613.25
282.588	1671.25
282.819	1708.25
283.051	1779.25
283.282	1985.25
283.513	2477.25
283.745	3596.25
283.976	5773.25
284.207	8255.25
284.439	7447.25
284.67	4535.25
284.901	3727.25
285.132	3690.25
285.364	3538.25
285.595	2659.25
285.826	2384.25
286.057	2894.25
286.288	3921.25
286.52	5285.25
286.751	4904.25
286.982	3040.25
287.213	2240.25
287.444	1987.25
287.675	1848.25
287.906	1780.25
288.138	1711.25
288.369	1723.25
288.6	1658.25
288.831	1649.25
289.062	1678.25
289.293	1673.25
289.524	1695.25
289.755	1687.25
289.986	1721.25
290.217	1710.25
290.448	1712.25
290.679	1715.25
290.91	1761.25
291.141	1861.25
291.371	2007.25
291.602	2067.25
291.833	1863.25
292.064	1738.25
292.295	1673.25
292.526	1637.25
292.757	1617.25
292.987	1592.25
293.218	1581.25
293.449	1553.25
293.68	1584.25
293.91	1556.25
294.141	1586.25
294.372	1534.25
294.603	1544.25
294.833	1585.25
295.064	1571.25
295.295	1569.25
295.525	1536.25
295.756	1582.25
295.987	1533.25
296.217	1593.25
296.448	1570.25
296.679	1554.25
296.909	1594.25
297.14	1592.25
297.37	1594.25
297.601	1631.25
297.831	1610.25
298.062	1632.25
298.292	1623.25
298.523	1654.25
298.753	1714.25
298.984	1725.25
299.214	1744.25
299.445	1730.25
299.675	1763.25
299.905	1825.25
300.136	1948.25
300.366	2127.25
300.597	2733.25
300.827	3893.25
301.057	5292.25
301.288	5297.25
301.518	3389.25
301.748	2568.25
301.979	2339.25
302.209	2273.25
302.439	2319.25
302.669	2431.25
302.9	2963.25
303.13	4151.25
303.36	6235.25
303.59	8391.25
303.82	7245.25
304.051	4154.25
304.281	3009.25
304.511	2533.25
304.741	2311.25
304.971	2221.25
305.201	2012.25
305.431	2008.25
305.661	1964.25
305.891	1927.25
306.121	1845.25
306.352	1886.25
306.582	1878.25
306.812	1842.25
307.042	1821.25
307.272	1853.25
307.502	1824.25
307.731	1847.25
307.961	1781.25
308.191	1811.25
308.421	1786.25
308.651	1777.25
308.881	1803.25
309.111	1824.25
309.341	1806.25
309.571	1813.25
309.8	1847.25
310.03	1853.25
310.26	1883.25
310.49	1875.25
310.72	1875.25
310.949	1868.25
311.179	1879.25
311.409	1895.25
311.639	1898.25
311.868	1892.25
312.098	1908.25
312.328	1915.25
312.557	1977.25
312.787	1967.25
313.017	1963.25
313.246	2007.25
313.476	2029.25
313.706	2057.25
313.935	2201.25
314.165	2367.25
314.394	2433.25
314.624	2359.25
314.853	2183.25
315.083	2154.25
315.312	2155.25
315.542	2177.25
315.771	2207.25
316.001	2241.25
316.23	2309.25
316.46	2400.25
316.689	2663.25
316.919	3181.25
317.148	4686.25
317.377	7187.25
317.607	10619.25
317.836	11034.25
318.065	6598.25
318.295	4237.25
318.524	3347.25
318.753	3006.25
318.983	2723.25
319.212	2536.25
319.441	2481.25
319.67	2431.25
319.9	2363.25
320.129	2335.25
320.358	2386.25
320.587	2348.25
320.816	2357.25
321.046	2351.25
321.275	2366.25
321.504	2373.25
321.733	2443.25
321.962	2459.25
322.191	2515.25
322.42	2536.25
322.649	2479.25
322.878	2515.25
323.108	2452.25
323.337	2473.25
323.566	2584.25
323.795	2648.25
324.024	2644.25
324.253	2722.25
324.482	2845.25
324.71	2943.25
324.939	3179.25
325.168	3263.25
325.397	3356.25
325.626	4073.25
325.855	5642.25
326.084	8831.25
326.313	12872.25
326.542	13585.25
326.77	9078.25
326.999	5855.25
327.228	4892.25
327.457	4724.25
327.686	4725.25
327.914	5092.25
328.143	5919.25
328.372	7175.25
328.6	7736.25
328.829	6912.25
329.058	5787.25
329.287	5096.25
329.515	4603.25
329.744	4207.25
329.972	4032.25
330.201	3812.25
330.43	3743.25
330.658	3615.25
330.887	3516.25
331.115	3508.25
331.344	3442.25
331.572	3393.25
331.801	3444.25
332.03	3491.25
332.258	3586.25
332.486	3783.25
332.715	4275.25
332.943	5287.25
333.172	6559.25
333.4	6515.25
333.629	4962.25
333.857	4507.25
334.085	4438.25
334.314	4684.25
334.542	5047.25
334.771	6077.25
334.999	7382.25
335.227	9257.25
335.455	10453.25
335.684	9401.25
335.912	7559.25
336.14	6388.25
336.369	5737.25
336.597	5187.25
336.825	4785.25
337.053	4461.25
337.281	4232.25
337.51	4023.25
337.738	3925.25
337.966	3665.25
338.194	3578.25
338.422	3447.25
338.65	3368.25
338.878	3309.25
339.106	3253.25
339.334	3147.25
339.562	3184.25
339.79	3058.25
340.018	3044.25
340.246	3049.25
340.474	3026.25
340.702	3040.25
340.93	2974.25
341.158	3018.25
341.386	2981.25
341.614	2972.25
341.842	2897.25
342.07	2826.25
342.298	2839.25
342.526	2764.25
342.754	2767.25
342.981	2755.25
343.209	2714.25
343.437	2725.25
343.665	2772.25
343.893	2785.25
344.12	2803.25
344.348	2759.25
344.576	2680.25
344.804	2701.25
345.031	2578.25
345.259	2611.25
345.487	2598.25
345.714	2582.25
345.942	2540.25
346.17	2565.25
346.397	2530.25
346.625	2491.25
346.853	2507.25
347.08	2505.25
347.308	2567.25
347.535	2528.25
347.763	2524.25
347.99	2465.25
348.218	2469.25
348.445	2482.25
348.673	2455.25
348.9	2494.25
349.128	2475.25
349.355	2431.25
349.583	2442.25
349.81	2413.25
350.037	2427.25
350.265	2394.25
350.492	2423.25
350.72	2407.25
350.947	2389.25
351.174	2356.25
351.402	2404.25
351.629	2378.25
351.856	2350.25
352.083	2406.25
352.311	2370.25
352.538	2362.25
352.765	2370.25
352.992	2376.25
353.22	2381.25
353.447	2386.25
353.674	2342.25
353.901	2388.25
354.128	2417.25
354.355	2409.25
354.583	2402.25
354.81	2396.25
355.037	2420.25
355.264	2419.25
355.491	2448.25
355.718	2449.25
355.945	2437.25
356.172	2459.25
356.399	2447.25
356.626	2487.25
356.853	2510.25
357.08	2501.25
357.307	2550.25
357.534	2570.25
357.761	2620.25
357.988	2627.25
358.215	2517.25
358.441	2538.25
358.668	2544.25
358.895	2561.25
359.122	2532.25
359.349	2512.25
359.576	2490.25
359.802	2535.25
360.029	2503.25
360.256	2570.25
360.483	2566.25
360.709	2564.25
360.936	2541.25
361.163	2571.25
361.39	2513.25
361.616	2547.25
361.843	2569.25
362.07	2538.25
362.296	2544.25
362.523	2535.25
362.749	2587.25
362.976	2516.25
363.203	2515.25
363.429	2482.25
363.656	2483.25
363.882	2571.25
364.109	2522.25
364.335	2521.25
364.562	2532.25
364.788	2514.25
365.015	2561.25
365.241	2629.25
365.468	2819.25
365.694	2930.25
365.92	2849.25
366.147	2669.25
366.373	2618.25
366.599	2578.25
366.826	2606.25
367.052	2573.25
367.278	2627.25
367.505	2643.25
367.731	2614.25
367.957	2562.25
368.184	2610.25
368.41	2658.25
368.636	2686.25
368.862	2654.25
369.089	2660.25
369.315	2592.25
369.541	2628.25
369.767	2689.25
369.993	2588.25
370.219	2635.25
370.445	2636.25
370.672	2587.25
370.898	2658.25
371.124	2710.25
371.35	2696.25
371.576	2689.25
371.802	2754.25
372.028	2709.25
372.254	2678.25
372.48	2752.25
372.706	2779.25
372.932	2795.25
373.158	2811.25
373.384	2796.25
373.61	2739.25
373.835	2834.25
374.061	2752.25
374.287	2833.25
374.513	2794.25
374.739	2914.25
374.965	2912.25
375.191	2947.25
375.416	2879.25
375.642	2852.25
375.868	2785.25
376.094	2824.25
376.319	2802.25
376.545	2776.25
376.771	2766.25
376.997	2768.25
377.222	2763.25
377.448	2721.25
377.674	2736.25
377.899	2738.25
378.125	2721.25
378.35	2703.25
378.576	2759.25
378.802	2708.25
379.027	2772.25
379.253	2861.25
379.478	3070.25
379.704	3606.25
379.929	5141.25
380.155	7937.25
380.38	8614.25
380.606	5220.25
380.831	3709.25
381.057	3223.25
381.282	3025.25
381.507	2851.25
381.733	2789.25
381.958	2723.25
382.184	2715.25
382.409	2743.25
382.634	2721.25
382.86	2655.25
383.085	2695.25
383.31	2678.25
383.535	2684.25
383.761	2657.25
383.986	2728.25
384.211	2723.25
384.436	2753.25
384.662	2736.25
384.887	2726.25
385.112	2728.25
385.337	2801.25
385.562	2766.25
385.787	2771.25
386.013	2773.25
386.238	2783.25
386.463	2785.25
386.688	2767.25
386.913	2771.25
387.138	2742.25
387.363	2783.25
387.588	2762.25
387.813	2792.25
388.038	2749.25
388.263	2793.25
388.488	2810.25
388.713	2755.25
388.938	2753.25
389.163	2744.25
389.387	2809.25
389.612	2792.25
389.837	2743.25
390.062	2784.25
390.287	2840.25
390.512	2803.25
390.736	2845.25
390.961	2874.25
391.186	2838.25
391.411	2859.25
391.636	2891.25
391.86	2906.25
392.085	2858.25
392.31	2910.25
392.534	2828.25
392.759	2865.25
392.984	2856.25
393.208	2820.25
393.433	2853.25
393.658	2801.25
393.882	2806.25
394.107	2800.25
394.331	2788.25
394.556	2785.25
394.78	2847.25
395.005	2833.25
395.229	2790.25
395.454	2906.25
395.678	2879.25
395.903	2844.25
396.127	2842.25
396.352	2841.25
396.576	2874.25
396.801	2865.25
397.025	2890.25
397.249	2889.25
397.474	2910.25
397.698	2931.25
397.922	2927.25
398.147	2915.25
398.371	3003.25
398.595	3048.25
398.82	3069.25
399.044	3196.25
399.268	3343.25
399.492	3540.25
399.717	3660.25
399.941	3628.25
400.165	3562.25
400.389	3419.25
400.613	3327.25
400.837	3172.25
401.062	3127.25
401.286	3101.25
401.51	3034.25
401.734	2973.25
401.958	3120.25
402.182	3088.25
402.406	3068.25
402.63	3042.25
402.854	3095.25
403.078	3091.25
403.302	3144.25
403.526	3164.25
403.75	3188.25
403.974	3149.25
404.198	3170.25
404.422	3172.25
404.645	3085.25
404.869	3187.25
405.093	3234.25
405.317	3164.25
405.541	3178.25
405.765	3220.25
405.988	3253.25
406.212	3253.25
406.436	3224.25
406.66	3304.25
406.883	3244.25
407.107	3356.25
407.331	3367.25
407.555	3477.25
407.778	3447.25
408.002	3422.25
408.226	3411.25
408.449	3411.25
408.673	3304.25
408.896	3215.25
409.12	3214.25
409.344	3211.25
409.567	3201.25
409.791	3244.25
410.014	3157.25
410.238	3142.25
410.461	3151.25
410.685	3131.25
410.908	3105.25
411.132	3109.25
411.355	3027.25
411.578	3058.25
411.802	3050.25
412.025	3103.25
412.249	3087.25
412.472	3018.25
412.695	2964.25
412.919	3015.25
413.142	2978.25
413.365	2975.25
413.589	3005.25
413.812	2980.25
414.035	3001.25
414.258	3000.25
414.482	3042.25
414.705	2988.25
414.928	3034.25
415.151	3030.25
415.374	2969.25
415.597	2963.25
415.821	2917.25
416.044	2857.25
416.267	2851.25
416.49	2844.25
416.713	2821.25
416.936	2884.25
417.159	2883.25
417.382	2845.25
417.605	2848.25
417.828	2859.25
418.051	2897.25
418.274	2940.25
418.497	2891.25
418.72	2972.25
418.943	2925.25
419.166	3052.25
419.389	3183.25
419.611	3207.25
419.834	3103.25
420.057	2994.25
420.28	2931.25
420.503	2855.25
420.726	2851.25
420.948	2841.25
421.171	2872.25
421.394	2865.25
421.617	2873.25
421.839	2864.25
422.062	2893.25
422.285	2826.25
422.507	2934.25
422.73	2901.25
422.953	2953.25
423.175	2931.25
423.398	2952.25
423.621	2889.25
423.843	2840.25
424.066	2824.25
424.288	2865.25
424.511	2874.25
424.733	2831.25
424.956	2802.25
425.178	2837.25
425.401	2778.25
425.623	2821.25
425.846	2755.25
426.068	2755.25
426.291	2726.25
426.513	2719.25
426.735	2740.25
426.958	2774.25
427.18	2713.25
427.402	2735.25
427.625	2679.25
427.847	2694.25
428.069	2661.25
428.292	2719.25
428.514	2645.25
428.736	2635.25
428.958	2659.25
429.181	2608.25
429.403	2601.25
429.625	2583.25
429.847	2659.25
430.069	2697.25
430.292	2770.25
430.514	2883.25
430.736	2872.25
430.958	2663.25
431.18	2599.25
431.402	2664.25
431.624	2655.25
431.846	2585.25
432.068	2613.25
432.29	2650.25
432.512	2564.25
432.734	2686.25
432.956	2621.25
433.178	2629.25
433.4	2663.25
433.622	2674.25
433.844	2698.25
434.066	2624.25
434.287	2635.25
434.509	2723.25
434.731	2724.25
434.953	2756.25
435.175	2748.25
435.397	2761.25
435.618	2652.25
435.84	2653.25
436.062	2605.25
436.284	2605.25
436.505	2593.25
436.727	2605.25
436.949	2601.25
437.17	2611.25
437.392	2572.25
437.614	2532.25
437.835	2537.25
438.057	2576.25
438.278	2516.25
438.5	2570.25
438.721	2588.25
438.943	2655.25
439.165	2712.25
439.386	2764.25
439.608	2707.25
439.829	2725.25
440.05	2808.25
440.272	2865.25
440.493	2775.25
440.715	2707.25
440.936	2705.25
441.158	2750.25
441.379	2727.25
441.6	2872.25
441.822	2955.25
442.043	3065.25
442.264	3133.25
442.486	2961.25
442.707	2878.25
442.928	2790.25
443.149	2835.25
443.371	2817.25
443.592	2825.25
443.813	2840.25
444.034	2792.25
444.255	2832.25
444.476	2903.25
444.698	2962.25
444.919	3029.25
445.14	3077.25
445.361	2965.25
445.582	2899.25
445.803	2808.25
446.024	2763.25
446.245	2786.25
446.466	2769.25
446.687	2728.25
446.908	2697.25
447.129	2667.25
447.35	2652.25
447.571	2690.25
447.792	2587.25
448.013	2579.25
448.234	2581.25
448.455	2624.25
448.675	2629.25
448.896	2658.25
449.117	2799.25
449.338	3027.25
449.559	3161.25
449.779	2818.25
450	2544.25
450.221	2586.25
450.442	2556.25
450.662	2522.25
450.883	2448.25
451.104	2550.25
451.324	2512.25
451.545	2517.25
451.766	2619.25
451.986	2645.25
452.207	2828.25
452.428	3516.25
452.648	5288.25
452.869	4423.25
453.089	3158.25
453.31	2940.25
453.53	2932.25
453.751	3048.25
453.971	3185.25
454.192	3103.25
454.412	2674.25
454.633	2563.25
454.853	2499.25
455.073	2385.25
455.294	2447.25
455.514	2441.25
455.734	2409.25
455.955	2381.25
456.175	2430.25
456.395	2427.25
456.616	2406.25
456.836	2445.25
457.056	2450.25
457.276	2440.25
457.497	2617.25
457.717	2660.25
457.937	2592.25
458.157	2569.25
458.377	2500.25
458.598	2604.25
458.818	2618.25
459.038	2639.25
459.258	2568.25
459.478	2650.25
459.698	2688.25
459.918	2691.25
460.138	2752.25
460.358	2760.25
460.578	2857.25
460.798	2865.25
461.018	2874.25
461.238	2859.25
461.458	2902.25
461.678	2937.25
461.898	2960.25
462.118	2962.25
462.338	3020.25
462.558	3087.25
462.777	3177.25
462.997	3274.25
463.217	3363.25
463.437	3519.25
463.657	3492.25
463.876	3532.25
464.096	3377.25
464.316	3183.25
464.536	3129.25
464.755	3064.25
464.975	2997.25
465.195	2916.25
465.414	2819.25
465.634	2706.25
465.854	2746.25
466.073	2709.25
466.293	2681.25
466.512	2673.25
466.732	2720.25
466.951	2788.25
467.171	2974.25
467.391	2969.25
467.61	2688.25
467.829	2610.25
468.049	2571.25
468.268	2615.25
468.488	2567.25
468.707	2591.25
468.927	2587.25
469.146	2571.25
469.365	2598.25
469.585	2609.25
469.804	2672.25
470.023	2727.25
470.243	2747.25
470.462	2834.25
470.681	3004.25
470.901	3292.25
471.12	3835.25
471.339	3849.25
471.558	3139.25
471.777	2866.25
471.997	2775.25
472.216	2732.25
472.435	2623.25
472.654	2618.25
472.873	2584.25
473.092	2596.25
473.311	2623.25
473.53	2612.25
473.749	2696.25
473.968	2778.25
474.187	2586.25
474.406	2551.25
474.625	2639.25
474.844	2640.25
475.063	2587.25
475.282	2592.25
475.501	2630.25
475.72	2671.25
475.939	2650.25
476.158	2753.25
476.377	2779.25
476.596	2704.25
476.814	2753.25
477.033	2759.25
477.252	2757.25
477.471	2787.25
477.69	2912.25
477.908	2871.25
478.127	2949.25
478.346	2953.25
478.564	2992.25
478.783	3046.25
479.002	3108.25
479.22	3066.25
479.439	3073.25
479.658	3145.25
479.876	3084.25
480.095	3195.25
480.313	3178.25
480.532	3208.25
480.751	3234.25
480.969	3187.25
481.188	3099.25
481.406	3117.25
481.624	3170.25
481.843	3177.25
482.061	3130.25
482.28	3151.25
482.498	3137.25
482.717	3123.25
482.935	3193.25
483.153	3208.25
483.372	3295.25
483.59	3279.25
483.808	3331.25
484.027	3391.25
484.245	3615.25
484.463	4127.25
484.681	4579.25
484.9	4122.25
485.118	3777.25
485.336	3713.25
485.554	3798.25
485.772	4029.25
485.99	4573.25
486.209	4951.25
486.427	4084.25
486.645	3585.25
486.863	3539.25
487.081	3417.25
487.299	3341.25
487.517	3376.25
487.735	3348.25
487.953	3378.25
488.171	3301.25
488.389	3283.25
488.607	3247.25
488.825	3198.25
489.043	3187.25
489.261	3243.25
489.479	3266.25
489.696	3266.25
489.914	3287.25
490.132	3302.25
490.35	3282.25
490.568	3325.25
490.786	3300.25
491.003	3377.25
491.221	3378.25
491.439	3391.25
491.657	3333.25
491.874	3429.25
492.092	3421.25
492.31	3387.25
492.527	3378.25
492.745	3449.25
492.963	3366.25
493.18	3373.25
493.398	3379.25
493.615	3412.25
493.833	3405.25
494.05	3421.25
494.268	3366.25
494.485	3471.25
494.703	3439.25
494.92	3428.25
495.138	3381.25
495.355	3416.25
495.573	3422.25
495.79	3439.25
496.008	3462.25
496.225	3460.25
496.442	3571.25
496.66	3651.25
496.877	3815.25
497.094	3818.25
497.312	3669.25
497.529	3743.25
497.746	3706.25
497.963	3777.25
498.181	3834.25
498.398	3954.25
498.615	4108.25
498.832	4226.25
499.049	4423.25
499.267	4791.25
499.484	5098.25
499.701	5079.25
499.918	5187.25
500.135	5464.25
500.352	5780.25
500.569	5783.25
500.786	5730.25
501.003	5555.25
501.22	5281.25
501.437	4987.25
501.654	4740.25
501.871	4491.25
502.088	4392.25
502.305	4219.25
502.522	4119.25
502.739	4021.25
502.956	3907.25
503.172	3803.25
503.389	3704.25
503.606	3676.25
503.823	3587.25
504.04	3498.25
504.256	3519.25
504.473	3576.25
504.69	3583.25
504.907	3511.25
505.123	3451.25
505.34	3300.25
505.557	3289.25
505.773	3208.25
505.99	3208.25
506.207	3114.25
506.423	3086.25
506.64	3120.25
506.856	3076.25
507.073	2995.25
507.289	3005.25
507.506	3009.25
507.722	3009.25
507.939	2988.25
508.155	3026.25
508.372	2958.25
508.588	2939.25
508.805	2955.25
509.021	2956.25
509.238	3003.25
509.454	3169.25
509.67	3383.25
509.887	3090.25
510.103	3010.25
510.319	2962.25
510.536	2920.25
510.752	2925.25
510.968	2936.25
511.184	2861.25
511.401	2827.25
511.617	2869.25
511.833	2804.25
512.049	2790.25
512.265	2805.25
512.481	2837.25
512.698	2778.25
512.914	2839.25
513.13	2815.25
513.346	2847.25
513.562	2848.25
513.778	2851.25
513.994	2917.25
514.21	2971.25
514.426	3130.25
514.642	3261.25
514.858	3003.25
515.074	2941.25
515.29	2930.25
515.506	2883.25
515.721	2898.25
515.937	2935.25
516.153	2898.25
516.369	2971.25
516.585	2956.25
516.801	2991.25
517.016	3043.25
517.232	3135.25
517.448	3130.25
517.664	3241.25
517.879	3202.25
518.095	3236.25
518.311	3241.25
518.527	3183.25
518.742	3132.25
518.958	3170.25
519.173	3228.25
519.389	3113.25
519.605	2991.25
519.82	2907.25
520.036	2956.25
520.251	2828.25
520.467	2848.25
520.682	2837.25
520.898	2801.25
521.113	2794.25
521.329	2744.25
521.544	2769.25
521.76	2762.25
521.975	2817.25
522.19	2773.25
522.406	2746.25
522.621	2760.25
522.836	2732.25
523.052	2716.25
523.267	2747.25
523.482	2695.25
523.698	2750.25
523.913	2679.25
524.128	2721.25
524.343	2685.25
524.559	2699.25
524.774	2703.25
524.989	2733.25
525.204	2674.25
525.419	2655.25
525.634	2677.25
525.849	2715.25
526.064	2688.25
526.28	2699.25
526.495	2680.25
526.71	2729.25
526.925	2684.25
527.14	2699.25
527.355	2717.25
527.57	2752.25
527.785	2723.25
527.999	2745.25
528.214	2773.25
528.429	2800.25
528.644	2774.25
528.859	2848.25
529.074	2871.25
529.289	2885.25
529.503	2906.25
529.718	2919.25
529.933	2881.25
530.148	2856.25
530.363	2899.25
530.577	2894.25
530.792	2876.25
531.007	2906.25
531.221	2915.25
531.436	2982.25
531.651	3006.25
531.865	3011.25
532.08	3065.25
532.295	3125.25
532.509	3393.25
532.724	3389.25
532.938	3443.25
533.153	3561.25
533.367	3847.25
533.582	4002.25
533.796	3912.25
534.011	3790.25
534.225	3605.25
534.44	3471.25
534.654	3450.25
534.868	3339.25
535.083	3287.25
535.297	3189.25
535.511	3173.25
535.726	3120.25
535.94	3047.25
536.154	3045.25
536.369	2970.25
536.583	2929.25
536.797	2920.25
537.011	2875.25
537.225	2828.25
537.44	2783.25
537.654	2725.25
537.868	2756.25
538.082	2716.25
538.296	2688.25
538.51	2720.25
538.724	2699.25
538.938	2659.25
539.153	2663.25
539.367	2655.25
539.581	2635.25
539.795	2620.25
540.009	2598.25
540.222	2585.25
540.436	2649.25
540.65	2641.25
540.864	2665.25
541.078	2664.25
541.292	2820.25
541.506	3326.25
541.72	3513.25
541.934	2997.25
542.147	2869.25
542.361	2761.25
542.575	2652.25
542.789	2615.25
543.002	2535.25
543.216	2530.25
543.43	2510.25
543.644	2544.25
543.857	2538.25
544.071	2497.25
544.285	2505.25
544.498	2469.25
544.712	2533.25
544.925	2570.25
545.139	2548.25
545.352	2515.25
545.566	2495.25
545.779	2550.25
545.993	2551.25
546.206	2584.25
546.42	2536.25
546.633	2524.25
546.847	2505.25
547.06	2539.25
547.274	2543.25
547.487	2566.25
547.7	2507.25
547.914	2500.25
548.127	2533.25
548.34	2561.25
548.554	2528.25
548.767	2560.25
548.98	2593.25
549.193	2533.25
549.407	2522.25
549.62	2528.25
549.833	2570.25
550.046	2573.25
550.259	2509.25
550.473	2516.25
550.686	2580.25
550.899	2561.25
551.112	2539.25
551.325	2587.25
551.538	2555.25
551.751	2535.25
551.964	2540.25
552.177	2610.25
552.39	2677.25
552.603	2678.25
552.816	2741.25
553.029	2741.25
553.242	2716.25
553.455	2778.25
553.667	2771.25
553.88	2804.25
554.093	2871.25
554.306	2865.25
554.519	2917.25
554.732	2929.25
554.944	2945.25
555.157	3063.25
555.37	3083.25
555.583	3191.25
555.795	3441.25
556.008	3712.25
556.221	4094.25
556.433	4525.25
556.646	4443.25
556.859	4239.25
557.071	4044.25
557.284	3892.25
557.496	3786.25
557.709	3721.25
557.921	3691.25
558.134	3704.25
558.346	3667.25
558.559	3875.25
558.771	4098.25
558.984	4583.25
559.196	4929.25
559.409	4584.25
559.621	4215.25
559.833	3959.25
560.046	3733.25
560.258	3520.25
560.47	3343.25
560.683	3232.25
560.895	3093.25
561.107	2958.25
561.32	2875.25
561.532	2857.25
561.744	2756.25
561.956	2701.25
562.168	2682.25
562.381	2629.25
562.593	2627.25
562.805	2717.25
563.017	2663.25
563.229	2717.25
563.441	3117.25
563.653	2604.25
563.865	2479.25
564.077	2410.25
564.289	2351.25
564.501	2367.25
564.713	2378.25
564.925	2312.25
565.137	2327.25
565.349	2323.25
565.561	2337.25
565.773	2389.25
565.985	2388.25
566.197	2402.25
566.408	2534.25
566.62	2550.25
566.832	2531.25
567.044	2605.25
567.255	2593.25
567.467	2623.25
567.679	2705.25
567.891	2823.25
568.102	3135.25
568.314	3620.25
568.526	3157.25
568.737	2694.25
568.949	2504.25
569.161	2353.25
569.372	2242.25
569.584	2189.25
569.795	2155.25
570.007	2128.25
570.218	2227.25
570.43	2259.25
570.641	2048.25
570.853	1994.25
571.064	1978.25
571.276	1961.25
571.487	1951.25
571.698	1889.25
571.91	1885.25
572.121	1865.25
572.333	1824.25
572.544	1879.25
572.755	1993.25
572.966	2335.25
573.178	2133.25
573.389	1900.25
573.6	1818.25
573.811	1785.25
574.023	1743.25
574.234	1739.25
574.445	1703.25
574.656	1719.25
574.867	1695.25
575.078	1723.25
575.289	1721.25
575.501	1718.25
575.712	1687.25
575.923	1674.25
576.134	1686.25
576.345	1695.25
576.556	1698.25
576.767	1715.25
576.978	1748.25
577.188	1734.25
577.399	1704.25
577.61	1741.25
577.821	1759.25
578.032	1817.25
578.243	1792.25
578.454	1867.25
578.665	1901.25
578.875	1903.25
579.086	1969.25
579.297	2064.25
579.508	2189.25
579.718	2370.25
579.929	2758.25
580.14	3270.25
580.35	3328.25
580.561	3023.25
580.772	2697.25
580.982	2484.25
581.193	2338.25
581.403	2212.25
581.614	2112.25
581.825	2033.25
582.035	1939.25
582.246	1883.25
582.456	1834.25
582.667	1801.25
582.877	1766.25
583.087	1741.25
583.298	1645.25
583.508	1612.25
583.719	1560.25
583.929	1572.25
584.139	1537.25
584.35	1485.25
584.56	1446.25
584.77	1428.25
584.981	1444.25
585.191	1395.25
585.401	1376.25
585.611	1353.25
585.821	1336.25
586.032	1339.25
586.242	1347.25
586.452	1310.25
586.662	1300.25
586.872	1284.25
587.082	1269.25
587.292	1263.25
587.502	1284.25
587.713	1248.25
587.923	1247.25
588.133	1248.25
588.343	1229.25
588.553	1209.25
588.762	1228.25
588.972	1221.25
589.182	1206.25
589.392	1207.25
589.602	1187.25
589.812	1204.25
590.022	1210.25
590.232	1173.25
590.441	1187.25
590.651	1169.25
590.861	1167.25
591.071	1186.25
591.281	1153.25
591.49	1176.25
591.7	1207.25
591.91	1181.25
592.119	1223.25
592.329	1140.25
592.539	1210.25
592.748	1192.25
592.958	1177.25
593.167	1206.25
593.377	1229.25
593.587	1239.25
593.796	1232.25
594.006	1232.25
594.215	1211.25
594.424	1204.25
594.634	1211.25
594.843	1169.25
595.053	1158.25
595.262	1185.25
595.472	1159.25
595.681	1106.25
595.89	1081.25
596.1	1079.25
596.309	1068.25
596.518	1049.25
596.727	1052.25
596.937	1029.25
597.146	1040.25
597.355	1011.25
597.564	1028.25
597.774	991.25
597.983	981.25
598.192	994.25
598.401	967.25
598.61	965.25
598.819	976.25
599.028	964.25
599.237	970.25
599.446	984.25
599.655	927.25
599.864	933.25
600.073	949.25
600.282	949.25
600.491	930.25
600.7	961.25
600.909	947.25
601.118	963.25
601.327	971.25
601.536	963.25
601.745	973.25
601.953	1093.25
602.162	1225.25
602.371	1071.25
602.58	983.25
602.789	947.25
602.997	945.25
603.206	939.25
603.415	917.25
603.623	895.25
603.832	912.25
604.041	917.25
604.249	902.25
604.458	885.25
604.666	880.25
604.875	891.25
605.084	900.25
605.292	910.25
605.501	900.25
605.709	897.25
605.918	896.25
606.126	913.25
606.334	927.25
606.543	931.25
606.751	1007.25
606.96	1120.25
607.168	1250.25
607.376	1057.25
607.585	971.25
607.793	932.25
608.001	894.25
608.21	883.25
608.418	851.25
608.626	879.25
608.834	899.25
609.043	858.25
609.251	863.25
609.459	845.25
609.667	838.25
609.875	830.25
610.083	848.25
610.291	853.25
610.499	848.25
610.707	811.25
610.916	819.25
611.124	813.25
611.332	821.25
611.54	830.25
611.748	824.25
611.955	793.25
612.163	765.25
612.371	804.25
612.579	785.25
612.787	775.25
612.995	780.25
613.203	811.25
613.411	801.25
613.618	775.25
613.826	795.25
614.034	820.25
614.242	773.25
614.449	803.25
614.657	790.25
614.865	785.25
615.072	794.25
615.28	789.25
615.488	795.25
615.695	770.25
615.903	779.25
616.111	810.25
616.318	796.25
616.526	766.25
616.733	776.25
616.941	760.25
617.148	769.25
617.356	783.25
617.563	763.25
617.771	751.25
617.978	738.25
618.185	747.25
618.393	779.25
618.6	779.25
618.807	761.25
619.015	772.25
619.222	760.25
619.429	703.25
619.637	745.25
619.844	725.25
620.051	725.25
620.258	706.25
620.466	708.25
620.673	704.25
620.88	693.25
621.087	683.25
621.294	688.25
621.501	697.25
621.708	676.25
621.915	712.25
622.122	698.25
622.329	687.25
622.536	710.25
622.743	693.25
622.95	697.25
623.157	683.25
623.364	691.25
623.571	684.25
623.778	684.25
623.985	659.25
624.192	679.25
624.399	651.25
624.606	649.25
624.812	656.25
625.019	666.25
625.226	661.25
625.433	664.25
625.639	641.25
625.846	633.25
626.053	629.25
626.259	615.25
626.466	626.25
626.673	643.25
626.879	632.25
627.086	649.25
627.293	631.25
627.499	630.25
627.706	640.25
627.912	630.25
628.119	621.25
628.325	652.25
628.532	618.25
628.738	639.25
628.945	615.25
629.151	627.25
629.357	612.25
629.564	603.25
629.77	621.25
629.976	620.25
630.183	611.25
630.389	605.25
630.595	604.25
630.802	593.25
631.008	593.25
631.214	599.25
631.42	597.25
631.627	583.25
631.833	568.25
632.039	587.25
632.245	602.25
632.451	581.25
632.657	601.25
632.863	575.25
633.069	590.25
633.275	577.25
633.481	548.25
633.688	588.25
633.893	583.25
634.099	571.25
634.305	580.25
634.511	574.25
634.717	598.25
634.923	634.25
635.129	665.25
635.335	775.25
635.541	694.25
635.747	612.25
635.952	609.25
636.158	609.25
636.364	607.25
636.57	581.25
636.775	609.25
636.981	574.25
637.187	579.25
637.392	585.25
637.598	574.25
637.804	588.25
638.009	597.25
638.215	581.25
638.421	593.25
638.626	607.25
638.832	612.25
639.037	594.25
639.243	609.25
639.448	604.25
639.654	593.25
639.859	615.25
640.065	584.25
640.27	616.25
640.475	594.25
640.681	627.25
640.886	605.25
641.091	605.25
641.297	631.25
641.502	611.25
641.707	637.25
641.913	653.25
642.118	643.25
642.323	657.25
642.528	678.25
642.733	675.25
642.939	705.25
643.144	716.25
643.349	735.25
643.554	795.25
643.759	812.25
643.964	832.25
644.169	889.25
644.374	927.25
644.579	1045.25
644.784	1145.25
644.989	1290.25
645.194	1527.25
645.399	1911.25
645.604	2095.25
645.809	1561.25
646.014	1174.25
646.219	997.25
646.423	848.25
646.628	776.25
646.833	706.25
647.038	670.25
647.243	630.25
647.447	620.25
647.652	601.25
647.857	595.25
648.062	559.25
648.266	581.25
648.471	548.25
648.676	546.25
648.88	533.25
649.085	525.25
649.289	551.25
649.494	497.25
649.698	510.25
649.903	492.25
650.107	480.25
650.312	467.25
650.516	466.25
650.721	459.25
650.925	471.25
651.13	461.25
651.334	434.25
651.539	429.25
651.743	433.25
651.947	409.25
652.152	423.25
652.356	428.25
652.56	453.25
652.764	509.25
652.969	450.25
653.173	423.25
653.377	408.25
653.581	379.25
653.785	385.25
653.99	368.25
654.194	363.25
654.398	377.25
654.602	366.25
654.806	356.25
655.01	347.25
655.214	365.25
655.418	352.25
655.622	344.25
655.826	339.25
656.03	361.25
656.234	363.25
656.438	376.25
656.642	373.25
656.846	386.25
657.049	344.25
657.253	321.25
657.457	304.25
657.661	275.25
657.865	281.25
658.068	265.25
658.272	256.25
658.476	217.25
658.68	227.25
658.883	211.25
659.087	201.25
659.291	202.25
659.494	198.25
659.698	200.25
659.901	162.25
660.105	172.25
660.309	166.25
660.512	170.25
660.716	168.25
660.919	162.25
661.123	137.25
661.326	129.25
661.53	125.25
661.733	127.25
661.936	117.25
662.14	115.25
662.343	119.25
662.546	122.25
662.75	117.25
662.953	116.25
663.156	104.25
663.36	94.25
663.563	106.25
663.766	91.25
663.969	76.25
664.173	100.25
664.376	93.25
664.579	109.25
664.782	81.25
664.985	95.25
665.188	93.25
665.391	90.25
665.594	99.25
665.797	80.25
666	75.25
666.203	90.25
666.406	92.25
666.609	81.25
666.812	85.25
667.015	89.25
667.218	95.25
667.421	84.25
667.624	73.25
667.827	85.25
668.03	89.25
668.232	74.25
668.435	89.25
668.638	82.25
668.841	88.25
669.043	90.25
669.246	93.25
669.449	83.25
669.651	75.25
669.854	86.25
670.057	80.25
670.259	84.25
670.462	74.25
670.665	92.25
670.867	88.25
671.07	87.25
671.272	91.25
671.475	104.25
671.677	74.25
671.88	75.25
672.082	76.25
672.284	78.25
672.487	78.25
672.689	91.25
672.892	86.25
