Data from SnStandardFlinnAPT0064_LampEnergy5.5_LIBS07252019.E.O._I.C._HRD10591_15-15-10-491.txt Node
Date: Thu Jul 25 15:15:10 EDT 2019
User: cochatt
Spectrometer: HR+D1059
Trigger mode: 1
Integration Time (sec): 1.000000E-1
Scans to average: 1
Electric dark correction enabled: true
Nonlinearity correction enabled: false
Boxcar width: 0
XAxis mode: Wavelengths
Number of Pixels in Spectrum: 2048
>>>>>Begin Spectral Data<<<<<
223.165	-17.31
223.4	-17.31
223.635	-17.31
223.869	-25.31
224.104	-19.31
224.338	2.69
224.573	-17.31
224.808	0.69
225.042	-8.31
225.277	1.69
225.511	0.69
225.746	9.69
225.98	0.69
226.215	-1.31
226.449	18.69
226.683	6.69
226.918	23.69
227.152	23.69
227.387	43.69
227.621	35.69
227.856	40.69
228.09	44.69
228.324	39.69
228.559	49.69
228.793	84.69
229.027	149.69
229.262	150.69
229.496	145.69
229.73	155.69
229.964	160.69
230.199	153.69
230.433	168.69
230.667	166.69
230.901	161.69
231.136	161.69
231.37	169.69
231.604	194.69
231.838	215.69
232.072	232.69
232.306	238.69
232.541	208.69
232.775	174.69
233.009	191.69
233.243	205.69
233.477	210.69
233.711	228.69
233.945	259.69
234.179	224.69
234.413	228.69
234.647	219.69
234.881	216.69
235.115	229.69
235.349	260.69
235.583	324.69
235.817	394.69
236.051	382.69
236.285	277.69
236.519	224.69
236.753	240.69
236.987	222.69
237.221	246.69
237.455	240.69
237.689	213.69
237.922	215.69
238.156	230.69
238.39	221.69
238.624	212.69
238.858	246.69
239.091	221.69
239.325	231.69
239.559	247.69
239.793	233.69
240.027	246.69
240.26	266.69
240.494	251.69
240.728	257.69
240.961	260.69
241.195	276.69
241.429	299.69
241.662	314.69
241.896	331.69
242.13	391.69
242.363	468.69
242.597	580.69
242.83	568.69
243.064	575.69
243.298	674.69
243.531	576.69
243.765	378.69
243.998	341.69
244.232	310.69
244.465	297.69
244.699	300.69
244.932	311.69
245.166	297.69
245.399	306.69
245.633	297.69
245.866	285.69
246.099	300.69
246.333	301.69
246.566	302.69
246.8	286.69
247.033	284.69
247.266	292.69
247.5	293.69
247.733	302.69
247.966	302.69
248.2	313.69
248.433	350.69
248.666	386.69
248.899	375.69
249.133	352.69
249.366	358.69
249.599	394.69
249.832	428.69
250.066	420.69
250.299	364.69
250.532	323.69
250.765	334.69
250.998	351.69
251.231	316.69
251.465	357.69
251.698	332.69
251.931	332.69
252.164	349.69
252.397	343.69
252.63	353.69
252.863	344.69
253.096	332.69
253.329	335.69
253.562	347.69
253.795	354.69
254.028	348.69
254.261	358.69
254.494	379.69
254.727	404.69
254.96	460.69
255.193	479.69
255.426	395.69
255.659	372.69
255.892	380.69
256.124	375.69
256.357	382.69
256.59	395.69
256.823	402.69
257.056	452.69
257.289	505.69
257.521	530.69
257.754	482.69
257.987	405.69
258.22	398.69
258.452	394.69
258.685	415.69
258.918	398.69
259.151	418.69
259.383	439.69
259.616	475.69
259.849	492.69
260.081	447.69
260.314	416.69
260.547	407.69
260.779	400.69
261.012	445.69
261.244	420.69
261.477	440.69
261.71	434.69
261.942	452.69
262.175	455.69
262.407	466.69
262.64	476.69
262.872	494.69
263.105	502.69
263.337	547.69
263.57	571.69
263.802	582.69
264.035	572.69
264.267	583.69
264.499	624.69
264.732	624.69
264.964	657.69
265.197	630.69
265.429	616.69
265.661	636.69
265.894	680.69
266.126	740.69
266.358	770.69
266.591	779.69
266.823	663.69
267.055	620.69
267.287	626.69
267.52	586.69
267.752	558.69
267.984	551.69
268.216	566.69
268.448	552.69
268.681	538.69
268.913	520.69
269.145	530.69
269.377	541.69
269.609	546.69
269.841	566.69
270.073	566.69
270.306	650.69
270.538	813.69
270.77	1139.69
271.002	1370.69
271.234	1032.69
271.466	743.69
271.698	624.69
271.93	568.69
272.162	559.69
272.394	552.69
272.626	533.69
272.858	531.69
273.09	533.69
273.322	534.69
273.553	499.69
273.785	520.69
274.017	502.69
274.249	527.69
274.481	533.69
274.713	524.69
274.945	508.69
275.176	558.69
275.408	517.69
275.64	524.69
275.872	539.69
276.104	532.69
276.335	539.69
276.567	548.69
276.799	531.69
277.031	560.69
277.262	557.69
277.494	581.69
277.726	609.69
277.957	656.69
278.189	747.69
278.421	728.69
278.652	664.69
278.884	628.69
279.115	604.69
279.347	582.69
279.579	585.69
279.81	583.69
280.042	603.69
280.273	619.69
280.505	599.69
280.736	605.69
280.968	628.69
281.199	670.69
281.431	718.69
281.662	747.69
281.894	706.69
282.125	663.69
282.356	659.69
282.588	675.69
282.819	698.69
283.051	727.69
283.282	785.69
283.513	947.69
283.745	1286.69
283.976	2001.69
284.207	2756.69
284.439	2514.69
284.67	1574.69
284.901	1297.69
285.132	1244.69
285.364	1181.69
285.595	984.69
285.826	900.69
286.057	1033.69
286.288	1353.69
286.52	1817.69
286.751	1657.69
286.982	1107.69
287.213	864.69
287.444	780.69
287.675	723.69
287.906	728.69
288.138	724.69
288.369	676.69
288.6	709.69
288.831	692.69
289.062	692.69
289.293	698.69
289.524	708.69
289.755	727.69
289.986	716.69
290.217	725.69
290.448	727.69
290.679	734.69
290.91	735.69
291.141	743.69
291.371	762.69
291.602	774.69
291.833	743.69
292.064	710.69
292.295	706.69
292.526	690.69
292.757	670.69
292.987	651.69
293.218	656.69
293.449	671.69
293.68	672.69
293.91	650.69
294.141	642.69
294.372	645.69
294.603	683.69
294.833	668.69
295.064	654.69
295.295	678.69
295.525	677.69
295.756	657.69
295.987	643.69
296.217	646.69
296.448	687.69
296.679	674.69
296.909	649.69
297.14	668.69
297.37	684.69
297.601	690.69
297.831	676.69
298.062	669.69
298.292	672.69
298.523	701.69
298.753	718.69
298.984	717.69
299.214	718.69
299.445	723.69
299.675	717.69
299.905	738.69
300.136	796.69
300.366	842.69
300.597	1015.69
300.827	1328.69
301.057	1761.69
301.288	1787.69
301.518	1225.69
301.748	978.69
301.979	908.69
302.209	911.69
302.439	900.69
302.669	907.69
302.9	1063.69
303.13	1384.69
303.36	2054.69
303.59	2657.69
303.82	2356.69
304.051	1460.69
304.281	1102.69
304.511	962.69
304.741	891.69
304.971	859.69
305.201	833.69
305.431	809.69
305.661	790.69
305.891	787.69
306.121	771.69
306.352	772.69
306.582	769.69
306.812	767.69
307.042	791.69
307.272	775.69
307.502	797.69
307.731	756.69
307.961	758.69
308.191	753.69
308.421	750.69
308.651	770.69
308.881	762.69
309.111	746.69
309.341	771.69
309.571	765.69
309.8	770.69
310.03	777.69
310.26	802.69
310.49	766.69
310.72	794.69
310.949	773.69
311.179	792.69
311.409	778.69
311.639	808.69
311.868	799.69
312.098	806.69
312.328	830.69
312.557	842.69
312.787	800.69
313.017	800.69
313.246	838.69
313.476	812.69
313.706	847.69
313.935	888.69
314.165	934.69
314.394	939.69
314.624	905.69
314.853	878.69
315.083	890.69
315.312	884.69
315.542	861.69
315.771	902.69
316.001	912.69
316.23	929.69
316.46	959.69
316.689	1038.69
316.919	1197.69
317.148	1657.69
317.377	2413.69
317.607	3535.69
317.836	3626.69
318.065	2238.69
318.295	1534.69
318.524	1253.69
318.753	1110.69
318.983	1029.69
319.212	1014.69
319.441	1004.69
319.67	955.69
319.9	970.69
320.129	950.69
320.358	908.69
320.587	935.69
320.816	934.69
321.046	976.69
321.275	956.69
321.504	956.69
321.733	987.69
321.962	1000.69
322.191	1011.69
322.42	1010.69
322.649	997.69
322.878	1013.69
323.108	1006.69
323.337	1003.69
323.566	1034.69
323.795	1054.69
324.024	1063.69
324.253	1087.69
324.482	1110.69
324.71	1151.69
324.939	1223.69
325.168	1242.69
325.397	1310.69
325.626	1414.69
325.855	1972.69
326.084	3007.69
326.313	4386.69
326.542	4616.69
326.77	3033.69
326.999	2054.69
327.228	1806.69
327.457	1702.69
327.686	1738.69
327.914	1833.69
328.143	2099.69
328.372	2434.69
328.6	2628.69
328.829	2427.69
329.058	2182.69
329.287	1960.69
329.515	1797.69
329.744	1684.69
329.972	1602.69
330.201	1519.69
330.43	1464.69
330.658	1419.69
330.887	1402.69
331.115	1388.69
331.344	1403.69
331.572	1380.69
331.801	1373.69
332.03	1363.69
332.258	1420.69
332.486	1466.69
332.715	1580.69
332.943	1939.69
333.172	2265.69
333.4	2258.69
333.629	1819.69
333.857	1742.69
334.085	1709.69
334.314	1780.69
334.542	1940.69
334.771	2197.69
334.999	2585.69
335.227	3138.69
335.455	3467.69
335.684	3308.69
335.912	2802.69
336.14	2445.69
336.369	2222.69
336.597	2028.69
336.825	1860.69
337.053	1794.69
337.281	1668.69
337.51	1629.69
337.738	1574.69
337.966	1476.69
338.194	1418.69
338.422	1402.69
338.65	1357.69
338.878	1355.69
339.106	1330.69
339.334	1286.69
339.562	1291.69
339.79	1243.69
340.018	1245.69
340.246	1208.69
340.474	1213.69
340.702	1220.69
340.93	1267.69
341.158	1215.69
341.386	1218.69
341.614	1200.69
341.842	1210.69
342.07	1159.69
342.298	1158.69
342.526	1133.69
342.754	1164.69
342.981	1118.69
343.209	1138.69
343.437	1134.69
343.665	1166.69
343.893	1159.69
344.12	1215.69
344.348	1116.69
344.576	1140.69
344.804	1129.69
345.031	1092.69
345.259	1102.69
345.487	1084.69
345.714	1062.69
345.942	1067.69
346.17	1072.69
346.397	1055.69
346.625	1049.69
346.853	1059.69
347.08	1029.69
347.308	1018.69
347.535	1026.69
347.763	1022.69
347.99	1042.69
348.218	1034.69
348.445	1010.69
348.673	1051.69
348.9	1036.69
349.128	1019.69
349.355	1033.69
349.583	1028.69
349.81	1006.69
350.037	1014.69
350.265	1003.69
350.492	1021.69
350.72	1005.69
350.947	997.69
351.174	1025.69
351.402	1016.69
351.629	1011.69
351.856	1027.69
352.083	995.69
352.311	985.69
352.538	988.69
352.765	995.69
352.992	975.69
353.22	980.69
353.447	995.69
353.674	986.69
353.901	1000.69
354.128	1004.69
354.355	1015.69
354.583	977.69
354.81	1034.69
355.037	1030.69
355.264	1012.69
355.491	1015.69
355.718	1019.69
355.945	1024.69
356.172	1021.69
356.399	1032.69
356.626	1032.69
356.853	1043.69
357.08	1054.69
357.307	1049.69
357.534	1055.69
357.761	1068.69
357.988	1070.69
358.215	1055.69
358.441	1056.69
358.668	1063.69
358.895	1056.69
359.122	1054.69
359.349	1068.69
359.576	1050.69
359.802	1065.69
360.029	1057.69
360.256	1102.69
360.483	1066.69
360.709	1035.69
360.936	1080.69
361.163	1066.69
361.39	1038.69
361.616	1085.69
361.843	1037.69
362.07	1065.69
362.296	1067.69
362.523	1059.69
362.749	1065.69
362.976	1068.69
363.203	1055.69
363.429	1030.69
363.656	1066.69
363.882	1068.69
364.109	1075.69
364.335	1053.69
364.562	1060.69
364.788	1053.69
365.015	1084.69
365.241	1094.69
365.468	1113.69
365.694	1155.69
365.92	1119.69
366.147	1077.69
366.373	1120.69
366.599	1076.69
366.826	1092.69
367.052	1103.69
367.278	1116.69
367.505	1096.69
367.731	1103.69
367.957	1102.69
368.184	1112.69
368.41	1114.69
368.636	1115.69
368.862	1111.69
369.089	1102.69
369.315	1093.69
369.541	1094.69
369.767	1111.69
369.993	1096.69
370.219	1102.69
370.445	1118.69
370.672	1144.69
370.898	1127.69
371.124	1139.69
371.35	1166.69
371.576	1158.69
371.802	1119.69
372.028	1162.69
372.254	1172.69
372.48	1122.69
372.706	1147.69
372.932	1182.69
373.158	1140.69
373.384	1166.69
373.61	1142.69
373.835	1154.69
374.061	1179.69
374.287	1204.69
374.513	1193.69
374.739	1207.69
374.965	1239.69
375.191	1222.69
375.416	1198.69
375.642	1219.69
375.868	1188.69
376.094	1192.69
376.319	1192.69
376.545	1164.69
376.771	1199.69
376.997	1163.69
377.222	1177.69
377.448	1145.69
377.674	1163.69
377.899	1124.69
378.125	1166.69
378.35	1140.69
378.576	1143.69
378.802	1152.69
379.027	1180.69
379.253	1203.69
379.478	1244.69
379.704	1372.69
379.929	1814.69
380.155	2632.69
380.38	2814.69
380.606	1848.69
380.831	1426.69
381.057	1294.69
381.282	1204.69
381.507	1180.69
381.733	1169.69
381.958	1171.69
382.184	1156.69
382.409	1156.69
382.634	1136.69
382.86	1109.69
383.085	1124.69
383.31	1140.69
383.535	1139.69
383.761	1167.69
383.986	1153.69
384.211	1134.69
384.436	1155.69
384.662	1158.69
384.887	1202.69
385.112	1148.69
385.337	1164.69
385.562	1182.69
385.787	1163.69
386.013	1162.69
386.238	1218.69
386.463	1206.69
386.688	1238.69
386.913	1168.69
387.138	1168.69
387.363	1183.69
387.588	1152.69
387.813	1179.69
388.038	1180.69
388.263	1209.69
388.488	1190.69
388.713	1220.69
388.938	1171.69
389.163	1180.69
389.387	1166.69
389.612	1177.69
389.837	1194.69
390.062	1183.69
390.287	1233.69
390.512	1149.69
390.736	1194.69
390.961	1226.69
391.186	1233.69
391.411	1241.69
391.636	1242.69
391.86	1248.69
392.085	1246.69
392.31	1230.69
392.534	1248.69
392.759	1210.69
392.984	1204.69
393.208	1178.69
393.433	1207.69
393.658	1202.69
393.882	1183.69
394.107	1164.69
394.331	1212.69
394.556	1210.69
394.78	1187.69
395.005	1206.69
395.229	1204.69
395.454	1217.69
395.678	1227.69
395.903	1219.69
396.127	1234.69
396.352	1199.69
396.576	1215.69
396.801	1209.69
397.025	1236.69
397.249	1206.69
397.474	1250.69
397.698	1232.69
397.922	1249.69
398.147	1242.69
398.371	1275.69
398.595	1307.69
398.82	1326.69
399.044	1388.69
399.268	1437.69
399.492	1526.69
399.717	1594.69
399.941	1593.69
400.165	1519.69
400.389	1450.69
400.613	1429.69
400.837	1339.69
401.062	1334.69
401.286	1347.69
401.51	1315.69
401.734	1293.69
401.958	1317.69
402.182	1318.69
402.406	1347.69
402.63	1320.69
402.854	1355.69
403.078	1350.69
403.302	1339.69
403.526	1392.69
403.75	1343.69
403.974	1387.69
404.198	1384.69
404.422	1404.69
404.645	1379.69
404.869	1369.69
405.093	1376.69
405.317	1319.69
405.541	1331.69
405.765	1386.69
405.988	1369.69
406.212	1378.69
406.436	1382.69
406.66	1436.69
406.883	1389.69
407.107	1451.69
407.331	1448.69
407.555	1544.69
407.778	1482.69
408.002	1455.69
408.226	1431.69
408.449	1439.69
408.673	1388.69
408.896	1365.69
409.12	1386.69
409.344	1361.69
409.567	1383.69
409.791	1366.69
410.014	1374.69
410.238	1354.69
410.461	1320.69
410.685	1321.69
410.908	1351.69
411.132	1306.69
411.355	1325.69
411.578	1315.69
411.802	1311.69
412.025	1307.69
412.249	1312.69
412.472	1318.69
412.695	1275.69
412.919	1276.69
413.142	1267.69
413.365	1282.69
413.589	1298.69
413.812	1263.69
414.035	1256.69
414.258	1295.69
414.482	1293.69
414.705	1301.69
414.928	1281.69
415.151	1262.69
415.374	1251.69
415.597	1258.69
415.821	1232.69
416.044	1248.69
416.267	1220.69
416.49	1244.69
416.713	1245.69
416.936	1223.69
417.159	1227.69
417.382	1240.69
417.605	1233.69
417.828	1236.69
418.051	1252.69
418.274	1234.69
418.497	1239.69
418.72	1270.69
418.943	1256.69
419.166	1306.69
419.389	1376.69
419.611	1346.69
419.834	1306.69
420.057	1286.69
420.28	1283.69
420.503	1266.69
420.726	1226.69
420.948	1266.69
421.171	1263.69
421.394	1278.69
421.617	1284.69
421.839	1274.69
422.062	1282.69
422.285	1257.69
422.507	1287.69
422.73	1308.69
422.953	1288.69
423.175	1268.69
423.398	1299.69
423.621	1245.69
423.843	1272.69
424.066	1288.69
424.288	1237.69
424.511	1244.69
424.733	1286.69
424.956	1246.69
425.178	1235.69
425.401	1238.69
425.623	1220.69
425.846	1200.69
426.068	1231.69
426.291	1241.69
426.513	1226.69
426.735	1204.69
426.958	1199.69
427.18	1170.69
427.402	1182.69
427.625	1187.69
427.847	1178.69
428.069	1150.69
428.292	1158.69
428.514	1155.69
428.736	1124.69
428.958	1154.69
429.181	1117.69
429.403	1142.69
429.625	1139.69
429.847	1130.69
430.069	1178.69
430.292	1182.69
430.514	1216.69
430.736	1228.69
430.958	1162.69
431.18	1133.69
431.402	1135.69
431.624	1130.69
431.846	1136.69
432.068	1124.69
432.29	1151.69
432.512	1103.69
432.734	1150.69
432.956	1131.69
433.178	1169.69
433.4	1149.69
433.622	1184.69
433.844	1167.69
434.066	1158.69
434.287	1142.69
434.509	1146.69
434.731	1191.69
434.953	1196.69
435.175	1216.69
435.397	1216.69
435.618	1159.69
435.84	1147.69
436.062	1130.69
436.284	1138.69
436.505	1143.69
436.727	1139.69
436.949	1130.69
437.17	1140.69
437.392	1132.69
437.614	1110.69
437.835	1112.69
438.057	1102.69
438.278	1093.69
438.5	1135.69
438.721	1160.69
438.943	1167.69
439.165	1158.69
439.386	1168.69
439.608	1169.69
439.829	1165.69
440.05	1197.69
440.272	1205.69
440.493	1191.69
440.715	1202.69
440.936	1194.69
441.158	1216.69
441.379	1235.69
441.6	1253.69
441.822	1268.69
442.043	1317.69
442.264	1336.69
442.486	1290.69
442.707	1252.69
442.928	1236.69
443.149	1232.69
443.371	1214.69
443.592	1255.69
443.813	1244.69
444.034	1247.69
444.255	1253.69
444.476	1326.69
444.698	1323.69
444.919	1345.69
445.14	1424.69
445.361	1320.69
445.582	1288.69
445.803	1225.69
446.024	1213.69
446.245	1223.69
446.466	1231.69
446.687	1218.69
446.908	1216.69
447.129	1168.69
447.35	1156.69
447.571	1152.69
447.792	1115.69
448.013	1106.69
448.234	1134.69
448.455	1141.69
448.675	1114.69
448.896	1145.69
449.117	1192.69
449.338	1280.69
449.559	1277.69
449.779	1173.69
450	1131.69
450.221	1120.69
450.442	1094.69
450.662	1114.69
450.883	1064.69
451.104	1078.69
451.324	1107.69
451.545	1071.69
451.766	1118.69
451.986	1130.69
452.207	1150.69
452.428	1347.69
452.648	1754.69
452.869	1566.69
453.089	1225.69
453.31	1204.69
453.53	1174.69
453.751	1188.69
453.971	1284.69
454.192	1253.69
454.412	1113.69
454.633	1074.69
454.853	1072.69
455.073	1074.69
455.294	1085.69
455.514	1054.69
455.734	1028.69
455.955	1071.69
456.175	1030.69
456.395	1046.69
456.616	1048.69
456.836	1074.69
457.056	1088.69
457.276	1051.69
457.497	1126.69
457.717	1120.69
457.937	1105.69
458.157	1126.69
458.377	1081.69
458.598	1112.69
458.818	1119.69
459.038	1120.69
459.258	1133.69
459.478	1149.69
459.698	1153.69
459.918	1204.69
460.138	1168.69
460.358	1221.69
460.578	1238.69
460.798	1244.69
461.018	1239.69
461.238	1243.69
461.458	1246.69
461.678	1247.69
461.898	1237.69
462.118	1280.69
462.338	1292.69
462.558	1331.69
462.777	1344.69
462.997	1368.69
463.217	1420.69
463.437	1484.69
463.657	1485.69
463.876	1424.69
464.096	1391.69
464.316	1364.69
464.536	1379.69
464.755	1333.69
464.975	1284.69
465.195	1254.69
465.414	1209.69
465.634	1164.69
465.854	1175.69
466.073	1169.69
466.293	1167.69
466.512	1138.69
466.732	1145.69
466.951	1226.69
467.171	1250.69
467.391	1244.69
467.61	1156.69
467.829	1183.69
468.049	1158.69
468.268	1136.69
468.488	1124.69
468.707	1110.69
468.927	1113.69
469.146	1095.69
469.365	1131.69
469.585	1143.69
469.804	1179.69
470.023	1184.69
470.243	1203.69
470.462	1222.69
470.681	1245.69
470.901	1353.69
471.12	1487.69
471.339	1489.69
471.558	1295.69
471.777	1223.69
471.997	1172.69
472.216	1186.69
472.435	1135.69
472.654	1122.69
472.873	1130.69
473.092	1099.69
473.311	1139.69
473.53	1144.69
473.749	1168.69
473.968	1160.69
474.187	1159.69
474.406	1111.69
474.625	1145.69
474.844	1138.69
475.063	1130.69
475.282	1140.69
475.501	1154.69
475.72	1142.69
475.939	1162.69
476.158	1167.69
476.377	1205.69
476.596	1205.69
476.814	1172.69
477.033	1165.69
477.252	1199.69
477.471	1236.69
477.69	1252.69
477.908	1276.69
478.127	1288.69
478.346	1270.69
478.564	1292.69
478.783	1356.69
479.002	1383.69
479.22	1343.69
479.439	1352.69
479.658	1362.69
479.876	1325.69
480.095	1339.69
480.313	1360.69
480.532	1372.69
480.751	1397.69
480.969	1341.69
481.188	1338.69
481.406	1308.69
481.624	1310.69
481.843	1324.69
482.061	1334.69
482.28	1334.69
482.498	1292.69
482.717	1321.69
482.935	1346.69
483.153	1386.69
483.372	1391.69
483.59	1409.69
483.808	1389.69
484.027	1396.69
484.245	1498.69
484.463	1615.69
484.681	1749.69
484.9	1656.69
485.118	1618.69
485.336	1557.69
485.554	1548.69
485.772	1595.69
485.99	1804.69
486.209	1950.69
486.427	1676.69
486.645	1536.69
486.863	1455.69
487.081	1483.69
487.299	1470.69
487.517	1435.69
487.735	1448.69
487.953	1476.69
488.171	1475.69
488.389	1436.69
488.607	1427.69
488.825	1415.69
489.043	1384.69
489.261	1372.69
489.479	1389.69
489.696	1406.69
489.914	1400.69
490.132	1430.69
490.35	1425.69
490.568	1460.69
490.786	1439.69
491.003	1501.69
491.221	1507.69
491.439	1484.69
491.657	1489.69
491.874	1540.69
492.092	1524.69
492.31	1523.69
492.527	1526.69
492.745	1491.69
492.963	1514.69
493.18	1478.69
493.398	1477.69
493.615	1517.69
493.833	1530.69
494.05	1497.69
494.268	1540.69
494.485	1504.69
494.703	1484.69
494.92	1515.69
495.138	1455.69
495.355	1496.69
495.573	1522.69
495.79	1504.69
496.008	1494.69
496.225	1494.69
496.442	1540.69
496.66	1565.69
496.877	1635.69
497.094	1618.69
497.312	1611.69
497.529	1610.69
497.746	1583.69
497.963	1635.69
498.181	1629.69
498.398	1693.69
498.615	1766.69
498.832	1813.69
499.049	1882.69
499.267	1984.69
499.484	2140.69
499.701	2130.69
499.918	2217.69
500.135	2390.69
500.352	2486.69
500.569	2572.69
500.786	2542.69
501.003	2467.69
501.22	2352.69
501.437	2210.69
501.654	2059.69
501.871	2010.69
502.088	1882.69
502.305	1827.69
502.522	1799.69
502.739	1736.69
502.956	1711.69
503.172	1598.69
503.389	1611.69
503.606	1552.69
503.823	1491.69
504.04	1538.69
504.256	1507.69
504.473	1567.69
504.69	1515.69
504.907	1513.69
505.123	1469.69
505.34	1466.69
505.557	1410.69
505.773	1409.69
505.99	1387.69
506.207	1332.69
506.423	1351.69
506.64	1359.69
506.856	1342.69
507.073	1335.69
507.289	1299.69
507.506	1294.69
507.722	1294.69
507.939	1313.69
508.155	1268.69
508.372	1260.69
508.588	1279.69
508.805	1256.69
509.021	1247.69
509.238	1285.69
509.454	1324.69
509.67	1356.69
509.887	1272.69
510.103	1282.69
510.319	1260.69
510.536	1263.69
510.752	1230.69
510.968	1228.69
511.184	1253.69
511.401	1197.69
511.617	1188.69
511.833	1218.69
512.049	1183.69
512.265	1218.69
512.481	1215.69
512.698	1206.69
512.914	1216.69
513.13	1226.69
513.346	1202.69
513.562	1215.69
513.778	1203.69
513.994	1203.69
514.21	1253.69
514.426	1252.69
514.642	1327.69
514.858	1286.69
515.074	1223.69
515.29	1228.69
515.506	1232.69
515.721	1250.69
515.937	1238.69
516.153	1255.69
516.369	1282.69
516.585	1262.69
516.801	1302.69
517.016	1279.69
517.232	1339.69
517.448	1373.69
517.664	1407.69
517.879	1366.69
518.095	1379.69
518.311	1366.69
518.527	1341.69
518.742	1344.69
518.958	1322.69
519.173	1345.69
519.389	1320.69
519.605	1308.69
519.82	1233.69
520.036	1234.69
520.251	1260.69
520.467	1225.69
520.682	1216.69
520.898	1182.69
521.113	1183.69
521.329	1223.69
521.544	1214.69
521.76	1204.69
521.975	1210.69
522.19	1166.69
522.406	1178.69
522.621	1189.69
522.836	1164.69
523.052	1198.69
523.267	1199.69
523.482	1131.69
523.698	1161.69
523.913	1144.69
524.128	1156.69
524.343	1150.69
524.559	1136.69
524.774	1157.69
524.989	1143.69
525.204	1164.69
525.419	1180.69
525.634	1160.69
525.849	1150.69
526.064	1175.69
526.28	1191.69
526.495	1184.69
526.71	1155.69
526.925	1144.69
527.14	1188.69
527.355	1170.69
527.57	1165.69
527.785	1142.69
527.999	1175.69
528.214	1174.69
528.429	1236.69
528.644	1207.69
528.859	1250.69
529.074	1232.69
529.289	1257.69
529.503	1282.69
529.718	1238.69
529.933	1267.69
530.148	1209.69
530.363	1250.69
530.577	1180.69
530.792	1222.69
531.007	1255.69
531.221	1250.69
531.436	1240.69
531.651	1256.69
531.865	1273.69
532.08	1303.69
532.295	1293.69
532.509	1361.69
532.724	1362.69
532.938	1384.69
533.153	1410.69
533.367	1453.69
533.582	1504.69
533.796	1520.69
534.011	1452.69
534.225	1442.69
534.44	1385.69
534.654	1379.69
534.868	1376.69
535.083	1347.69
535.297	1335.69
535.511	1306.69
535.726	1294.69
535.94	1289.69
536.154	1274.69
536.369	1251.69
536.583	1230.69
536.797	1243.69
537.011	1234.69
537.225	1212.69
537.44	1187.69
537.654	1186.69
537.868	1194.69
538.082	1159.69
538.296	1165.69
538.51	1141.69
538.724	1192.69
538.938	1175.69
539.153	1181.69
539.367	1160.69
539.581	1141.69
539.795	1104.69
540.009	1126.69
540.222	1089.69
540.436	1088.69
540.65	1118.69
540.864	1119.69
541.078	1149.69
541.292	1188.69
541.506	1414.69
541.72	1451.69
541.934	1309.69
542.147	1251.69
542.361	1229.69
542.575	1178.69
542.789	1152.69
543.002	1087.69
543.216	1083.69
543.43	1088.69
543.644	1079.69
543.857	1089.69
544.071	1119.69
544.285	1130.69
544.498	1136.69
544.712	1154.69
544.925	1133.69
545.139	1149.69
545.352	1115.69
545.566	1119.69
545.779	1141.69
545.993	1176.69
546.206	1179.69
546.42	1118.69
546.633	1135.69
546.847	1160.69
547.06	1142.69
547.274	1167.69
547.487	1124.69
547.7	1177.69
547.914	1158.69
548.127	1149.69
548.34	1141.69
548.554	1138.69
548.767	1171.69
548.98	1157.69
549.193	1159.69
549.407	1119.69
549.62	1130.69
549.833	1145.69
550.046	1167.69
550.259	1130.69
550.473	1142.69
550.686	1152.69
550.899	1139.69
551.112	1091.69
551.325	1114.69
551.538	1130.69
551.751	1090.69
551.964	1111.69
552.177	1133.69
552.39	1140.69
552.603	1158.69
552.816	1212.69
553.029	1213.69
553.242	1235.69
553.455	1234.69
553.667	1232.69
553.88	1245.69
554.093	1220.69
554.306	1222.69
554.519	1263.69
554.732	1280.69
554.944	1260.69
555.157	1299.69
555.37	1299.69
555.583	1351.69
555.795	1384.69
556.008	1451.69
556.221	1571.69
556.433	1636.69
556.646	1616.69
556.859	1599.69
557.071	1567.69
557.284	1518.69
557.496	1522.69
557.709	1465.69
557.921	1513.69
558.134	1511.69
558.346	1528.69
558.559	1512.69
558.771	1579.69
558.984	1666.69
559.196	1752.69
559.409	1693.69
559.621	1613.69
559.833	1568.69
560.046	1499.69
560.258	1451.69
560.47	1394.69
560.683	1333.69
560.895	1320.69
561.107	1287.69
561.32	1242.69
561.532	1244.69
561.744	1209.69
561.956	1199.69
562.168	1165.69
562.381	1176.69
562.593	1150.69
562.805	1152.69
563.017	1158.69
563.229	1173.69
563.441	1210.69
563.653	1112.69
563.865	1066.69
564.077	1080.69
564.289	1034.69
564.501	1049.69
564.713	1065.69
564.925	1060.69
565.137	1060.69
565.349	1030.69
565.561	1053.69
565.773	1020.69
565.985	1040.69
566.197	1086.69
566.408	1104.69
566.62	1124.69
566.832	1131.69
567.044	1161.69
567.255	1152.69
567.467	1192.69
567.679	1180.69
567.891	1255.69
568.102	1344.69
568.314	1514.69
568.526	1357.69
568.737	1156.69
568.949	1070.69
569.161	1003.69
569.372	994.69
569.584	948.69
569.795	901.69
570.007	952.69
570.218	937.69
570.43	960.69
570.641	901.69
570.853	888.69
571.064	888.69
571.276	880.69
571.487	872.69
571.698	842.69
571.91	832.69
572.121	827.69
572.333	811.69
572.544	829.69
572.755	845.69
572.966	984.69
573.178	904.69
573.389	834.69
573.6	786.69
573.811	796.69
574.023	755.69
574.234	755.69
574.445	756.69
574.656	769.69
574.867	741.69
575.078	755.69
575.289	750.69
575.501	763.69
575.712	774.69
575.923	740.69
576.134	763.69
576.345	752.69
576.556	762.69
576.767	786.69
576.978	765.69
577.188	761.69
577.399	761.69
577.61	760.69
577.821	774.69
578.032	795.69
578.243	778.69
578.454	792.69
578.665	799.69
578.875	824.69
579.086	843.69
579.297	860.69
579.508	926.69
579.718	961.69
579.929	1026.69
580.14	1124.69
580.35	1181.69
580.561	1117.69
580.772	1071.69
580.982	1007.69
581.193	998.69
581.403	933.69
581.614	904.69
581.825	861.69
582.035	824.69
582.246	806.69
582.456	790.69
582.667	754.69
582.877	748.69
583.087	743.69
583.298	713.69
583.508	716.69
583.719	712.69
583.929	688.69
584.139	681.69
584.35	648.69
584.56	639.69
584.77	660.69
584.981	654.69
585.191	636.69
585.401	612.69
585.611	617.69
585.821	635.69
586.032	611.69
586.242	616.69
586.452	604.69
586.662	590.69
586.872	600.69
587.082	584.69
587.292	592.69
587.502	581.69
587.713	593.69
587.923	580.69
588.133	559.69
588.343	580.69
588.553	570.69
588.762	558.69
588.972	556.69
589.182	564.69
589.392	543.69
589.602	554.69
589.812	543.69
590.022	562.69
590.232	551.69
590.441	559.69
590.651	552.69
590.861	566.69
591.071	522.69
591.281	548.69
591.49	543.69
591.7	551.69
591.91	559.69
592.119	521.69
592.329	569.69
592.539	559.69
592.748	548.69
592.958	573.69
593.167	554.69
593.377	569.69
593.587	606.69
593.796	575.69
594.006	564.69
594.215	570.69
594.424	573.69
594.634	571.69
594.843	543.69
595.053	533.69
595.262	547.69
595.472	540.69
595.681	531.69
595.89	513.69
596.1	519.69
596.309	502.69
596.518	505.69
596.727	515.69
596.937	477.69
597.146	470.69
597.355	498.69
597.564	483.69
597.774	472.69
597.983	454.69
598.192	454.69
598.401	462.69
598.61	456.69
598.819	475.69
599.028	459.69
599.237	458.69
599.446	456.69
599.655	458.69
599.864	456.69
600.073	448.69
600.282	434.69
600.491	445.69
600.7	431.69
600.909	434.69
601.118	450.69
601.327	466.69
601.536	446.69
601.745	463.69
601.953	479.69
602.162	544.69
602.371	516.69
602.58	467.69
602.789	462.69
602.997	429.69
603.206	472.69
603.415	448.69
603.623	452.69
603.832	444.69
604.041	428.69
604.249	450.69
604.458	440.69
604.666	434.69
604.875	425.69
605.084	415.69
605.292	426.69
605.501	429.69
605.709	424.69
605.918	438.69
606.126	451.69
606.334	432.69
606.543	453.69
606.751	470.69
606.96	529.69
607.168	546.69
607.376	481.69
607.585	456.69
607.793	444.69
608.001	431.69
608.21	428.69
608.418	432.69
608.626	428.69
608.834	413.69
609.043	432.69
609.251	417.69
609.459	431.69
609.667	410.69
609.875	412.69
610.083	437.69
610.291	409.69
610.499	420.69
610.707	427.69
610.916	401.69
611.124	408.69
611.332	431.69
611.54	427.69
611.748	415.69
611.955	392.69
612.163	408.69
612.371	416.69
612.579	396.69
612.787	395.69
612.995	393.69
613.203	385.69
613.411	402.69
613.618	402.69
613.826	392.69
614.034	400.69
614.242	403.69
614.449	389.69
614.657	388.69
614.865	400.69
615.072	392.69
615.28	417.69
615.488	405.69
615.695	408.69
615.903	384.69
616.111	386.69
616.318	401.69
616.526	397.69
616.733	395.69
616.941	396.69
617.148	383.69
617.356	387.69
617.563	393.69
617.771	381.69
617.978	390.69
618.185	380.69
618.393	388.69
618.6	392.69
618.807	381.69
619.015	361.69
619.222	366.69
619.429	382.69
619.637	389.69
619.844	384.69
620.051	376.69
620.258	374.69
620.466	362.69
620.673	335.69
620.88	358.69
621.087	363.69
621.294	384.69
621.501	374.69
621.708	336.69
621.915	342.69
622.122	360.69
622.329	366.69
622.536	352.69
622.743	350.69
622.95	342.69
623.157	365.69
623.364	363.69
623.571	359.69
623.778	352.69
623.985	353.69
624.192	351.69
624.399	348.69
624.606	365.69
624.812	344.69
625.019	339.69
625.226	351.69
625.433	345.69
625.639	341.69
625.846	338.69
626.053	325.69
626.259	320.69
626.466	319.69
626.673	349.69
626.879	327.69
627.086	319.69
627.293	308.69
627.499	330.69
627.706	333.69
627.912	318.69
628.119	348.69
628.325	346.69
628.532	327.69
628.738	335.69
628.945	317.69
629.151	326.69
629.357	316.69
629.564	320.69
629.77	318.69
629.976	309.69
630.183	327.69
630.389	311.69
630.595	322.69
630.802	308.69
631.008	315.69
631.214	312.69
631.42	308.69
631.627	320.69
631.833	326.69
632.039	306.69
632.245	328.69
632.451	312.69
632.657	302.69
632.863	295.69
633.069	315.69
633.275	308.69
633.481	312.69
633.688	304.69
633.893	290.69
634.099	283.69
634.305	312.69
634.511	324.69
634.717	321.69
634.923	310.69
635.129	336.69
635.335	360.69
635.541	335.69
635.747	316.69
635.952	328.69
636.158	298.69
636.364	315.69
636.57	292.69
636.775	308.69
636.981	310.69
637.187	286.69
637.392	276.69
637.598	295.69
637.804	298.69
638.009	313.69
638.215	290.69
638.421	306.69
638.626	303.69
638.832	299.69
639.037	318.69
639.243	308.69
639.448	324.69
639.654	300.69
639.859	332.69
640.065	326.69
640.27	325.69
640.475	340.69
640.681	301.69
640.886	306.69
641.091	324.69
641.297	328.69
641.502	337.69
641.707	319.69
641.913	340.69
642.118	357.69
642.323	311.69
642.528	338.69
642.733	343.69
642.939	358.69
643.144	335.69
643.349	360.69
643.554	363.69
643.759	380.69
643.964	390.69
644.169	418.69
644.374	418.69
644.579	470.69
644.784	503.69
644.989	550.69
645.194	584.69
645.399	682.69
645.604	692.69
645.809	562.69
646.014	471.69
646.219	420.69
646.423	391.69
646.628	359.69
646.833	359.69
647.038	341.69
647.243	324.69
647.447	303.69
647.652	331.69
647.857	310.69
648.062	299.69
648.266	292.69
648.471	288.69
648.676	275.69
648.88	292.69
649.085	282.69
649.289	291.69
649.494	279.69
649.698	272.69
649.903	273.69
650.107	263.69
650.312	258.69
650.516	260.69
650.721	265.69
650.925	257.69
651.13	251.69
651.334	234.69
651.539	226.69
651.743	218.69
651.947	232.69
652.152	227.69
652.356	236.69
652.56	240.69
652.764	261.69
652.969	263.69
653.173	232.69
653.377	218.69
653.581	211.69
653.785	228.69
653.99	221.69
654.194	229.69
654.398	223.69
654.602	212.69
654.806	204.69
655.01	202.69
655.214	212.69
655.418	200.69
655.622	215.69
655.826	209.69
656.03	221.69
656.234	230.69
656.438	227.69
656.642	224.69
656.846	224.69
657.049	219.69
657.253	205.69
657.457	198.69
657.661	179.69
657.865	169.69
658.068	159.69
658.272	157.69
658.476	157.69
658.68	151.69
658.883	170.69
659.087	157.69
659.291	141.69
659.494	134.69
659.698	136.69
659.901	133.69
660.105	120.69
660.309	129.69
660.512	117.69
660.716	113.69
660.919	119.69
661.123	120.69
661.326	97.69
661.53	103.69
661.733	108.69
661.936	108.69
662.14	95.69
662.343	104.69
662.546	105.69
662.75	107.69
662.953	100.69
663.156	94.69
663.36	100.69
663.563	88.69
663.766	83.69
663.969	86.69
664.173	87.69
664.376	98.69
664.579	99.69
664.782	93.69
664.985	78.69
665.188	96.69
665.391	83.69
665.594	83.69
665.797	80.69
666	92.69
666.203	91.69
666.406	96.69
666.609	84.69
666.812	86.69
667.015	84.69
667.218	102.69
667.421	95.69
667.624	72.69
667.827	100.69
668.03	86.69
668.232	97.69
668.435	101.69
668.638	90.69
668.841	88.69
669.043	92.69
669.246	83.69
669.449	80.69
669.651	79.69
669.854	70.69
670.057	90.69
670.259	86.69
670.462	77.69
670.665	89.69
670.867	95.69
671.07	76.69
671.272	80.69
671.475	92.69
671.677	83.69
671.88	80.69
672.082	90.69
672.284	82.69
672.487	92.69
672.689	94.69
672.892	72.69
