Data from SnStandardFlinnAPT0064_QswitchEnergy10_LIBS07252019.E.O._I.C._HRD10591_15-28-08-974.txt Node
Date: Thu Jul 25 15:28:08 EDT 2019
User: cochatt
Spectrometer: HR+D1059
Trigger mode: 1
Integration Time (sec): 1.000000E-1
Scans to average: 1
Electric dark correction enabled: true
Nonlinearity correction enabled: false
Boxcar width: 0
XAxis mode: Wavelengths
Number of Pixels in Spectrum: 2048
>>>>>Begin Spectral Data<<<<<
223.165	-15.31
223.4	-15.31
223.635	-15.31
223.869	-20.31
224.104	-10.31
224.338	-17.31
224.573	-9.31
224.808	-24.31
225.042	-10.31
225.277	-11.31
225.511	-2.31
225.746	-5.31
225.98	3.69
226.215	17.69
226.449	17.69
226.683	24.69
226.918	28.69
227.152	33.69
227.387	42.69
227.621	38.69
227.856	43.69
228.09	52.69
228.324	65.69
228.559	50.69
228.793	71.69
229.027	60.69
229.262	73.69
229.496	63.69
229.73	54.69
229.964	63.69
230.199	65.69
230.433	75.69
230.667	62.69
230.901	93.69
231.136	79.69
231.37	84.69
231.604	87.69
231.838	104.69
232.072	115.69
232.306	120.69
232.541	98.69
232.775	94.69
233.009	85.69
233.243	91.69
233.477	90.69
233.711	106.69
233.945	87.69
234.179	98.69
234.413	81.69
234.647	92.69
234.881	78.69
235.115	87.69
235.349	94.69
235.583	109.69
235.817	133.69
236.051	143.69
236.285	88.69
236.519	77.69
236.753	91.69
236.987	80.69
237.221	80.69
237.455	84.69
237.689	69.69
237.922	77.69
238.156	83.69
238.39	77.69
238.624	84.69
238.858	93.69
239.091	72.69
239.325	84.69
239.559	78.69
239.793	72.69
240.027	81.69
240.26	73.69
240.494	77.69
240.728	91.69
240.961	77.69
241.195	88.69
241.429	100.69
241.662	95.69
241.896	90.69
242.13	91.69
242.363	133.69
242.597	162.69
242.83	136.69
243.064	149.69
243.298	184.69
243.531	152.69
243.765	103.69
243.998	92.69
244.232	81.69
244.465	89.69
244.699	96.69
244.932	87.69
245.166	90.69
245.399	89.69
245.633	102.69
245.866	84.69
246.099	91.69
246.333	79.69
246.566	77.69
246.8	77.69
247.033	87.69
247.266	81.69
247.5	70.69
247.733	93.69
247.966	89.69
248.2	93.69
248.433	108.69
248.666	113.69
248.899	114.69
249.133	98.69
249.366	107.69
249.599	119.69
249.832	140.69
250.066	139.69
250.299	98.69
250.532	72.69
250.765	94.69
250.998	83.69
251.231	89.69
251.465	94.69
251.698	84.69
251.931	90.69
252.164	90.69
252.397	92.69
252.63	93.69
252.863	95.69
253.096	111.69
253.329	117.69
253.562	109.69
253.795	95.69
254.028	101.69
254.261	92.69
254.494	87.69
254.727	97.69
254.96	133.69
255.193	138.69
255.426	91.69
255.659	85.69
255.892	102.69
256.124	93.69
256.357	101.69
256.59	104.69
256.823	90.69
257.056	104.69
257.289	141.69
257.521	181.69
257.754	128.69
257.987	101.69
258.22	92.69
258.452	94.69
258.685	77.69
258.918	89.69
259.151	114.69
259.383	107.69
259.616	147.69
259.849	150.69
260.081	111.69
260.314	80.69
260.547	76.69
260.779	96.69
261.012	71.69
261.244	85.69
261.477	77.69
261.71	103.69
261.942	88.69
262.175	105.69
262.407	95.69
262.64	75.69
262.872	84.69
263.105	90.69
263.337	94.69
263.57	72.69
263.802	96.69
264.035	83.69
264.267	87.69
264.499	85.69
264.732	87.69
264.964	81.69
265.197	86.69
265.429	87.69
265.661	88.69
265.894	96.69
266.126	121.69
266.358	168.69
266.591	158.69
266.823	95.69
267.055	95.69
267.287	88.69
267.52	94.69
267.752	87.69
267.984	85.69
268.216	76.69
268.448	97.69
268.681	95.69
268.913	75.69
269.145	100.69
269.377	76.69
269.609	89.69
269.841	115.69
270.073	125.69
270.306	134.69
270.538	205.69
270.77	329.69
271.002	389.69
271.234	193.69
271.466	102.69
271.698	96.69
271.93	85.69
272.162	87.69
272.394	85.69
272.626	95.69
272.858	81.69
273.09	81.69
273.322	93.69
273.553	79.69
273.785	101.69
274.017	95.69
274.249	81.69
274.481	89.69
274.713	85.69
274.945	99.69
275.176	97.69
275.408	107.69
275.64	90.69
275.872	88.69
276.104	91.69
276.335	99.69
276.567	94.69
276.799	89.69
277.031	96.69
277.262	102.69
277.494	103.69
277.726	130.69
277.957	184.69
278.189	256.69
278.421	239.69
278.652	193.69
278.884	203.69
279.115	140.69
279.347	104.69
279.579	92.69
279.81	90.69
280.042	83.69
280.273	108.69
280.505	90.69
280.736	93.69
280.968	123.69
281.199	173.69
281.431	249.69
281.662	288.69
281.894	160.69
282.125	107.69
282.356	125.69
282.588	117.69
282.819	118.69
283.051	129.69
283.282	135.69
283.513	218.69
283.745	307.69
283.976	547.69
284.207	827.69
284.439	604.69
284.67	263.69
284.901	246.69
285.132	341.69
285.364	378.69
285.595	223.69
285.826	185.69
286.057	253.69
286.288	409.69
286.52	612.69
286.751	515.69
286.982	199.69
287.213	126.69
287.444	111.69
287.675	103.69
287.906	103.69
288.138	107.69
288.369	96.69
288.6	91.69
288.831	105.69
289.062	99.69
289.293	106.69
289.524	92.69
289.755	78.69
289.986	88.69
290.217	93.69
290.448	93.69
290.679	127.69
290.91	131.69
291.141	157.69
291.371	238.69
291.602	299.69
291.833	207.69
292.064	118.69
292.295	104.69
292.526	101.69
292.757	98.69
292.987	96.69
293.218	89.69
293.449	100.69
293.68	111.69
293.91	97.69
294.141	93.69
294.372	97.69
294.603	97.69
294.833	105.69
295.064	94.69
295.295	90.69
295.525	103.69
295.756	116.69
295.987	99.69
296.217	83.69
296.448	98.69
296.679	109.69
296.909	108.69
297.14	101.69
297.37	99.69
297.601	92.69
297.831	105.69
298.062	104.69
298.292	87.69
298.523	110.69
298.753	87.69
298.984	104.69
299.214	116.69
299.445	97.69
299.675	118.69
299.905	127.69
300.136	151.69
300.366	163.69
300.597	257.69
300.827	459.69
301.057	683.69
301.288	643.69
301.518	263.69
301.748	151.69
301.979	122.69
302.209	135.69
302.439	143.69
302.669	164.69
302.9	281.69
303.13	514.69
303.36	915.69
303.59	1277.69
303.82	839.69
304.051	306.69
304.281	153.69
304.511	131.69
304.741	119.69
304.971	113.69
305.201	106.69
305.431	123.69
305.661	99.69
305.891	106.69
306.121	110.69
306.352	107.69
306.582	97.69
306.812	110.69
307.042	119.69
307.272	106.69
307.502	104.69
307.731	101.69
307.961	97.69
308.191	102.69
308.421	101.69
308.651	99.69
308.881	111.69
309.111	112.69
309.341	111.69
309.571	113.69
309.8	113.69
310.03	85.69
310.26	99.69
310.49	111.69
310.72	100.69
310.949	118.69
311.179	107.69
311.409	108.69
311.639	110.69
311.868	103.69
312.098	99.69
312.328	105.69
312.557	117.69
312.787	127.69
313.017	115.69
313.246	131.69
313.476	116.69
313.706	123.69
313.935	157.69
314.165	199.69
314.394	239.69
314.624	194.69
314.853	146.69
315.083	130.69
315.312	129.69
315.542	135.69
315.771	120.69
316.001	131.69
316.23	143.69
316.46	153.69
316.689	190.69
316.919	243.69
317.148	501.69
317.377	932.69
317.607	1525.69
317.836	1401.69
318.065	543.69
318.295	234.69
318.524	165.69
318.753	143.69
318.983	127.69
319.212	103.69
319.441	124.69
319.67	128.69
319.9	116.69
320.129	119.69
320.358	120.69
320.587	135.69
320.816	131.69
321.046	113.69
321.275	130.69
321.504	135.69
321.733	143.69
321.962	174.69
322.191	156.69
322.42	135.69
322.649	123.69
322.878	114.69
323.108	112.69
323.337	123.69
323.566	125.69
323.795	131.69
324.024	155.69
324.253	145.69
324.482	195.69
324.71	230.69
324.939	312.69
325.168	264.69
325.397	208.69
325.626	248.69
325.855	486.69
326.084	923.69
326.313	1654.69
326.542	1605.69
326.77	634.69
326.999	271.69
327.228	219.69
327.457	260.69
327.686	263.69
327.914	164.69
328.143	131.69
328.372	141.69
328.6	130.69
328.829	120.69
329.058	117.69
329.287	131.69
329.515	123.69
329.744	127.69
329.972	116.69
330.201	107.69
330.43	113.69
330.658	119.69
330.887	122.69
331.115	121.69
331.344	115.69
331.572	120.69
331.801	122.69
332.03	120.69
332.258	133.69
332.486	193.69
332.715	271.69
332.943	509.69
333.172	787.69
333.4	674.69
333.629	259.69
333.857	159.69
334.085	122.69
334.314	120.69
334.542	130.69
334.771	127.69
334.999	121.69
335.227	127.69
335.455	140.69
335.684	140.69
335.912	111.69
336.14	113.69
336.369	129.69
336.597	113.69
336.825	126.69
337.053	116.69
337.281	121.69
337.51	107.69
337.738	115.69
337.966	111.69
338.194	106.69
338.422	104.69
338.65	115.69
338.878	125.69
339.106	119.69
339.334	143.69
339.562	123.69
339.79	126.69
340.018	114.69
340.246	115.69
340.474	97.69
340.702	115.69
340.93	108.69
341.158	107.69
341.386	132.69
341.614	129.69
341.842	125.69
342.07	115.69
342.298	124.69
342.526	91.69
342.754	112.69
342.981	120.69
343.209	119.69
343.437	108.69
343.665	106.69
343.893	100.69
344.12	125.69
344.348	117.69
344.576	123.69
344.804	114.69
345.031	115.69
345.259	120.69
345.487	123.69
345.714	128.69
345.942	109.69
346.17	121.69
346.397	113.69
346.625	103.69
346.853	111.69
347.08	89.69
347.308	121.69
347.535	113.69
347.763	97.69
347.99	87.69
348.218	115.69
348.445	104.69
348.673	106.69
348.9	102.69
349.128	119.69
349.355	116.69
349.583	123.69
349.81	117.69
350.037	113.69
350.265	121.69
350.492	109.69
350.72	102.69
350.947	105.69
351.174	124.69
351.402	99.69
351.629	119.69
351.856	125.69
352.083	113.69
352.311	131.69
352.538	127.69
352.765	115.69
352.992	118.69
353.22	120.69
353.447	104.69
353.674	104.69
353.901	116.69
354.128	127.69
354.355	92.69
354.583	103.69
354.81	90.69
355.037	102.69
355.264	90.69
355.491	103.69
355.718	106.69
355.945	127.69
356.172	112.69
356.399	114.69
356.626	104.69
356.853	113.69
357.08	119.69
357.307	113.69
357.534	100.69
357.761	104.69
357.988	122.69
358.215	113.69
358.441	117.69
358.668	123.69
358.895	123.69
359.122	119.69
359.349	133.69
359.576	120.69
359.802	121.69
360.029	117.69
360.256	120.69
360.483	102.69
360.709	104.69
360.936	113.69
361.163	103.69
361.39	105.69
361.616	123.69
361.843	108.69
362.07	115.69
362.296	119.69
362.523	89.69
362.749	111.69
362.976	111.69
363.203	119.69
363.429	111.69
363.656	116.69
363.882	118.69
364.109	122.69
364.335	100.69
364.562	99.69
364.788	112.69
365.015	98.69
365.241	145.69
365.468	201.69
365.694	276.69
365.92	234.69
366.147	117.69
366.373	109.69
366.599	106.69
366.826	101.69
367.052	98.69
367.278	106.69
367.505	96.69
367.731	88.69
367.957	91.69
368.184	125.69
368.41	143.69
368.636	135.69
368.862	127.69
369.089	89.69
369.315	92.69
369.541	102.69
369.767	107.69
369.993	98.69
370.219	123.69
370.445	113.69
370.672	112.69
370.898	113.69
371.124	111.69
371.35	120.69
371.576	111.69
371.802	99.69
372.028	103.69
372.254	106.69
372.48	117.69
372.706	102.69
372.932	115.69
373.158	114.69
373.384	121.69
373.61	119.69
373.835	127.69
374.061	117.69
374.287	117.69
374.513	118.69
374.739	132.69
374.965	105.69
375.191	113.69
375.416	114.69
375.642	108.69
375.868	106.69
376.094	115.69
376.319	100.69
376.545	112.69
376.771	97.69
376.997	106.69
377.222	115.69
377.448	116.69
377.674	121.69
377.899	107.69
378.125	104.69
378.35	104.69
378.576	114.69
378.802	102.69
379.027	131.69
379.253	127.69
379.478	163.69
379.704	322.69
379.929	782.69
380.155	1604.69
380.38	1681.69
380.606	534.69
380.831	180.69
381.057	142.69
381.282	112.69
381.507	121.69
381.733	127.69
381.958	109.69
382.184	106.69
382.409	103.69
382.634	100.69
382.86	103.69
383.085	107.69
383.31	107.69
383.535	101.69
383.761	111.69
383.986	123.69
384.211	97.69
384.436	113.69
384.662	112.69
384.887	96.69
385.112	117.69
385.337	103.69
385.562	105.69
385.787	108.69
386.013	99.69
386.238	101.69
386.463	96.69
386.688	121.69
386.913	109.69
387.138	117.69
387.363	120.69
387.588	108.69
387.813	101.69
388.038	110.69
388.263	115.69
388.488	106.69
388.713	106.69
388.938	111.69
389.163	100.69
389.387	103.69
389.612	101.69
389.837	108.69
390.062	112.69
390.287	100.69
390.512	94.69
390.736	102.69
390.961	99.69
391.186	109.69
391.411	101.69
391.636	89.69
391.86	101.69
392.085	105.69
392.31	106.69
392.534	116.69
392.759	108.69
392.984	96.69
393.208	121.69
393.433	132.69
393.658	140.69
393.882	120.69
394.107	123.69
394.331	115.69
394.556	100.69
394.78	105.69
395.005	97.69
395.229	98.69
395.454	104.69
395.678	104.69
395.903	128.69
396.127	111.69
396.352	105.69
396.576	111.69
396.801	111.69
397.025	134.69
397.249	92.69
397.474	103.69
397.698	101.69
397.922	97.69
398.147	96.69
398.371	108.69
398.595	97.69
398.82	93.69
399.044	100.69
399.268	104.69
399.492	111.69
399.717	99.69
399.941	112.69
400.165	94.69
400.389	107.69
400.613	92.69
400.837	97.69
401.062	89.69
401.286	99.69
401.51	116.69
401.734	95.69
401.958	91.69
402.182	105.69
402.406	99.69
402.63	86.69
402.854	99.69
403.078	92.69
403.302	106.69
403.526	102.69
403.75	115.69
403.974	89.69
404.198	107.69
404.422	100.69
404.645	101.69
404.869	113.69
405.093	106.69
405.317	100.69
405.541	116.69
405.765	139.69
405.988	155.69
406.212	122.69
406.436	115.69
406.66	94.69
406.883	99.69
407.107	85.69
407.331	113.69
407.555	105.69
407.778	101.69
408.002	95.69
408.226	108.69
408.449	98.69
408.673	89.69
408.896	99.69
409.12	95.69
409.344	104.69
409.567	98.69
409.791	90.69
410.014	104.69
410.238	106.69
410.461	100.69
410.685	96.69
410.908	103.69
411.132	114.69
411.355	105.69
411.578	113.69
411.802	106.69
412.025	104.69
412.249	108.69
412.472	107.69
412.695	103.69
412.919	100.69
413.142	106.69
413.365	103.69
413.589	92.69
413.812	93.69
414.035	119.69
414.258	101.69
414.482	99.69
414.705	104.69
414.928	109.69
415.151	96.69
415.374	106.69
415.597	115.69
415.821	94.69
416.044	88.69
416.267	108.69
416.49	103.69
416.713	96.69
416.936	97.69
417.159	100.69
417.382	89.69
417.605	96.69
417.828	95.69
418.051	89.69
418.274	114.69
418.497	107.69
418.72	98.69
418.943	107.69
419.166	97.69
419.389	108.69
419.611	106.69
419.834	104.69
420.057	92.69
420.28	94.69
420.503	112.69
420.726	98.69
420.948	106.69
421.171	93.69
421.394	91.69
421.617	91.69
421.839	88.69
422.062	106.69
422.285	96.69
422.507	91.69
422.73	131.69
422.953	124.69
423.175	100.69
423.398	99.69
423.621	95.69
423.843	107.69
424.066	98.69
424.288	83.69
424.511	90.69
424.733	100.69
424.956	94.69
425.178	97.69
425.401	77.69
425.623	86.69
425.846	97.69
426.068	106.69
426.291	92.69
426.513	90.69
426.735	93.69
426.958	95.69
427.18	90.69
427.402	112.69
427.625	103.69
427.847	98.69
428.069	99.69
428.292	107.69
428.514	106.69
428.736	104.69
428.958	99.69
429.181	91.69
429.403	91.69
429.625	98.69
429.847	102.69
430.069	108.69
430.292	124.69
430.514	103.69
430.736	102.69
430.958	87.69
431.18	103.69
431.402	92.69
431.624	96.69
431.846	103.69
432.068	87.69
432.29	91.69
432.512	79.69
432.734	96.69
432.956	104.69
433.178	118.69
433.4	125.69
433.622	105.69
433.844	98.69
434.066	99.69
434.287	92.69
434.509	95.69
434.731	98.69
434.953	97.69
435.175	103.69
435.397	97.69
435.618	99.69
435.84	97.69
436.062	101.69
436.284	78.69
436.505	85.69
436.727	101.69
436.949	91.69
437.17	108.69
437.392	93.69
437.614	92.69
437.835	97.69
438.057	90.69
438.278	95.69
438.5	95.69
438.721	104.69
438.943	114.69
439.165	131.69
439.386	106.69
439.608	96.69
439.829	103.69
440.05	111.69
440.272	107.69
440.493	113.69
440.715	97.69
440.936	99.69
441.158	86.69
441.379	89.69
441.6	84.69
441.822	110.69
442.043	109.69
442.264	135.69
442.486	131.69
442.707	102.69
442.928	97.69
443.149	90.69
443.371	97.69
443.592	91.69
443.813	106.69
444.034	99.69
444.255	98.69
444.476	102.69
444.698	92.69
444.919	103.69
445.14	191.69
445.361	156.69
445.582	101.69
445.803	95.69
446.024	98.69
446.245	90.69
446.466	108.69
446.687	98.69
446.908	100.69
447.129	101.69
447.35	83.69
447.571	95.69
447.792	99.69
448.013	101.69
448.234	91.69
448.455	101.69
448.675	102.69
448.896	95.69
449.117	108.69
449.338	140.69
449.559	141.69
449.779	114.69
450	98.69
450.221	119.69
450.442	115.69
450.662	115.69
450.883	116.69
451.104	122.69
451.324	131.69
451.545	123.69
451.766	126.69
451.986	132.69
452.207	217.69
452.428	575.69
452.648	1395.69
452.869	776.69
453.089	195.69
453.31	121.69
453.53	117.69
453.751	131.69
453.971	175.69
454.192	141.69
454.412	118.69
454.633	101.69
454.853	103.69
455.073	100.69
455.294	97.69
455.514	102.69
455.734	105.69
455.955	101.69
456.175	104.69
456.395	90.69
456.616	102.69
456.836	105.69
457.056	111.69
457.276	98.69
457.497	97.69
457.717	129.69
457.937	107.69
458.157	91.69
458.377	92.69
458.598	83.69
458.818	105.69
459.038	92.69
459.258	91.69
459.478	87.69
459.698	88.69
459.918	90.69
460.138	86.69
460.358	91.69
460.578	96.69
460.798	83.69
461.018	95.69
461.238	108.69
461.458	91.69
461.678	91.69
461.898	106.69
462.118	109.69
462.338	92.69
462.558	90.69
462.777	95.69
462.997	100.69
463.217	97.69
463.437	118.69
463.657	195.69
463.876	171.69
464.096	121.69
464.316	109.69
464.536	95.69
464.755	107.69
464.975	95.69
465.195	100.69
465.414	96.69
465.634	92.69
465.854	86.69
466.073	88.69
466.293	106.69
466.512	92.69
466.732	101.69
466.951	125.69
467.171	145.69
467.391	152.69
467.61	96.69
467.829	102.69
468.049	117.69
468.268	105.69
468.488	95.69
468.707	105.69
468.927	105.69
469.146	113.69
469.365	104.69
469.585	85.69
469.804	108.69
470.023	92.69
470.243	106.69
470.462	109.69
470.681	103.69
470.901	120.69
471.12	186.69
471.339	215.69
471.558	137.69
471.777	101.69
471.997	91.69
472.216	89.69
472.435	103.69
472.654	98.69
472.873	86.69
473.092	99.69
473.311	108.69
473.53	104.69
473.749	100.69
473.968	95.69
474.187	105.69
474.406	100.69
474.625	98.69
474.844	89.69
475.063	93.69
475.282	99.69
475.501	84.69
475.72	101.69
475.939	83.69
476.158	101.69
476.377	120.69
476.596	101.69
476.814	107.69
477.033	103.69
477.252	88.69
477.471	88.69
477.69	103.69
477.908	104.69
478.127	88.69
478.346	102.69
478.564	107.69
478.783	90.69
479.002	108.69
479.22	102.69
479.439	113.69
479.658	95.69
479.876	98.69
480.095	106.69
480.313	100.69
480.532	108.69
480.751	101.69
480.969	86.69
481.188	85.69
481.406	84.69
481.624	101.69
481.843	124.69
482.061	113.69
482.28	81.69
482.498	97.69
482.717	93.69
482.935	87.69
483.153	121.69
483.372	93.69
483.59	105.69
483.808	99.69
484.027	121.69
484.245	125.69
484.463	183.69
484.681	232.69
484.9	140.69
485.118	100.69
485.336	95.69
485.554	123.69
485.772	134.69
485.99	199.69
486.209	259.69
486.427	167.69
486.645	121.69
486.863	112.69
487.081	97.69
487.299	103.69
487.517	98.69
487.735	96.69
487.953	110.69
488.171	108.69
488.389	106.69
488.607	95.69
488.825	87.69
489.043	100.69
489.261	100.69
489.479	99.69
489.696	101.69
489.914	114.69
490.132	118.69
490.35	109.69
490.568	101.69
490.786	97.69
491.003	119.69
491.221	113.69
491.439	111.69
491.657	94.69
491.874	106.69
492.092	103.69
492.31	119.69
492.527	117.69
492.745	103.69
492.963	113.69
493.18	109.69
493.398	103.69
493.615	102.69
493.833	102.69
494.05	100.69
494.268	106.69
494.485	111.69
494.703	103.69
494.92	95.69
495.138	108.69
495.355	104.69
495.573	115.69
495.79	111.69
496.008	98.69
496.225	105.69
496.442	116.69
496.66	115.69
496.877	160.69
497.094	163.69
497.312	113.69
497.529	104.69
497.746	113.69
497.963	105.69
498.181	107.69
498.398	112.69
498.615	101.69
498.832	90.69
499.049	90.69
499.267	138.69
499.484	161.69
499.701	123.69
499.918	112.69
500.135	114.69
500.352	93.69
500.569	96.69
500.786	101.69
501.003	92.69
501.22	105.69
501.437	98.69
501.654	95.69
501.871	95.69
502.088	95.69
502.305	96.69
502.522	104.69
502.739	105.69
502.956	100.69
503.172	112.69
503.389	106.69
503.606	98.69
503.823	111.69
504.04	100.69
504.256	107.69
504.473	97.69
504.69	103.69
504.907	112.69
505.123	125.69
505.34	97.69
505.557	102.69
505.773	107.69
505.99	94.69
506.207	96.69
506.423	107.69
506.64	98.69
506.856	111.69
507.073	102.69
507.289	110.69
507.506	112.69
507.722	102.69
507.939	85.69
508.155	95.69
508.372	100.69
508.588	103.69
508.805	94.69
509.021	96.69
509.238	99.69
509.454	142.69
509.67	162.69
509.887	115.69
510.103	106.69
510.319	100.69
510.536	104.69
510.752	128.69
510.968	90.69
511.184	99.69
511.401	93.69
511.617	97.69
511.833	103.69
512.049	103.69
512.265	86.69
512.481	94.69
512.698	93.69
512.914	104.69
513.13	105.69
513.346	96.69
513.562	84.69
513.778	101.69
513.994	99.69
514.21	116.69
514.426	137.69
514.642	193.69
514.858	113.69
515.074	102.69
515.29	100.69
515.506	114.69
515.721	108.69
515.937	107.69
516.153	100.69
516.369	106.69
516.585	104.69
516.801	99.69
517.016	75.69
517.232	99.69
517.448	104.69
517.664	112.69
517.879	103.69
518.095	107.69
518.311	102.69
518.527	101.69
518.742	100.69
518.958	123.69
519.173	144.69
519.389	129.69
519.605	98.69
519.82	91.69
520.036	94.69
520.251	91.69
520.467	103.69
520.682	103.69
520.898	100.69
521.113	87.69
521.329	93.69
521.544	93.69
521.76	100.69
521.975	117.69
522.19	117.69
522.406	99.69
522.621	87.69
522.836	88.69
523.052	96.69
523.267	109.69
523.482	88.69
523.698	98.69
523.913	95.69
524.128	95.69
524.343	92.69
524.559	96.69
524.774	90.69
524.989	115.69
525.204	109.69
525.419	96.69
525.634	91.69
525.849	105.69
526.064	87.69
526.28	111.69
526.495	97.69
526.71	90.69
526.925	101.69
527.14	96.69
527.355	102.69
527.57	112.69
527.785	112.69
527.999	103.69
528.214	104.69
528.429	100.69
528.644	96.69
528.859	105.69
529.074	96.69
529.289	87.69
529.503	97.69
529.718	89.69
529.933	99.69
530.148	97.69
530.363	100.69
530.577	92.69
530.792	91.69
531.007	99.69
531.221	112.69
531.436	107.69
531.651	103.69
531.865	109.69
532.08	97.69
532.295	116.69
532.509	136.69
532.724	118.69
532.938	107.69
533.153	101.69
533.367	104.69
533.582	96.69
533.796	97.69
534.011	95.69
534.225	95.69
534.44	97.69
534.654	117.69
534.868	92.69
535.083	98.69
535.297	97.69
535.511	102.69
535.726	102.69
535.94	101.69
536.154	103.69
536.369	96.69
536.583	99.69
536.797	99.69
537.011	99.69
537.225	98.69
537.44	94.69
537.654	98.69
537.868	94.69
538.082	100.69
538.296	100.69
538.51	102.69
538.724	94.69
538.938	109.69
539.153	99.69
539.367	90.69
539.581	102.69
539.795	97.69
540.009	100.69
540.222	92.69
540.436	104.69
540.65	94.69
540.864	115.69
541.078	117.69
541.292	128.69
541.506	215.69
541.72	195.69
541.934	135.69
542.147	105.69
542.361	113.69
542.575	113.69
542.789	113.69
543.002	93.69
543.216	101.69
543.43	92.69
543.644	102.69
543.857	100.69
544.071	103.69
544.285	121.69
544.498	101.69
544.712	87.69
544.925	101.69
545.139	104.69
545.352	95.69
545.566	106.69
545.779	99.69
545.993	98.69
546.206	103.69
546.42	101.69
546.633	90.69
546.847	92.69
547.06	95.69
547.274	115.69
547.487	104.69
547.7	90.69
547.914	105.69
548.127	94.69
548.34	118.69
548.554	102.69
548.767	101.69
548.98	102.69
549.193	92.69
549.407	95.69
549.62	104.69
549.833	107.69
550.046	92.69
550.259	95.69
550.473	101.69
550.686	104.69
550.899	97.69
551.112	107.69
551.325	101.69
551.538	96.69
551.751	105.69
551.964	93.69
552.177	96.69
552.39	109.69
552.603	109.69
552.816	96.69
553.029	90.69
553.242	101.69
553.455	106.69
553.667	115.69
553.88	103.69
554.093	103.69
554.306	105.69
554.519	97.69
554.732	102.69
554.944	102.69
555.157	102.69
555.37	95.69
555.583	108.69
555.795	103.69
556.008	120.69
556.221	149.69
556.433	133.69
556.646	121.69
556.859	99.69
557.071	113.69
557.284	131.69
557.496	115.69
557.709	101.69
557.921	106.69
558.134	104.69
558.346	97.69
558.559	95.69
558.771	93.69
558.984	95.69
559.196	104.69
559.409	103.69
559.621	101.69
559.833	93.69
560.046	105.69
560.258	100.69
560.47	105.69
560.683	103.69
560.895	91.69
561.107	99.69
561.32	102.69
561.532	102.69
561.744	105.69
561.956	103.69
562.168	114.69
562.381	108.69
562.593	111.69
562.805	139.69
563.017	163.69
563.229	268.69
563.441	616.69
563.653	220.69
563.865	107.69
564.077	115.69
564.289	84.69
564.501	113.69
564.713	103.69
564.925	124.69
565.137	102.69
565.349	106.69
565.561	95.69
565.773	102.69
565.985	99.69
566.197	96.69
566.408	88.69
566.62	92.69
566.832	83.69
567.044	97.69
567.255	99.69
567.467	98.69
567.679	118.69
567.891	113.69
568.102	173.69
568.314	245.69
568.526	151.69
568.737	116.69
568.949	100.69
569.161	95.69
569.372	95.69
569.584	108.69
569.795	106.69
570.007	106.69
570.218	129.69
570.43	169.69
570.641	119.69
570.853	100.69
571.064	93.69
571.276	95.69
571.487	96.69
571.698	96.69
571.91	101.69
572.121	88.69
572.333	98.69
572.544	97.69
572.755	129.69
572.966	200.69
573.178	156.69
573.389	115.69
573.6	105.69
573.811	111.69
574.023	116.69
574.234	86.69
574.445	93.69
574.656	95.69
574.867	91.69
575.078	86.69
575.289	103.69
575.501	105.69
575.712	111.69
575.923	109.69
576.134	104.69
576.345	92.69
576.556	99.69
576.767	78.69
576.978	90.69
577.188	101.69
577.399	97.69
577.61	99.69
577.821	90.69
578.032	89.69
578.243	89.69
578.454	103.69
578.665	83.69
578.875	87.69
579.086	86.69
579.297	93.69
579.508	98.69
579.718	88.69
579.929	106.69
580.14	94.69
580.35	96.69
580.561	87.69
580.772	87.69
580.982	87.69
581.193	88.69
581.403	88.69
581.614	89.69
581.825	88.69
582.035	94.69
582.246	95.69
582.456	73.69
582.667	96.69
582.877	125.69
583.087	119.69
583.298	106.69
583.508	100.69
583.719	105.69
583.929	98.69
584.139	95.69
584.35	104.69
584.56	113.69
584.77	105.69
584.981	100.69
585.191	93.69
585.401	118.69
585.611	105.69
585.821	90.69
586.032	93.69
586.242	116.69
586.452	87.69
586.662	91.69
586.872	99.69
587.082	96.69
587.292	76.69
587.502	89.69
587.713	92.69
587.923	97.69
588.133	83.69
588.343	82.69
588.553	92.69
588.762	85.69
588.972	99.69
589.182	118.69
589.392	102.69
589.602	99.69
589.812	110.69
590.022	99.69
590.232	89.69
590.441	94.69
590.651	89.69
590.861	83.69
591.071	89.69
591.281	92.69
591.49	95.69
591.7	101.69
591.91	90.69
592.119	85.69
592.329	96.69
592.539	100.69
592.748	98.69
592.958	88.69
593.167	89.69
593.377	84.69
593.587	90.69
593.796	103.69
594.006	105.69
594.215	89.69
594.424	95.69
594.634	110.69
594.843	92.69
595.053	86.69
595.262	97.69
595.472	92.69
595.681	93.69
595.89	82.69
596.1	94.69
596.309	94.69
596.518	82.69
596.727	95.69
596.937	95.69
597.146	80.69
597.355	98.69
597.564	97.69
597.774	101.69
597.983	87.69
598.192	84.69
598.401	96.69
598.61	101.69
598.819	86.69
599.028	81.69
599.237	93.69
599.446	85.69
599.655	85.69
599.864	95.69
600.073	78.69
600.282	94.69
600.491	72.69
600.7	84.69
600.909	77.69
601.118	83.69
601.327	99.69
601.536	109.69
601.745	108.69
601.953	138.69
602.162	153.69
602.371	111.69
602.58	100.69
602.789	97.69
602.997	91.69
603.206	99.69
603.415	87.69
603.623	93.69
603.832	95.69
604.041	99.69
604.249	88.69
604.458	89.69
604.666	93.69
604.875	96.69
605.084	101.69
605.292	94.69
605.501	81.69
605.709	107.69
605.918	98.69
606.126	98.69
606.334	107.69
606.543	107.69
606.751	143.69
606.96	156.69
607.168	181.69
607.376	123.69
607.585	116.69
607.793	112.69
608.001	93.69
608.21	112.69
608.418	97.69
608.626	90.69
608.834	95.69
609.043	89.69
609.251	100.69
609.459	78.69
609.667	93.69
609.875	99.69
610.083	111.69
610.291	95.69
610.499	90.69
610.707	96.69
610.916	92.69
611.124	111.69
611.332	97.69
611.54	92.69
611.748	97.69
611.955	103.69
612.163	99.69
612.371	91.69
612.579	98.69
612.787	86.69
612.995	95.69
613.203	100.69
613.411	84.69
613.618	92.69
613.826	85.69
614.034	81.69
614.242	87.69
614.449	78.69
614.657	102.69
614.865	98.69
615.072	93.69
615.28	120.69
615.488	106.69
615.695	101.69
615.903	102.69
616.111	94.69
616.318	111.69
616.526	92.69
616.733	90.69
616.941	87.69
617.148	90.69
617.356	96.69
617.563	88.69
617.771	89.69
617.978	90.69
618.185	87.69
618.393	107.69
618.6	104.69
618.807	100.69
619.015	104.69
619.222	83.69
619.429	82.69
619.637	99.69
619.844	89.69
620.051	88.69
620.258	100.69
620.466	95.69
620.673	89.69
620.88	95.69
621.087	103.69
621.294	88.69
621.501	90.69
621.708	103.69
621.915	95.69
622.122	100.69
622.329	86.69
622.536	81.69
622.743	86.69
622.95	89.69
623.157	93.69
623.364	76.69
623.571	94.69
623.778	91.69
623.985	92.69
624.192	91.69
624.399	95.69
624.606	80.69
624.812	91.69
625.019	83.69
625.226	112.69
625.433	87.69
625.639	91.69
625.846	97.69
626.053	90.69
626.259	103.69
626.466	105.69
626.673	82.69
626.879	81.69
627.086	106.69
627.293	105.69
627.499	89.69
627.706	88.69
627.912	97.69
628.119	83.69
628.325	92.69
628.532	103.69
628.738	96.69
628.945	89.69
629.151	105.69
629.357	101.69
629.564	97.69
629.77	86.69
629.976	104.69
630.183	98.69
630.389	85.69
630.595	86.69
630.802	103.69
631.008	84.69
631.214	91.69
631.42	108.69
631.627	106.69
631.833	76.69
632.039	89.69
632.245	84.69
632.451	85.69
632.657	87.69
632.863	89.69
633.069	88.69
633.275	92.69
633.481	83.69
633.688	77.69
633.893	105.69
634.099	96.69
634.305	87.69
634.511	80.69
634.717	92.69
634.923	91.69
635.129	122.69
635.335	138.69
635.541	103.69
635.747	87.69
635.952	99.69
636.158	98.69
636.364	88.69
636.57	90.69
636.775	81.69
636.981	103.69
637.187	88.69
637.392	82.69
637.598	99.69
637.804	87.69
638.009	93.69
638.215	106.69
638.421	82.69
638.626	97.69
638.832	86.69
639.037	86.69
639.243	85.69
639.448	97.69
639.654	99.69
639.859	79.69
640.065	92.69
640.27	97.69
640.475	64.69
640.681	91.69
640.886	84.69
641.091	87.69
641.297	81.69
641.502	92.69
641.707	90.69
641.913	97.69
642.118	90.69
642.323	83.69
642.528	90.69
642.733	88.69
642.939	98.69
643.144	87.69
643.349	81.69
643.554	105.69
643.759	90.69
643.964	76.69
644.169	103.69
644.374	88.69
644.579	87.69
644.784	79.69
644.989	95.69
645.194	95.69
645.399	95.69
645.604	110.69
645.809	101.69
646.014	86.69
646.219	78.69
646.423	97.69
646.628	82.69
646.833	92.69
647.038	100.69
647.243	101.69
647.447	85.69
647.652	111.69
647.857	93.69
648.062	73.69
648.266	71.69
648.471	83.69
648.676	85.69
648.88	100.69
649.085	91.69
649.289	97.69
649.494	98.69
649.698	96.69
649.903	89.69
650.107	83.69
650.312	85.69
650.516	73.69
650.721	74.69
650.925	80.69
651.13	88.69
651.334	74.69
651.539	97.69
651.743	80.69
651.947	89.69
652.152	81.69
652.356	84.69
652.56	105.69
652.764	108.69
652.969	105.69
653.173	83.69
653.377	92.69
653.581	95.69
653.785	89.69
653.99	82.69
654.194	91.69
654.398	86.69
654.602	76.69
654.806	93.69
655.01	92.69
655.214	95.69
655.418	68.69
655.622	94.69
655.826	85.69
656.03	92.69
656.234	77.69
656.438	84.69
656.642	81.69
656.846	81.69
657.049	69.69
657.253	92.69
657.457	89.69
657.661	89.69
657.865	86.69
658.068	94.69
658.272	85.69
658.476	83.69
658.68	70.69
658.883	76.69
659.087	73.69
659.291	76.69
659.494	82.69
659.698	81.69
659.901	82.69
660.105	95.69
660.309	66.69
660.512	91.69
660.716	92.69
660.919	87.69
661.123	91.69
661.326	88.69
661.53	91.69
661.733	80.69
661.936	95.69
662.14	83.69
662.343	88.69
662.546	82.69
662.75	73.69
662.953	81.69
663.156	77.69
663.36	79.69
663.563	83.69
663.766	85.69
663.969	84.69
664.173	86.69
664.376	86.69
664.579	94.69
664.782	85.69
664.985	84.69
665.188	93.69
665.391	84.69
665.594	83.69
665.797	87.69
666	91.69
666.203	65.69
666.406	73.69
666.609	88.69
666.812	77.69
667.015	87.69
667.218	80.69
667.421	88.69
667.624	97.69
667.827	89.69
668.03	83.69
668.232	67.69
668.435	80.69
668.638	72.69
668.841	83.69
669.043	83.69
669.246	77.69
669.449	74.69
669.651	71.69
669.854	91.69
670.057	76.69
670.259	84.69
670.462	77.69
670.665	74.69
670.867	91.69
671.07	87.69
671.272	86.69
671.475	90.69
671.677	85.69
671.88	60.69
672.082	77.69
672.284	89.69
672.487	83.69
672.689	76.69
672.892	75.69
