Data from SnStandardFlinnAPT0064_LampEnergy5.5_LIBS07252019.E.O._I.C._HRD10591_15-16-19-491.txt Node
Date: Thu Jul 25 15:16:19 EDT 2019
User: cochatt
Spectrometer: HR+D1059
Trigger mode: 1
Integration Time (sec): 1.000000E-1
Scans to average: 1
Electric dark correction enabled: true
Nonlinearity correction enabled: false
Boxcar width: 0
XAxis mode: Wavelengths
Number of Pixels in Spectrum: 2048
>>>>>Begin Spectral Data<<<<<
223.165	-21.88
223.4	-21.88
223.635	-21.88
223.869	-22.88
224.104	-14.88
224.338	0.12
224.573	-14.88
224.808	-14.88
225.042	-10.88
225.277	-7.88
225.511	0.12
225.746	4.12
225.98	7.12
226.215	3.12
226.449	14.12
226.683	17.12
226.918	24.12
227.152	38.12
227.387	32.12
227.621	40.12
227.856	49.12
228.09	61.12
228.324	52.12
228.559	61.12
228.793	63.12
229.027	133.12
229.262	161.12
229.496	157.12
229.73	162.12
229.964	160.12
230.199	153.12
230.433	167.12
230.667	153.12
230.901	167.12
231.136	166.12
231.37	172.12
231.604	173.12
231.838	203.12
232.072	235.12
232.306	238.12
232.541	221.12
232.775	182.12
233.009	189.12
233.243	194.12
233.477	222.12
233.711	231.12
233.945	264.12
234.179	222.12
234.413	218.12
234.647	205.12
234.881	214.12
235.115	230.12
235.349	261.12
235.583	342.12
235.817	409.12
236.051	403.12
236.285	291.12
236.519	239.12
236.753	220.12
236.987	229.12
237.221	232.12
237.455	219.12
237.689	218.12
237.922	205.12
238.156	209.12
238.39	227.12
238.624	227.12
238.858	229.12
239.091	233.12
239.325	241.12
239.559	224.12
239.793	225.12
240.027	233.12
240.26	253.12
240.494	248.12
240.728	266.12
240.961	273.12
241.195	266.12
241.429	287.12
241.662	315.12
241.896	322.12
242.13	387.12
242.363	513.12
242.597	605.12
242.83	594.12
243.064	615.12
243.298	692.12
243.531	573.12
243.765	370.12
243.998	320.12
244.232	296.12
244.465	299.12
244.699	296.12
244.932	294.12
245.166	302.12
245.399	295.12
245.633	303.12
245.866	294.12
246.099	294.12
246.333	298.12
246.566	282.12
246.8	287.12
247.033	303.12
247.266	274.12
247.5	303.12
247.733	299.12
247.966	293.12
248.2	341.12
248.433	362.12
248.666	390.12
248.899	405.12
249.133	365.12
249.366	348.12
249.599	395.12
249.832	452.12
250.066	425.12
250.299	367.12
250.532	344.12
250.765	333.12
250.998	335.12
251.231	323.12
251.465	314.12
251.698	325.12
251.931	323.12
252.164	316.12
252.397	338.12
252.63	345.12
252.863	362.12
253.096	358.12
253.329	342.12
253.562	356.12
253.795	334.12
254.028	345.12
254.261	361.12
254.494	380.12
254.727	422.12
254.96	496.12
255.193	484.12
255.426	397.12
255.659	367.12
255.892	385.12
256.124	373.12
256.357	395.12
256.59	380.12
256.823	401.12
257.056	453.12
257.289	541.12
257.521	578.12
257.754	465.12
257.987	390.12
258.22	403.12
258.452	407.12
258.685	399.12
258.918	395.12
259.151	416.12
259.383	448.12
259.616	467.12
259.849	502.12
260.081	435.12
260.314	423.12
260.547	405.12
260.779	431.12
261.012	418.12
261.244	433.12
261.477	427.12
261.71	423.12
261.942	441.12
262.175	449.12
262.407	453.12
262.64	456.12
262.872	464.12
263.105	514.12
263.337	536.12
263.57	530.12
263.802	576.12
264.035	561.12
264.267	585.12
264.499	585.12
264.732	604.12
264.964	628.12
265.197	633.12
265.429	612.12
265.661	639.12
265.894	645.12
266.126	739.12
266.358	785.12
266.591	742.12
266.823	681.12
267.055	622.12
267.287	587.12
267.52	571.12
267.752	570.12
267.984	554.12
268.216	543.12
268.448	537.12
268.681	539.12
268.913	528.12
269.145	531.12
269.377	538.12
269.609	557.12
269.841	531.12
270.073	564.12
270.306	673.12
270.538	842.12
270.77	1181.12
271.002	1431.12
271.234	1005.12
271.466	736.12
271.698	595.12
271.93	588.12
272.162	541.12
272.394	540.12
272.626	512.12
272.858	529.12
273.09	511.12
273.322	513.12
273.553	514.12
273.785	527.12
274.017	522.12
274.249	517.12
274.481	521.12
274.713	512.12
274.945	527.12
275.176	504.12
275.408	524.12
275.64	500.12
275.872	515.12
276.104	532.12
276.335	546.12
276.567	550.12
276.799	537.12
277.031	545.12
277.262	542.12
277.494	573.12
277.726	617.12
277.957	703.12
278.189	772.12
278.421	725.12
278.652	670.12
278.884	632.12
279.115	611.12
279.347	597.12
279.579	584.12
279.81	600.12
280.042	574.12
280.273	594.12
280.505	593.12
280.736	599.12
280.968	636.12
281.199	703.12
281.431	727.12
281.662	758.12
281.894	679.12
282.125	651.12
282.356	672.12
282.588	661.12
282.819	655.12
283.051	720.12
283.282	806.12
283.513	964.12
283.745	1362.12
283.976	2122.12
284.207	2971.12
284.439	2603.12
284.67	1589.12
284.901	1335.12
285.132	1282.12
285.364	1239.12
285.595	1011.12
285.826	903.12
286.057	1073.12
286.288	1425.12
286.52	1924.12
286.751	1745.12
286.982	1108.12
287.213	886.12
287.444	776.12
287.675	730.12
287.906	730.12
288.138	701.12
288.369	689.12
288.6	705.12
288.831	690.12
289.062	686.12
289.293	679.12
289.524	704.12
289.755	705.12
289.986	716.12
290.217	709.12
290.448	691.12
290.679	721.12
290.91	705.12
291.141	732.12
291.371	768.12
291.602	757.12
291.833	766.12
292.064	694.12
292.295	687.12
292.526	697.12
292.757	677.12
292.987	665.12
293.218	654.12
293.449	667.12
293.68	645.12
293.91	653.12
294.141	646.12
294.372	639.12
294.603	679.12
294.833	664.12
295.064	642.12
295.295	667.12
295.525	661.12
295.756	661.12
295.987	658.12
296.217	662.12
296.448	662.12
296.679	661.12
296.909	663.12
297.14	648.12
297.37	689.12
297.601	690.12
297.831	665.12
298.062	663.12
298.292	682.12
298.523	694.12
298.753	714.12
298.984	687.12
299.214	671.12
299.445	717.12
299.675	714.12
299.905	737.12
300.136	777.12
300.366	840.12
300.597	1053.12
300.827	1429.12
301.057	1882.12
301.288	1865.12
301.518	1227.12
301.748	965.12
301.979	913.12
302.209	863.12
302.439	897.12
302.669	970.12
302.9	1099.12
303.13	1524.12
303.36	2228.12
303.59	2913.12
303.82	2485.12
304.051	1507.12
304.281	1117.12
304.511	954.12
304.741	889.12
304.971	857.12
305.201	822.12
305.431	802.12
305.661	790.12
305.891	762.12
306.121	788.12
306.352	759.12
306.582	781.12
306.812	744.12
307.042	765.12
307.272	751.12
307.502	741.12
307.731	750.12
307.961	733.12
308.191	742.12
308.421	759.12
308.651	746.12
308.881	742.12
309.111	741.12
309.341	766.12
309.571	753.12
309.8	756.12
310.03	746.12
310.26	793.12
310.49	765.12
310.72	766.12
310.949	755.12
311.179	770.12
311.409	771.12
311.639	791.12
311.868	780.12
312.098	767.12
312.328	792.12
312.557	835.12
312.787	805.12
313.017	817.12
313.246	793.12
313.476	821.12
313.706	867.12
313.935	896.12
314.165	912.12
314.394	932.12
314.624	931.12
314.853	871.12
315.083	879.12
315.312	893.12
315.542	884.12
315.771	904.12
316.001	887.12
316.23	917.12
316.46	938.12
316.689	1041.12
316.919	1223.12
317.148	1738.12
317.377	2641.12
317.607	3818.12
317.836	3891.12
318.065	2333.12
318.295	1520.12
318.524	1258.12
318.753	1119.12
318.983	1073.12
319.212	1020.12
319.441	968.12
319.67	949.12
319.9	958.12
320.129	972.12
320.358	963.12
320.587	944.12
320.816	950.12
321.046	961.12
321.275	972.12
321.504	944.12
321.733	954.12
321.962	1007.12
322.191	997.12
322.42	982.12
322.649	1002.12
322.878	994.12
323.108	957.12
323.337	1010.12
323.566	1020.12
323.795	1025.12
324.024	1049.12
324.253	1070.12
324.482	1105.12
324.71	1168.12
324.939	1217.12
325.168	1242.12
325.397	1320.12
325.626	1508.12
325.855	2078.12
326.084	3178.12
326.313	4650.12
326.542	4915.12
326.77	3197.12
326.999	2133.12
327.228	1786.12
327.457	1725.12
327.686	1749.12
327.914	1875.12
328.143	2081.12
328.372	2406.12
328.6	2631.12
328.829	2388.12
329.058	2150.12
329.287	1953.12
329.515	1742.12
329.744	1646.12
329.972	1579.12
330.201	1535.12
330.43	1437.12
330.658	1408.12
330.887	1398.12
331.115	1380.12
331.344	1384.12
331.572	1380.12
331.801	1360.12
332.03	1381.12
332.258	1429.12
332.486	1460.12
332.715	1614.12
332.943	1965.12
333.172	2295.12
333.4	2313.12
333.629	1836.12
333.857	1730.12
334.085	1700.12
334.314	1839.12
334.542	1901.12
334.771	2219.12
334.999	2659.12
335.227	3141.12
335.455	3494.12
335.684	3291.12
335.912	2810.12
336.14	2461.12
336.369	2163.12
336.597	1995.12
336.825	1855.12
337.053	1759.12
337.281	1617.12
337.51	1573.12
337.738	1517.12
337.966	1451.12
338.194	1415.12
338.422	1372.12
338.65	1313.12
338.878	1315.12
339.106	1326.12
339.334	1295.12
339.562	1281.12
339.79	1191.12
340.018	1224.12
340.246	1225.12
340.474	1184.12
340.702	1208.12
340.93	1226.12
341.158	1224.12
341.386	1213.12
341.614	1215.12
341.842	1178.12
342.07	1146.12
342.298	1154.12
342.526	1121.12
342.754	1087.12
342.981	1108.12
343.209	1113.12
343.437	1140.12
343.665	1160.12
343.893	1148.12
344.12	1174.12
344.348	1133.12
344.576	1098.12
344.804	1142.12
345.031	1102.12
345.259	1114.12
345.487	1070.12
345.714	1081.12
345.942	1035.12
346.17	1054.12
346.397	1039.12
346.625	1029.12
346.853	1031.12
347.08	1024.12
347.308	1042.12
347.535	1030.12
347.763	1043.12
347.99	1055.12
348.218	1004.12
348.445	1033.12
348.673	1023.12
348.9	1030.12
349.128	995.12
349.355	1029.12
349.583	995.12
349.81	996.12
350.037	998.12
350.265	972.12
350.492	1001.12
350.72	1013.12
350.947	1008.12
351.174	1008.12
351.402	1025.12
351.629	1015.12
351.856	997.12
352.083	991.12
352.311	983.12
352.538	982.12
352.765	1015.12
352.992	989.12
353.22	1002.12
353.447	981.12
353.674	1003.12
353.901	979.12
354.128	969.12
354.355	975.12
354.583	984.12
354.81	1014.12
355.037	999.12
355.264	1023.12
355.491	1038.12
355.718	1000.12
355.945	985.12
356.172	1019.12
356.399	1024.12
356.626	1004.12
356.853	1030.12
357.08	1025.12
357.307	1016.12
357.534	1046.12
357.761	1050.12
357.988	1046.12
358.215	1064.12
358.441	1043.12
358.668	1047.12
358.895	1051.12
359.122	1069.12
359.349	1046.12
359.576	1049.12
359.802	1046.12
360.029	1033.12
360.256	1046.12
360.483	1036.12
360.709	1059.12
360.936	1059.12
361.163	1046.12
361.39	1041.12
361.616	1043.12
361.843	1081.12
362.07	1075.12
362.296	1064.12
362.523	1029.12
362.749	1093.12
362.976	1062.12
363.203	1055.12
363.429	1050.12
363.656	1030.12
363.882	1059.12
364.109	1049.12
364.335	1053.12
364.562	1041.12
364.788	1027.12
365.015	1051.12
365.241	1061.12
365.468	1104.12
365.694	1139.12
365.92	1147.12
366.147	1105.12
366.373	1071.12
366.599	1073.12
366.826	1103.12
367.052	1095.12
367.278	1096.12
367.505	1071.12
367.731	1109.12
367.957	1092.12
368.184	1095.12
368.41	1098.12
368.636	1131.12
368.862	1100.12
369.089	1097.12
369.315	1109.12
369.541	1105.12
369.767	1069.12
369.993	1057.12
370.219	1107.12
370.445	1095.12
370.672	1089.12
370.898	1118.12
371.124	1125.12
371.35	1127.12
371.576	1146.12
371.802	1131.12
372.028	1127.12
372.254	1161.12
372.48	1126.12
372.706	1138.12
372.932	1139.12
373.158	1166.12
373.384	1145.12
373.61	1144.12
373.835	1179.12
374.061	1172.12
374.287	1191.12
374.513	1179.12
374.739	1176.12
374.965	1208.12
375.191	1191.12
375.416	1193.12
375.642	1189.12
375.868	1194.12
376.094	1156.12
376.319	1150.12
376.545	1161.12
376.771	1109.12
376.997	1141.12
377.222	1165.12
377.448	1148.12
377.674	1118.12
377.899	1122.12
378.125	1125.12
378.35	1118.12
378.576	1127.12
378.802	1133.12
379.027	1215.12
379.253	1182.12
379.478	1241.12
379.704	1412.12
379.929	1902.12
380.155	2797.12
380.38	2991.12
380.606	1923.12
380.831	1419.12
381.057	1277.12
381.282	1191.12
381.507	1193.12
381.733	1130.12
381.958	1119.12
382.184	1106.12
382.409	1100.12
382.634	1105.12
382.86	1113.12
383.085	1097.12
383.31	1125.12
383.535	1123.12
383.761	1151.12
383.986	1134.12
384.211	1163.12
384.436	1192.12
384.662	1178.12
384.887	1148.12
385.112	1147.12
385.337	1175.12
385.562	1164.12
385.787	1149.12
386.013	1186.12
386.238	1171.12
386.463	1126.12
386.688	1179.12
386.913	1175.12
387.138	1128.12
387.363	1151.12
387.588	1166.12
387.813	1127.12
388.038	1169.12
388.263	1153.12
388.488	1156.12
388.713	1125.12
388.938	1169.12
389.163	1178.12
389.387	1153.12
389.612	1155.12
389.837	1163.12
390.062	1191.12
390.287	1151.12
390.512	1181.12
390.736	1183.12
390.961	1186.12
391.186	1200.12
391.411	1238.12
391.636	1209.12
391.86	1216.12
392.085	1254.12
392.31	1237.12
392.534	1232.12
392.759	1212.12
392.984	1172.12
393.208	1226.12
393.433	1227.12
393.658	1237.12
393.882	1204.12
394.107	1211.12
394.331	1192.12
394.556	1180.12
394.78	1214.12
395.005	1183.12
395.229	1177.12
395.454	1170.12
395.678	1232.12
395.903	1193.12
396.127	1230.12
396.352	1203.12
396.576	1220.12
396.801	1231.12
397.025	1252.12
397.249	1236.12
397.474	1221.12
397.698	1199.12
397.922	1252.12
398.147	1209.12
398.371	1242.12
398.595	1259.12
398.82	1299.12
399.044	1353.12
399.268	1420.12
399.492	1473.12
399.717	1485.12
399.941	1517.12
400.165	1491.12
400.389	1399.12
400.613	1366.12
400.837	1331.12
401.062	1297.12
401.286	1320.12
401.51	1305.12
401.734	1255.12
401.958	1322.12
402.182	1306.12
402.406	1300.12
402.63	1306.12
402.854	1322.12
403.078	1313.12
403.302	1347.12
403.526	1321.12
403.75	1355.12
403.974	1334.12
404.198	1320.12
404.422	1312.12
404.645	1330.12
404.869	1339.12
405.093	1310.12
405.317	1322.12
405.541	1361.12
405.765	1359.12
405.988	1374.12
406.212	1398.12
406.436	1361.12
406.66	1380.12
406.883	1402.12
407.107	1417.12
407.331	1432.12
407.555	1435.12
407.778	1442.12
408.002	1407.12
408.226	1393.12
408.449	1413.12
408.673	1385.12
408.896	1321.12
409.12	1345.12
409.344	1365.12
409.567	1305.12
409.791	1355.12
410.014	1322.12
410.238	1325.12
410.461	1329.12
410.685	1318.12
410.908	1303.12
411.132	1299.12
411.355	1295.12
411.578	1293.12
411.802	1298.12
412.025	1273.12
412.249	1275.12
412.472	1306.12
412.695	1265.12
412.919	1244.12
413.142	1268.12
413.365	1242.12
413.589	1283.12
413.812	1259.12
414.035	1275.12
414.258	1256.12
414.482	1271.12
414.705	1271.12
414.928	1258.12
415.151	1253.12
415.374	1251.12
415.597	1231.12
415.821	1217.12
416.044	1188.12
416.267	1209.12
416.49	1225.12
416.713	1183.12
416.936	1229.12
417.159	1174.12
417.382	1206.12
417.605	1195.12
417.828	1211.12
418.051	1228.12
418.274	1257.12
418.497	1246.12
418.72	1235.12
418.943	1242.12
419.166	1281.12
419.389	1320.12
419.611	1349.12
419.834	1307.12
420.057	1261.12
420.28	1211.12
420.503	1241.12
420.726	1214.12
420.948	1181.12
421.171	1215.12
421.394	1214.12
421.617	1222.12
421.839	1242.12
422.062	1245.12
422.285	1184.12
422.507	1243.12
422.73	1263.12
422.953	1266.12
423.175	1291.12
423.398	1249.12
423.621	1236.12
423.843	1205.12
424.066	1253.12
424.288	1229.12
424.511	1238.12
424.733	1224.12
424.956	1251.12
425.178	1202.12
425.401	1202.12
425.623	1233.12
425.846	1190.12
426.068	1200.12
426.291	1202.12
426.513	1183.12
426.735	1162.12
426.958	1166.12
427.18	1163.12
427.402	1153.12
427.625	1159.12
427.847	1130.12
428.069	1104.12
428.292	1111.12
428.514	1125.12
428.736	1133.12
428.958	1137.12
429.181	1115.12
429.403	1115.12
429.625	1149.12
429.847	1091.12
430.069	1141.12
430.292	1157.12
430.514	1188.12
430.736	1178.12
430.958	1123.12
431.18	1112.12
431.402	1147.12
431.624	1109.12
431.846	1086.12
432.068	1095.12
432.29	1116.12
432.512	1113.12
432.734	1127.12
432.956	1137.12
433.178	1128.12
433.4	1129.12
433.622	1130.12
433.844	1129.12
434.066	1125.12
434.287	1116.12
434.509	1151.12
434.731	1139.12
434.953	1154.12
435.175	1145.12
435.397	1183.12
435.618	1111.12
435.84	1122.12
436.062	1098.12
436.284	1125.12
436.505	1117.12
436.727	1104.12
436.949	1130.12
437.17	1079.12
437.392	1089.12
437.614	1094.12
437.835	1052.12
438.057	1089.12
438.278	1087.12
438.5	1064.12
438.721	1103.12
438.943	1128.12
439.165	1163.12
439.386	1155.12
439.608	1145.12
439.829	1149.12
440.05	1206.12
440.272	1211.12
440.493	1161.12
440.715	1153.12
440.936	1162.12
441.158	1176.12
441.379	1183.12
441.6	1222.12
441.822	1236.12
442.043	1314.12
442.264	1304.12
442.486	1238.12
442.707	1209.12
442.928	1197.12
443.149	1184.12
443.371	1213.12
443.592	1238.12
443.813	1224.12
444.034	1207.12
444.255	1250.12
444.476	1247.12
444.698	1308.12
444.919	1339.12
445.14	1354.12
445.361	1297.12
445.582	1216.12
445.803	1211.12
446.024	1184.12
446.245	1198.12
446.466	1226.12
446.687	1171.12
446.908	1179.12
447.129	1131.12
447.35	1135.12
447.571	1124.12
447.792	1131.12
448.013	1121.12
448.234	1105.12
448.455	1093.12
448.675	1110.12
448.896	1145.12
449.117	1153.12
449.338	1247.12
449.559	1302.12
449.779	1171.12
450	1097.12
450.221	1093.12
450.442	1079.12
450.662	1100.12
450.883	1071.12
451.104	1085.12
451.324	1071.12
451.545	1055.12
451.766	1081.12
451.986	1077.12
452.207	1165.12
452.428	1372.12
452.648	1886.12
452.869	1621.12
453.089	1226.12
453.31	1196.12
453.53	1177.12
453.751	1194.12
453.971	1262.12
454.192	1256.12
454.412	1108.12
454.633	1079.12
454.853	1049.12
455.073	1035.12
455.294	1071.12
455.514	1055.12
455.734	1033.12
455.955	1024.12
456.175	1025.12
456.395	1018.12
456.616	1020.12
456.836	1044.12
457.056	1029.12
457.276	1047.12
457.497	1106.12
457.717	1101.12
457.937	1079.12
458.157	1060.12
458.377	1114.12
458.598	1112.12
458.818	1088.12
459.038	1093.12
459.258	1119.12
459.478	1107.12
459.698	1118.12
459.918	1163.12
460.138	1174.12
460.358	1205.12
460.578	1172.12
460.798	1199.12
461.018	1210.12
461.238	1209.12
461.458	1251.12
461.678	1221.12
461.898	1237.12
462.118	1273.12
462.338	1295.12
462.558	1282.12
462.777	1313.12
462.997	1346.12
463.217	1414.12
463.437	1437.12
463.657	1458.12
463.876	1430.12
464.096	1360.12
464.316	1331.12
464.536	1314.12
464.755	1293.12
464.975	1268.12
465.195	1191.12
465.414	1226.12
465.634	1174.12
465.854	1149.12
466.073	1179.12
466.293	1134.12
466.512	1139.12
466.732	1134.12
466.951	1189.12
467.171	1251.12
467.391	1234.12
467.61	1138.12
467.829	1103.12
468.049	1120.12
468.268	1116.12
468.488	1114.12
468.707	1120.12
468.927	1082.12
469.146	1105.12
469.365	1140.12
469.585	1126.12
469.804	1159.12
470.023	1169.12
470.243	1179.12
470.462	1202.12
470.681	1230.12
470.901	1359.12
471.12	1543.12
471.339	1539.12
471.558	1293.12
471.777	1198.12
471.997	1184.12
472.216	1150.12
472.435	1117.12
472.654	1088.12
472.873	1114.12
473.092	1107.12
473.311	1099.12
473.53	1124.12
473.749	1138.12
473.968	1147.12
474.187	1120.12
474.406	1096.12
474.625	1141.12
474.844	1084.12
475.063	1112.12
475.282	1101.12
475.501	1120.12
475.72	1138.12
475.939	1141.12
476.158	1151.12
476.377	1152.12
476.596	1182.12
476.814	1139.12
477.033	1183.12
477.252	1203.12
477.471	1185.12
477.69	1241.12
477.908	1231.12
478.127	1263.12
478.346	1242.12
478.564	1258.12
478.783	1267.12
479.002	1320.12
479.22	1318.12
479.439	1319.12
479.658	1309.12
479.876	1306.12
480.095	1311.12
480.313	1354.12
480.532	1351.12
480.751	1347.12
480.969	1332.12
481.188	1319.12
481.406	1330.12
481.624	1311.12
481.843	1279.12
482.061	1314.12
482.28	1295.12
482.498	1326.12
482.717	1291.12
482.935	1333.12
483.153	1369.12
483.372	1371.12
483.59	1386.12
483.808	1376.12
484.027	1444.12
484.245	1473.12
484.463	1619.12
484.681	1789.12
484.9	1662.12
485.118	1517.12
485.336	1520.12
485.554	1542.12
485.772	1602.12
485.99	1801.12
486.209	2002.12
486.427	1665.12
486.645	1511.12
486.863	1490.12
487.081	1476.12
487.299	1409.12
487.517	1446.12
487.735	1439.12
487.953	1471.12
488.171	1432.12
488.389	1433.12
488.607	1406.12
488.825	1377.12
489.043	1346.12
489.261	1347.12
489.479	1380.12
489.696	1379.12
489.914	1353.12
490.132	1382.12
490.35	1343.12
490.568	1394.12
490.786	1450.12
491.003	1402.12
491.221	1444.12
491.439	1435.12
491.657	1455.12
491.874	1440.12
492.092	1501.12
492.31	1505.12
492.527	1504.12
492.745	1465.12
492.963	1463.12
493.18	1482.12
493.398	1481.12
493.615	1480.12
493.833	1451.12
494.05	1467.12
494.268	1461.12
494.485	1465.12
494.703	1474.12
494.92	1461.12
495.138	1474.12
495.355	1494.12
495.573	1435.12
495.79	1483.12
496.008	1453.12
496.225	1449.12
496.442	1503.12
496.66	1562.12
496.877	1588.12
497.094	1570.12
497.312	1545.12
497.529	1567.12
497.746	1597.12
497.963	1572.12
498.181	1604.12
498.398	1607.12
498.615	1705.12
498.832	1744.12
499.049	1850.12
499.267	1989.12
499.484	2101.12
499.701	2104.12
499.918	2219.12
500.135	2333.12
500.352	2425.12
500.569	2439.12
500.786	2451.12
501.003	2344.12
501.22	2226.12
501.437	2107.12
501.654	1990.12
501.871	1936.12
502.088	1849.12
502.305	1756.12
502.522	1725.12
502.739	1714.12
502.956	1635.12
503.172	1608.12
503.389	1558.12
503.606	1547.12
503.823	1506.12
504.04	1505.12
504.256	1479.12
504.473	1493.12
504.69	1521.12
504.907	1481.12
505.123	1450.12
505.34	1407.12
505.557	1389.12
505.773	1399.12
505.99	1376.12
506.207	1326.12
506.423	1323.12
506.64	1297.12
506.856	1297.12
507.073	1297.12
507.289	1266.12
507.506	1299.12
507.722	1294.12
507.939	1249.12
508.155	1263.12
508.372	1259.12
508.588	1251.12
508.805	1229.12
509.021	1254.12
509.238	1243.12
509.454	1327.12
509.67	1370.12
509.887	1275.12
510.103	1274.12
510.319	1232.12
510.536	1229.12
510.752	1215.12
510.968	1199.12
511.184	1188.12
511.401	1205.12
511.617	1201.12
511.833	1204.12
512.049	1153.12
512.265	1179.12
512.481	1183.12
512.698	1182.12
512.914	1183.12
513.13	1166.12
513.346	1233.12
513.562	1197.12
513.778	1190.12
513.994	1189.12
514.21	1229.12
514.426	1282.12
514.642	1303.12
514.858	1232.12
515.074	1200.12
515.29	1218.12
515.506	1226.12
515.721	1233.12
515.937	1211.12
516.153	1233.12
516.369	1254.12
516.585	1266.12
516.801	1280.12
517.016	1292.12
517.232	1315.12
517.448	1345.12
517.664	1331.12
517.879	1342.12
518.095	1328.12
518.311	1355.12
518.527	1339.12
518.742	1299.12
518.958	1298.12
519.173	1307.12
519.389	1293.12
519.605	1238.12
519.82	1235.12
520.036	1229.12
520.251	1199.12
520.467	1220.12
520.682	1201.12
520.898	1182.12
521.113	1190.12
521.329	1199.12
521.544	1169.12
521.76	1146.12
521.975	1199.12
522.19	1197.12
522.406	1187.12
522.621	1187.12
522.836	1166.12
523.052	1150.12
523.267	1171.12
523.482	1121.12
523.698	1157.12
523.913	1173.12
524.128	1151.12
524.343	1147.12
524.559	1129.12
524.774	1163.12
524.989	1159.12
525.204	1163.12
525.419	1162.12
525.634	1157.12
525.849	1151.12
526.064	1136.12
526.28	1144.12
526.495	1150.12
526.71	1151.12
526.925	1129.12
527.14	1153.12
527.355	1137.12
527.57	1151.12
527.785	1167.12
527.999	1159.12
528.214	1168.12
528.429	1171.12
528.644	1187.12
528.859	1227.12
529.074	1246.12
529.289	1234.12
529.503	1262.12
529.718	1213.12
529.933	1216.12
530.148	1218.12
530.363	1224.12
530.577	1232.12
530.792	1207.12
531.007	1229.12
531.221	1240.12
531.436	1229.12
531.651	1233.12
531.865	1250.12
532.08	1281.12
532.295	1283.12
532.509	1349.12
532.724	1345.12
532.938	1378.12
533.153	1449.12
533.367	1466.12
533.582	1541.12
533.796	1510.12
534.011	1455.12
534.225	1441.12
534.44	1397.12
534.654	1368.12
534.868	1329.12
535.083	1291.12
535.297	1335.12
535.511	1283.12
535.726	1275.12
535.94	1260.12
536.154	1210.12
536.369	1228.12
536.583	1209.12
536.797	1201.12
537.011	1160.12
537.225	1193.12
537.44	1178.12
537.654	1150.12
537.868	1157.12
538.082	1166.12
538.296	1159.12
538.51	1139.12
538.724	1153.12
538.938	1145.12
539.153	1123.12
539.367	1133.12
539.581	1117.12
539.795	1119.12
540.009	1094.12
540.222	1108.12
540.436	1108.12
540.65	1133.12
540.864	1141.12
541.078	1156.12
541.292	1193.12
541.506	1431.12
541.72	1448.12
541.934	1299.12
542.147	1261.12
542.361	1190.12
542.575	1167.12
542.789	1122.12
543.002	1092.12
543.216	1052.12
543.43	1101.12
543.644	1085.12
543.857	1090.12
544.071	1093.12
544.285	1120.12
544.498	1098.12
544.712	1114.12
544.925	1135.12
545.139	1124.12
545.352	1108.12
545.566	1123.12
545.779	1138.12
545.993	1122.12
546.206	1149.12
546.42	1141.12
546.633	1120.12
546.847	1131.12
547.06	1134.12
547.274	1137.12
547.487	1148.12
547.7	1117.12
547.914	1121.12
548.127	1127.12
548.34	1124.12
548.554	1113.12
548.767	1136.12
548.98	1130.12
549.193	1116.12
549.407	1103.12
549.62	1101.12
549.833	1137.12
550.046	1118.12
550.259	1116.12
550.473	1133.12
550.686	1116.12
550.899	1120.12
551.112	1098.12
551.325	1118.12
551.538	1108.12
551.751	1075.12
551.964	1102.12
552.177	1104.12
552.39	1113.12
552.603	1190.12
552.816	1160.12
553.029	1160.12
553.242	1215.12
553.455	1228.12
553.667	1227.12
553.88	1213.12
554.093	1248.12
554.306	1225.12
554.519	1263.12
554.732	1267.12
554.944	1272.12
555.157	1283.12
555.37	1289.12
555.583	1305.12
555.795	1383.12
556.008	1460.12
556.221	1546.12
556.433	1613.12
556.646	1662.12
556.859	1605.12
557.071	1572.12
557.284	1542.12
557.496	1501.12
557.709	1474.12
557.921	1457.12
558.134	1489.12
558.346	1507.12
558.559	1509.12
558.771	1595.12
558.984	1696.12
559.196	1782.12
559.409	1707.12
559.621	1629.12
559.833	1523.12
560.046	1503.12
560.258	1399.12
560.47	1326.12
560.683	1322.12
560.895	1264.12
561.107	1255.12
561.32	1234.12
561.532	1211.12
561.744	1172.12
561.956	1189.12
562.168	1157.12
562.381	1130.12
562.593	1108.12
562.805	1131.12
563.017	1112.12
563.229	1139.12
563.441	1229.12
563.653	1097.12
563.865	1034.12
564.077	1056.12
564.289	999.12
564.501	1024.12
564.713	1028.12
564.925	1025.12
565.137	1011.12
565.349	982.12
565.561	1034.12
565.773	1035.12
565.985	1045.12
566.197	1042.12
566.408	1071.12
566.62	1144.12
566.832	1117.12
567.044	1122.12
567.255	1143.12
567.467	1127.12
567.679	1164.12
567.891	1204.12
568.102	1322.12
568.314	1535.12
568.526	1319.12
568.737	1159.12
568.949	1081.12
569.161	1001.12
569.372	936.12
569.584	932.12
569.795	931.12
570.007	903.12
570.218	924.12
570.43	929.12
570.641	885.12
570.853	833.12
571.064	884.12
571.276	885.12
571.487	827.12
571.698	843.12
571.91	846.12
572.121	805.12
572.333	800.12
572.544	806.12
572.755	863.12
572.966	981.12
573.178	888.12
573.389	815.12
573.6	793.12
573.811	772.12
574.023	751.12
574.234	738.12
574.445	749.12
574.656	737.12
574.867	735.12
575.078	723.12
575.289	739.12
575.501	732.12
575.712	741.12
575.923	730.12
576.134	733.12
576.345	759.12
576.556	761.12
576.767	732.12
576.978	737.12
577.188	742.12
577.399	770.12
577.61	741.12
577.821	749.12
578.032	760.12
578.243	775.12
578.454	816.12
578.665	805.12
578.875	805.12
579.086	798.12
579.297	852.12
579.508	882.12
579.718	956.12
579.929	1063.12
580.14	1146.12
580.35	1212.12
580.561	1109.12
580.772	1070.12
580.982	1010.12
581.193	962.12
581.403	911.12
581.614	863.12
581.825	863.12
582.035	830.12
582.246	795.12
582.456	780.12
582.667	761.12
582.877	716.12
583.087	733.12
583.298	696.12
583.508	698.12
583.719	685.12
583.929	643.12
584.139	655.12
584.35	649.12
584.56	638.12
584.77	630.12
584.981	632.12
585.191	610.12
585.401	602.12
585.611	584.12
585.821	616.12
586.032	606.12
586.242	570.12
586.452	609.12
586.662	568.12
586.872	590.12
587.082	576.12
587.292	577.12
587.502	571.12
587.713	562.12
587.923	537.12
588.133	571.12
588.343	561.12
588.553	549.12
588.762	567.12
588.972	575.12
589.182	563.12
589.392	558.12
589.602	534.12
589.812	563.12
590.022	541.12
590.232	523.12
590.441	548.12
590.651	540.12
590.861	539.12
591.071	530.12
591.281	541.12
591.49	546.12
591.7	542.12
591.91	547.12
592.119	549.12
592.329	531.12
592.539	561.12
592.748	545.12
592.958	560.12
593.167	574.12
593.377	589.12
593.587	598.12
593.796	566.12
594.006	546.12
594.215	559.12
594.424	555.12
594.634	543.12
594.843	530.12
595.053	537.12
595.262	535.12
595.472	530.12
595.681	506.12
595.89	515.12
596.1	500.12
596.309	463.12
596.518	509.12
596.727	478.12
596.937	483.12
597.146	497.12
597.355	478.12
597.564	470.12
597.774	478.12
597.983	462.12
598.192	453.12
598.401	449.12
598.61	444.12
598.819	447.12
599.028	448.12
599.237	441.12
599.446	468.12
599.655	442.12
599.864	463.12
600.073	434.12
600.282	426.12
600.491	443.12
600.7	447.12
600.909	439.12
601.118	437.12
601.327	456.12
601.536	436.12
601.745	465.12
601.953	474.12
602.162	527.12
602.371	488.12
602.58	471.12
602.789	463.12
602.997	450.12
603.206	445.12
603.415	438.12
603.623	422.12
603.832	431.12
604.041	417.12
604.249	416.12
604.458	446.12
604.666	413.12
604.875	414.12
605.084	417.12
605.292	430.12
605.501	441.12
605.709	429.12
605.918	431.12
606.126	427.12
606.334	435.12
606.543	450.12
606.751	458.12
606.96	521.12
607.168	551.12
607.376	466.12
607.585	447.12
607.793	448.12
608.001	431.12
608.21	418.12
608.418	415.12
608.626	432.12
608.834	422.12
609.043	407.12
609.251	397.12
609.459	421.12
609.667	411.12
609.875	414.12
610.083	401.12
610.291	392.12
610.499	416.12
610.707	396.12
610.916	410.12
611.124	413.12
611.332	396.12
611.54	405.12
611.748	393.12
611.955	387.12
612.163	387.12
612.371	403.12
612.579	379.12
612.787	390.12
612.995	387.12
613.203	401.12
613.411	395.12
613.618	399.12
613.826	389.12
614.034	390.12
614.242	399.12
614.449	390.12
614.657	371.12
614.865	390.12
615.072	400.12
615.28	399.12
615.488	383.12
615.695	374.12
615.903	369.12
616.111	381.12
616.318	387.12
616.526	384.12
616.733	386.12
616.941	366.12
617.148	368.12
617.356	370.12
617.563	379.12
617.771	383.12
617.978	388.12
618.185	359.12
618.393	362.12
618.6	365.12
618.807	371.12
619.015	363.12
619.222	375.12
619.429	360.12
619.637	373.12
619.844	364.12
620.051	355.12
620.258	365.12
620.466	349.12
620.673	339.12
620.88	343.12
621.087	352.12
621.294	341.12
621.501	342.12
621.708	329.12
621.915	339.12
622.122	350.12
622.329	362.12
622.536	341.12
622.743	350.12
622.95	360.12
623.157	351.12
623.364	344.12
623.571	358.12
623.778	351.12
623.985	337.12
624.192	345.12
624.399	357.12
624.606	335.12
624.812	339.12
625.019	349.12
625.226	337.12
625.433	326.12
625.639	325.12
625.846	337.12
626.053	322.12
626.259	324.12
626.466	319.12
626.673	333.12
626.879	317.12
627.086	318.12
627.293	318.12
627.499	325.12
627.706	334.12
627.912	326.12
628.119	309.12
628.325	328.12
628.532	334.12
628.738	333.12
628.945	320.12
629.151	321.12
629.357	314.12
629.564	284.12
629.77	309.12
629.976	304.12
630.183	286.12
630.389	311.12
630.595	315.12
630.802	299.12
631.008	296.12
631.214	279.12
631.42	307.12
631.627	305.12
631.833	310.12
632.039	289.12
632.245	300.12
632.451	302.12
632.657	307.12
632.863	310.12
633.069	303.12
633.275	288.12
633.481	297.12
633.688	300.12
633.893	295.12
634.099	318.12
634.305	303.12
634.511	287.12
634.717	292.12
634.923	317.12
635.129	346.12
635.335	367.12
635.541	333.12
635.747	314.12
635.952	317.12
636.158	293.12
636.364	319.12
636.57	299.12
636.775	296.12
636.981	305.12
637.187	288.12
637.392	284.12
637.598	283.12
637.804	298.12
638.009	296.12
638.215	294.12
638.421	308.12
638.626	296.12
638.832	286.12
639.037	306.12
639.243	309.12
639.448	316.12
639.654	308.12
639.859	285.12
640.065	306.12
640.27	311.12
640.475	323.12
640.681	296.12
640.886	306.12
641.091	303.12
641.297	332.12
641.502	312.12
641.707	325.12
641.913	322.12
642.118	328.12
642.323	334.12
642.528	344.12
642.733	345.12
642.939	344.12
643.144	336.12
643.349	359.12
643.554	370.12
643.759	387.12
643.964	388.12
644.169	410.12
644.374	421.12
644.579	459.12
644.784	485.12
644.989	542.12
645.194	627.12
645.399	722.12
645.604	703.12
645.809	580.12
646.014	471.12
646.219	399.12
646.423	375.12
646.628	358.12
646.833	357.12
647.038	326.12
647.243	318.12
647.447	305.12
647.652	301.12
647.857	272.12
648.062	293.12
648.266	294.12
648.471	286.12
648.676	274.12
648.88	294.12
649.085	278.12
649.289	273.12
649.494	275.12
649.698	265.12
649.903	252.12
650.107	267.12
650.312	257.12
650.516	251.12
650.721	241.12
650.925	238.12
651.13	246.12
651.334	245.12
651.539	249.12
651.743	242.12
651.947	249.12
652.152	231.12
652.356	230.12
652.56	246.12
652.764	274.12
652.969	244.12
653.173	209.12
653.377	211.12
653.581	212.12
653.785	213.12
653.99	199.12
654.194	218.12
654.398	222.12
654.602	201.12
654.806	196.12
655.01	205.12
655.214	206.12
655.418	203.12
655.622	185.12
655.826	199.12
656.03	203.12
656.234	228.12
656.438	211.12
656.642	202.12
656.846	227.12
657.049	222.12
657.253	194.12
657.457	184.12
657.661	158.12
657.865	175.12
658.068	158.12
658.272	173.12
658.476	158.12
658.68	151.12
658.883	135.12
659.087	142.12
659.291	125.12
659.494	129.12
659.698	120.12
659.901	118.12
660.105	118.12
660.309	124.12
660.512	115.12
660.716	103.12
660.919	109.12
661.123	111.12
661.326	113.12
661.53	96.12
661.733	104.12
661.936	115.12
662.14	88.12
662.343	89.12
662.546	85.12
662.75	90.12
662.953	85.12
663.156	90.12
663.36	95.12
663.563	85.12
663.766	88.12
663.969	68.12
664.173	79.12
664.376	79.12
664.579	97.12
664.782	99.12
664.985	80.12
665.188	77.12
665.391	87.12
665.594	96.12
665.797	83.12
666	86.12
666.203	92.12
666.406	84.12
666.609	73.12
666.812	96.12
667.015	89.12
667.218	81.12
667.421	88.12
667.624	88.12
667.827	79.12
668.03	79.12
668.232	79.12
668.435	79.12
668.638	84.12
668.841	86.12
669.043	89.12
669.246	94.12
669.449	83.12
669.651	70.12
669.854	94.12
670.057	88.12
670.259	82.12
670.462	78.12
670.665	85.12
670.867	80.12
671.07	83.12
671.272	79.12
671.475	81.12
671.677	79.12
671.88	79.12
672.082	96.12
672.284	73.12
672.487	70.12
672.689	74.12
672.892	81.12
