Data from SnStandardFlinnAPT0064_QswitchEnergy10_LIBS07252019.E.O._I.C._HRD10591_15-28-15-974.txt Node
Date: Thu Jul 25 15:28:15 EDT 2019
User: cochatt
Spectrometer: HR+D1059
Trigger mode: 1
Integration Time (sec): 1.000000E-1
Scans to average: 1
Electric dark correction enabled: true
Nonlinearity correction enabled: false
Boxcar width: 0
XAxis mode: Wavelengths
Number of Pixels in Spectrum: 2048
>>>>>Begin Spectral Data<<<<<
223.165	-16.12
223.4	-16.12
223.635	-16.12
223.869	-20.12
224.104	-13.12
224.338	-18.12
224.573	-19.12
224.808	-11.12
225.042	-11.12
225.277	-15.12
225.511	-8.12
225.746	2.88
225.98	10.88
226.215	20.88
226.449	22.88
226.683	25.88
226.918	23.88
227.152	24.88
227.387	36.88
227.621	42.88
227.856	37.88
228.09	39.88
228.324	54.88
228.559	52.88
228.793	52.88
229.027	61.88
229.262	73.88
229.496	60.88
229.73	88.88
229.964	76.88
230.199	72.88
230.433	71.88
230.667	83.88
230.901	86.88
231.136	76.88
231.37	76.88
231.604	91.88
231.838	100.88
232.072	95.88
232.306	125.88
232.541	95.88
232.775	87.88
233.009	84.88
233.243	102.88
233.477	91.88
233.711	88.88
233.945	103.88
234.179	95.88
234.413	89.88
234.647	96.88
234.881	84.88
235.115	79.88
235.349	90.88
235.583	111.88
235.817	119.88
236.051	126.88
236.285	80.88
236.519	88.88
236.753	82.88
236.987	80.88
237.221	76.88
237.455	92.88
237.689	82.88
237.922	86.88
238.156	71.88
238.39	78.88
238.624	83.88
238.858	92.88
239.091	89.88
239.325	80.88
239.559	82.88
239.793	93.88
240.027	75.88
240.26	84.88
240.494	91.88
240.728	70.88
240.961	76.88
241.195	104.88
241.429	103.88
241.662	88.88
241.896	85.88
242.13	95.88
242.363	140.88
242.597	174.88
242.83	150.88
243.064	134.88
243.298	175.88
243.531	145.88
243.765	102.88
243.998	86.88
244.232	95.88
244.465	80.88
244.699	83.88
244.932	72.88
245.166	90.88
245.399	72.88
245.633	89.88
245.866	91.88
246.099	79.88
246.333	80.88
246.566	74.88
246.8	82.88
247.033	82.88
247.266	82.88
247.5	89.88
247.733	82.88
247.966	87.88
248.2	87.88
248.433	101.88
248.666	138.88
248.899	115.88
249.133	92.88
249.366	97.88
249.599	101.88
249.832	116.88
250.066	135.88
250.299	89.88
250.532	96.88
250.765	74.88
250.998	82.88
251.231	74.88
251.465	87.88
251.698	88.88
251.931	82.88
252.164	82.88
252.397	69.88
252.63	104.88
252.863	107.88
253.096	92.88
253.329	92.88
253.562	91.88
253.795	90.88
254.028	94.88
254.261	92.88
254.494	96.88
254.727	113.88
254.96	152.88
255.193	123.88
255.426	94.88
255.659	84.88
255.892	98.88
256.124	99.88
256.357	84.88
256.59	100.88
256.823	110.88
257.056	101.88
257.289	140.88
257.521	194.88
257.754	136.88
257.987	98.88
258.22	77.88
258.452	96.88
258.685	104.88
258.918	82.88
259.151	84.88
259.383	116.88
259.616	134.88
259.849	142.88
260.081	112.88
260.314	92.88
260.547	71.88
260.779	81.88
261.012	69.88
261.244	83.88
261.477	99.88
261.71	82.88
261.942	81.88
262.175	81.88
262.407	82.88
262.64	83.88
262.872	83.88
263.105	84.88
263.337	74.88
263.57	79.88
263.802	76.88
264.035	87.88
264.267	79.88
264.499	95.88
264.732	81.88
264.964	100.88
265.197	98.88
265.429	89.88
265.661	98.88
265.894	88.88
266.126	135.88
266.358	155.88
266.591	157.88
266.823	96.88
267.055	88.88
267.287	83.88
267.52	75.88
267.752	80.88
267.984	88.88
268.216	89.88
268.448	84.88
268.681	86.88
268.913	85.88
269.145	88.88
269.377	84.88
269.609	98.88
269.841	110.88
270.073	110.88
270.306	116.88
270.538	199.88
270.77	315.88
271.002	395.88
271.234	222.88
271.466	118.88
271.698	88.88
271.93	103.88
272.162	80.88
272.394	85.88
272.626	89.88
272.858	80.88
273.09	91.88
273.322	84.88
273.553	91.88
273.785	89.88
274.017	81.88
274.249	73.88
274.481	93.88
274.713	85.88
274.945	91.88
275.176	91.88
275.408	88.88
275.64	87.88
275.872	88.88
276.104	89.88
276.335	92.88
276.567	95.88
276.799	90.88
277.031	98.88
277.262	90.88
277.494	113.88
277.726	126.88
277.957	184.88
278.189	270.88
278.421	254.88
278.652	200.88
278.884	200.88
279.115	139.88
279.347	117.88
279.579	108.88
279.81	92.88
280.042	109.88
280.273	112.88
280.505	107.88
280.736	103.88
280.968	131.88
281.199	171.88
281.431	260.88
281.662	267.88
281.894	165.88
282.125	105.88
282.356	112.88
282.588	115.88
282.819	114.88
283.051	109.88
283.282	135.88
283.513	196.88
283.745	323.88
283.976	552.88
284.207	804.88
284.439	615.88
284.67	273.88
284.901	276.88
285.132	353.88
285.364	401.88
285.595	233.88
285.826	171.88
286.057	251.88
286.288	430.88
286.52	634.88
286.751	519.88
286.982	212.88
287.213	119.88
287.444	112.88
287.675	104.88
287.906	90.88
288.138	125.88
288.369	96.88
288.6	96.88
288.831	76.88
289.062	86.88
289.293	103.88
289.524	118.88
289.755	103.88
289.986	93.88
290.217	104.88
290.448	106.88
290.679	101.88
290.91	116.88
291.141	166.88
291.371	217.88
291.602	280.88
291.833	198.88
292.064	114.88
292.295	105.88
292.526	104.88
292.757	95.88
292.987	95.88
293.218	100.88
293.449	91.88
293.68	90.88
293.91	100.88
294.141	99.88
294.372	86.88
294.603	88.88
294.833	104.88
295.064	83.88
295.295	98.88
295.525	97.88
295.756	94.88
295.987	97.88
296.217	90.88
296.448	99.88
296.679	118.88
296.909	112.88
297.14	102.88
297.37	101.88
297.601	85.88
297.831	96.88
298.062	94.88
298.292	82.88
298.523	86.88
298.753	107.88
298.984	95.88
299.214	104.88
299.445	106.88
299.675	111.88
299.905	126.88
300.136	125.88
300.366	161.88
300.597	277.88
300.827	483.88
301.057	740.88
301.288	651.88
301.518	277.88
301.748	158.88
301.979	147.88
302.209	134.88
302.439	140.88
302.669	158.88
302.9	283.88
303.13	517.88
303.36	894.88
303.59	1229.88
303.82	872.88
304.051	297.88
304.281	158.88
304.511	140.88
304.741	114.88
304.971	101.88
305.201	103.88
305.431	115.88
305.661	128.88
305.891	101.88
306.121	104.88
306.352	106.88
306.582	116.88
306.812	118.88
307.042	119.88
307.272	106.88
307.502	113.88
307.731	114.88
307.961	107.88
308.191	95.88
308.421	102.88
308.651	124.88
308.881	112.88
309.111	89.88
309.341	115.88
309.571	115.88
309.8	99.88
310.03	118.88
310.26	93.88
310.49	90.88
310.72	114.88
310.949	119.88
311.179	110.88
311.409	104.88
311.639	99.88
311.868	104.88
312.098	103.88
312.328	106.88
312.557	115.88
312.787	126.88
313.017	113.88
313.246	105.88
313.476	110.88
313.706	138.88
313.935	169.88
314.165	206.88
314.394	231.88
314.624	189.88
314.853	136.88
315.083	124.88
315.312	128.88
315.542	132.88
315.771	120.88
316.001	144.88
316.23	134.88
316.46	167.88
316.689	183.88
316.919	272.88
317.148	515.88
317.377	968.88
317.607	1536.88
317.836	1447.88
318.065	563.88
318.295	228.88
318.524	170.88
318.753	130.88
318.983	122.88
319.212	124.88
319.441	124.88
319.67	122.88
319.9	125.88
320.129	116.88
320.358	134.88
320.587	122.88
320.816	122.88
321.046	125.88
321.275	133.88
321.504	139.88
321.733	150.88
321.962	179.88
322.191	184.88
322.42	123.88
322.649	128.88
322.878	127.88
323.108	113.88
323.337	119.88
323.566	133.88
323.795	145.88
324.024	143.88
324.253	152.88
324.482	176.88
324.71	233.88
324.939	310.88
325.168	236.88
325.397	206.88
325.626	259.88
325.855	506.88
326.084	971.88
326.313	1640.88
326.542	1633.88
326.77	627.88
326.999	278.88
327.228	222.88
327.457	249.88
327.686	233.88
327.914	160.88
328.143	140.88
328.372	130.88
328.6	113.88
328.829	130.88
329.058	126.88
329.287	126.88
329.515	127.88
329.744	122.88
329.972	115.88
330.201	114.88
330.43	111.88
330.658	116.88
330.887	117.88
331.115	121.88
331.344	100.88
331.572	116.88
331.801	110.88
332.03	135.88
332.258	138.88
332.486	182.88
332.715	298.88
332.943	510.88
333.172	782.88
333.4	709.88
333.629	261.88
333.857	167.88
334.085	126.88
334.314	138.88
334.542	106.88
334.771	100.88
334.999	126.88
335.227	114.88
335.455	120.88
335.684	117.88
335.912	112.88
336.14	121.88
336.369	137.88
336.597	109.88
336.825	118.88
337.053	99.88
337.281	106.88
337.51	113.88
337.738	106.88
337.966	116.88
338.194	107.88
338.422	117.88
338.65	119.88
338.878	111.88
339.106	108.88
339.334	118.88
339.562	112.88
339.79	98.88
340.018	124.88
340.246	110.88
340.474	115.88
340.702	117.88
340.93	117.88
341.158	98.88
341.386	134.88
341.614	120.88
341.842	124.88
342.07	129.88
342.298	117.88
342.526	96.88
342.754	102.88
342.981	112.88
343.209	113.88
343.437	115.88
343.665	124.88
343.893	104.88
344.12	108.88
344.348	111.88
344.576	113.88
344.804	111.88
345.031	106.88
345.259	104.88
345.487	102.88
345.714	121.88
345.942	110.88
346.17	126.88
346.397	114.88
346.625	116.88
346.853	104.88
347.08	95.88
347.308	107.88
347.535	111.88
347.763	103.88
347.99	120.88
348.218	115.88
348.445	98.88
348.673	122.88
348.9	119.88
349.128	128.88
349.355	118.88
349.583	116.88
349.81	129.88
350.037	114.88
350.265	121.88
350.492	112.88
350.72	111.88
350.947	116.88
351.174	119.88
351.402	115.88
351.629	127.88
351.856	94.88
352.083	100.88
352.311	105.88
352.538	110.88
352.765	104.88
352.992	91.88
353.22	105.88
353.447	112.88
353.674	112.88
353.901	103.88
354.128	114.88
354.355	117.88
354.583	107.88
354.81	105.88
355.037	96.88
355.264	115.88
355.491	108.88
355.718	97.88
355.945	104.88
356.172	99.88
356.399	97.88
356.626	119.88
356.853	106.88
357.08	98.88
357.307	120.88
357.534	99.88
357.761	98.88
357.988	119.88
358.215	110.88
358.441	112.88
358.668	112.88
358.895	122.88
359.122	113.88
359.349	119.88
359.576	100.88
359.802	120.88
360.029	104.88
360.256	123.88
360.483	100.88
360.709	118.88
360.936	116.88
361.163	113.88
361.39	104.88
361.616	112.88
361.843	114.88
362.07	122.88
362.296	105.88
362.523	110.88
362.749	110.88
362.976	114.88
363.203	102.88
363.429	115.88
363.656	118.88
363.882	123.88
364.109	126.88
364.335	120.88
364.562	111.88
364.788	102.88
365.015	110.88
365.241	134.88
365.468	201.88
365.694	256.88
365.92	212.88
366.147	107.88
366.373	97.88
366.599	108.88
366.826	101.88
367.052	99.88
367.278	98.88
367.505	98.88
367.731	95.88
367.957	81.88
368.184	103.88
368.41	115.88
368.636	122.88
368.862	101.88
369.089	107.88
369.315	110.88
369.541	117.88
369.767	110.88
369.993	104.88
370.219	108.88
370.445	115.88
370.672	106.88
370.898	108.88
371.124	106.88
371.35	98.88
371.576	107.88
371.802	118.88
372.028	102.88
372.254	106.88
372.48	121.88
372.706	111.88
372.932	111.88
373.158	115.88
373.384	125.88
373.61	145.88
373.835	119.88
374.061	111.88
374.287	122.88
374.513	113.88
374.739	119.88
374.965	115.88
375.191	120.88
375.416	96.88
375.642	106.88
375.868	107.88
376.094	103.88
376.319	98.88
376.545	113.88
376.771	126.88
376.997	117.88
377.222	123.88
377.448	121.88
377.674	107.88
377.899	105.88
378.125	112.88
378.35	102.88
378.576	111.88
378.802	118.88
379.027	133.88
379.253	146.88
379.478	190.88
379.704	313.88
379.929	818.88
380.155	1648.88
380.38	1695.88
380.606	554.88
380.831	211.88
381.057	138.88
381.282	130.88
381.507	105.88
381.733	113.88
381.958	93.88
382.184	106.88
382.409	102.88
382.634	108.88
382.86	106.88
383.085	111.88
383.31	105.88
383.535	105.88
383.761	115.88
383.986	118.88
384.211	115.88
384.436	105.88
384.662	102.88
384.887	121.88
385.112	107.88
385.337	95.88
385.562	112.88
385.787	105.88
386.013	106.88
386.238	109.88
386.463	100.88
386.688	111.88
386.913	103.88
387.138	122.88
387.363	114.88
387.588	105.88
387.813	118.88
388.038	118.88
388.263	112.88
388.488	102.88
388.713	118.88
388.938	110.88
389.163	101.88
389.387	101.88
389.612	108.88
389.837	102.88
390.062	104.88
390.287	95.88
390.512	97.88
390.736	117.88
390.961	102.88
391.186	100.88
391.411	98.88
391.636	88.88
391.86	104.88
392.085	88.88
392.31	116.88
392.534	96.88
392.759	115.88
392.984	106.88
393.208	114.88
393.433	146.88
393.658	144.88
393.882	96.88
394.107	93.88
394.331	84.88
394.556	92.88
394.78	101.88
395.005	115.88
395.229	104.88
395.454	105.88
395.678	112.88
395.903	93.88
396.127	110.88
396.352	105.88
396.576	112.88
396.801	128.88
397.025	135.88
397.249	113.88
397.474	104.88
397.698	92.88
397.922	105.88
398.147	108.88
398.371	95.88
398.595	116.88
398.82	118.88
399.044	103.88
399.268	103.88
399.492	100.88
399.717	81.88
399.941	97.88
400.165	98.88
400.389	91.88
400.613	97.88
400.837	96.88
401.062	114.88
401.286	84.88
401.51	112.88
401.734	105.88
401.958	88.88
402.182	96.88
402.406	92.88
402.63	103.88
402.854	98.88
403.078	88.88
403.302	103.88
403.526	101.88
403.75	98.88
403.974	90.88
404.198	102.88
404.422	108.88
404.645	111.88
404.869	96.88
405.093	104.88
405.317	87.88
405.541	102.88
405.765	132.88
405.988	138.88
406.212	140.88
406.436	112.88
406.66	109.88
406.883	100.88
407.107	98.88
407.331	102.88
407.555	91.88
407.778	119.88
408.002	100.88
408.226	91.88
408.449	113.88
408.673	102.88
408.896	98.88
409.12	94.88
409.344	96.88
409.567	96.88
409.791	106.88
410.014	108.88
410.238	118.88
410.461	95.88
410.685	102.88
410.908	115.88
411.132	102.88
411.355	96.88
411.578	99.88
411.802	97.88
412.025	97.88
412.249	102.88
412.472	102.88
412.695	97.88
412.919	98.88
413.142	98.88
413.365	93.88
413.589	108.88
413.812	103.88
414.035	103.88
414.258	111.88
414.482	98.88
414.705	119.88
414.928	100.88
415.151	98.88
415.374	106.88
415.597	94.88
415.821	104.88
416.044	96.88
416.267	91.88
416.49	109.88
416.713	87.88
416.936	95.88
417.159	91.88
417.382	102.88
417.605	87.88
417.828	105.88
418.051	114.88
418.274	98.88
418.497	104.88
418.72	102.88
418.943	111.88
419.166	118.88
419.389	105.88
419.611	100.88
419.834	107.88
420.057	102.88
420.28	97.88
420.503	106.88
420.726	91.88
420.948	103.88
421.171	100.88
421.394	93.88
421.617	88.88
421.839	86.88
422.062	95.88
422.285	94.88
422.507	102.88
422.73	126.88
422.953	152.88
423.175	110.88
423.398	94.88
423.621	88.88
423.843	96.88
424.066	105.88
424.288	100.88
424.511	90.88
424.733	103.88
424.956	94.88
425.178	116.88
425.401	94.88
425.623	96.88
425.846	88.88
426.068	104.88
426.291	90.88
426.513	97.88
426.735	99.88
426.958	82.88
427.18	103.88
427.402	93.88
427.625	97.88
427.847	89.88
428.069	85.88
428.292	107.88
428.514	98.88
428.736	81.88
428.958	100.88
429.181	91.88
429.403	100.88
429.625	104.88
429.847	105.88
430.069	105.88
430.292	102.88
430.514	108.88
430.736	96.88
430.958	91.88
431.18	96.88
431.402	104.88
431.624	95.88
431.846	90.88
432.068	101.88
432.29	90.88
432.512	96.88
432.734	99.88
432.956	97.88
433.178	103.88
433.4	98.88
433.622	110.88
433.844	91.88
434.066	94.88
434.287	89.88
434.509	96.88
434.731	88.88
434.953	87.88
435.175	89.88
435.397	92.88
435.618	100.88
435.84	88.88
436.062	93.88
436.284	78.88
436.505	93.88
436.727	94.88
436.949	97.88
437.17	90.88
437.392	82.88
437.614	88.88
437.835	84.88
438.057	90.88
438.278	103.88
438.5	97.88
438.721	103.88
438.943	103.88
439.165	108.88
439.386	110.88
439.608	94.88
439.829	110.88
440.05	117.88
440.272	126.88
440.493	102.88
440.715	110.88
440.936	94.88
441.158	98.88
441.379	99.88
441.6	103.88
441.822	107.88
442.043	123.88
442.264	140.88
442.486	122.88
442.707	101.88
442.928	103.88
443.149	97.88
443.371	100.88
443.592	100.88
443.813	90.88
444.034	82.88
444.255	90.88
444.476	85.88
444.698	95.88
444.919	106.88
445.14	193.88
445.361	134.88
445.582	98.88
445.803	93.88
446.024	114.88
446.245	84.88
446.466	99.88
446.687	107.88
446.908	112.88
447.129	107.88
447.35	106.88
447.571	107.88
447.792	86.88
448.013	101.88
448.234	98.88
448.455	115.88
448.675	91.88
448.896	100.88
449.117	123.88
449.338	134.88
449.559	169.88
449.779	117.88
450	104.88
450.221	116.88
450.442	130.88
450.662	111.88
450.883	99.88
451.104	115.88
451.324	113.88
451.545	121.88
451.766	120.88
451.986	132.88
452.207	222.88
452.428	574.88
452.648	1383.88
452.869	775.88
453.089	210.88
453.31	133.88
453.53	117.88
453.751	139.88
453.971	166.88
454.192	154.88
454.412	110.88
454.633	102.88
454.853	104.88
455.073	117.88
455.294	96.88
455.514	88.88
455.734	88.88
455.955	91.88
456.175	99.88
456.395	91.88
456.616	100.88
456.836	113.88
457.056	95.88
457.276	97.88
457.497	110.88
457.717	131.88
457.937	110.88
458.157	105.88
458.377	77.88
458.598	76.88
458.818	87.88
459.038	98.88
459.258	107.88
459.478	83.88
459.698	91.88
459.918	101.88
460.138	93.88
460.358	81.88
460.578	92.88
460.798	84.88
461.018	111.88
461.238	99.88
461.458	97.88
461.678	107.88
461.898	75.88
462.118	95.88
462.338	71.88
462.558	89.88
462.777	97.88
462.997	106.88
463.217	111.88
463.437	136.88
463.657	182.88
463.876	190.88
464.096	119.88
464.316	117.88
464.536	91.88
464.755	90.88
464.975	83.88
465.195	106.88
465.414	101.88
465.634	99.88
465.854	97.88
466.073	94.88
466.293	111.88
466.512	115.88
466.732	116.88
466.951	119.88
467.171	139.88
467.391	137.88
467.61	118.88
467.829	107.88
468.049	102.88
468.268	87.88
468.488	90.88
468.707	104.88
468.927	108.88
469.146	99.88
469.365	97.88
469.585	115.88
469.804	100.88
470.023	100.88
470.243	102.88
470.462	95.88
470.681	107.88
470.901	134.88
471.12	187.88
471.339	214.88
471.558	159.88
471.777	110.88
471.997	116.88
472.216	103.88
472.435	97.88
472.654	67.88
472.873	98.88
473.092	107.88
473.311	121.88
473.53	102.88
473.749	102.88
473.968	123.88
474.187	102.88
474.406	99.88
474.625	91.88
474.844	86.88
475.063	96.88
475.282	95.88
475.501	96.88
475.72	101.88
475.939	119.88
476.158	111.88
476.377	105.88
476.596	107.88
476.814	102.88
477.033	94.88
477.252	89.88
477.471	107.88
477.69	100.88
477.908	92.88
478.127	108.88
478.346	91.88
478.564	104.88
478.783	95.88
479.002	99.88
479.22	113.88
479.439	89.88
479.658	106.88
479.876	95.88
480.095	96.88
480.313	85.88
480.532	120.88
480.751	100.88
480.969	109.88
481.188	96.88
481.406	99.88
481.624	89.88
481.843	121.88
482.061	110.88
482.28	94.88
482.498	101.88
482.717	105.88
482.935	103.88
483.153	90.88
483.372	92.88
483.59	91.88
483.808	99.88
484.027	95.88
484.245	118.88
484.463	178.88
484.681	252.88
484.9	150.88
485.118	114.88
485.336	104.88
485.554	103.88
485.772	130.88
485.99	208.88
486.209	277.88
486.427	174.88
486.645	112.88
486.863	106.88
487.081	112.88
487.299	96.88
487.517	102.88
487.735	104.88
487.953	96.88
488.171	93.88
488.389	115.88
488.607	106.88
488.825	96.88
489.043	99.88
489.261	99.88
489.479	91.88
489.696	96.88
489.914	90.88
490.132	110.88
490.35	105.88
490.568	100.88
490.786	97.88
491.003	95.88
491.221	113.88
491.439	114.88
491.657	105.88
491.874	112.88
492.092	105.88
492.31	110.88
492.527	104.88
492.745	119.88
492.963	109.88
493.18	102.88
493.398	86.88
493.615	107.88
493.833	98.88
494.05	99.88
494.268	104.88
494.485	103.88
494.703	117.88
494.92	106.88
495.138	98.88
495.355	105.88
495.573	108.88
495.79	106.88
496.008	123.88
496.225	115.88
496.442	92.88
496.66	122.88
496.877	165.88
497.094	152.88
497.312	111.88
497.529	102.88
497.746	104.88
497.963	110.88
498.181	104.88
498.398	124.88
498.615	107.88
498.832	97.88
499.049	104.88
499.267	135.88
499.484	159.88
499.701	115.88
499.918	98.88
500.135	107.88
500.352	101.88
500.569	105.88
500.786	94.88
501.003	114.88
501.22	89.88
501.437	112.88
501.654	96.88
501.871	99.88
502.088	105.88
502.305	104.88
502.522	110.88
502.739	102.88
502.956	105.88
503.172	114.88
503.389	106.88
503.606	97.88
503.823	115.88
504.04	98.88
504.256	100.88
504.473	98.88
504.69	104.88
504.907	111.88
505.123	120.88
505.34	99.88
505.557	93.88
505.773	102.88
505.99	100.88
506.207	103.88
506.423	97.88
506.64	115.88
506.856	119.88
507.073	115.88
507.289	111.88
507.506	89.88
507.722	96.88
507.939	95.88
508.155	103.88
508.372	101.88
508.588	92.88
508.805	104.88
509.021	90.88
509.238	115.88
509.454	138.88
509.67	151.88
509.887	115.88
510.103	103.88
510.319	98.88
510.536	110.88
510.752	119.88
510.968	107.88
511.184	85.88
511.401	91.88
511.617	102.88
511.833	100.88
512.049	100.88
512.265	99.88
512.481	93.88
512.698	101.88
512.914	91.88
513.13	95.88
513.346	86.88
513.562	105.88
513.778	104.88
513.994	103.88
514.21	107.88
514.426	141.88
514.642	185.88
514.858	130.88
515.074	104.88
515.29	112.88
515.506	101.88
515.721	94.88
515.937	100.88
516.153	99.88
516.369	112.88
516.585	104.88
516.801	104.88
517.016	87.88
517.232	103.88
517.448	92.88
517.664	107.88
517.879	95.88
518.095	102.88
518.311	94.88
518.527	96.88
518.742	93.88
518.958	115.88
519.173	156.88
519.389	118.88
519.605	110.88
519.82	90.88
520.036	107.88
520.251	90.88
520.467	98.88
520.682	101.88
520.898	99.88
521.113	98.88
521.329	94.88
521.544	104.88
521.76	102.88
521.975	118.88
522.19	99.88
522.406	103.88
522.621	87.88
522.836	115.88
523.052	99.88
523.267	102.88
523.482	97.88
523.698	90.88
523.913	83.88
524.128	108.88
524.343	97.88
524.559	109.88
524.774	96.88
524.989	98.88
525.204	101.88
525.419	94.88
525.634	105.88
525.849	105.88
526.064	100.88
526.28	106.88
526.495	96.88
526.71	99.88
526.925	106.88
527.14	107.88
527.355	95.88
527.57	86.88
527.785	79.88
527.999	107.88
528.214	98.88
528.429	97.88
528.644	105.88
528.859	82.88
529.074	99.88
529.289	92.88
529.503	91.88
529.718	93.88
529.933	84.88
530.148	104.88
530.363	90.88
530.577	106.88
530.792	93.88
531.007	92.88
531.221	97.88
531.436	93.88
531.651	104.88
531.865	76.88
532.08	104.88
532.295	118.88
532.509	145.88
532.724	100.88
532.938	99.88
533.153	105.88
533.367	95.88
533.582	99.88
533.796	88.88
534.011	95.88
534.225	101.88
534.44	100.88
534.654	94.88
534.868	98.88
535.083	96.88
535.297	95.88
535.511	100.88
535.726	103.88
535.94	86.88
536.154	100.88
536.369	87.88
536.583	91.88
536.797	104.88
537.011	93.88
537.225	97.88
537.44	97.88
537.654	103.88
537.868	96.88
538.082	101.88
538.296	90.88
538.51	91.88
538.724	78.88
538.938	97.88
539.153	107.88
539.367	101.88
539.581	102.88
539.795	99.88
540.009	95.88
540.222	100.88
540.436	81.88
540.65	105.88
540.864	92.88
541.078	104.88
541.292	139.88
541.506	218.88
541.72	201.88
541.934	116.88
542.147	120.88
542.361	102.88
542.575	117.88
542.789	98.88
543.002	88.88
543.216	100.88
543.43	96.88
543.644	103.88
543.857	104.88
544.071	95.88
544.285	105.88
544.498	103.88
544.712	105.88
544.925	103.88
545.139	104.88
545.352	92.88
545.566	112.88
545.779	99.88
545.993	102.88
546.206	105.88
546.42	101.88
546.633	104.88
546.847	111.88
547.06	95.88
547.274	102.88
547.487	106.88
547.7	100.88
547.914	106.88
548.127	94.88
548.34	109.88
548.554	106.88
548.767	111.88
548.98	114.88
549.193	97.88
549.407	110.88
549.62	96.88
549.833	106.88
550.046	104.88
550.259	98.88
550.473	101.88
550.686	107.88
550.899	110.88
551.112	112.88
551.325	108.88
551.538	103.88
551.751	93.88
551.964	86.88
552.177	117.88
552.39	98.88
552.603	101.88
552.816	116.88
553.029	114.88
553.242	102.88
553.455	107.88
553.667	99.88
553.88	105.88
554.093	92.88
554.306	106.88
554.519	99.88
554.732	103.88
554.944	92.88
555.157	105.88
555.37	102.88
555.583	102.88
555.795	100.88
556.008	117.88
556.221	158.88
556.433	122.88
556.646	106.88
556.859	84.88
557.071	117.88
557.284	122.88
557.496	118.88
557.709	111.88
557.921	106.88
558.134	113.88
558.346	92.88
558.559	106.88
558.771	110.88
558.984	114.88
559.196	119.88
559.409	109.88
559.621	107.88
559.833	101.88
560.046	100.88
560.258	90.88
560.47	103.88
560.683	102.88
560.895	90.88
561.107	98.88
561.32	104.88
561.532	110.88
561.744	101.88
561.956	107.88
562.168	94.88
562.381	98.88
562.593	126.88
562.805	147.88
563.017	180.88
563.229	256.88
563.441	627.88
563.653	210.88
563.865	107.88
564.077	87.88
564.289	104.88
564.501	100.88
564.713	100.88
564.925	99.88
565.137	96.88
565.349	98.88
565.561	103.88
565.773	98.88
565.985	106.88
566.197	107.88
566.408	110.88
566.62	91.88
566.832	85.88
567.044	110.88
567.255	101.88
567.467	99.88
567.679	109.88
567.891	102.88
568.102	174.88
568.314	267.88
568.526	154.88
568.737	122.88
568.949	108.88
569.161	98.88
569.372	100.88
569.584	107.88
569.795	107.88
570.007	101.88
570.218	122.88
570.43	150.88
570.641	107.88
570.853	105.88
571.064	108.88
571.276	94.88
571.487	82.88
571.698	96.88
571.91	103.88
572.121	105.88
572.333	90.88
572.544	98.88
572.755	149.88
572.966	198.88
573.178	146.88
573.389	103.88
573.6	104.88
573.811	99.88
574.023	103.88
574.234	88.88
574.445	95.88
574.656	95.88
574.867	90.88
575.078	95.88
575.289	90.88
575.501	87.88
575.712	105.88
575.923	87.88
576.134	96.88
576.345	95.88
576.556	90.88
576.767	95.88
576.978	93.88
577.188	105.88
577.399	94.88
577.61	94.88
577.821	87.88
578.032	76.88
578.243	91.88
578.454	99.88
578.665	81.88
578.875	84.88
579.086	96.88
579.297	84.88
579.508	84.88
579.718	78.88
579.929	103.88
580.14	97.88
580.35	92.88
580.561	100.88
580.772	101.88
580.982	101.88
581.193	94.88
581.403	84.88
581.614	97.88
581.825	102.88
582.035	95.88
582.246	89.88
582.456	89.88
582.667	92.88
582.877	105.88
583.087	120.88
583.298	100.88
583.508	86.88
583.719	91.88
583.929	98.88
584.139	85.88
584.35	85.88
584.56	83.88
584.77	89.88
584.981	102.88
585.191	92.88
585.401	94.88
585.611	92.88
585.821	101.88
586.032	84.88
586.242	90.88
586.452	90.88
586.662	81.88
586.872	87.88
587.082	100.88
587.292	98.88
587.502	92.88
587.713	101.88
587.923	90.88
588.133	85.88
588.343	89.88
588.553	87.88
588.762	91.88
588.972	99.88
589.182	118.88
589.392	102.88
589.602	110.88
589.812	95.88
590.022	103.88
590.232	85.88
590.441	113.88
590.651	91.88
590.861	91.88
591.071	79.88
591.281	77.88
591.49	88.88
591.7	92.88
591.91	87.88
592.119	93.88
592.329	95.88
592.539	79.88
592.748	95.88
592.958	88.88
593.167	84.88
593.377	89.88
593.587	91.88
593.796	102.88
594.006	87.88
594.215	87.88
594.424	78.88
594.634	96.88
594.843	93.88
595.053	102.88
595.262	97.88
595.472	88.88
595.681	84.88
595.89	92.88
596.1	95.88
596.309	93.88
596.518	91.88
596.727	85.88
596.937	79.88
597.146	85.88
597.355	89.88
597.564	115.88
597.774	95.88
597.983	88.88
598.192	82.88
598.401	92.88
598.61	95.88
598.819	87.88
599.028	95.88
599.237	84.88
599.446	86.88
599.655	84.88
599.864	80.88
600.073	86.88
600.282	96.88
600.491	91.88
600.7	97.88
600.909	98.88
601.118	86.88
601.327	106.88
601.536	105.88
601.745	91.88
601.953	132.88
602.162	174.88
602.371	116.88
602.58	89.88
602.789	100.88
602.997	102.88
603.206	94.88
603.415	116.88
603.623	99.88
603.832	103.88
604.041	98.88
604.249	94.88
604.458	98.88
604.666	95.88
604.875	102.88
605.084	100.88
605.292	114.88
605.501	96.88
605.709	107.88
605.918	104.88
606.126	116.88
606.334	83.88
606.543	101.88
606.751	136.88
606.96	179.88
607.168	164.88
607.376	131.88
607.585	102.88
607.793	94.88
608.001	87.88
608.21	110.88
608.418	85.88
608.626	99.88
608.834	90.88
609.043	90.88
609.251	87.88
609.459	97.88
609.667	82.88
609.875	85.88
610.083	100.88
610.291	92.88
610.499	80.88
610.707	98.88
610.916	86.88
611.124	80.88
611.332	87.88
611.54	78.88
611.748	84.88
611.955	102.88
612.163	94.88
612.371	95.88
612.579	90.88
612.787	87.88
612.995	92.88
613.203	90.88
613.411	102.88
613.618	104.88
613.826	91.88
614.034	97.88
614.242	88.88
614.449	95.88
614.657	89.88
614.865	98.88
615.072	117.88
615.28	120.88
615.488	110.88
615.695	101.88
615.903	94.88
616.111	112.88
616.318	102.88
616.526	86.88
616.733	83.88
616.941	75.88
617.148	91.88
617.356	92.88
617.563	86.88
617.771	86.88
617.978	74.88
618.185	93.88
618.393	96.88
618.6	92.88
618.807	85.88
619.015	94.88
619.222	73.88
619.429	86.88
619.637	98.88
619.844	82.88
620.051	88.88
620.258	98.88
620.466	94.88
620.673	94.88
620.88	85.88
621.087	90.88
621.294	98.88
621.501	91.88
621.708	79.88
621.915	83.88
622.122	91.88
622.329	80.88
622.536	90.88
622.743	86.88
622.95	88.88
623.157	97.88
623.364	103.88
623.571	85.88
623.778	81.88
623.985	100.88
624.192	88.88
624.399	106.88
624.606	88.88
624.812	95.88
625.019	85.88
625.226	95.88
625.433	90.88
625.639	88.88
625.846	91.88
626.053	93.88
626.259	89.88
626.466	92.88
626.673	88.88
626.879	85.88
627.086	97.88
627.293	87.88
627.499	84.88
627.706	104.88
627.912	93.88
628.119	92.88
628.325	88.88
628.532	96.88
628.738	89.88
628.945	79.88
629.151	82.88
629.357	105.88
629.564	95.88
629.77	96.88
629.976	98.88
630.183	78.88
630.389	69.88
630.595	88.88
630.802	76.88
631.008	69.88
631.214	100.88
631.42	112.88
631.627	88.88
631.833	90.88
632.039	89.88
632.245	82.88
632.451	81.88
632.657	91.88
632.863	97.88
633.069	79.88
633.275	91.88
633.481	95.88
633.688	83.88
633.893	100.88
634.099	97.88
634.305	89.88
634.511	95.88
634.717	84.88
634.923	100.88
635.129	130.88
635.335	139.88
635.541	122.88
635.747	95.88
635.952	87.88
636.158	89.88
636.364	88.88
636.57	95.88
636.775	78.88
636.981	86.88
637.187	89.88
637.392	81.88
637.598	84.88
637.804	87.88
638.009	86.88
638.215	84.88
638.421	87.88
638.626	87.88
638.832	91.88
639.037	84.88
639.243	91.88
639.448	74.88
639.654	85.88
639.859	97.88
640.065	84.88
640.27	93.88
640.475	95.88
640.681	95.88
640.886	88.88
641.091	85.88
641.297	78.88
641.502	89.88
641.707	79.88
641.913	87.88
642.118	86.88
642.323	86.88
642.528	86.88
642.733	85.88
642.939	100.88
643.144	110.88
643.349	97.88
643.554	82.88
643.759	90.88
643.964	98.88
644.169	95.88
644.374	87.88
644.579	98.88
644.784	88.88
644.989	86.88
645.194	91.88
645.399	111.88
645.604	91.88
645.809	94.88
646.014	90.88
646.219	93.88
646.423	82.88
646.628	93.88
646.833	87.88
647.038	80.88
647.243	91.88
647.447	82.88
647.652	91.88
647.857	70.88
648.062	77.88
648.266	87.88
648.471	89.88
648.676	84.88
648.88	82.88
649.085	82.88
649.289	85.88
649.494	88.88
649.698	86.88
649.903	97.88
650.107	82.88
650.312	97.88
650.516	83.88
650.721	100.88
650.925	85.88
651.13	86.88
651.334	78.88
651.539	91.88
651.743	95.88
651.947	96.88
652.152	82.88
652.356	75.88
652.56	105.88
652.764	118.88
652.969	96.88
653.173	84.88
653.377	79.88
653.581	88.88
653.785	90.88
653.99	85.88
654.194	85.88
654.398	95.88
654.602	80.88
654.806	83.88
655.01	95.88
655.214	99.88
655.418	90.88
655.622	84.88
655.826	99.88
656.03	90.88
656.234	90.88
656.438	89.88
656.642	70.88
656.846	88.88
657.049	84.88
657.253	81.88
657.457	89.88
657.661	89.88
657.865	84.88
658.068	94.88
658.272	73.88
658.476	90.88
658.68	92.88
658.883	91.88
659.087	71.88
659.291	88.88
659.494	90.88
659.698	78.88
659.901	88.88
660.105	83.88
660.309	77.88
660.512	71.88
660.716	76.88
660.919	93.88
661.123	84.88
661.326	75.88
661.53	72.88
661.733	78.88
661.936	80.88
662.14	78.88
662.343	94.88
662.546	82.88
662.75	83.88
662.953	90.88
663.156	71.88
663.36	82.88
663.563	95.88
663.766	105.88
663.969	96.88
664.173	78.88
664.376	81.88
664.579	86.88
664.782	78.88
664.985	84.88
665.188	72.88
665.391	66.88
665.594	90.88
665.797	84.88
666	80.88
666.203	81.88
666.406	77.88
666.609	67.88
666.812	69.88
667.015	88.88
667.218	95.88
667.421	90.88
667.624	99.88
667.827	81.88
668.03	87.88
668.232	92.88
668.435	78.88
668.638	95.88
668.841	89.88
669.043	88.88
669.246	89.88
669.449	87.88
669.651	75.88
669.854	81.88
670.057	81.88
670.259	80.88
670.462	88.88
670.665	76.88
670.867	79.88
671.07	79.88
671.272	88.88
671.475	89.88
671.677	81.88
671.88	88.88
672.082	77.88
672.284	93.88
672.487	77.88
672.689	91.88
672.892	85.88
