Data from SnStandardFlinnAPT0064_LampEnergy5.5_LIBS07252019.E.O._I.C._HRD10591_15-15-07-491.txt Node
Date: Thu Jul 25 15:15:07 EDT 2019
User: cochatt
Spectrometer: HR+D1059
Trigger mode: 1
Integration Time (sec): 1.000000E-1
Scans to average: 1
Electric dark correction enabled: true
Nonlinearity correction enabled: false
Boxcar width: 0
XAxis mode: Wavelengths
Number of Pixels in Spectrum: 2048
>>>>>Begin Spectral Data<<<<<
223.165	-23.31
223.4	-23.31
223.635	-23.31
223.869	-4.31
224.104	-21.31
224.338	-29.31
224.573	-9.31
224.808	-15.31
225.042	0.69
225.277	-1.31
225.511	-7.31
225.746	-7.31
225.98	9.69
226.215	0.69
226.449	10.69
226.683	35.69
226.918	29.69
227.152	31.69
227.387	32.69
227.621	42.69
227.856	49.69
228.09	48.69
228.324	56.69
228.559	52.69
228.793	70.69
229.027	150.69
229.262	143.69
229.496	130.69
229.73	149.69
229.964	154.69
230.199	167.69
230.433	146.69
230.667	134.69
230.901	156.69
231.136	183.69
231.37	148.69
231.604	170.69
231.838	197.69
232.072	215.69
232.306	216.69
232.541	198.69
232.775	182.69
233.009	198.69
233.243	184.69
233.477	191.69
233.711	203.69
233.945	214.69
234.179	222.69
234.413	204.69
234.647	192.69
234.881	217.69
235.115	241.69
235.349	253.69
235.583	285.69
235.817	368.69
236.051	346.69
236.285	272.69
236.519	218.69
236.753	232.69
236.987	214.69
237.221	244.69
237.455	220.69
237.689	212.69
237.922	211.69
238.156	199.69
238.39	202.69
238.624	217.69
238.858	225.69
239.091	229.69
239.325	215.69
239.559	211.69
239.793	215.69
240.027	234.69
240.26	231.69
240.494	244.69
240.728	248.69
240.961	248.69
241.195	266.69
241.429	282.69
241.662	274.69
241.896	324.69
242.13	322.69
242.363	411.69
242.597	538.69
242.83	499.69
243.064	514.69
243.298	598.69
243.531	504.69
243.765	356.69
243.998	290.69
244.232	279.69
244.465	272.69
244.699	277.69
244.932	286.69
245.166	280.69
245.399	287.69
245.633	282.69
245.866	288.69
246.099	269.69
246.333	272.69
246.566	274.69
246.8	277.69
247.033	270.69
247.266	269.69
247.5	267.69
247.733	278.69
247.966	292.69
248.2	313.69
248.433	323.69
248.666	358.69
248.899	345.69
249.133	331.69
249.366	326.69
249.599	348.69
249.832	376.69
250.066	394.69
250.299	345.69
250.532	323.69
250.765	320.69
250.998	304.69
251.231	312.69
251.465	310.69
251.698	311.69
251.931	310.69
252.164	326.69
252.397	304.69
252.63	318.69
252.863	316.69
253.096	314.69
253.329	337.69
253.562	322.69
253.795	320.69
254.028	338.69
254.261	329.69
254.494	356.69
254.727	396.69
254.96	450.69
255.193	437.69
255.426	375.69
255.659	355.69
255.892	328.69
256.124	327.69
256.357	347.69
256.59	354.69
256.823	375.69
257.056	416.69
257.289	453.69
257.521	497.69
257.754	422.69
257.987	387.69
258.22	376.69
258.452	386.69
258.685	380.69
258.918	391.69
259.151	403.69
259.383	401.69
259.616	448.69
259.849	454.69
260.081	418.69
260.314	416.69
260.547	381.69
260.779	392.69
261.012	383.69
261.244	380.69
261.477	422.69
261.71	420.69
261.942	419.69
262.175	427.69
262.407	447.69
262.64	442.69
262.872	458.69
263.105	463.69
263.337	486.69
263.57	530.69
263.802	534.69
264.035	525.69
264.267	549.69
264.499	576.69
264.732	605.69
264.964	599.69
265.197	604.69
265.429	582.69
265.661	594.69
265.894	633.69
266.126	672.69
266.358	715.69
266.591	707.69
266.823	651.69
267.055	610.69
267.287	588.69
267.52	556.69
267.752	553.69
267.984	527.69
268.216	504.69
268.448	513.69
268.681	489.69
268.913	508.69
269.145	507.69
269.377	503.69
269.609	511.69
269.841	520.69
270.073	552.69
270.306	578.69
270.538	752.69
270.77	1050.69
271.002	1232.69
271.234	921.69
271.466	657.69
271.698	580.69
271.93	524.69
272.162	500.69
272.394	514.69
272.626	503.69
272.858	494.69
273.09	492.69
273.322	488.69
273.553	494.69
273.785	490.69
274.017	498.69
274.249	482.69
274.481	479.69
274.713	475.69
274.945	496.69
275.176	480.69
275.408	475.69
275.64	496.69
275.872	502.69
276.104	508.69
276.335	488.69
276.567	494.69
276.799	524.69
277.031	515.69
277.262	518.69
277.494	527.69
277.726	565.69
277.957	626.69
278.189	683.69
278.421	650.69
278.652	624.69
278.884	626.69
279.115	565.69
279.347	562.69
279.579	572.69
279.81	558.69
280.042	531.69
280.273	552.69
280.505	571.69
280.736	560.69
280.968	592.69
281.199	628.69
281.431	679.69
281.662	698.69
281.894	663.69
282.125	608.69
282.356	621.69
282.588	634.69
282.819	664.69
283.051	663.69
283.282	697.69
283.513	869.69
283.745	1181.69
283.976	1774.69
284.207	2460.69
284.439	2256.69
284.67	1436.69
284.901	1156.69
285.132	1149.69
285.364	1118.69
285.595	896.69
285.826	835.69
286.057	967.69
286.288	1262.69
286.52	1642.69
286.751	1519.69
286.982	1008.69
287.213	800.69
287.444	729.69
287.675	684.69
287.906	690.69
288.138	679.69
288.369	638.69
288.6	640.69
288.831	643.69
289.062	641.69
289.293	648.69
289.524	666.69
289.755	666.69
289.986	677.69
290.217	646.69
290.448	672.69
290.679	670.69
290.91	664.69
291.141	671.69
291.371	695.69
291.602	712.69
291.833	699.69
292.064	652.69
292.295	648.69
292.526	636.69
292.757	630.69
292.987	620.69
293.218	628.69
293.449	624.69
293.68	623.69
293.91	604.69
294.141	628.69
294.372	598.69
294.603	610.69
294.833	613.69
295.064	648.69
295.295	630.69
295.525	608.69
295.756	620.69
295.987	589.69
296.217	595.69
296.448	609.69
296.679	642.69
296.909	623.69
297.14	632.69
297.37	654.69
297.601	625.69
297.831	650.69
298.062	607.69
298.292	636.69
298.523	648.69
298.753	664.69
298.984	679.69
299.214	661.69
299.445	673.69
299.675	672.69
299.905	689.69
300.136	708.69
300.366	768.69
300.597	932.69
300.827	1225.69
301.057	1580.69
301.288	1614.69
301.518	1090.69
301.748	894.69
301.979	840.69
302.209	810.69
302.439	817.69
302.669	832.69
302.9	970.69
303.13	1298.69
303.36	1848.69
303.59	2375.69
303.82	2130.69
304.051	1329.69
304.281	1030.69
304.511	882.69
304.741	843.69
304.971	782.69
305.201	790.69
305.431	785.69
305.661	758.69
305.891	745.69
306.121	711.69
306.352	699.69
306.582	739.69
306.812	735.69
307.042	737.69
307.272	682.69
307.502	725.69
307.731	677.69
307.961	677.69
308.191	708.69
308.421	716.69
308.651	713.69
308.881	695.69
309.111	696.69
309.341	695.69
309.571	712.69
309.8	742.69
310.03	741.69
310.26	743.69
310.49	744.69
310.72	733.69
310.949	721.69
311.179	740.69
311.409	753.69
311.639	734.69
311.868	758.69
312.098	738.69
312.328	745.69
312.557	777.69
312.787	743.69
313.017	746.69
313.246	766.69
313.476	745.69
313.706	788.69
313.935	801.69
314.165	835.69
314.394	850.69
314.624	835.69
314.853	829.69
315.083	801.69
315.312	820.69
315.542	858.69
315.771	840.69
316.001	812.69
316.23	882.69
316.46	886.69
316.689	963.69
316.919	1097.69
317.148	1498.69
317.377	2182.69
317.607	3082.69
317.836	3199.69
318.065	1998.69
318.295	1397.69
318.524	1154.69
318.753	1040.69
318.983	998.69
319.212	935.69
319.441	909.69
319.67	908.69
319.9	922.69
320.129	893.69
320.358	885.69
320.587	894.69
320.816	891.69
321.046	876.69
321.275	889.69
321.504	880.69
321.733	908.69
321.962	919.69
322.191	914.69
322.42	919.69
322.649	928.69
322.878	913.69
323.108	962.69
323.337	953.69
323.566	957.69
323.795	965.69
324.024	998.69
324.253	987.69
324.482	1011.69
324.71	1074.69
324.939	1128.69
325.168	1115.69
325.397	1195.69
325.626	1348.69
325.855	1761.69
326.084	2696.69
326.313	3851.69
326.542	4131.69
326.77	2745.69
326.999	1914.69
327.228	1634.69
327.457	1586.69
327.686	1609.69
327.914	1695.69
328.143	1927.69
328.372	2229.69
328.6	2426.69
328.829	2226.69
329.058	1985.69
329.287	1822.69
329.515	1658.69
329.744	1542.69
329.972	1431.69
330.201	1423.69
330.43	1371.69
330.658	1355.69
330.887	1303.69
331.115	1295.69
331.344	1306.69
331.572	1269.69
331.801	1320.69
332.03	1306.69
332.258	1293.69
332.486	1356.69
332.715	1480.69
332.943	1744.69
333.172	2036.69
333.4	2042.69
333.629	1699.69
333.857	1608.69
334.085	1617.69
334.314	1662.69
334.542	1815.69
334.771	2034.69
334.999	2418.69
335.227	2877.69
335.455	3160.69
335.684	2924.69
335.912	2571.69
336.14	2292.69
336.369	2048.69
336.597	1870.69
336.825	1739.69
337.053	1625.69
337.281	1590.69
337.51	1472.69
337.738	1451.69
337.966	1399.69
338.194	1355.69
338.422	1306.69
338.65	1306.69
338.878	1271.69
339.106	1217.69
339.334	1198.69
339.562	1198.69
339.79	1181.69
340.018	1177.69
340.246	1134.69
340.474	1138.69
340.702	1146.69
340.93	1127.69
341.158	1160.69
341.386	1175.69
341.614	1160.69
341.842	1091.69
342.07	1114.69
342.298	1074.69
342.526	1068.69
342.754	1062.69
342.981	1042.69
343.209	1052.69
343.437	1093.69
343.665	1074.69
343.893	1072.69
344.12	1110.69
344.348	1124.69
344.576	1092.69
344.804	1042.69
345.031	1033.69
345.259	1008.69
345.487	1014.69
345.714	991.69
345.942	982.69
346.17	999.69
346.397	976.69
346.625	960.69
346.853	953.69
347.08	960.69
347.308	985.69
347.535	959.69
347.763	971.69
347.99	966.69
348.218	956.69
348.445	948.69
348.673	954.69
348.9	958.69
349.128	938.69
349.355	966.69
349.583	942.69
349.81	956.69
350.037	948.69
350.265	919.69
350.492	952.69
350.72	934.69
350.947	952.69
351.174	933.69
351.402	935.69
351.629	916.69
351.856	922.69
352.083	908.69
352.311	913.69
352.538	946.69
352.765	917.69
352.992	951.69
353.22	946.69
353.447	930.69
353.674	941.69
353.901	943.69
354.128	952.69
354.355	938.69
354.583	931.69
354.81	939.69
355.037	933.69
355.264	928.69
355.491	933.69
355.718	952.69
355.945	978.69
356.172	955.69
356.399	948.69
356.626	983.69
356.853	968.69
357.08	961.69
357.307	970.69
357.534	1022.69
357.761	1007.69
357.988	994.69
358.215	1006.69
358.441	1014.69
358.668	983.69
358.895	992.69
359.122	991.69
359.349	991.69
359.576	984.69
359.802	1001.69
360.029	996.69
360.256	1014.69
360.483	986.69
360.709	978.69
360.936	1001.69
361.163	982.69
361.39	1012.69
361.616	984.69
361.843	1010.69
362.07	1015.69
362.296	1008.69
362.523	1004.69
362.749	998.69
362.976	967.69
363.203	981.69
363.429	985.69
363.656	993.69
363.882	967.69
364.109	987.69
364.335	977.69
364.562	968.69
364.788	1003.69
365.015	991.69
365.241	1008.69
365.468	1062.69
365.694	1051.69
365.92	1048.69
366.147	1024.69
366.373	1024.69
366.599	1012.69
366.826	1058.69
367.052	1037.69
367.278	1044.69
367.505	992.69
367.731	1036.69
367.957	1041.69
368.184	1020.69
368.41	1055.69
368.636	1033.69
368.862	1001.69
369.089	1009.69
369.315	1006.69
369.541	1021.69
369.767	1016.69
369.993	1033.69
370.219	1036.69
370.445	1030.69
370.672	1048.69
370.898	1059.69
371.124	1048.69
371.35	1046.69
371.576	1035.69
371.802	1074.69
372.028	1088.69
372.254	1075.69
372.48	1100.69
372.706	1089.69
372.932	1098.69
373.158	1077.69
373.384	1078.69
373.61	1094.69
373.835	1100.69
374.061	1090.69
374.287	1096.69
374.513	1112.69
374.739	1124.69
374.965	1146.69
375.191	1133.69
375.416	1131.69
375.642	1104.69
375.868	1147.69
376.094	1086.69
376.319	1104.69
376.545	1104.69
376.771	1086.69
376.997	1104.69
377.222	1077.69
377.448	1088.69
377.674	1085.69
377.899	1081.69
378.125	1066.69
378.35	1072.69
378.576	1060.69
378.802	1055.69
379.027	1072.69
379.253	1100.69
379.478	1132.69
379.704	1318.69
379.929	1671.69
380.155	2360.69
380.38	2499.69
380.606	1705.69
380.831	1288.69
381.057	1210.69
381.282	1116.69
381.507	1106.69
381.733	1078.69
381.958	1078.69
382.184	1084.69
382.409	1065.69
382.634	1072.69
382.86	1100.69
383.085	1059.69
383.31	1074.69
383.535	1090.69
383.761	1054.69
383.986	1088.69
384.211	1102.69
384.436	1073.69
384.662	1088.69
384.887	1100.69
385.112	1092.69
385.337	1098.69
385.562	1118.69
385.787	1102.69
386.013	1114.69
386.238	1109.69
386.463	1099.69
386.688	1101.69
386.913	1123.69
387.138	1098.69
387.363	1077.69
387.588	1102.69
387.813	1100.69
388.038	1110.69
388.263	1108.69
388.488	1089.69
388.713	1083.69
388.938	1074.69
389.163	1090.69
389.387	1082.69
389.612	1107.69
389.837	1104.69
390.062	1121.69
390.287	1081.69
390.512	1112.69
390.736	1142.69
390.961	1131.69
391.186	1121.69
391.411	1126.69
391.636	1172.69
391.86	1172.69
392.085	1162.69
392.31	1135.69
392.534	1132.69
392.759	1094.69
392.984	1134.69
393.208	1138.69
393.433	1095.69
393.658	1122.69
393.882	1116.69
394.107	1110.69
394.331	1107.69
394.556	1108.69
394.78	1107.69
395.005	1122.69
395.229	1138.69
395.454	1113.69
395.678	1131.69
395.903	1195.69
396.127	1168.69
396.352	1146.69
396.576	1112.69
396.801	1138.69
397.025	1092.69
397.249	1178.69
397.474	1174.69
397.698	1147.69
397.922	1181.69
398.147	1172.69
398.371	1208.69
398.595	1194.69
398.82	1176.69
399.044	1278.69
399.268	1336.69
399.492	1412.69
399.717	1472.69
399.941	1472.69
400.165	1365.69
400.389	1319.69
400.613	1293.69
400.837	1237.69
401.062	1250.69
401.286	1201.69
401.51	1224.69
401.734	1226.69
401.958	1205.69
402.182	1226.69
402.406	1240.69
402.63	1205.69
402.854	1240.69
403.078	1246.69
403.302	1244.69
403.526	1233.69
403.75	1242.69
403.974	1297.69
404.198	1261.69
404.422	1266.69
404.645	1272.69
404.869	1264.69
405.093	1256.69
405.317	1256.69
405.541	1284.69
405.765	1285.69
405.988	1304.69
406.212	1280.69
406.436	1258.69
406.66	1322.69
406.883	1312.69
407.107	1345.69
407.331	1378.69
407.555	1384.69
407.778	1374.69
408.002	1322.69
408.226	1310.69
408.449	1336.69
408.673	1347.69
408.896	1294.69
409.12	1304.69
409.344	1297.69
409.567	1267.69
409.791	1258.69
410.014	1247.69
410.238	1278.69
410.461	1280.69
410.685	1251.69
410.908	1242.69
411.132	1215.69
411.355	1210.69
411.578	1214.69
411.802	1211.69
412.025	1204.69
412.249	1202.69
412.472	1216.69
412.695	1218.69
412.919	1241.69
413.142	1193.69
413.365	1202.69
413.589	1189.69
413.812	1207.69
414.035	1173.69
414.258	1195.69
414.482	1198.69
414.705	1212.69
414.928	1182.69
415.151	1203.69
415.374	1178.69
415.597	1164.69
415.821	1171.69
416.044	1156.69
416.267	1130.69
416.49	1163.69
416.713	1148.69
416.936	1166.69
417.159	1144.69
417.382	1122.69
417.605	1134.69
417.828	1141.69
418.051	1150.69
418.274	1165.69
418.497	1160.69
418.72	1151.69
418.943	1164.69
419.166	1202.69
419.389	1255.69
419.611	1248.69
419.834	1205.69
420.057	1226.69
420.28	1158.69
420.503	1172.69
420.726	1150.69
420.948	1146.69
421.171	1130.69
421.394	1160.69
421.617	1138.69
421.839	1188.69
422.062	1199.69
422.285	1160.69
422.507	1184.69
422.73	1171.69
422.953	1171.69
423.175	1186.69
423.398	1199.69
423.621	1152.69
423.843	1174.69
424.066	1147.69
424.288	1145.69
424.511	1162.69
424.733	1175.69
424.956	1179.69
425.178	1143.69
425.401	1146.69
425.623	1158.69
425.846	1126.69
426.068	1147.69
426.291	1131.69
426.513	1126.69
426.735	1107.69
426.958	1134.69
427.18	1074.69
427.402	1090.69
427.625	1118.69
427.847	1049.69
428.069	1114.69
428.292	1106.69
428.514	1063.69
428.736	1058.69
428.958	1050.69
429.181	1060.69
429.403	1046.69
429.625	1059.69
429.847	1091.69
430.069	1064.69
430.292	1122.69
430.514	1127.69
430.736	1151.69
430.958	1073.69
431.18	1083.69
431.402	1074.69
431.624	1065.69
431.846	1074.69
432.068	1041.69
432.29	1000.69
432.512	1040.69
432.734	1070.69
432.956	1046.69
433.178	1072.69
433.4	1069.69
433.622	1116.69
433.844	1103.69
434.066	1057.69
434.287	1056.69
434.509	1078.69
434.731	1099.69
434.953	1088.69
435.175	1106.69
435.397	1122.69
435.618	1086.69
435.84	1040.69
436.062	1080.69
436.284	1057.69
436.505	1057.69
436.727	1075.69
436.949	1072.69
437.17	1091.69
437.392	1026.69
437.614	1059.69
437.835	1026.69
438.057	1035.69
438.278	1024.69
438.5	1026.69
438.721	1073.69
438.943	1084.69
439.165	1064.69
439.386	1070.69
439.608	1087.69
439.829	1060.69
440.05	1130.69
440.272	1154.69
440.493	1118.69
440.715	1115.69
440.936	1113.69
441.158	1095.69
441.379	1114.69
441.6	1152.69
441.822	1163.69
442.043	1182.69
442.264	1226.69
442.486	1192.69
442.707	1141.69
442.928	1140.69
443.149	1165.69
443.371	1151.69
443.592	1148.69
443.813	1178.69
444.034	1160.69
444.255	1190.69
444.476	1222.69
444.698	1217.69
444.919	1220.69
445.14	1319.69
445.361	1227.69
445.582	1194.69
445.803	1142.69
446.024	1118.69
446.245	1186.69
446.466	1145.69
446.687	1113.69
446.908	1104.69
447.129	1073.69
447.35	1125.69
447.571	1098.69
447.792	1096.69
448.013	1076.69
448.234	1028.69
448.455	1070.69
448.675	1080.69
448.896	1085.69
449.117	1117.69
449.338	1144.69
449.559	1192.69
449.779	1097.69
450	1050.69
450.221	1036.69
450.442	1021.69
450.662	1001.69
450.883	1028.69
451.104	1038.69
451.324	1009.69
451.545	1037.69
451.766	1064.69
451.986	1040.69
452.207	1083.69
452.428	1243.69
452.648	1650.69
452.869	1421.69
453.089	1144.69
453.31	1110.69
453.53	1104.69
453.751	1132.69
453.971	1149.69
454.192	1150.69
454.412	1001.69
454.633	972.69
454.853	1008.69
455.073	987.69
455.294	983.69
455.514	993.69
455.734	969.69
455.955	995.69
456.175	974.69
456.395	969.69
456.616	986.69
456.836	960.69
457.056	1008.69
457.276	980.69
457.497	1009.69
457.717	1040.69
457.937	1020.69
458.157	1008.69
458.377	1042.69
458.598	1025.69
458.818	1048.69
459.038	1040.69
459.258	1033.69
459.478	1074.69
459.698	1080.69
459.918	1079.69
460.138	1096.69
460.358	1104.69
460.578	1133.69
460.798	1145.69
461.018	1177.69
461.238	1179.69
461.458	1172.69
461.678	1144.69
461.898	1174.69
462.118	1167.69
462.338	1191.69
462.558	1234.69
462.777	1269.69
462.997	1299.69
463.217	1345.69
463.437	1363.69
463.657	1320.69
463.876	1342.69
464.096	1305.69
464.316	1256.69
464.536	1251.69
464.755	1222.69
464.975	1214.69
465.195	1167.69
465.414	1167.69
465.634	1099.69
465.854	1097.69
466.073	1048.69
466.293	1075.69
466.512	1072.69
466.732	1102.69
466.951	1119.69
467.171	1189.69
467.391	1162.69
467.61	1090.69
467.829	1058.69
468.049	1070.69
468.268	1033.69
468.488	1038.69
468.707	1056.69
468.927	1050.69
469.146	1032.69
469.365	1060.69
469.585	1066.69
469.804	1058.69
470.023	1122.69
470.243	1107.69
470.462	1128.69
470.681	1160.69
470.901	1227.69
471.12	1386.69
471.339	1431.69
471.558	1208.69
471.777	1147.69
471.997	1083.69
472.216	1055.69
472.435	1047.69
472.654	1064.69
472.873	1014.69
473.092	1055.69
473.311	1058.69
473.53	1049.69
473.749	1057.69
473.968	1109.69
474.187	1056.69
474.406	1052.69
474.625	1054.69
474.844	1052.69
475.063	1070.69
475.282	1059.69
475.501	1056.69
475.72	1075.69
475.939	1059.69
476.158	1119.69
476.377	1137.69
476.596	1052.69
476.814	1085.69
477.033	1101.69
477.252	1088.69
477.471	1137.69
477.69	1134.69
477.908	1178.69
478.127	1180.69
478.346	1199.69
478.564	1227.69
478.783	1219.69
479.002	1264.69
479.22	1269.69
479.439	1253.69
479.658	1233.69
479.876	1246.69
480.095	1245.69
480.313	1251.69
480.532	1290.69
480.751	1280.69
480.969	1274.69
481.188	1246.69
481.406	1249.69
481.624	1218.69
481.843	1259.69
482.061	1247.69
482.28	1264.69
482.498	1210.69
482.717	1277.69
482.935	1247.69
483.153	1257.69
483.372	1295.69
483.59	1330.69
483.808	1310.69
484.027	1311.69
484.245	1425.69
484.463	1507.69
484.681	1636.69
484.9	1513.69
485.118	1445.69
485.336	1444.69
485.554	1449.69
485.772	1466.69
485.99	1626.69
486.209	1793.69
486.427	1518.69
486.645	1414.69
486.863	1383.69
487.081	1336.69
487.299	1361.69
487.517	1349.69
487.735	1330.69
487.953	1368.69
488.171	1363.69
488.389	1345.69
488.607	1299.69
488.825	1318.69
489.043	1314.69
489.261	1278.69
489.479	1292.69
489.696	1308.69
489.914	1301.69
490.132	1312.69
490.35	1340.69
490.568	1350.69
490.786	1337.69
491.003	1367.69
491.221	1398.69
491.439	1405.69
491.657	1376.69
491.874	1410.69
492.092	1438.69
492.31	1424.69
492.527	1430.69
492.745	1403.69
492.963	1424.69
493.18	1424.69
493.398	1395.69
493.615	1407.69
493.833	1391.69
494.05	1383.69
494.268	1421.69
494.485	1402.69
494.703	1365.69
494.92	1411.69
495.138	1404.69
495.355	1394.69
495.573	1424.69
495.79	1394.69
496.008	1411.69
496.225	1424.69
496.442	1420.69
496.66	1470.69
496.877	1476.69
497.094	1470.69
497.312	1465.69
497.529	1503.69
497.746	1520.69
497.963	1502.69
498.181	1554.69
498.398	1589.69
498.615	1578.69
498.832	1665.69
499.049	1786.69
499.267	1859.69
499.484	1994.69
499.701	2032.69
499.918	2120.69
500.135	2278.69
500.352	2337.69
500.569	2373.69
500.786	2385.69
501.003	2281.69
501.22	2159.69
501.437	2040.69
501.654	1948.69
501.871	1808.69
502.088	1748.69
502.305	1672.69
502.522	1640.69
502.739	1633.69
502.956	1506.69
503.172	1544.69
503.389	1481.69
503.606	1474.69
503.823	1447.69
504.04	1444.69
504.256	1410.69
504.473	1469.69
504.69	1425.69
504.907	1394.69
505.123	1379.69
505.34	1346.69
505.557	1310.69
505.773	1296.69
505.99	1291.69
506.207	1237.69
506.423	1264.69
506.64	1253.69
506.856	1217.69
507.073	1214.69
507.289	1223.69
507.506	1226.69
507.722	1207.69
507.939	1199.69
508.155	1200.69
508.372	1190.69
508.588	1176.69
508.805	1156.69
509.021	1164.69
509.238	1196.69
509.454	1231.69
509.67	1263.69
509.887	1219.69
510.103	1174.69
510.319	1176.69
510.536	1169.69
510.752	1136.69
510.968	1130.69
511.184	1144.69
511.401	1104.69
511.617	1138.69
511.833	1101.69
512.049	1136.69
512.265	1124.69
512.481	1125.69
512.698	1131.69
512.914	1115.69
513.13	1108.69
513.346	1116.69
513.562	1123.69
513.778	1113.69
513.994	1139.69
514.21	1156.69
514.426	1191.69
514.642	1199.69
514.858	1157.69
515.074	1146.69
515.29	1154.69
515.506	1172.69
515.721	1154.69
515.937	1154.69
516.153	1154.69
516.369	1171.69
516.585	1173.69
516.801	1235.69
517.016	1218.69
517.232	1255.69
517.448	1267.69
517.664	1284.69
517.879	1274.69
518.095	1267.69
518.311	1286.69
518.527	1262.69
518.742	1267.69
518.958	1239.69
519.173	1227.69
519.389	1237.69
519.605	1186.69
519.82	1177.69
520.036	1143.69
520.251	1151.69
520.467	1140.69
520.682	1146.69
520.898	1112.69
521.113	1112.69
521.329	1104.69
521.544	1112.69
521.76	1120.69
521.975	1082.69
522.19	1080.69
522.406	1094.69
522.621	1080.69
522.836	1092.69
523.052	1071.69
523.267	1114.69
523.482	1119.69
523.698	1067.69
523.913	1100.69
524.128	1121.69
524.343	1085.69
524.559	1090.69
524.774	1098.69
524.989	1099.69
525.204	1060.69
525.419	1093.69
525.634	1113.69
525.849	1122.69
526.064	1073.69
526.28	1095.69
526.495	1068.69
526.71	1089.69
526.925	1098.69
527.14	1073.69
527.355	1104.69
527.57	1092.69
527.785	1116.69
527.999	1111.69
528.214	1110.69
528.429	1119.69
528.644	1152.69
528.859	1163.69
529.074	1168.69
529.289	1166.69
529.503	1211.69
529.718	1184.69
529.933	1134.69
530.148	1146.69
530.363	1143.69
530.577	1108.69
530.792	1106.69
531.007	1151.69
531.221	1182.69
531.436	1165.69
531.651	1144.69
531.865	1200.69
532.08	1191.69
532.295	1229.69
532.509	1266.69
532.724	1260.69
532.938	1250.69
533.153	1313.69
533.367	1362.69
533.582	1421.69
533.796	1372.69
534.011	1363.69
534.225	1342.69
534.44	1292.69
534.654	1281.69
534.868	1259.69
535.083	1248.69
535.297	1228.69
535.511	1210.69
535.726	1202.69
535.94	1199.69
536.154	1189.69
536.369	1160.69
536.583	1155.69
536.797	1131.69
537.011	1104.69
537.225	1115.69
537.44	1100.69
537.654	1094.69
537.868	1097.69
538.082	1087.69
538.296	1099.69
538.51	1086.69
538.724	1082.69
538.938	1084.69
539.153	1091.69
539.367	1075.69
539.581	1083.69
539.795	1034.69
540.009	1066.69
540.222	1026.69
540.436	1053.69
540.65	1034.69
540.864	1067.69
541.078	1095.69
541.292	1128.69
541.506	1280.69
541.72	1341.69
541.934	1211.69
542.147	1186.69
542.361	1110.69
542.575	1095.69
542.789	1077.69
543.002	1025.69
543.216	1036.69
543.43	1013.69
543.644	1030.69
543.857	1040.69
544.071	1060.69
544.285	1091.69
544.498	1063.69
544.712	1056.69
544.925	1078.69
545.139	1050.69
545.352	1071.69
545.566	1067.69
545.779	1083.69
545.993	1054.69
546.206	1077.69
546.42	1092.69
546.633	1092.69
546.847	1073.69
547.06	1051.69
547.274	1072.69
547.487	1081.69
547.7	1040.69
547.914	1071.69
548.127	1070.69
548.34	1076.69
548.554	1080.69
548.767	1076.69
548.98	1064.69
549.193	1048.69
549.407	1063.69
549.62	1079.69
549.833	1068.69
550.046	1049.69
550.259	1057.69
550.473	1036.69
550.686	1060.69
550.899	1073.69
551.112	1045.69
551.325	1059.69
551.538	1079.69
551.751	1030.69
551.964	1055.69
552.177	1051.69
552.39	1059.69
552.603	1099.69
552.816	1145.69
553.029	1132.69
553.242	1132.69
553.455	1141.69
553.667	1170.69
553.88	1123.69
554.093	1137.69
554.306	1176.69
554.519	1189.69
554.732	1189.69
554.944	1169.69
555.157	1197.69
555.37	1204.69
555.583	1242.69
555.795	1296.69
556.008	1313.69
556.221	1422.69
556.433	1488.69
556.646	1475.69
556.859	1454.69
557.071	1450.69
557.284	1451.69
557.496	1393.69
557.709	1406.69
557.921	1416.69
558.134	1375.69
558.346	1392.69
558.559	1414.69
558.771	1489.69
558.984	1544.69
559.196	1615.69
559.409	1615.69
559.621	1527.69
559.833	1446.69
560.046	1381.69
560.258	1327.69
560.47	1296.69
560.683	1270.69
560.895	1227.69
561.107	1209.69
561.32	1157.69
561.532	1118.69
561.744	1101.69
561.956	1110.69
562.168	1100.69
562.381	1071.69
562.593	1046.69
562.805	1090.69
563.017	1062.69
563.229	1078.69
563.441	1136.69
563.653	1078.69
563.865	996.69
564.077	993.69
564.289	992.69
564.501	990.69
564.713	963.69
564.925	978.69
565.137	970.69
565.349	994.69
565.561	1016.69
565.773	986.69
565.985	1010.69
566.197	992.69
566.408	1002.69
566.62	1058.69
566.832	1092.69
567.044	1074.69
567.255	1081.69
567.467	1097.69
567.679	1116.69
567.891	1166.69
568.102	1239.69
568.314	1377.69
568.526	1208.69
568.737	1097.69
568.949	1012.69
569.161	964.69
569.372	922.69
569.584	876.69
569.795	867.69
570.007	854.69
570.218	852.69
570.43	902.69
570.641	860.69
570.853	784.69
571.064	833.69
571.276	799.69
571.487	810.69
571.698	800.69
571.91	775.69
572.121	778.69
572.333	792.69
572.544	755.69
572.755	815.69
572.966	891.69
573.178	827.69
573.389	768.69
573.6	754.69
573.811	712.69
574.023	709.69
574.234	745.69
574.445	708.69
574.656	696.69
574.867	711.69
575.078	722.69
575.289	716.69
575.501	685.69
575.712	702.69
575.923	724.69
576.134	701.69
576.345	717.69
576.556	708.69
576.767	716.69
576.978	746.69
577.188	747.69
577.399	719.69
577.61	714.69
577.821	741.69
578.032	747.69
578.243	736.69
578.454	750.69
578.665	750.69
578.875	784.69
579.086	808.69
579.297	802.69
579.508	862.69
579.718	896.69
579.929	996.69
580.14	1054.69
580.35	1093.69
580.561	1042.69
580.772	1002.69
580.982	940.69
581.193	893.69
581.403	832.69
581.614	840.69
581.825	834.69
582.035	782.69
582.246	734.69
582.456	723.69
582.667	723.69
582.877	697.69
583.087	705.69
583.298	694.69
583.508	647.69
583.719	681.69
583.929	634.69
584.139	653.69
584.35	615.69
584.56	622.69
584.77	614.69
584.981	595.69
585.191	601.69
585.401	589.69
585.611	570.69
585.821	580.69
586.032	589.69
586.242	583.69
586.452	575.69
586.662	572.69
586.872	545.69
587.082	555.69
587.292	569.69
587.502	552.69
587.713	530.69
587.923	521.69
588.133	529.69
588.343	546.69
588.553	544.69
588.762	509.69
588.972	522.69
589.182	535.69
589.392	537.69
589.602	530.69
589.812	523.69
590.022	509.69
590.232	524.69
590.441	510.69
590.651	530.69
590.861	535.69
591.071	517.69
591.281	507.69
591.49	505.69
591.7	506.69
591.91	521.69
592.119	510.69
592.329	541.69
592.539	532.69
592.748	538.69
592.958	529.69
593.167	527.69
593.377	530.69
593.587	568.69
593.796	542.69
594.006	546.69
594.215	520.69
594.424	520.69
594.634	535.69
594.843	551.69
595.053	519.69
595.262	527.69
595.472	481.69
595.681	497.69
595.89	491.69
596.1	470.69
596.309	489.69
596.518	452.69
596.727	464.69
596.937	466.69
597.146	462.69
597.355	468.69
597.564	465.69
597.774	444.69
597.983	438.69
598.192	436.69
598.401	444.69
598.61	432.69
598.819	431.69
599.028	410.69
599.237	430.69
599.446	434.69
599.655	422.69
599.864	424.69
600.073	409.69
600.282	415.69
600.491	417.69
600.7	419.69
600.909	425.69
601.118	424.69
601.327	426.69
601.536	408.69
601.745	444.69
601.953	455.69
602.162	514.69
602.371	454.69
602.58	458.69
602.789	436.69
602.997	402.69
603.206	413.69
603.415	434.69
603.623	430.69
603.832	400.69
604.041	396.69
604.249	408.69
604.458	400.69
604.666	389.69
604.875	384.69
605.084	407.69
605.292	382.69
605.501	406.69
605.709	436.69
605.918	440.69
606.126	414.69
606.334	405.69
606.543	409.69
606.751	430.69
606.96	459.69
607.168	524.69
607.376	459.69
607.585	417.69
607.793	416.69
608.001	417.69
608.21	398.69
608.418	394.69
608.626	390.69
608.834	410.69
609.043	389.69
609.251	386.69
609.459	376.69
609.667	385.69
609.875	402.69
610.083	372.69
610.291	405.69
610.499	394.69
610.707	407.69
610.916	384.69
611.124	388.69
611.332	377.69
611.54	380.69
611.748	382.69
611.955	366.69
612.163	372.69
612.371	384.69
612.579	386.69
612.787	378.69
612.995	402.69
613.203	367.69
613.411	374.69
613.618	371.69
613.826	378.69
614.034	385.69
614.242	356.69
614.449	368.69
614.657	355.69
614.865	374.69
615.072	344.69
615.28	386.69
615.488	368.69
615.695	366.69
615.903	374.69
616.111	373.69
616.318	398.69
616.526	371.69
616.733	369.69
616.941	353.69
617.148	366.69
617.356	368.69
617.563	353.69
617.771	352.69
617.978	368.69
618.185	379.69
618.393	352.69
618.6	377.69
618.807	344.69
619.015	367.69
619.222	358.69
619.429	353.69
619.637	348.69
619.844	338.69
620.051	350.69
620.258	343.69
620.466	351.69
620.673	311.69
620.88	332.69
621.087	340.69
621.294	331.69
621.501	325.69
621.708	334.69
621.915	349.69
622.122	338.69
622.329	338.69
622.536	338.69
622.743	335.69
622.95	320.69
623.157	343.69
623.364	321.69
623.571	308.69
623.778	320.69
623.985	318.69
624.192	326.69
624.399	323.69
624.606	328.69
624.812	319.69
625.019	334.69
625.226	309.69
625.433	332.69
625.639	315.69
625.846	311.69
626.053	316.69
626.259	308.69
626.466	301.69
626.673	299.69
626.879	290.69
627.086	294.69
627.293	297.69
627.499	304.69
627.706	329.69
627.912	327.69
628.119	307.69
628.325	304.69
628.532	315.69
628.738	318.69
628.945	306.69
629.151	302.69
629.357	296.69
629.564	283.69
629.77	287.69
629.976	312.69
630.183	284.69
630.389	312.69
630.595	296.69
630.802	311.69
631.008	282.69
631.214	283.69
631.42	307.69
631.627	290.69
631.833	292.69
632.039	273.69
632.245	292.69
632.451	302.69
632.657	286.69
632.863	292.69
633.069	282.69
633.275	288.69
633.481	258.69
633.688	297.69
633.893	281.69
634.099	297.69
634.305	287.69
634.511	287.69
634.717	280.69
634.923	293.69
635.129	297.69
635.335	358.69
635.541	310.69
635.747	308.69
635.952	293.69
636.158	284.69
636.364	279.69
636.57	297.69
636.775	278.69
636.981	279.69
637.187	289.69
637.392	276.69
637.598	268.69
637.804	303.69
638.009	271.69
638.215	297.69
638.421	288.69
638.626	296.69
638.832	284.69
639.037	286.69
639.243	288.69
639.448	284.69
639.654	307.69
639.859	300.69
640.065	293.69
640.27	288.69
640.475	280.69
640.681	310.69
640.886	301.69
641.091	298.69
641.297	309.69
641.502	298.69
641.707	304.69
641.913	280.69
642.118	315.69
642.323	300.69
642.528	321.69
642.733	323.69
642.939	331.69
643.144	334.69
643.349	342.69
643.554	339.69
643.759	363.69
643.964	370.69
644.169	372.69
644.374	400.69
644.579	440.69
644.784	454.69
644.989	508.69
645.194	543.69
645.399	632.69
645.604	631.69
645.809	510.69
646.014	437.69
646.219	390.69
646.423	367.69
646.628	343.69
646.833	327.69
647.038	322.69
647.243	305.69
647.447	313.69
647.652	305.69
647.857	305.69
648.062	285.69
648.266	280.69
648.471	283.69
648.676	268.69
648.88	275.69
649.085	266.69
649.289	267.69
649.494	256.69
649.698	246.69
649.903	246.69
650.107	249.69
650.312	245.69
650.516	249.69
650.721	218.69
650.925	236.69
651.13	236.69
651.334	241.69
651.539	249.69
651.743	237.69
651.947	234.69
652.152	220.69
652.356	214.69
652.56	241.69
652.764	231.69
652.969	219.69
653.173	228.69
653.377	222.69
653.581	211.69
653.785	194.69
653.99	192.69
654.194	192.69
654.398	194.69
654.602	209.69
654.806	194.69
655.01	202.69
655.214	182.69
655.418	208.69
655.622	190.69
655.826	208.69
656.03	220.69
656.234	202.69
656.438	224.69
656.642	220.69
656.846	214.69
657.049	199.69
657.253	186.69
657.457	181.69
657.661	171.69
657.865	160.69
658.068	155.69
658.272	166.69
658.476	139.69
658.68	132.69
658.883	136.69
659.087	122.69
659.291	132.69
659.494	116.69
659.698	116.69
659.901	119.69
660.105	135.69
660.309	123.69
660.512	104.69
660.716	114.69
660.919	118.69
661.123	102.69
661.326	105.69
661.53	101.69
661.733	96.69
661.936	97.69
662.14	97.69
662.343	114.69
662.546	98.69
662.75	89.69
662.953	116.69
663.156	90.69
663.36	71.69
663.563	92.69
663.766	88.69
663.969	84.69
664.173	78.69
664.376	78.69
664.579	72.69
664.782	78.69
664.985	89.69
665.188	82.69
665.391	84.69
665.594	67.69
665.797	81.69
666	76.69
666.203	87.69
666.406	84.69
666.609	74.69
666.812	85.69
667.015	73.69
667.218	91.69
667.421	89.69
667.624	75.69
667.827	82.69
668.03	85.69
668.232	86.69
668.435	74.69
668.638	80.69
668.841	84.69
669.043	73.69
669.246	90.69
669.449	88.69
669.651	78.69
669.854	69.69
670.057	71.69
670.259	94.69
670.462	86.69
670.665	92.69
670.867	79.69
671.07	100.69
671.272	79.69
671.475	87.69
671.677	87.69
671.88	71.69
672.082	82.69
672.284	70.69
672.487	81.69
672.689	86.69
672.892	72.69
