Data from SnStandardFlinnAPT0064_LampEnergy5.5_LIBS07252019.E.O._I.C._HRD10591_15-17-24-492.txt Node
Date: Thu Jul 25 15:17:24 EDT 2019
User: cochatt
Spectrometer: HR+D1059
Trigger mode: 1
Integration Time (sec): 1.000000E-1
Scans to average: 1
Electric dark correction enabled: true
Nonlinearity correction enabled: false
Boxcar width: 0
XAxis mode: Wavelengths
Number of Pixels in Spectrum: 2048
>>>>>Begin Spectral Data<<<<<
223.165	-12.88
223.4	-12.88
223.635	-12.88
223.869	-14.88
224.104	-22.88
224.338	-13.88
224.573	-13.88
224.808	-3.88
225.042	-4.88
225.277	-4.88
225.511	2.12
225.746	-6.88
225.98	5.12
226.215	15.12
226.449	11.12
226.683	18.12
226.918	18.12
227.152	29.12
227.387	36.12
227.621	34.12
227.856	40.12
228.09	42.12
228.324	54.12
228.559	56.12
228.793	88.12
229.027	169.12
229.262	160.12
229.496	157.12
229.73	151.12
229.964	149.12
230.199	159.12
230.433	171.12
230.667	184.12
230.901	160.12
231.136	190.12
231.37	194.12
231.604	206.12
231.838	228.12
232.072	259.12
232.306	273.12
232.541	235.12
232.775	205.12
233.009	212.12
233.243	214.12
233.477	230.12
233.711	263.12
233.945	280.12
234.179	251.12
234.413	229.12
234.647	216.12
234.881	219.12
235.115	265.12
235.349	296.12
235.583	345.12
235.817	475.12
236.051	472.12
236.285	306.12
236.519	259.12
236.753	246.12
236.987	257.12
237.221	252.12
237.455	248.12
237.689	235.12
237.922	217.12
238.156	248.12
238.39	233.12
238.624	242.12
238.858	232.12
239.091	231.12
239.325	234.12
239.559	252.12
239.793	247.12
240.027	244.12
240.26	249.12
240.494	267.12
240.728	264.12
240.961	289.12
241.195	291.12
241.429	309.12
241.662	330.12
241.896	372.12
242.13	406.12
242.363	539.12
242.597	723.12
242.83	663.12
243.064	678.12
243.298	830.12
243.531	664.12
243.765	432.12
243.998	374.12
244.232	342.12
244.465	309.12
244.699	288.12
244.932	302.12
245.166	288.12
245.399	331.12
245.633	315.12
245.866	312.12
246.099	329.12
246.333	312.12
246.566	314.12
246.8	298.12
247.033	291.12
247.266	314.12
247.5	316.12
247.733	300.12
247.966	336.12
248.2	332.12
248.433	383.12
248.666	446.12
248.899	427.12
249.133	373.12
249.366	392.12
249.599	422.12
249.832	481.12
250.066	468.12
250.299	391.12
250.532	342.12
250.765	374.12
250.998	356.12
251.231	345.12
251.465	327.12
251.698	346.12
251.931	358.12
252.164	369.12
252.397	336.12
252.63	354.12
252.863	362.12
253.096	369.12
253.329	356.12
253.562	375.12
253.795	362.12
254.028	388.12
254.261	371.12
254.494	414.12
254.727	477.12
254.96	548.12
255.193	538.12
255.426	429.12
255.659	397.12
255.892	388.12
256.124	383.12
256.357	378.12
256.59	418.12
256.823	446.12
257.056	491.12
257.289	568.12
257.521	646.12
257.754	523.12
257.987	455.12
258.22	418.12
258.452	406.12
258.685	411.12
258.918	431.12
259.151	458.12
259.383	488.12
259.616	522.12
259.849	546.12
260.081	496.12
260.314	443.12
260.547	438.12
260.779	430.12
261.012	434.12
261.244	435.12
261.477	459.12
261.71	462.12
261.942	480.12
262.175	470.12
262.407	486.12
262.64	467.12
262.872	508.12
263.105	537.12
263.337	553.12
263.57	575.12
263.802	571.12
264.035	601.12
264.267	603.12
264.499	612.12
264.732	667.12
264.964	668.12
265.197	655.12
265.429	644.12
265.661	648.12
265.894	702.12
266.126	813.12
266.358	857.12
266.591	839.12
266.823	702.12
267.055	634.12
267.287	622.12
267.52	598.12
267.752	599.12
267.984	594.12
268.216	584.12
268.448	588.12
268.681	583.12
268.913	570.12
269.145	563.12
269.377	538.12
269.609	576.12
269.841	598.12
270.073	620.12
270.306	694.12
270.538	962.12
270.77	1411.12
271.002	1695.12
271.234	1167.12
271.466	791.12
271.698	646.12
271.93	616.12
272.162	607.12
272.394	586.12
272.626	576.12
272.858	580.12
273.09	565.12
273.322	525.12
273.553	553.12
273.785	543.12
274.017	536.12
274.249	559.12
274.481	546.12
274.713	554.12
274.945	556.12
275.176	549.12
275.408	548.12
275.64	558.12
275.872	571.12
276.104	571.12
276.335	561.12
276.567	547.12
276.799	586.12
277.031	580.12
277.262	599.12
277.494	615.12
277.726	659.12
277.957	776.12
278.189	855.12
278.421	830.12
278.652	751.12
278.884	708.12
279.115	639.12
279.347	603.12
279.579	609.12
279.81	624.12
280.042	639.12
280.273	640.12
280.505	642.12
280.736	680.12
280.968	676.12
281.199	747.12
281.431	831.12
281.662	844.12
281.894	758.12
282.125	713.12
282.356	698.12
282.588	710.12
282.819	735.12
283.051	794.12
283.282	870.12
283.513	1052.12
283.745	1561.12
283.976	2501.12
284.207	3600.12
284.439	3182.12
284.67	1823.12
284.901	1484.12
285.132	1478.12
285.364	1398.12
285.595	1119.12
285.826	998.12
286.057	1204.12
286.288	1638.12
286.52	2264.12
286.751	2056.12
286.982	1244.12
287.213	959.12
287.444	846.12
287.675	788.12
287.906	782.12
288.138	760.12
288.369	743.12
288.6	728.12
288.831	731.12
289.062	744.12
289.293	743.12
289.524	740.12
289.755	766.12
289.986	733.12
290.217	763.12
290.448	735.12
290.679	735.12
290.91	764.12
291.141	798.12
291.371	853.12
291.602	859.12
291.833	834.12
292.064	763.12
292.295	722.12
292.526	708.12
292.757	735.12
292.987	706.12
293.218	701.12
293.449	697.12
293.68	656.12
293.91	697.12
294.141	709.12
294.372	703.12
294.603	705.12
294.833	691.12
295.064	682.12
295.295	713.12
295.525	710.12
295.756	720.12
295.987	706.12
296.217	697.12
296.448	691.12
296.679	694.12
296.909	701.12
297.14	746.12
297.37	728.12
297.601	712.12
297.831	711.12
298.062	706.12
298.292	732.12
298.523	715.12
298.753	740.12
298.984	743.12
299.214	737.12
299.445	759.12
299.675	800.12
299.905	791.12
300.136	843.12
300.366	927.12
300.597	1198.12
300.827	1654.12
301.057	2229.12
301.288	2234.12
301.518	1372.12
301.748	1083.12
301.979	977.12
302.209	959.12
302.439	950.12
302.669	1006.12
302.9	1222.12
303.13	1742.12
303.36	2594.12
303.59	3476.12
303.82	2979.12
304.051	1721.12
304.281	1202.12
304.511	1033.12
304.741	979.12
304.971	910.12
305.201	871.12
305.431	853.12
305.661	853.12
305.891	830.12
306.121	812.12
306.352	804.12
306.582	810.12
306.812	801.12
307.042	811.12
307.272	794.12
307.502	798.12
307.731	788.12
307.961	801.12
308.191	764.12
308.421	790.12
308.651	786.12
308.881	817.12
309.111	791.12
309.341	806.12
309.571	826.12
309.8	806.12
310.03	834.12
310.26	828.12
310.49	832.12
310.72	823.12
310.949	819.12
311.179	801.12
311.409	843.12
311.639	840.12
311.868	847.12
312.098	830.12
312.328	855.12
312.557	859.12
312.787	884.12
313.017	884.12
313.246	865.12
313.476	898.12
313.706	894.12
313.935	949.12
314.165	974.12
314.394	1045.12
314.624	995.12
314.853	929.12
315.083	923.12
315.312	944.12
315.542	962.12
315.771	958.12
316.001	975.12
316.23	991.12
316.46	1035.12
316.689	1127.12
316.919	1342.12
317.148	1990.12
317.377	3085.12
317.607	4571.12
317.836	4759.12
318.065	2672.12
318.295	1686.12
318.524	1346.12
318.753	1239.12
318.983	1119.12
319.212	1061.12
319.441	1042.12
319.67	1032.12
319.9	1010.12
320.129	1027.12
320.358	991.12
320.587	1013.12
320.816	1019.12
321.046	989.12
321.275	997.12
321.504	1052.12
321.733	1020.12
321.962	1055.12
322.191	1082.12
322.42	1065.12
322.649	1066.12
322.878	1051.12
323.108	1088.12
323.337	1090.12
323.566	1114.12
323.795	1109.12
324.024	1122.12
324.253	1155.12
324.482	1189.12
324.71	1233.12
324.939	1300.12
325.168	1342.12
325.397	1401.12
325.626	1657.12
325.855	2335.12
326.084	3770.12
326.313	5616.12
326.542	5949.12
326.77	3616.12
326.999	2317.12
327.228	1946.12
327.457	1857.12
327.686	1848.12
327.914	2011.12
328.143	2305.12
328.372	2698.12
328.6	2867.12
328.829	2705.12
329.058	2284.12
329.287	2068.12
329.515	1915.12
329.744	1775.12
329.972	1665.12
330.201	1584.12
330.43	1546.12
330.658	1490.12
330.887	1458.12
331.115	1441.12
331.344	1456.12
331.572	1443.12
331.801	1474.12
332.03	1466.12
332.258	1490.12
332.486	1560.12
332.715	1797.12
332.943	2230.12
333.172	2678.12
333.4	2672.12
333.629	2011.12
333.857	1846.12
334.085	1851.12
334.314	1886.12
334.542	2064.12
334.771	2366.12
334.999	2848.12
335.227	3514.12
335.455	3915.12
335.684	3587.12
335.912	3017.12
336.14	2596.12
336.369	2297.12
336.597	2158.12
336.825	1953.12
337.053	1864.12
337.281	1716.12
337.51	1667.12
337.738	1647.12
337.966	1554.12
338.194	1479.12
338.422	1458.12
338.65	1411.12
338.878	1432.12
339.106	1374.12
339.334	1378.12
339.562	1352.12
339.79	1342.12
340.018	1330.12
340.246	1255.12
340.474	1298.12
340.702	1254.12
340.93	1335.12
341.158	1282.12
341.386	1262.12
341.614	1271.12
341.842	1259.12
342.07	1220.12
342.298	1186.12
342.526	1216.12
342.754	1195.12
342.981	1176.12
343.209	1169.12
343.437	1186.12
343.665	1217.12
343.893	1209.12
344.12	1258.12
344.348	1206.12
344.576	1166.12
344.804	1206.12
345.031	1152.12
345.259	1144.12
345.487	1127.12
345.714	1134.12
345.942	1114.12
346.17	1120.12
346.397	1123.12
346.625	1076.12
346.853	1075.12
347.08	1088.12
347.308	1087.12
347.535	1079.12
347.763	1094.12
347.99	1088.12
348.218	1090.12
348.445	1060.12
348.673	1062.12
348.9	1092.12
349.128	1056.12
349.355	1082.12
349.583	1059.12
349.81	1066.12
350.037	1029.12
350.265	1083.12
350.492	1078.12
350.72	1078.12
350.947	1047.12
351.174	1073.12
351.402	1075.12
351.629	1075.12
351.856	1062.12
352.083	1055.12
352.311	1030.12
352.538	1065.12
352.765	1040.12
352.992	1023.12
353.22	1044.12
353.447	1048.12
353.674	1024.12
353.901	1046.12
354.128	1067.12
354.355	1048.12
354.583	1075.12
354.81	1074.12
355.037	1059.12
355.264	1076.12
355.491	1061.12
355.718	1043.12
355.945	1044.12
356.172	1108.12
356.399	1080.12
356.626	1090.12
356.853	1100.12
357.08	1065.12
357.307	1106.12
357.534	1104.12
357.761	1114.12
357.988	1117.12
358.215	1101.12
358.441	1078.12
358.668	1098.12
358.895	1110.12
359.122	1097.12
359.349	1091.12
359.576	1130.12
359.802	1095.12
360.029	1130.12
360.256	1100.12
360.483	1108.12
360.709	1149.12
360.936	1138.12
361.163	1120.12
361.39	1122.12
361.616	1097.12
361.843	1150.12
362.07	1134.12
362.296	1115.12
362.523	1132.12
362.749	1122.12
362.976	1115.12
363.203	1103.12
363.429	1108.12
363.656	1094.12
363.882	1124.12
364.109	1131.12
364.335	1100.12
364.562	1105.12
364.788	1112.12
365.015	1116.12
365.241	1122.12
365.468	1186.12
365.694	1228.12
365.92	1226.12
366.147	1181.12
366.373	1150.12
366.599	1136.12
366.826	1147.12
367.052	1143.12
367.278	1141.12
367.505	1140.12
367.731	1154.12
367.957	1138.12
368.184	1151.12
368.41	1152.12
368.636	1176.12
368.862	1160.12
369.089	1190.12
369.315	1150.12
369.541	1141.12
369.767	1149.12
369.993	1137.12
370.219	1139.12
370.445	1152.12
370.672	1198.12
370.898	1162.12
371.124	1218.12
371.35	1208.12
371.576	1160.12
371.802	1192.12
372.028	1191.12
372.254	1192.12
372.48	1186.12
372.706	1216.12
372.932	1223.12
373.158	1239.12
373.384	1224.12
373.61	1213.12
373.835	1220.12
374.061	1203.12
374.287	1224.12
374.513	1220.12
374.739	1255.12
374.965	1254.12
375.191	1233.12
375.416	1272.12
375.642	1236.12
375.868	1210.12
376.094	1246.12
376.319	1193.12
376.545	1222.12
376.771	1229.12
376.997	1184.12
377.222	1180.12
377.448	1207.12
377.674	1218.12
377.899	1207.12
378.125	1180.12
378.35	1177.12
378.576	1182.12
378.802	1194.12
379.027	1189.12
379.253	1228.12
379.478	1296.12
379.704	1507.12
379.929	2192.12
380.155	3344.12
380.38	3565.12
380.606	2148.12
380.831	1536.12
381.057	1379.12
381.282	1275.12
381.507	1232.12
381.733	1227.12
381.958	1198.12
382.184	1236.12
382.409	1220.12
382.634	1217.12
382.86	1163.12
383.085	1166.12
383.31	1186.12
383.535	1142.12
383.761	1174.12
383.986	1203.12
384.211	1202.12
384.436	1233.12
384.662	1220.12
384.887	1231.12
385.112	1211.12
385.337	1286.12
385.562	1237.12
385.787	1234.12
386.013	1248.12
386.238	1221.12
386.463	1219.12
386.688	1222.12
386.913	1241.12
387.138	1224.12
387.363	1260.12
387.588	1203.12
387.813	1223.12
388.038	1239.12
388.263	1242.12
388.488	1213.12
388.713	1236.12
388.938	1214.12
389.163	1233.12
389.387	1220.12
389.612	1234.12
389.837	1227.12
390.062	1215.12
390.287	1234.12
390.512	1240.12
390.736	1244.12
390.961	1312.12
391.186	1263.12
391.411	1294.12
391.636	1289.12
391.86	1304.12
392.085	1322.12
392.31	1308.12
392.534	1261.12
392.759	1318.12
392.984	1225.12
393.208	1281.12
393.433	1258.12
393.658	1256.12
393.882	1223.12
394.107	1225.12
394.331	1219.12
394.556	1243.12
394.78	1263.12
395.005	1283.12
395.229	1243.12
395.454	1310.12
395.678	1274.12
395.903	1266.12
396.127	1290.12
396.352	1250.12
396.576	1266.12
396.801	1313.12
397.025	1319.12
397.249	1299.12
397.474	1271.12
397.698	1302.12
397.922	1305.12
398.147	1291.12
398.371	1326.12
398.595	1350.12
398.82	1375.12
399.044	1431.12
399.268	1498.12
399.492	1558.12
399.717	1620.12
399.941	1601.12
400.165	1566.12
400.389	1497.12
400.613	1421.12
400.837	1372.12
401.062	1370.12
401.286	1357.12
401.51	1361.12
401.734	1310.12
401.958	1348.12
402.182	1372.12
402.406	1320.12
402.63	1344.12
402.854	1370.12
403.078	1390.12
403.302	1390.12
403.526	1353.12
403.75	1393.12
403.974	1431.12
404.198	1412.12
404.422	1387.12
404.645	1423.12
404.869	1404.12
405.093	1387.12
405.317	1382.12
405.541	1400.12
405.765	1435.12
405.988	1454.12
406.212	1446.12
406.436	1448.12
406.66	1451.12
406.883	1463.12
407.107	1471.12
407.331	1501.12
407.555	1505.12
407.778	1494.12
408.002	1497.12
408.226	1516.12
408.449	1493.12
408.673	1438.12
408.896	1424.12
409.12	1414.12
409.344	1418.12
409.567	1355.12
409.791	1385.12
410.014	1370.12
410.238	1392.12
410.461	1410.12
410.685	1380.12
410.908	1371.12
411.132	1387.12
411.355	1323.12
411.578	1354.12
411.802	1318.12
412.025	1375.12
412.249	1353.12
412.472	1355.12
412.695	1338.12
412.919	1359.12
413.142	1323.12
413.365	1326.12
413.589	1330.12
413.812	1328.12
414.035	1310.12
414.258	1368.12
414.482	1342.12
414.705	1357.12
414.928	1336.12
415.151	1353.12
415.374	1310.12
415.597	1315.12
415.821	1317.12
416.044	1295.12
416.267	1328.12
416.49	1296.12
416.713	1263.12
416.936	1278.12
417.159	1295.12
417.382	1279.12
417.605	1268.12
417.828	1269.12
418.051	1272.12
418.274	1273.12
418.497	1289.12
418.72	1329.12
418.943	1313.12
419.166	1356.12
419.389	1419.12
419.611	1410.12
419.834	1375.12
420.057	1314.12
420.28	1318.12
420.503	1271.12
420.726	1251.12
420.948	1249.12
421.171	1308.12
421.394	1314.12
421.617	1289.12
421.839	1271.12
422.062	1324.12
422.285	1295.12
422.507	1310.12
422.73	1336.12
422.953	1322.12
423.175	1358.12
423.398	1319.12
423.621	1301.12
423.843	1308.12
424.066	1294.12
424.288	1300.12
424.511	1298.12
424.733	1316.12
424.956	1272.12
425.178	1285.12
425.401	1261.12
425.623	1260.12
425.846	1279.12
426.068	1298.12
426.291	1214.12
426.513	1223.12
426.735	1214.12
426.958	1226.12
427.18	1221.12
427.402	1219.12
427.625	1222.12
427.847	1170.12
428.069	1196.12
428.292	1215.12
428.514	1201.12
428.736	1174.12
428.958	1204.12
429.181	1186.12
429.403	1174.12
429.625	1170.12
429.847	1207.12
430.069	1202.12
430.292	1234.12
430.514	1222.12
430.736	1251.12
430.958	1212.12
431.18	1169.12
431.402	1174.12
431.624	1160.12
431.846	1162.12
432.068	1126.12
432.29	1150.12
432.512	1183.12
432.734	1184.12
432.956	1162.12
433.178	1178.12
433.4	1175.12
433.622	1168.12
433.844	1204.12
434.066	1186.12
434.287	1178.12
434.509	1190.12
434.731	1168.12
434.953	1160.12
435.175	1282.12
435.397	1238.12
435.618	1173.12
435.84	1195.12
436.062	1158.12
436.284	1169.12
436.505	1165.12
436.727	1176.12
436.949	1176.12
437.17	1166.12
437.392	1162.12
437.614	1143.12
437.835	1134.12
438.057	1125.12
438.278	1156.12
438.5	1120.12
438.721	1162.12
438.943	1204.12
439.165	1207.12
439.386	1211.12
439.608	1229.12
439.829	1225.12
440.05	1262.12
440.272	1286.12
440.493	1240.12
440.715	1199.12
440.936	1238.12
441.158	1285.12
441.379	1238.12
441.6	1283.12
441.822	1323.12
442.043	1373.12
442.264	1448.12
442.486	1315.12
442.707	1277.12
442.928	1297.12
443.149	1263.12
443.371	1236.12
443.592	1287.12
443.813	1304.12
444.034	1275.12
444.255	1303.12
444.476	1316.12
444.698	1342.12
444.919	1316.12
445.14	1469.12
445.361	1363.12
445.582	1304.12
445.803	1262.12
446.024	1243.12
446.245	1281.12
446.466	1256.12
446.687	1266.12
446.908	1239.12
447.129	1234.12
447.35	1191.12
447.571	1208.12
447.792	1201.12
448.013	1185.12
448.234	1186.12
448.455	1186.12
448.675	1201.12
448.896	1216.12
449.117	1239.12
449.338	1369.12
449.559	1379.12
449.779	1262.12
450	1204.12
450.221	1144.12
450.442	1152.12
450.662	1153.12
450.883	1121.12
451.104	1120.12
451.324	1128.12
451.545	1136.12
451.766	1159.12
451.986	1137.12
452.207	1237.12
452.428	1523.12
452.648	2133.12
452.869	1854.12
453.089	1347.12
453.31	1245.12
453.53	1280.12
453.751	1307.12
453.971	1408.12
454.192	1372.12
454.412	1154.12
454.633	1165.12
454.853	1100.12
455.073	1086.12
455.294	1091.12
455.514	1070.12
455.734	1058.12
455.955	1068.12
456.175	1089.12
456.395	1068.12
456.616	1084.12
456.836	1111.12
457.056	1081.12
457.276	1099.12
457.497	1146.12
457.717	1160.12
457.937	1142.12
458.157	1129.12
458.377	1134.12
458.598	1158.12
458.818	1148.12
459.038	1156.12
459.258	1174.12
459.478	1173.12
459.698	1190.12
459.918	1170.12
460.138	1200.12
460.358	1246.12
460.578	1247.12
460.798	1283.12
461.018	1270.12
461.238	1297.12
461.458	1298.12
461.678	1313.12
461.898	1360.12
462.118	1338.12
462.338	1362.12
462.558	1370.12
462.777	1377.12
462.997	1436.12
463.217	1526.12
463.437	1538.12
463.657	1580.12
463.876	1551.12
464.096	1455.12
464.316	1391.12
464.536	1391.12
464.755	1385.12
464.975	1356.12
465.195	1282.12
465.414	1272.12
465.634	1205.12
465.854	1194.12
466.073	1206.12
466.293	1196.12
466.512	1200.12
466.732	1223.12
466.951	1253.12
467.171	1339.12
467.391	1310.12
467.61	1217.12
467.829	1192.12
468.049	1184.12
468.268	1192.12
468.488	1159.12
468.707	1158.12
468.927	1165.12
469.146	1172.12
469.365	1182.12
469.585	1187.12
469.804	1184.12
470.023	1250.12
470.243	1266.12
470.462	1264.12
470.681	1319.12
470.901	1472.12
471.12	1724.12
471.339	1728.12
471.558	1396.12
471.777	1269.12
471.997	1228.12
472.216	1215.12
472.435	1218.12
472.654	1152.12
472.873	1160.12
473.092	1153.12
473.311	1171.12
473.53	1171.12
473.749	1177.12
473.968	1216.12
474.187	1190.12
474.406	1169.12
474.625	1175.12
474.844	1139.12
475.063	1183.12
475.282	1144.12
475.501	1159.12
475.72	1173.12
475.939	1199.12
476.158	1209.12
476.377	1210.12
476.596	1240.12
476.814	1225.12
477.033	1190.12
477.252	1217.12
477.471	1266.12
477.69	1271.12
477.908	1328.12
478.127	1324.12
478.346	1322.12
478.564	1351.12
478.783	1360.12
479.002	1361.12
479.22	1351.12
479.439	1385.12
479.658	1371.12
479.876	1401.12
480.095	1397.12
480.313	1404.12
480.532	1437.12
480.751	1416.12
480.969	1376.12
481.188	1371.12
481.406	1357.12
481.624	1345.12
481.843	1344.12
482.061	1364.12
482.28	1364.12
482.498	1360.12
482.717	1397.12
482.935	1426.12
483.153	1427.12
483.372	1404.12
483.59	1468.12
483.808	1495.12
484.027	1483.12
484.245	1593.12
484.463	1767.12
484.681	1940.12
484.9	1797.12
485.118	1638.12
485.336	1638.12
485.554	1650.12
485.772	1762.12
485.99	1945.12
486.209	2180.12
486.427	1786.12
486.645	1586.12
486.863	1557.12
487.081	1499.12
487.299	1467.12
487.517	1485.12
487.735	1539.12
487.953	1559.12
488.171	1539.12
488.389	1563.12
488.607	1458.12
488.825	1441.12
489.043	1417.12
489.261	1405.12
489.479	1426.12
489.696	1452.12
489.914	1451.12
490.132	1457.12
490.35	1476.12
490.568	1471.12
490.786	1507.12
491.003	1503.12
491.221	1537.12
491.439	1546.12
491.657	1544.12
491.874	1592.12
492.092	1595.12
492.31	1628.12
492.527	1587.12
492.745	1550.12
492.963	1547.12
493.18	1533.12
493.398	1519.12
493.615	1549.12
493.833	1544.12
494.05	1543.12
494.268	1561.12
494.485	1546.12
494.703	1523.12
494.92	1541.12
495.138	1560.12
495.355	1530.12
495.573	1541.12
495.79	1567.12
496.008	1551.12
496.225	1566.12
496.442	1580.12
496.66	1634.12
496.877	1713.12
497.094	1701.12
497.312	1649.12
497.529	1662.12
497.746	1703.12
497.963	1650.12
498.181	1698.12
498.398	1763.12
498.615	1840.12
498.832	1900.12
499.049	1963.12
499.267	2097.12
499.484	2213.12
499.701	2233.12
499.918	2331.12
500.135	2444.12
500.352	2536.12
500.569	2596.12
500.786	2577.12
501.003	2478.12
501.22	2366.12
501.437	2239.12
501.654	2091.12
501.871	2012.12
502.088	1921.12
502.305	1914.12
502.522	1831.12
502.739	1766.12
502.956	1722.12
503.172	1675.12
503.389	1620.12
503.606	1618.12
503.823	1604.12
504.04	1620.12
504.256	1596.12
504.473	1555.12
504.69	1584.12
504.907	1587.12
505.123	1553.12
505.34	1498.12
505.557	1502.12
505.773	1464.12
505.99	1427.12
506.207	1366.12
506.423	1418.12
506.64	1390.12
506.856	1362.12
507.073	1342.12
507.289	1358.12
507.506	1368.12
507.722	1372.12
507.939	1299.12
508.155	1351.12
508.372	1321.12
508.588	1298.12
508.805	1296.12
509.021	1308.12
509.238	1320.12
509.454	1377.12
509.67	1474.12
509.887	1334.12
510.103	1345.12
510.319	1340.12
510.536	1296.12
510.752	1272.12
510.968	1274.12
511.184	1239.12
511.401	1247.12
511.617	1229.12
511.833	1250.12
512.049	1297.12
512.265	1274.12
512.481	1252.12
512.698	1228.12
512.914	1248.12
513.13	1231.12
513.346	1244.12
513.562	1249.12
513.778	1257.12
513.994	1266.12
514.21	1302.12
514.426	1352.12
514.642	1406.12
514.858	1310.12
515.074	1268.12
515.29	1288.12
515.506	1282.12
515.721	1271.12
515.937	1300.12
516.153	1284.12
516.369	1286.12
516.585	1306.12
516.801	1374.12
517.016	1339.12
517.232	1385.12
517.448	1389.12
517.664	1400.12
517.879	1417.12
518.095	1403.12
518.311	1432.12
518.527	1402.12
518.742	1400.12
518.958	1374.12
519.173	1400.12
519.389	1353.12
519.605	1347.12
519.82	1300.12
520.036	1274.12
520.251	1240.12
520.467	1274.12
520.682	1244.12
520.898	1246.12
521.113	1244.12
521.329	1208.12
521.544	1244.12
521.76	1245.12
521.975	1233.12
522.19	1204.12
522.406	1224.12
522.621	1211.12
522.836	1198.12
523.052	1234.12
523.267	1222.12
523.482	1204.12
523.698	1213.12
523.913	1200.12
524.128	1215.12
524.343	1192.12
524.559	1208.12
524.774	1222.12
524.989	1210.12
525.204	1217.12
525.419	1207.12
525.634	1201.12
525.849	1218.12
526.064	1207.12
526.28	1240.12
526.495	1193.12
526.71	1182.12
526.925	1177.12
527.14	1167.12
527.355	1190.12
527.57	1218.12
527.785	1239.12
527.999	1238.12
528.214	1202.12
528.429	1246.12
528.644	1238.12
528.859	1254.12
529.074	1335.12
529.289	1294.12
529.503	1306.12
529.718	1271.12
529.933	1281.12
530.148	1249.12
530.363	1287.12
530.577	1266.12
530.792	1287.12
531.007	1270.12
531.221	1285.12
531.436	1315.12
531.651	1300.12
531.865	1324.12
532.08	1313.12
532.295	1379.12
532.509	1436.12
532.724	1438.12
532.938	1422.12
533.153	1488.12
533.367	1535.12
533.582	1661.12
533.796	1619.12
534.011	1554.12
534.225	1519.12
534.44	1453.12
534.654	1483.12
534.868	1431.12
535.083	1388.12
535.297	1361.12
535.511	1348.12
535.726	1328.12
535.94	1335.12
536.154	1315.12
536.369	1298.12
536.583	1256.12
536.797	1259.12
537.011	1245.12
537.225	1245.12
537.44	1223.12
537.654	1230.12
537.868	1206.12
538.082	1205.12
538.296	1209.12
538.51	1195.12
538.724	1252.12
538.938	1200.12
539.153	1234.12
539.367	1184.12
539.581	1207.12
539.795	1163.12
540.009	1143.12
540.222	1146.12
540.436	1154.12
540.65	1170.12
540.864	1169.12
541.078	1192.12
541.292	1270.12
541.506	1504.12
541.72	1572.12
541.934	1387.12
542.147	1341.12
542.361	1233.12
542.575	1206.12
542.789	1171.12
543.002	1163.12
543.216	1131.12
543.43	1113.12
543.644	1150.12
543.857	1162.12
544.071	1140.12
544.285	1173.12
544.498	1172.12
544.712	1183.12
544.925	1163.12
545.139	1165.12
545.352	1156.12
545.566	1177.12
545.779	1176.12
545.993	1176.12
546.206	1205.12
546.42	1157.12
546.633	1191.12
546.847	1198.12
547.06	1169.12
547.274	1174.12
547.487	1209.12
547.7	1207.12
547.914	1190.12
548.127	1167.12
548.34	1160.12
548.554	1163.12
548.767	1160.12
548.98	1174.12
549.193	1176.12
549.407	1149.12
549.62	1184.12
549.833	1187.12
550.046	1172.12
550.259	1149.12
550.473	1182.12
550.686	1171.12
550.899	1186.12
551.112	1150.12
551.325	1154.12
551.538	1145.12
551.751	1148.12
551.964	1143.12
552.177	1176.12
552.39	1174.12
552.603	1207.12
552.816	1231.12
553.029	1249.12
553.242	1292.12
553.455	1288.12
553.667	1277.12
553.88	1314.12
554.093	1276.12
554.306	1298.12
554.519	1278.12
554.732	1319.12
554.944	1340.12
555.157	1316.12
555.37	1363.12
555.583	1440.12
555.795	1493.12
556.008	1540.12
556.221	1708.12
556.433	1765.12
556.646	1807.12
556.859	1740.12
557.071	1658.12
557.284	1678.12
557.496	1600.12
557.709	1588.12
557.921	1561.12
558.134	1583.12
558.346	1591.12
558.559	1658.12
558.771	1708.12
558.984	1813.12
559.196	1906.12
559.409	1890.12
559.621	1739.12
559.833	1679.12
560.046	1586.12
560.258	1470.12
560.47	1468.12
560.683	1392.12
560.895	1352.12
561.107	1331.12
561.32	1292.12
561.532	1265.12
561.744	1251.12
561.956	1239.12
562.168	1207.12
562.381	1184.12
562.593	1198.12
562.805	1178.12
563.017	1201.12
563.229	1202.12
563.441	1340.12
563.653	1161.12
563.865	1099.12
564.077	1078.12
564.289	1073.12
564.501	1051.12
564.713	1059.12
564.925	1063.12
565.137	1056.12
565.349	1081.12
565.561	1086.12
565.773	1064.12
565.985	1087.12
566.197	1099.12
566.408	1126.12
566.62	1138.12
566.832	1160.12
567.044	1195.12
567.255	1199.12
567.467	1200.12
567.679	1216.12
567.891	1288.12
568.102	1443.12
568.314	1652.12
568.526	1440.12
568.737	1222.12
568.949	1112.12
569.161	1071.12
569.372	998.12
569.584	985.12
569.795	938.12
570.007	948.12
570.218	1009.12
570.43	1001.12
570.641	942.12
570.853	925.12
571.064	925.12
571.276	881.12
571.487	907.12
571.698	852.12
571.91	860.12
572.121	844.12
572.333	848.12
572.544	856.12
572.755	904.12
572.966	1077.12
573.178	942.12
573.389	876.12
573.6	822.12
573.811	832.12
574.023	794.12
574.234	804.12
574.445	804.12
574.656	797.12
574.867	803.12
575.078	774.12
575.289	784.12
575.501	783.12
575.712	750.12
575.923	806.12
576.134	768.12
576.345	794.12
576.556	818.12
576.767	792.12
576.978	791.12
577.188	798.12
577.399	804.12
577.61	794.12
577.821	815.12
578.032	812.12
578.243	798.12
578.454	841.12
578.665	834.12
578.875	839.12
579.086	876.12
579.297	913.12
579.508	964.12
579.718	1008.12
579.929	1145.12
580.14	1275.12
580.35	1286.12
580.561	1245.12
580.772	1169.12
580.982	1095.12
581.193	1025.12
581.403	955.12
581.614	926.12
581.825	920.12
582.035	869.12
582.246	852.12
582.456	824.12
582.667	801.12
582.877	788.12
583.087	764.12
583.298	721.12
583.508	728.12
583.719	740.12
583.929	725.12
584.139	690.12
584.35	686.12
584.56	672.12
584.77	679.12
584.981	673.12
585.191	659.12
585.401	652.12
585.611	653.12
585.821	659.12
586.032	644.12
586.242	642.12
586.452	638.12
586.662	621.12
586.872	589.12
587.082	609.12
587.292	612.12
587.502	594.12
587.713	580.12
587.923	596.12
588.133	610.12
588.343	573.12
588.553	573.12
588.762	568.12
588.972	561.12
589.182	585.12
589.392	562.12
589.602	558.12
589.812	568.12
590.022	577.12
590.232	563.12
590.441	568.12
590.651	561.12
590.861	558.12
591.071	564.12
591.281	553.12
591.49	573.12
591.7	572.12
591.91	554.12
592.119	566.12
592.329	570.12
592.539	587.12
592.748	568.12
592.958	587.12
593.167	594.12
593.377	582.12
593.587	601.12
593.796	599.12
594.006	572.12
594.215	577.12
594.424	587.12
594.634	571.12
594.843	578.12
595.053	563.12
595.262	541.12
595.472	540.12
595.681	535.12
595.89	494.12
596.1	539.12
596.309	520.12
596.518	514.12
596.727	494.12
596.937	505.12
597.146	512.12
597.355	500.12
597.564	485.12
597.774	488.12
597.983	483.12
598.192	480.12
598.401	471.12
598.61	457.12
598.819	470.12
599.028	470.12
599.237	497.12
599.446	480.12
599.655	461.12
599.864	469.12
600.073	457.12
600.282	471.12
600.491	457.12
600.7	452.12
600.909	467.12
601.118	450.12
601.327	464.12
601.536	473.12
601.745	481.12
601.953	534.12
602.162	589.12
602.371	494.12
602.58	481.12
602.789	473.12
602.997	454.12
603.206	465.12
603.415	453.12
603.623	443.12
603.832	446.12
604.041	457.12
604.249	433.12
604.458	442.12
604.666	437.12
604.875	435.12
605.084	430.12
605.292	427.12
605.501	454.12
605.709	452.12
605.918	450.12
606.126	472.12
606.334	469.12
606.543	469.12
606.751	491.12
606.96	567.12
607.168	609.12
607.376	520.12
607.585	486.12
607.793	442.12
608.001	437.12
608.21	435.12
608.418	423.12
608.626	432.12
608.834	428.12
609.043	443.12
609.251	419.12
609.459	416.12
609.667	424.12
609.875	443.12
610.083	426.12
610.291	425.12
610.499	411.12
610.707	411.12
610.916	399.12
611.124	415.12
611.332	400.12
611.54	435.12
611.748	411.12
611.955	420.12
612.163	404.12
612.371	412.12
612.579	416.12
612.787	409.12
612.995	386.12
613.203	436.12
613.411	407.12
613.618	399.12
613.826	407.12
614.034	397.12
614.242	406.12
614.449	407.12
614.657	394.12
614.865	402.12
615.072	430.12
615.28	412.12
615.488	391.12
615.695	398.12
615.903	400.12
616.111	422.12
616.318	403.12
616.526	397.12
616.733	396.12
616.941	404.12
617.148	415.12
617.356	398.12
617.563	398.12
617.771	417.12
617.978	394.12
618.185	390.12
618.393	386.12
618.6	386.12
618.807	390.12
619.015	375.12
619.222	400.12
619.429	388.12
619.637	370.12
619.844	367.12
620.051	368.12
620.258	370.12
620.466	379.12
620.673	336.12
620.88	373.12
621.087	360.12
621.294	369.12
621.501	378.12
621.708	360.12
621.915	347.12
622.122	360.12
622.329	351.12
622.536	375.12
622.743	368.12
622.95	352.12
623.157	352.12
623.364	342.12
623.571	362.12
623.778	343.12
623.985	373.12
624.192	370.12
624.399	375.12
624.606	372.12
624.812	345.12
625.019	341.12
625.226	375.12
625.433	350.12
625.639	344.12
625.846	355.12
626.053	322.12
626.259	335.12
626.466	339.12
626.673	314.12
626.879	328.12
627.086	326.12
627.293	343.12
627.499	329.12
627.706	336.12
627.912	350.12
628.119	352.12
628.325	333.12
628.532	330.12
628.738	351.12
628.945	322.12
629.151	330.12
629.357	328.12
629.564	331.12
629.77	321.12
629.976	320.12
630.183	329.12
630.389	338.12
630.595	333.12
630.802	325.12
631.008	328.12
631.214	319.12
631.42	314.12
631.627	307.12
631.833	308.12
632.039	288.12
632.245	291.12
632.451	314.12
632.657	307.12
632.863	323.12
633.069	314.12
633.275	297.12
633.481	308.12
633.688	303.12
633.893	316.12
634.099	291.12
634.305	302.12
634.511	330.12
634.717	325.12
634.923	327.12
635.129	371.12
635.335	406.12
635.541	353.12
635.747	315.12
635.952	314.12
636.158	310.12
636.364	328.12
636.57	320.12
636.775	296.12
636.981	329.12
637.187	314.12
637.392	282.12
637.598	311.12
637.804	310.12
638.009	310.12
638.215	292.12
638.421	307.12
638.626	310.12
638.832	314.12
639.037	300.12
639.243	300.12
639.448	307.12
639.654	312.12
639.859	308.12
640.065	310.12
640.27	323.12
640.475	315.12
640.681	317.12
640.886	322.12
641.091	310.12
641.297	326.12
641.502	333.12
641.707	326.12
641.913	340.12
642.118	325.12
642.323	322.12
642.528	350.12
642.733	345.12
642.939	364.12
643.144	358.12
643.349	390.12
643.554	389.12
643.759	393.12
643.964	407.12
644.169	424.12
644.374	432.12
644.579	494.12
644.784	530.12
644.989	607.12
645.194	683.12
645.399	802.12
645.604	826.12
645.809	653.12
646.014	527.12
646.219	454.12
646.423	402.12
646.628	385.12
646.833	364.12
647.038	342.12
647.243	334.12
647.447	325.12
647.652	318.12
647.857	304.12
648.062	297.12
648.266	303.12
648.471	302.12
648.676	305.12
648.88	304.12
649.085	278.12
649.289	281.12
649.494	272.12
649.698	258.12
649.903	273.12
650.107	247.12
650.312	256.12
650.516	255.12
650.721	263.12
650.925	254.12
651.13	239.12
651.334	243.12
651.539	242.12
651.743	251.12
651.947	251.12
652.152	223.12
652.356	220.12
652.56	263.12
652.764	290.12
652.969	253.12
653.173	239.12
653.377	225.12
653.581	217.12
653.785	226.12
653.99	210.12
654.194	215.12
654.398	199.12
654.602	209.12
654.806	203.12
655.01	203.12
655.214	210.12
655.418	203.12
655.622	224.12
655.826	196.12
656.03	210.12
656.234	211.12
656.438	243.12
656.642	228.12
656.846	225.12
657.049	211.12
657.253	195.12
657.457	181.12
657.661	185.12
657.865	177.12
658.068	166.12
658.272	154.12
658.476	160.12
658.68	144.12
658.883	140.12
659.087	133.12
659.291	124.12
659.494	133.12
659.698	139.12
659.901	114.12
660.105	118.12
660.309	127.12
660.512	119.12
660.716	122.12
660.919	112.12
661.123	113.12
661.326	111.12
661.53	104.12
661.733	112.12
661.936	103.12
662.14	86.12
662.343	105.12
662.546	88.12
662.75	96.12
662.953	105.12
663.156	86.12
663.36	91.12
663.563	78.12
663.766	75.12
663.969	87.12
664.173	85.12
664.376	88.12
664.579	86.12
664.782	82.12
664.985	86.12
665.188	79.12
665.391	78.12
665.594	98.12
665.797	82.12
666	82.12
666.203	95.12
666.406	76.12
666.609	84.12
666.812	84.12
667.015	72.12
667.218	84.12
667.421	67.12
667.624	87.12
667.827	89.12
668.03	75.12
668.232	78.12
668.435	73.12
668.638	83.12
668.841	80.12
669.043	89.12
669.246	78.12
669.449	75.12
669.651	90.12
669.854	89.12
670.057	98.12
670.259	88.12
670.462	82.12
670.665	76.12
670.867	74.12
671.07	76.12
671.272	86.12
671.475	81.12
671.677	72.12
671.88	73.12
672.082	89.12
672.284	98.12
672.487	78.12
672.689	71.12
672.892	81.12
