Data from SnStandardFlinnAPT0064_LampEnergy10_LIBS07252019.E.O._I.C._HRD10591_15-22-15-495.txt Node
Date: Thu Jul 25 15:22:15 EDT 2019
User: cochatt
Spectrometer: HR+D1059
Trigger mode: 1
Integration Time (sec): 1.000000E-1
Scans to average: 1
Electric dark correction enabled: true
Nonlinearity correction enabled: false
Boxcar width: 0
XAxis mode: Wavelengths
Number of Pixels in Spectrum: 2048
>>>>>Begin Spectral Data<<<<<
223.165	-22.5
223.4	-22.5
223.635	-22.5
223.869	-11.5
224.104	-25.5
224.338	-13.5
224.573	-18.5
224.808	-14.5
225.042	-2.5
225.277	-11.5
225.511	-0.5
225.746	13.5
225.98	13.5
226.215	8.5
226.449	9.5
226.683	20.5
226.918	25.5
227.152	29.5
227.387	44.5
227.621	46.5
227.856	42.5
228.09	57.5
228.324	43.5
228.559	65.5
228.793	145.5
229.027	297.5
229.262	340.5
229.496	319.5
229.73	281.5
229.964	298.5
230.199	291.5
230.433	314.5
230.667	302.5
230.901	317.5
231.136	330.5
231.37	373.5
231.604	393.5
231.838	463.5
232.072	531.5
232.306	563.5
232.541	476.5
232.775	413.5
233.009	402.5
233.243	415.5
233.477	444.5
233.711	501.5
233.945	610.5
234.179	509.5
234.413	454.5
234.647	438.5
234.881	459.5
235.115	510.5
235.349	628.5
235.583	774.5
235.817	1004.5
236.051	1005.5
236.285	652.5
236.519	535.5
236.753	505.5
236.987	507.5
237.221	530.5
237.455	527.5
237.689	461.5
237.922	457.5
238.156	463.5
238.39	476.5
238.624	497.5
238.858	489.5
239.091	490.5
239.325	495.5
239.559	493.5
239.793	502.5
240.027	541.5
240.26	557.5
240.494	568.5
240.728	599.5
240.961	612.5
241.195	653.5
241.429	661.5
241.662	720.5
241.896	797.5
242.13	954.5
242.363	1256.5
242.597	1645.5
242.83	1537.5
243.064	1531.5
243.298	1846.5
243.531	1521.5
243.765	942.5
243.998	775.5
244.232	713.5
244.465	684.5
244.699	685.5
244.932	652.5
245.166	663.5
245.399	673.5
245.633	689.5
245.866	684.5
246.099	663.5
246.333	677.5
246.566	653.5
246.8	655.5
247.033	652.5
247.266	630.5
247.5	647.5
247.733	697.5
247.966	737.5
248.2	771.5
248.433	876.5
248.666	979.5
248.899	933.5
249.133	861.5
249.366	849.5
249.599	942.5
249.832	1080.5
250.066	1075.5
250.299	865.5
250.532	809.5
250.765	730.5
250.998	743.5
251.231	753.5
251.465	737.5
251.698	764.5
251.931	775.5
252.164	734.5
252.397	758.5
252.63	784.5
252.863	812.5
253.096	796.5
253.329	790.5
253.562	790.5
253.795	782.5
254.028	793.5
254.261	847.5
254.494	895.5
254.727	1015.5
254.96	1243.5
255.193	1198.5
255.426	979.5
255.659	899.5
255.892	865.5
256.124	877.5
256.357	875.5
256.59	896.5
256.823	976.5
257.056	1117.5
257.289	1363.5
257.521	1479.5
257.754	1176.5
257.987	975.5
258.22	920.5
258.452	903.5
258.685	938.5
258.918	938.5
259.151	985.5
259.383	1101.5
259.616	1242.5
259.849	1286.5
260.081	1130.5
260.314	986.5
260.547	952.5
260.779	967.5
261.012	931.5
261.244	986.5
261.477	998.5
261.71	996.5
261.942	986.5
262.175	1033.5
262.407	1097.5
262.64	1104.5
262.872	1126.5
263.105	1148.5
263.337	1225.5
263.57	1251.5
263.802	1309.5
264.035	1338.5
264.267	1358.5
264.499	1395.5
264.732	1438.5
264.964	1465.5
265.197	1467.5
265.429	1453.5
265.661	1514.5
265.894	1614.5
266.126	1765.5
266.358	1975.5
266.591	1934.5
266.823	1613.5
267.055	1476.5
267.287	1411.5
267.52	1319.5
267.752	1339.5
267.984	1275.5
268.216	1278.5
268.448	1246.5
268.681	1283.5
268.913	1209.5
269.145	1230.5
269.377	1190.5
269.609	1249.5
269.841	1285.5
270.073	1368.5
270.306	1600.5
270.538	2205.5
270.77	3235.5
271.002	4006.5
271.234	2777.5
271.466	1886.5
271.698	1530.5
271.93	1400.5
272.162	1319.5
272.394	1279.5
272.626	1271.5
272.858	1249.5
273.09	1211.5
273.322	1230.5
273.553	1229.5
273.785	1207.5
274.017	1205.5
274.249	1222.5
274.481	1222.5
274.713	1205.5
274.945	1229.5
275.176	1237.5
275.408	1229.5
275.64	1223.5
275.872	1241.5
276.104	1247.5
276.335	1273.5
276.567	1292.5
276.799	1287.5
277.031	1323.5
277.262	1326.5
277.494	1393.5
277.726	1574.5
277.957	1866.5
278.189	2125.5
278.421	1983.5
278.652	1729.5
278.884	1709.5
279.115	1485.5
279.347	1461.5
279.579	1421.5
279.81	1385.5
280.042	1388.5
280.273	1395.5
280.505	1435.5
280.736	1466.5
280.968	1594.5
281.199	1798.5
281.431	2041.5
281.662	2071.5
281.894	1829.5
282.125	1653.5
282.356	1596.5
282.588	1677.5
282.819	1717.5
283.051	1830.5
283.282	2006.5
283.513	2460.5
283.745	3599.5
283.976	5706.5
284.207	8200.5
284.439	7337.5
284.67	4407.5
284.901	3692.5
285.132	3751.5
285.364	3583.5
285.595	2737.5
285.826	2407.5
286.057	2839.5
286.288	3811.5
286.52	5323.5
286.751	4893.5
286.982	2981.5
287.213	2250.5
287.444	1963.5
287.675	1867.5
287.906	1765.5
288.138	1772.5
288.369	1724.5
288.6	1678.5
288.831	1723.5
289.062	1693.5
289.293	1691.5
289.524	1683.5
289.755	1697.5
289.986	1737.5
290.217	1691.5
290.448	1732.5
290.679	1734.5
290.91	1795.5
291.141	1898.5
291.371	2008.5
291.602	2126.5
291.833	1933.5
292.064	1762.5
292.295	1657.5
292.526	1659.5
292.757	1638.5
292.987	1597.5
293.218	1595.5
293.449	1593.5
293.68	1583.5
293.91	1566.5
294.141	1590.5
294.372	1559.5
294.603	1589.5
294.833	1563.5
295.064	1611.5
295.295	1549.5
295.525	1556.5
295.756	1594.5
295.987	1579.5
296.217	1588.5
296.448	1581.5
296.679	1549.5
296.909	1605.5
297.14	1603.5
297.37	1626.5
297.601	1603.5
297.831	1643.5
298.062	1655.5
298.292	1699.5
298.523	1679.5
298.753	1690.5
298.984	1706.5
299.214	1742.5
299.445	1762.5
299.675	1799.5
299.905	1804.5
300.136	1926.5
300.366	2135.5
300.597	2761.5
300.827	3823.5
301.057	5269.5
301.288	5253.5
301.518	3324.5
301.748	2559.5
301.979	2340.5
302.209	2273.5
302.439	2314.5
302.669	2437.5
302.9	2956.5
303.13	4204.5
303.36	6240.5
303.59	8233.5
303.82	7191.5
304.051	4172.5
304.281	2983.5
304.511	2569.5
304.741	2359.5
304.971	2167.5
305.201	2079.5
305.431	2010.5
305.661	1961.5
305.891	1905.5
306.121	1875.5
306.352	1886.5
306.582	1905.5
306.812	1801.5
307.042	1811.5
307.272	1830.5
307.502	1826.5
307.731	1844.5
307.961	1837.5
308.191	1829.5
308.421	1784.5
308.651	1840.5
308.881	1819.5
309.111	1814.5
309.341	1829.5
309.571	1854.5
309.8	1831.5
310.03	1860.5
310.26	1849.5
310.49	1828.5
310.72	1861.5
310.949	1882.5
311.179	1905.5
311.409	1896.5
311.639	1911.5
311.868	1908.5
312.098	1935.5
312.328	1983.5
312.557	1994.5
312.787	1964.5
313.017	1998.5
313.246	2034.5
313.476	2028.5
313.706	2090.5
313.935	2179.5
314.165	2331.5
314.394	2476.5
314.624	2414.5
314.853	2201.5
315.083	2143.5
315.312	2151.5
315.542	2174.5
315.771	2191.5
316.001	2249.5
316.23	2351.5
316.46	2463.5
316.689	2661.5
316.919	3210.5
317.148	4661.5
317.377	7266.5
317.607	10518.5
317.836	10969.5
318.065	6524.5
318.295	4231.5
318.524	3390.5
318.753	2997.5
318.983	2774.5
319.212	2568.5
319.441	2538.5
319.67	2452.5
319.9	2395.5
320.129	2372.5
320.358	2342.5
320.587	2341.5
320.816	2388.5
321.046	2394.5
321.275	2390.5
321.504	2387.5
321.733	2438.5
321.962	2509.5
322.191	2545.5
322.42	2513.5
322.649	2492.5
322.878	2448.5
323.108	2514.5
323.337	2565.5
323.566	2529.5
323.795	2632.5
324.024	2675.5
324.253	2715.5
324.482	2843.5
324.71	2938.5
324.939	3173.5
325.168	3225.5
325.397	3417.5
325.626	4028.5
325.855	5626.5
326.084	8791.5
326.313	12757.5
326.542	13490.5
326.77	9030.5
326.999	5852.5
327.228	4937.5
327.457	4699.5
327.686	4769.5
327.914	5077.5
328.143	5998.5
328.372	7148.5
328.6	7760.5
328.829	6880.5
329.058	5787.5
329.287	5116.5
329.515	4594.5
329.744	4306.5
329.972	4077.5
330.201	3889.5
330.43	3751.5
330.658	3676.5
330.887	3560.5
331.115	3526.5
331.344	3509.5
331.572	3536.5
331.801	3477.5
332.03	3465.5
332.258	3586.5
332.486	3813.5
332.715	4336.5
332.943	5399.5
333.172	6719.5
333.4	6589.5
333.629	4926.5
333.857	4459.5
334.085	4499.5
334.314	4686.5
334.542	5122.5
334.771	6015.5
334.999	7433.5
335.227	9386.5
335.455	10465.5
335.684	9406.5
335.912	7635.5
336.14	6421.5
336.369	5747.5
336.597	5256.5
336.825	4874.5
337.053	4534.5
337.281	4223.5
337.51	4020.5
337.738	3895.5
337.966	3770.5
338.194	3606.5
338.422	3517.5
338.65	3424.5
338.878	3361.5
339.106	3276.5
339.334	3271.5
339.562	3203.5
339.79	3091.5
340.018	3055.5
340.246	3091.5
340.474	3081.5
340.702	3011.5
340.93	3021.5
341.158	3012.5
341.386	3018.5
341.614	3020.5
341.842	2932.5
342.07	2904.5
342.298	2869.5
342.526	2843.5
342.754	2802.5
342.981	2737.5
343.209	2776.5
343.437	2810.5
343.665	2823.5
343.893	2835.5
344.12	2879.5
344.348	2815.5
344.576	2774.5
344.804	2739.5
345.031	2689.5
345.259	2644.5
345.487	2661.5
345.714	2601.5
345.942	2564.5
346.17	2554.5
346.397	2557.5
346.625	2561.5
346.853	2551.5
347.08	2526.5
347.308	2569.5
347.535	2556.5
347.763	2585.5
347.99	2469.5
348.218	2487.5
348.445	2501.5
348.673	2470.5
348.9	2554.5
349.128	2545.5
349.355	2472.5
349.583	2471.5
349.81	2483.5
350.037	2428.5
350.265	2394.5
350.492	2405.5
350.72	2434.5
350.947	2438.5
351.174	2422.5
351.402	2495.5
351.629	2428.5
351.856	2447.5
352.083	2434.5
352.311	2409.5
352.538	2371.5
352.765	2422.5
352.992	2421.5
353.22	2390.5
353.447	2449.5
353.674	2389.5
353.901	2395.5
354.128	2426.5
354.355	2453.5
354.583	2457.5
354.81	2421.5
355.037	2433.5
355.264	2449.5
355.491	2458.5
355.718	2499.5
355.945	2459.5
356.172	2470.5
356.399	2524.5
356.626	2497.5
356.853	2544.5
357.08	2517.5
357.307	2555.5
357.534	2658.5
357.761	2617.5
357.988	2617.5
358.215	2551.5
358.441	2575.5
358.668	2519.5
358.895	2561.5
359.122	2563.5
359.349	2564.5
359.576	2514.5
359.802	2566.5
360.029	2557.5
360.256	2540.5
360.483	2627.5
360.709	2593.5
360.936	2563.5
361.163	2592.5
361.39	2584.5
361.616	2583.5
361.843	2573.5
362.07	2569.5
362.296	2602.5
362.523	2594.5
362.749	2578.5
362.976	2549.5
363.203	2568.5
363.429	2565.5
363.656	2579.5
363.882	2537.5
364.109	2598.5
364.335	2537.5
364.562	2574.5
364.788	2537.5
365.015	2612.5
365.241	2685.5
365.468	2764.5
365.694	2988.5
365.92	2864.5
366.147	2678.5
366.373	2659.5
366.599	2679.5
366.826	2587.5
367.052	2597.5
367.278	2663.5
367.505	2653.5
367.731	2669.5
367.957	2670.5
368.184	2653.5
368.41	2656.5
368.636	2655.5
368.862	2712.5
369.089	2707.5
369.315	2704.5
369.541	2650.5
369.767	2685.5
369.993	2653.5
370.219	2686.5
370.445	2727.5
370.672	2742.5
370.898	2699.5
371.124	2716.5
371.35	2728.5
371.576	2773.5
371.802	2774.5
372.028	2761.5
372.254	2775.5
372.48	2795.5
372.706	2843.5
372.932	2833.5
373.158	2834.5
373.384	2830.5
373.61	2834.5
373.835	2838.5
374.061	2818.5
374.287	2906.5
374.513	2906.5
374.739	2907.5
374.965	2939.5
375.191	2929.5
375.416	2902.5
375.642	2907.5
375.868	2871.5
376.094	2859.5
376.319	2867.5
376.545	2814.5
376.771	2761.5
376.997	2767.5
377.222	2823.5
377.448	2770.5
377.674	2806.5
377.899	2734.5
378.125	2778.5
378.35	2714.5
378.576	2761.5
378.802	2761.5
379.027	2791.5
379.253	2900.5
379.478	3054.5
379.704	3623.5
379.929	5277.5
380.155	7954.5
380.38	8693.5
380.606	5238.5
380.831	3713.5
381.057	3232.5
381.282	2997.5
381.507	2955.5
381.733	2813.5
381.958	2740.5
382.184	2773.5
382.409	2701.5
382.634	2708.5
382.86	2762.5
383.085	2757.5
383.31	2731.5
383.535	2689.5
383.761	2717.5
383.986	2734.5
384.211	2756.5
384.436	2805.5
384.662	2841.5
384.887	2822.5
385.112	2817.5
385.337	2820.5
385.562	2795.5
385.787	2801.5
386.013	2828.5
386.238	2807.5
386.463	2849.5
386.688	2843.5
386.913	2793.5
387.138	2781.5
387.363	2786.5
387.588	2814.5
387.813	2782.5
388.038	2782.5
388.263	2809.5
388.488	2809.5
388.713	2801.5
388.938	2835.5
389.163	2794.5
389.387	2767.5
389.612	2738.5
389.837	2813.5
390.062	2791.5
390.287	2826.5
390.512	2828.5
390.736	2882.5
390.961	2903.5
391.186	2895.5
391.411	2934.5
391.636	2926.5
391.86	2973.5
392.085	2985.5
392.31	2973.5
392.534	2899.5
392.759	2932.5
392.984	2860.5
393.208	2867.5
393.433	2871.5
393.658	2892.5
393.882	2772.5
394.107	2847.5
394.331	2830.5
394.556	2812.5
394.78	2849.5
395.005	2899.5
395.229	2881.5
395.454	2889.5
395.678	2870.5
395.903	2931.5
396.127	2916.5
396.352	2881.5
396.576	2861.5
396.801	2882.5
397.025	2985.5
397.249	2955.5
397.474	2996.5
397.698	2934.5
397.922	2994.5
398.147	2987.5
398.371	3006.5
398.595	3091.5
398.82	3130.5
399.044	3265.5
399.268	3359.5
399.492	3557.5
399.717	3721.5
399.941	3695.5
400.165	3559.5
400.389	3510.5
400.613	3309.5
400.837	3196.5
401.062	3173.5
401.286	3139.5
401.51	3072.5
401.734	3022.5
401.958	3080.5
402.182	3106.5
402.406	3098.5
402.63	3126.5
402.854	3138.5
403.078	3188.5
403.302	3145.5
403.526	3230.5
403.75	3213.5
403.974	3174.5
404.198	3175.5
404.422	3269.5
404.645	3217.5
404.869	3193.5
405.093	3222.5
405.317	3209.5
405.541	3277.5
405.765	3307.5
405.988	3363.5
406.212	3360.5
406.436	3307.5
406.66	3343.5
406.883	3355.5
407.107	3457.5
407.331	3414.5
407.555	3502.5
407.778	3494.5
408.002	3412.5
408.226	3426.5
408.449	3465.5
408.673	3381.5
408.896	3305.5
409.12	3290.5
409.344	3267.5
409.567	3216.5
409.791	3253.5
410.014	3181.5
410.238	3180.5
410.461	3195.5
410.685	3185.5
410.908	3137.5
411.132	3121.5
411.355	3104.5
411.578	3101.5
411.802	3095.5
412.025	3069.5
412.249	3117.5
412.472	3087.5
412.695	3060.5
412.919	3037.5
413.142	3026.5
413.365	3004.5
413.589	2991.5
413.812	2981.5
414.035	3036.5
414.258	3061.5
414.482	2997.5
414.705	3021.5
414.928	2994.5
415.151	3003.5
415.374	3039.5
415.597	2957.5
415.821	2876.5
416.044	2913.5
416.267	2887.5
416.49	2890.5
416.713	2935.5
416.936	2953.5
417.159	2896.5
417.382	2836.5
417.605	2870.5
417.828	2890.5
418.051	2938.5
418.274	2908.5
418.497	2940.5
418.72	2995.5
418.943	2942.5
419.166	3071.5
419.389	3255.5
419.611	3209.5
419.834	3110.5
420.057	3085.5
420.28	2956.5
420.503	2898.5
420.726	2936.5
420.948	2936.5
421.171	2877.5
421.394	2920.5
421.617	2921.5
421.839	2908.5
422.062	2930.5
422.285	2894.5
422.507	2987.5
422.73	2990.5
422.953	2966.5
423.175	3058.5
423.398	2985.5
423.621	2931.5
423.843	2968.5
424.066	2956.5
424.288	2922.5
424.511	2894.5
424.733	2888.5
424.956	2908.5
425.178	2874.5
425.401	2839.5
425.623	2861.5
425.846	2804.5
426.068	2831.5
426.291	2780.5
426.513	2827.5
426.735	2775.5
426.958	2743.5
427.18	2705.5
427.402	2750.5
427.625	2747.5
427.847	2706.5
428.069	2686.5
428.292	2689.5
428.514	2681.5
428.736	2667.5
428.958	2689.5
429.181	2651.5
429.403	2644.5
429.625	2637.5
429.847	2661.5
430.069	2734.5
430.292	2859.5
430.514	2907.5
430.736	2906.5
430.958	2708.5
431.18	2658.5
431.402	2671.5
431.624	2644.5
431.846	2658.5
432.068	2601.5
432.29	2687.5
432.512	2615.5
432.734	2689.5
432.956	2666.5
433.178	2650.5
433.4	2647.5
433.622	2659.5
433.844	2669.5
434.066	2692.5
434.287	2669.5
434.509	2731.5
434.731	2741.5
434.953	2725.5
435.175	2806.5
435.397	2823.5
435.618	2708.5
435.84	2716.5
436.062	2652.5
436.284	2664.5
436.505	2611.5
436.727	2631.5
436.949	2619.5
437.17	2613.5
437.392	2588.5
437.614	2590.5
437.835	2529.5
438.057	2592.5
438.278	2589.5
438.5	2586.5
438.721	2630.5
438.943	2661.5
439.165	2730.5
439.386	2754.5
439.608	2750.5
439.829	2763.5
440.05	2830.5
440.272	2883.5
440.493	2767.5
440.715	2747.5
440.936	2729.5
441.158	2766.5
441.379	2794.5
441.6	2926.5
441.822	2948.5
442.043	3130.5
442.264	3245.5
442.486	3012.5
442.707	2891.5
442.928	2849.5
443.149	2811.5
443.371	2809.5
443.592	2867.5
443.813	2868.5
444.034	2878.5
444.255	2930.5
444.476	2976.5
444.698	3044.5
444.919	3027.5
445.14	3169.5
445.361	3016.5
445.582	2939.5
445.803	2915.5
446.024	2808.5
446.245	2804.5
446.466	2840.5
446.687	2777.5
446.908	2775.5
447.129	2665.5
447.35	2661.5
447.571	2708.5
447.792	2572.5
448.013	2630.5
448.234	2665.5
448.455	2628.5
448.675	2657.5
448.896	2743.5
449.117	2817.5
449.338	3052.5
449.559	3135.5
449.779	2802.5
450	2627.5
450.221	2611.5
450.442	2573.5
450.662	2515.5
450.883	2545.5
451.104	2533.5
451.324	2532.5
451.545	2580.5
451.766	2575.5
451.986	2655.5
452.207	2786.5
452.428	3593.5
452.648	5548.5
452.869	4549.5
453.089	3143.5
453.31	2940.5
453.53	2955.5
453.751	3036.5
453.971	3197.5
454.192	3144.5
454.412	2713.5
454.633	2553.5
454.853	2504.5
455.073	2461.5
455.294	2514.5
455.514	2419.5
455.734	2425.5
455.955	2414.5
456.175	2420.5
456.395	2440.5
456.616	2403.5
456.836	2522.5
457.056	2478.5
457.276	2459.5
457.497	2671.5
457.717	2670.5
457.937	2611.5
458.157	2612.5
458.377	2559.5
458.598	2625.5
458.818	2622.5
459.038	2619.5
459.258	2655.5
459.478	2676.5
459.698	2668.5
459.918	2812.5
460.138	2764.5
460.358	2839.5
460.578	2798.5
460.798	2851.5
461.018	2909.5
461.238	2863.5
461.458	2950.5
461.678	2904.5
461.898	2979.5
462.118	2977.5
462.338	3082.5
462.558	3106.5
462.777	3117.5
462.997	3265.5
463.217	3429.5
463.437	3499.5
463.657	3623.5
463.876	3545.5
464.096	3333.5
464.316	3216.5
464.536	3150.5
464.755	3108.5
464.975	3006.5
465.195	2915.5
465.414	2859.5
465.634	2790.5
465.854	2741.5
466.073	2721.5
466.293	2727.5
466.512	2654.5
466.732	2709.5
466.951	2811.5
467.171	3035.5
467.391	2953.5
467.61	2729.5
467.829	2661.5
468.049	2638.5
468.268	2605.5
468.488	2583.5
468.707	2516.5
468.927	2565.5
469.146	2614.5
469.365	2638.5
469.585	2634.5
469.804	2710.5
470.023	2689.5
470.243	2772.5
470.462	2894.5
470.681	3020.5
470.901	3323.5
471.12	3779.5
471.339	3834.5
471.558	3193.5
471.777	2908.5
471.997	2812.5
472.216	2733.5
472.435	2664.5
472.654	2636.5
472.873	2563.5
473.092	2593.5
473.311	2647.5
473.53	2634.5
473.749	2744.5
473.968	2849.5
474.187	2617.5
474.406	2594.5
474.625	2619.5
474.844	2574.5
475.063	2606.5
475.282	2601.5
475.501	2628.5
475.72	2674.5
475.939	2723.5
476.158	2688.5
476.377	2796.5
476.596	2783.5
476.814	2787.5
477.033	2772.5
477.252	2808.5
477.471	2848.5
477.69	2897.5
477.908	2952.5
478.127	2945.5
478.346	2972.5
478.564	3009.5
478.783	3071.5
479.002	3127.5
479.22	3110.5
479.439	3093.5
479.658	3142.5
479.876	3161.5
480.095	3140.5
480.313	3223.5
480.532	3295.5
480.751	3218.5
480.969	3140.5
481.188	3192.5
481.406	3137.5
481.624	3191.5
481.843	3175.5
482.061	3207.5
482.28	3197.5
482.498	3188.5
482.717	3192.5
482.935	3235.5
483.153	3274.5
483.372	3321.5
483.59	3312.5
483.808	3354.5
484.027	3411.5
484.245	3609.5
484.463	4157.5
484.681	4554.5
484.9	4140.5
485.118	3833.5
485.336	3790.5
485.554	3799.5
485.772	4060.5
485.99	4595.5
486.209	4959.5
486.427	4159.5
486.645	3694.5
486.863	3541.5
487.081	3443.5
487.299	3372.5
487.517	3422.5
487.735	3387.5
487.953	3373.5
488.171	3387.5
488.389	3337.5
488.607	3300.5
488.825	3306.5
489.043	3270.5
489.261	3215.5
489.479	3291.5
489.696	3307.5
489.914	3201.5
490.132	3319.5
490.35	3333.5
490.568	3295.5
490.786	3336.5
491.003	3462.5
491.221	3397.5
491.439	3441.5
491.657	3364.5
491.874	3380.5
492.092	3441.5
492.31	3448.5
492.527	3411.5
492.745	3361.5
492.963	3451.5
493.18	3434.5
493.398	3435.5
493.615	3470.5
493.833	3447.5
494.05	3429.5
494.268	3483.5
494.485	3512.5
494.703	3433.5
494.92	3453.5
495.138	3438.5
495.355	3434.5
495.573	3451.5
495.79	3502.5
496.008	3526.5
496.225	3527.5
496.442	3547.5
496.66	3672.5
496.877	3849.5
497.094	3884.5
497.312	3750.5
497.529	3693.5
497.746	3727.5
497.963	3825.5
498.181	3925.5
498.398	4010.5
498.615	4131.5
498.832	4251.5
499.049	4494.5
499.267	4836.5
499.484	5149.5
499.701	5107.5
499.918	5217.5
500.135	5482.5
500.352	5814.5
500.569	5851.5
500.786	5746.5
501.003	5582.5
501.22	5370.5
501.437	5067.5
501.654	4741.5
501.871	4601.5
502.088	4395.5
502.305	4325.5
502.522	4157.5
502.739	4108.5
502.956	3938.5
503.172	3806.5
503.389	3739.5
503.606	3679.5
503.823	3636.5
504.04	3641.5
504.256	3582.5
504.473	3585.5
504.69	3587.5
504.907	3511.5
505.123	3507.5
505.34	3425.5
505.557	3355.5
505.773	3287.5
505.99	3219.5
506.207	3190.5
506.423	3113.5
506.64	3108.5
506.856	3095.5
507.073	3082.5
507.289	3080.5
507.506	3049.5
507.722	2990.5
507.939	3080.5
508.155	3029.5
508.372	3042.5
508.588	2997.5
508.805	3033.5
509.021	2973.5
509.238	2982.5
509.454	3163.5
509.67	3394.5
509.887	3118.5
510.103	3061.5
510.319	3010.5
510.536	2974.5
510.752	2910.5
510.968	2925.5
511.184	2900.5
511.401	2889.5
511.617	2831.5
511.833	2881.5
512.049	2853.5
512.265	2848.5
512.481	2879.5
512.698	2844.5
512.914	2868.5
513.13	2859.5
513.346	2815.5
513.562	2890.5
513.778	2886.5
513.994	2935.5
514.21	2933.5
514.426	3190.5
514.642	3310.5
514.858	3047.5
515.074	2987.5
515.29	2951.5
515.506	2932.5
515.721	2925.5
515.937	2972.5
516.153	3001.5
516.369	2969.5
516.585	2996.5
516.801	3077.5
517.016	3091.5
517.232	3204.5
517.448	3260.5
517.664	3235.5
517.879	3237.5
518.095	3287.5
518.311	3214.5
518.527	3157.5
518.742	3189.5
518.958	3218.5
519.173	3227.5
519.389	3187.5
519.605	3052.5
519.82	2991.5
520.036	2953.5
520.251	2854.5
520.467	2895.5
520.682	2837.5
520.898	2847.5
521.113	2804.5
521.329	2798.5
521.544	2791.5
521.76	2803.5
521.975	2858.5
522.19	2785.5
522.406	2758.5
522.621	2798.5
522.836	2787.5
523.052	2746.5
523.267	2769.5
523.482	2763.5
523.698	2703.5
523.913	2683.5
524.128	2713.5
524.343	2721.5
524.559	2752.5
524.774	2749.5
524.989	2731.5
525.204	2744.5
525.419	2753.5
525.634	2678.5
525.849	2747.5
526.064	2735.5
526.28	2764.5
526.495	2772.5
526.71	2761.5
526.925	2732.5
527.14	2752.5
527.355	2733.5
527.57	2739.5
527.785	2754.5
527.999	2807.5
528.214	2786.5
528.429	2851.5
528.644	2842.5
528.859	2851.5
529.074	2865.5
529.289	2969.5
529.503	2931.5
529.718	2981.5
529.933	2878.5
530.148	2893.5
530.363	2893.5
530.577	2905.5
530.792	2924.5
531.007	2935.5
531.221	2945.5
531.436	3015.5
531.651	2986.5
531.865	3002.5
532.08	3109.5
532.295	3180.5
532.509	3405.5
532.724	3388.5
532.938	3421.5
533.153	3562.5
533.367	3914.5
533.582	4019.5
533.796	3971.5
534.011	3747.5
534.225	3660.5
534.44	3411.5
534.654	3421.5
534.868	3370.5
535.083	3321.5
535.297	3237.5
535.511	3114.5
535.726	3159.5
535.94	3105.5
536.154	2958.5
536.369	2992.5
536.583	2957.5
536.797	2942.5
537.011	2869.5
537.225	2848.5
537.44	2836.5
537.654	2802.5
537.868	2824.5
538.082	2705.5
538.296	2733.5
538.51	2773.5
538.724	2739.5
538.938	2715.5
539.153	2680.5
539.367	2695.5
539.581	2669.5
539.795	2639.5
540.009	2579.5
540.222	2643.5
540.436	2636.5
540.65	2653.5
540.864	2668.5
541.078	2690.5
541.292	2870.5
541.506	3413.5
541.72	3554.5
541.934	3007.5
542.147	2883.5
542.361	2757.5
542.575	2653.5
542.789	2674.5
543.002	2583.5
543.216	2540.5
543.43	2550.5
543.644	2490.5
543.857	2529.5
544.071	2524.5
544.285	2539.5
544.498	2546.5
544.712	2587.5
544.925	2599.5
545.139	2531.5
545.352	2569.5
545.566	2541.5
545.779	2570.5
545.993	2545.5
546.206	2611.5
546.42	2554.5
546.633	2547.5
546.847	2567.5
547.06	2538.5
547.274	2553.5
547.487	2563.5
547.7	2535.5
547.914	2576.5
548.127	2552.5
548.34	2564.5
548.554	2563.5
548.767	2537.5
548.98	2583.5
549.193	2561.5
549.407	2570.5
549.62	2570.5
549.833	2569.5
550.046	2595.5
550.259	2564.5
550.473	2555.5
550.686	2537.5
550.899	2538.5
551.112	2571.5
551.325	2560.5
551.538	2532.5
551.751	2518.5
551.964	2574.5
552.177	2587.5
552.39	2617.5
552.603	2699.5
552.816	2709.5
553.029	2786.5
553.242	2775.5
553.455	2796.5
553.667	2842.5
553.88	2837.5
554.093	2837.5
554.306	2851.5
554.519	2879.5
554.732	2912.5
554.944	3010.5
555.157	3039.5
555.37	3177.5
555.583	3246.5
555.795	3449.5
556.008	3687.5
556.221	4185.5
556.433	4491.5
556.646	4541.5
556.859	4268.5
557.071	4058.5
557.284	4011.5
557.496	3803.5
557.709	3670.5
557.921	3732.5
558.134	3649.5
558.346	3755.5
558.559	3855.5
558.771	4152.5
558.984	4472.5
559.196	4877.5
559.409	4577.5
559.621	4185.5
559.833	3981.5
560.046	3721.5
560.258	3570.5
560.47	3338.5
560.683	3225.5
560.895	3115.5
561.107	3022.5
561.32	2950.5
561.532	2842.5
561.744	2758.5
561.956	2745.5
562.168	2705.5
562.381	2609.5
562.593	2609.5
562.805	2682.5
563.017	2741.5
563.229	2732.5
563.441	3169.5
563.653	2658.5
563.865	2454.5
564.077	2409.5
564.289	2428.5
564.501	2415.5
564.713	2369.5
564.925	2331.5
565.137	2341.5
565.349	2350.5
565.561	2362.5
565.773	2409.5
565.985	2448.5
566.197	2383.5
566.408	2514.5
566.62	2551.5
566.832	2575.5
567.044	2625.5
567.255	2637.5
567.467	2658.5
567.679	2721.5
567.891	2899.5
568.102	3180.5
568.314	3747.5
568.526	3159.5
568.737	2701.5
568.949	2504.5
569.161	2367.5
569.372	2276.5
569.584	2204.5
569.795	2188.5
570.007	2142.5
570.218	2209.5
570.43	2266.5
570.641	2074.5
570.853	2015.5
571.064	2027.5
571.276	1964.5
571.487	1930.5
571.698	1915.5
571.91	1917.5
572.121	1871.5
572.333	1859.5
572.544	1885.5
572.755	2005.5
572.966	2321.5
573.178	2137.5
573.389	1933.5
573.6	1821.5
573.811	1792.5
574.023	1740.5
574.234	1745.5
574.445	1737.5
574.656	1733.5
574.867	1729.5
575.078	1705.5
575.289	1735.5
575.501	1735.5
575.712	1703.5
575.923	1723.5
576.134	1691.5
576.345	1694.5
576.556	1715.5
576.767	1723.5
576.978	1706.5
577.188	1726.5
577.399	1732.5
577.61	1780.5
577.821	1733.5
578.032	1765.5
578.243	1820.5
578.454	1813.5
578.665	1944.5
578.875	1886.5
579.086	1980.5
579.297	2105.5
579.508	2236.5
579.718	2423.5
579.929	2774.5
580.14	3268.5
580.35	3342.5
580.561	3027.5
580.772	2699.5
580.982	2525.5
581.193	2342.5
581.403	2192.5
581.614	2090.5
581.825	2056.5
582.035	1986.5
582.246	1857.5
582.456	1824.5
582.667	1799.5
582.877	1736.5
583.087	1731.5
583.298	1661.5
583.508	1626.5
583.719	1577.5
583.929	1557.5
584.139	1529.5
584.35	1507.5
584.56	1502.5
584.77	1492.5
584.981	1414.5
585.191	1405.5
585.401	1409.5
585.611	1405.5
585.821	1354.5
586.032	1376.5
586.242	1366.5
586.452	1331.5
586.662	1291.5
586.872	1286.5
587.082	1292.5
587.292	1330.5
587.502	1255.5
587.713	1286.5
587.923	1262.5
588.133	1255.5
588.343	1274.5
588.553	1235.5
588.762	1235.5
588.972	1245.5
589.182	1263.5
589.392	1214.5
589.602	1228.5
589.812	1222.5
590.022	1215.5
590.232	1207.5
590.441	1205.5
590.651	1212.5
590.861	1192.5
591.071	1172.5
591.281	1178.5
591.49	1185.5
591.7	1213.5
591.91	1197.5
592.119	1195.5
592.329	1207.5
592.539	1225.5
592.748	1226.5
592.958	1215.5
593.167	1231.5
593.377	1243.5
593.587	1250.5
593.796	1231.5
594.006	1242.5
594.215	1232.5
594.424	1229.5
594.634	1205.5
594.843	1180.5
595.053	1195.5
595.262	1139.5
595.472	1124.5
595.681	1094.5
595.89	1103.5
596.1	1077.5
596.309	1055.5
596.518	1069.5
596.727	1070.5
596.937	1062.5
597.146	1057.5
597.355	1052.5
597.564	1029.5
597.774	1021.5
597.983	1004.5
598.192	988.5
598.401	975.5
598.61	988.5
598.819	1006.5
599.028	975.5
599.237	954.5
599.446	937.5
599.655	965.5
599.864	972.5
600.073	940.5
600.282	961.5
600.491	951.5
600.7	959.5
600.909	940.5
601.118	944.5
601.327	979.5
601.536	972.5
601.745	1001.5
601.953	1070.5
602.162	1217.5
602.371	1073.5
602.58	997.5
602.789	968.5
602.997	956.5
603.206	949.5
603.415	909.5
603.623	930.5
603.832	903.5
604.041	925.5
604.249	907.5
604.458	892.5
604.666	909.5
604.875	890.5
605.084	897.5
605.292	901.5
605.501	893.5
605.709	911.5
605.918	937.5
606.126	905.5
606.334	926.5
606.543	911.5
606.751	998.5
606.96	1138.5
607.168	1245.5
607.376	1077.5
607.585	964.5
607.793	943.5
608.001	925.5
608.21	905.5
608.418	877.5
608.626	888.5
608.834	856.5
609.043	889.5
609.251	869.5
609.459	851.5
609.667	870.5
609.875	852.5
610.083	857.5
610.291	862.5
610.499	835.5
610.707	825.5
610.916	843.5
611.124	809.5
611.332	814.5
611.54	819.5
611.748	816.5
611.955	806.5
612.163	819.5
612.371	794.5
612.579	803.5
612.787	798.5
612.995	787.5
613.203	801.5
613.411	806.5
613.618	805.5
613.826	772.5
614.034	796.5
614.242	772.5
614.449	782.5
614.657	807.5
614.865	812.5
615.072	825.5
615.28	835.5
615.488	787.5
615.695	817.5
615.903	791.5
616.111	787.5
616.318	807.5
616.526	814.5
616.733	780.5
616.941	790.5
617.148	789.5
617.356	785.5
617.563	775.5
617.771	781.5
617.978	758.5
618.185	761.5
618.393	746.5
618.6	791.5
618.807	761.5
619.015	768.5
619.222	741.5
619.429	757.5
619.637	740.5
619.844	736.5
620.051	707.5
620.258	710.5
620.466	706.5
620.673	708.5
620.88	717.5
621.087	697.5
621.294	711.5
621.501	696.5
621.708	711.5
621.915	716.5
622.122	694.5
622.329	684.5
622.536	703.5
622.743	692.5
622.95	699.5
623.157	700.5
623.364	683.5
623.571	693.5
623.778	681.5
623.985	690.5
624.192	709.5
624.399	672.5
624.606	679.5
624.812	686.5
625.019	662.5
625.226	668.5
625.433	685.5
625.639	644.5
625.846	645.5
626.053	642.5
626.259	645.5
626.466	641.5
626.673	636.5
626.879	638.5
627.086	648.5
627.293	641.5
627.499	637.5
627.706	627.5
627.912	619.5
628.119	644.5
628.325	636.5
628.532	638.5
628.738	640.5
628.945	621.5
629.151	626.5
629.357	596.5
629.564	618.5
629.77	607.5
629.976	605.5
630.183	602.5
630.389	618.5
630.595	596.5
630.802	614.5
631.008	610.5
631.214	609.5
631.42	621.5
631.627	614.5
631.833	605.5
632.039	599.5
632.245	602.5
632.451	584.5
632.657	597.5
632.863	589.5
633.069	584.5
633.275	574.5
633.481	570.5
633.688	595.5
633.893	578.5
634.099	612.5
634.305	582.5
634.511	597.5
634.717	599.5
634.923	631.5
635.129	701.5
635.335	782.5
635.541	678.5
635.747	621.5
635.952	614.5
636.158	593.5
636.364	590.5
636.57	590.5
636.775	587.5
636.981	606.5
637.187	591.5
637.392	586.5
637.598	604.5
637.804	616.5
638.009	580.5
638.215	582.5
638.421	588.5
638.626	580.5
638.832	584.5
639.037	602.5
639.243	586.5
639.448	584.5
639.654	594.5
639.859	598.5
640.065	581.5
640.27	611.5
640.475	614.5
640.681	626.5
640.886	621.5
641.091	613.5
641.297	635.5
641.502	635.5
641.707	652.5
641.913	615.5
642.118	638.5
642.323	667.5
642.528	700.5
642.733	686.5
642.939	719.5
643.144	713.5
643.349	759.5
643.554	773.5
643.759	782.5
643.964	847.5
644.169	897.5
644.374	940.5
644.579	1010.5
644.784	1127.5
644.989	1304.5
645.194	1545.5
645.399	1914.5
645.604	2063.5
645.809	1531.5
646.014	1137.5
646.219	957.5
646.423	864.5
646.628	791.5
646.833	707.5
647.038	676.5
647.243	666.5
647.447	643.5
647.652	634.5
647.857	583.5
648.062	588.5
648.266	558.5
648.471	558.5
648.676	563.5
648.88	558.5
649.085	538.5
649.289	533.5
649.494	520.5
649.698	525.5
649.903	486.5
650.107	499.5
650.312	477.5
650.516	469.5
650.721	462.5
650.925	429.5
651.13	450.5
651.334	450.5
651.539	434.5
651.743	450.5
651.947	430.5
652.152	418.5
652.356	423.5
652.56	440.5
652.764	521.5
652.969	468.5
653.173	442.5
653.377	400.5
653.581	393.5
653.785	373.5
653.99	382.5
654.194	379.5
654.398	366.5
654.602	376.5
654.806	347.5
655.01	350.5
655.214	350.5
655.418	351.5
655.622	364.5
655.826	338.5
656.03	350.5
656.234	366.5
656.438	378.5
656.642	375.5
656.846	364.5
657.049	339.5
657.253	339.5
657.457	293.5
657.661	285.5
657.865	273.5
658.068	258.5
658.272	242.5
658.476	246.5
658.68	236.5
658.883	222.5
659.087	208.5
659.291	204.5
659.494	211.5
659.698	195.5
659.901	176.5
660.105	182.5
660.309	175.5
660.512	151.5
660.716	152.5
660.919	148.5
661.123	149.5
661.326	125.5
661.53	137.5
661.733	137.5
661.936	117.5
662.14	105.5
662.343	125.5
662.546	103.5
662.75	102.5
662.953	106.5
663.156	107.5
663.36	103.5
663.563	97.5
663.766	98.5
663.969	99.5
664.173	99.5
664.376	106.5
664.579	98.5
664.782	86.5
664.985	90.5
665.188	91.5
665.391	94.5
665.594	88.5
665.797	92.5
666	104.5
666.203	82.5
666.406	87.5
666.609	99.5
666.812	90.5
667.015	82.5
667.218	78.5
667.421	87.5
667.624	93.5
667.827	76.5
668.03	86.5
668.232	92.5
668.435	90.5
668.638	75.5
668.841	76.5
669.043	77.5
669.246	73.5
669.449	78.5
669.651	94.5
669.854	89.5
670.057	89.5
670.259	75.5
670.462	83.5
670.665	91.5
670.867	75.5
671.07	95.5
671.272	91.5
671.475	91.5
671.677	86.5
671.88	90.5
672.082	77.5
672.284	81.5
672.487	76.5
672.689	83.5
672.892	72.5
