Data from SnStandardFlinnAPT0064_QswitchEnergy10_LIBS07252019.E.O._I.C._HRD10591_15-27-35-973.txt Node
Date: Thu Jul 25 15:27:35 EDT 2019
User: cochatt
Spectrometer: HR+D1059
Trigger mode: 1
Integration Time (sec): 1.000000E-1
Scans to average: 1
Electric dark correction enabled: true
Nonlinearity correction enabled: false
Boxcar width: 0
XAxis mode: Wavelengths
Number of Pixels in Spectrum: 2048
>>>>>Begin Spectral Data<<<<<
223.165	-15.62
223.4	-15.62
223.635	-15.62
223.869	-20.62
224.104	-22.62
224.338	-18.62
224.573	-16.62
224.808	-13.62
225.042	-0.62
225.277	-11.62
225.511	-8.62
225.746	1.38
225.98	3.38
226.215	19.38
226.449	28.38
226.683	29.38
226.918	11.38
227.152	35.38
227.387	26.38
227.621	43.38
227.856	57.38
228.09	58.38
228.324	54.38
228.559	57.38
228.793	59.38
229.027	61.38
229.262	85.38
229.496	69.38
229.73	79.38
229.964	93.38
230.199	69.38
230.433	84.38
230.667	83.38
230.901	77.38
231.136	95.38
231.37	84.38
231.604	91.38
231.838	108.38
232.072	114.38
232.306	126.38
232.541	87.38
232.775	85.38
233.009	85.38
233.243	84.38
233.477	100.38
233.711	115.38
233.945	105.38
234.179	99.38
234.413	88.38
234.647	87.38
234.881	79.38
235.115	90.38
235.349	95.38
235.583	104.38
235.817	131.38
236.051	126.38
236.285	97.38
236.519	87.38
236.753	82.38
236.987	91.38
237.221	64.38
237.455	72.38
237.689	100.38
237.922	70.38
238.156	91.38
238.39	85.38
238.624	84.38
238.858	96.38
239.091	89.38
239.325	92.38
239.559	82.38
239.793	81.38
240.027	69.38
240.26	78.38
240.494	72.38
240.728	77.38
240.961	86.38
241.195	89.38
241.429	97.38
241.662	87.38
241.896	76.38
242.13	111.38
242.363	147.38
242.597	166.38
242.83	131.38
243.064	153.38
243.298	187.38
243.531	134.38
243.765	95.38
243.998	84.38
244.232	84.38
244.465	97.38
244.699	94.38
244.932	95.38
245.166	98.38
245.399	91.38
245.633	82.38
245.866	73.38
246.099	87.38
246.333	87.38
246.566	82.38
246.8	82.38
247.033	88.38
247.266	89.38
247.5	78.38
247.733	87.38
247.966	85.38
248.2	91.38
248.433	111.38
248.666	130.38
248.899	120.38
249.133	89.38
249.366	105.38
249.599	94.38
249.832	124.38
250.066	139.38
250.299	91.38
250.532	91.38
250.765	88.38
250.998	75.38
251.231	80.38
251.465	80.38
251.698	77.38
251.931	96.38
252.164	83.38
252.397	97.38
252.63	87.38
252.863	102.38
253.096	108.38
253.329	102.38
253.562	87.38
253.795	81.38
254.028	89.38
254.261	105.38
254.494	94.38
254.727	128.38
254.96	148.38
255.193	133.38
255.426	106.38
255.659	85.38
255.892	81.38
256.124	106.38
256.357	87.38
256.59	110.38
256.823	101.38
257.056	108.38
257.289	162.38
257.521	199.38
257.754	133.38
257.987	87.38
258.22	97.38
258.452	76.38
258.685	74.38
258.918	82.38
259.151	78.38
259.383	99.38
259.616	115.38
259.849	146.38
260.081	116.38
260.314	90.38
260.547	91.38
260.779	89.38
261.012	104.38
261.244	85.38
261.477	79.38
261.71	97.38
261.942	89.38
262.175	84.38
262.407	79.38
262.64	92.38
262.872	79.38
263.105	96.38
263.337	97.38
263.57	89.38
263.802	103.38
264.035	104.38
264.267	101.38
264.499	98.38
264.732	91.38
264.964	99.38
265.197	88.38
265.429	94.38
265.661	87.38
265.894	113.38
266.126	122.38
266.358	179.38
266.591	156.38
266.823	103.38
267.055	84.38
267.287	85.38
267.52	93.38
267.752	95.38
267.984	103.38
268.216	96.38
268.448	91.38
268.681	86.38
268.913	101.38
269.145	98.38
269.377	100.38
269.609	81.38
269.841	87.38
270.073	104.38
270.306	127.38
270.538	200.38
270.77	310.38
271.002	367.38
271.234	207.38
271.466	124.38
271.698	107.38
271.93	105.38
272.162	94.38
272.394	94.38
272.626	97.38
272.858	90.38
273.09	90.38
273.322	88.38
273.553	103.38
273.785	85.38
274.017	75.38
274.249	86.38
274.481	96.38
274.713	85.38
274.945	92.38
275.176	94.38
275.408	89.38
275.64	89.38
275.872	88.38
276.104	87.38
276.335	105.38
276.567	93.38
276.799	94.38
277.031	96.38
277.262	106.38
277.494	114.38
277.726	131.38
277.957	189.38
278.189	257.38
278.421	243.38
278.652	185.38
278.884	183.38
279.115	141.38
279.347	123.38
279.579	114.38
279.81	101.38
280.042	104.38
280.273	88.38
280.505	108.38
280.736	101.38
280.968	117.38
281.199	169.38
281.431	243.38
281.662	263.38
281.894	152.38
282.125	105.38
282.356	113.38
282.588	108.38
282.819	106.38
283.051	117.38
283.282	139.38
283.513	189.38
283.745	305.38
283.976	545.38
284.207	775.38
284.439	596.38
284.67	261.38
284.901	260.38
285.132	337.38
285.364	375.38
285.595	238.38
285.826	179.38
286.057	256.38
286.288	410.38
286.52	603.38
286.751	505.38
286.982	194.38
287.213	129.38
287.444	113.38
287.675	105.38
287.906	103.38
288.138	90.38
288.369	93.38
288.6	94.38
288.831	99.38
289.062	87.38
289.293	107.38
289.524	102.38
289.755	102.38
289.986	101.38
290.217	103.38
290.448	99.38
290.679	104.38
290.91	115.38
291.141	174.38
291.371	246.38
291.602	284.38
291.833	202.38
292.064	117.38
292.295	102.38
292.526	99.38
292.757	95.38
292.987	103.38
293.218	83.38
293.449	102.38
293.68	110.38
293.91	87.38
294.141	90.38
294.372	106.38
294.603	101.38
294.833	108.38
295.064	83.38
295.295	87.38
295.525	92.38
295.756	98.38
295.987	83.38
296.217	85.38
296.448	81.38
296.679	88.38
296.909	100.38
297.14	122.38
297.37	82.38
297.601	106.38
297.831	101.38
298.062	114.38
298.292	102.38
298.523	108.38
298.753	117.38
298.984	112.38
299.214	110.38
299.445	109.38
299.675	121.38
299.905	110.38
300.136	132.38
300.366	181.38
300.597	277.38
300.827	453.38
301.057	659.38
301.288	606.38
301.518	265.38
301.748	149.38
301.979	127.38
302.209	138.38
302.439	143.38
302.669	168.38
302.9	282.38
303.13	489.38
303.36	865.38
303.59	1221.38
303.82	834.38
304.051	281.38
304.281	151.38
304.511	136.38
304.741	132.38
304.971	120.38
305.201	121.38
305.431	111.38
305.661	106.38
305.891	107.38
306.121	115.38
306.352	119.38
306.582	108.38
306.812	121.38
307.042	116.38
307.272	113.38
307.502	117.38
307.731	101.38
307.961	112.38
308.191	102.38
308.421	111.38
308.651	108.38
308.881	115.38
309.111	113.38
309.341	117.38
309.571	99.38
309.8	125.38
310.03	108.38
310.26	115.38
310.49	106.38
310.72	102.38
310.949	104.38
311.179	124.38
311.409	99.38
311.639	97.38
311.868	102.38
312.098	116.38
312.328	121.38
312.557	125.38
312.787	124.38
313.017	106.38
313.246	112.38
313.476	103.38
313.706	124.38
313.935	161.38
314.165	200.38
314.394	231.38
314.624	182.38
314.853	129.38
315.083	107.38
315.312	118.38
315.542	131.38
315.771	136.38
316.001	129.38
316.23	140.38
316.46	142.38
316.689	169.38
316.919	261.38
317.148	525.38
317.377	898.38
317.607	1438.38
317.836	1395.38
318.065	543.38
318.295	228.38
318.524	161.38
318.753	150.38
318.983	136.38
319.212	116.38
319.441	108.38
319.67	107.38
319.9	113.38
320.129	123.38
320.358	107.38
320.587	116.38
320.816	129.38
321.046	146.38
321.275	136.38
321.504	124.38
321.733	140.38
321.962	157.38
322.191	173.38
322.42	136.38
322.649	128.38
322.878	121.38
323.108	133.38
323.337	125.38
323.566	134.38
323.795	129.38
324.024	124.38
324.253	149.38
324.482	189.38
324.71	223.38
324.939	283.38
325.168	238.38
325.397	186.38
325.626	261.38
325.855	498.38
326.084	965.38
326.313	1590.38
326.542	1552.38
326.77	599.38
326.999	258.38
327.228	211.38
327.457	227.38
327.686	228.38
327.914	159.38
328.143	131.38
328.372	122.38
328.6	143.38
328.829	119.38
329.058	135.38
329.287	121.38
329.515	116.38
329.744	115.38
329.972	129.38
330.201	124.38
330.43	108.38
330.658	113.38
330.887	102.38
331.115	115.38
331.344	121.38
331.572	117.38
331.801	124.38
332.03	129.38
332.258	134.38
332.486	169.38
332.715	298.38
332.943	509.38
333.172	771.38
333.4	664.38
333.629	249.38
333.857	157.38
334.085	133.38
334.314	121.38
334.542	144.38
334.771	131.38
334.999	122.38
335.227	126.38
335.455	114.38
335.684	121.38
335.912	116.38
336.14	99.38
336.369	117.38
336.597	123.38
336.825	107.38
337.053	115.38
337.281	125.38
337.51	107.38
337.738	118.38
337.966	113.38
338.194	113.38
338.422	102.38
338.65	133.38
338.878	119.38
339.106	117.38
339.334	123.38
339.562	122.38
339.79	118.38
340.018	103.38
340.246	108.38
340.474	120.38
340.702	124.38
340.93	111.38
341.158	104.38
341.386	105.38
341.614	129.38
341.842	112.38
342.07	110.38
342.298	113.38
342.526	115.38
342.754	109.38
342.981	111.38
343.209	119.38
343.437	120.38
343.665	109.38
343.893	103.38
344.12	116.38
344.348	105.38
344.576	123.38
344.804	110.38
345.031	104.38
345.259	113.38
345.487	119.38
345.714	109.38
345.942	101.38
346.17	122.38
346.397	107.38
346.625	96.38
346.853	99.38
347.08	101.38
347.308	98.38
347.535	112.38
347.763	102.38
347.99	116.38
348.218	101.38
348.445	107.38
348.673	100.38
348.9	114.38
349.128	125.38
349.355	134.38
349.583	109.38
349.81	113.38
350.037	110.38
350.265	119.38
350.492	123.38
350.72	113.38
350.947	121.38
351.174	122.38
351.402	102.38
351.629	113.38
351.856	115.38
352.083	104.38
352.311	115.38
352.538	123.38
352.765	119.38
352.992	103.38
353.22	101.38
353.447	111.38
353.674	118.38
353.901	106.38
354.128	113.38
354.355	106.38
354.583	120.38
354.81	115.38
355.037	113.38
355.264	113.38
355.491	98.38
355.718	94.38
355.945	99.38
356.172	100.38
356.399	105.38
356.626	113.38
356.853	85.38
357.08	120.38
357.307	114.38
357.534	102.38
357.761	109.38
357.988	95.38
358.215	106.38
358.441	107.38
358.668	108.38
358.895	121.38
359.122	131.38
359.349	111.38
359.576	102.38
359.802	102.38
360.029	117.38
360.256	111.38
360.483	98.38
360.709	114.38
360.936	121.38
361.163	113.38
361.39	115.38
361.616	105.38
361.843	108.38
362.07	133.38
362.296	105.38
362.523	120.38
362.749	111.38
362.976	120.38
363.203	112.38
363.429	100.38
363.656	120.38
363.882	117.38
364.109	113.38
364.335	115.38
364.562	132.38
364.788	110.38
365.015	118.38
365.241	139.38
365.468	186.38
365.694	268.38
365.92	194.38
366.147	122.38
366.373	104.38
366.599	100.38
366.826	100.38
367.052	100.38
367.278	107.38
367.505	100.38
367.731	108.38
367.957	109.38
368.184	112.38
368.41	129.38
368.636	137.38
368.862	101.38
369.089	95.38
369.315	121.38
369.541	115.38
369.767	112.38
369.993	120.38
370.219	105.38
370.445	109.38
370.672	113.38
370.898	108.38
371.124	113.38
371.35	108.38
371.576	119.38
371.802	106.38
372.028	99.38
372.254	117.38
372.48	125.38
372.706	118.38
372.932	116.38
373.158	125.38
373.384	120.38
373.61	115.38
373.835	109.38
374.061	111.38
374.287	109.38
374.513	102.38
374.739	105.38
374.965	110.38
375.191	117.38
375.416	121.38
375.642	115.38
375.868	105.38
376.094	113.38
376.319	103.38
376.545	113.38
376.771	122.38
376.997	110.38
377.222	97.38
377.448	105.38
377.674	108.38
377.899	111.38
378.125	114.38
378.35	117.38
378.576	122.38
378.802	126.38
379.027	127.38
379.253	150.38
379.478	173.38
379.704	311.38
379.929	784.38
380.155	1563.38
380.38	1602.38
380.606	544.38
380.831	197.38
381.057	147.38
381.282	117.38
381.507	115.38
381.733	109.38
381.958	115.38
382.184	113.38
382.409	104.38
382.634	111.38
382.86	104.38
383.085	101.38
383.31	112.38
383.535	127.38
383.761	116.38
383.986	109.38
384.211	103.38
384.436	116.38
384.662	103.38
384.887	117.38
385.112	81.38
385.337	116.38
385.562	106.38
385.787	103.38
386.013	130.38
386.238	103.38
386.463	91.38
386.688	115.38
386.913	113.38
387.138	99.38
387.363	109.38
387.588	113.38
387.813	93.38
388.038	110.38
388.263	106.38
388.488	99.38
388.713	100.38
388.938	88.38
389.163	98.38
389.387	117.38
389.612	110.38
389.837	99.38
390.062	111.38
390.287	102.38
390.512	114.38
390.736	115.38
390.961	106.38
391.186	93.38
391.411	105.38
391.636	103.38
391.86	104.38
392.085	99.38
392.31	103.38
392.534	105.38
392.759	114.38
392.984	110.38
393.208	102.38
393.433	127.38
393.658	129.38
393.882	107.38
394.107	101.38
394.331	104.38
394.556	97.38
394.78	110.38
395.005	100.38
395.229	106.38
395.454	102.38
395.678	98.38
395.903	97.38
396.127	109.38
396.352	112.38
396.576	107.38
396.801	121.38
397.025	143.38
397.249	124.38
397.474	106.38
397.698	102.38
397.922	84.38
398.147	114.38
398.371	103.38
398.595	104.38
398.82	105.38
399.044	114.38
399.268	94.38
399.492	110.38
399.717	114.38
399.941	93.38
400.165	97.38
400.389	91.38
400.613	98.38
400.837	98.38
401.062	92.38
401.286	109.38
401.51	111.38
401.734	98.38
401.958	87.38
402.182	114.38
402.406	101.38
402.63	100.38
402.854	103.38
403.078	91.38
403.302	112.38
403.526	87.38
403.75	114.38
403.974	100.38
404.198	93.38
404.422	114.38
404.645	101.38
404.869	103.38
405.093	97.38
405.317	103.38
405.541	107.38
405.765	129.38
405.988	146.38
406.212	102.38
406.436	95.38
406.66	109.38
406.883	93.38
407.107	106.38
407.331	96.38
407.555	106.38
407.778	90.38
408.002	91.38
408.226	95.38
408.449	108.38
408.673	109.38
408.896	89.38
409.12	96.38
409.344	84.38
409.567	95.38
409.791	99.38
410.014	98.38
410.238	100.38
410.461	91.38
410.685	100.38
410.908	113.38
411.132	99.38
411.355	106.38
411.578	102.38
411.802	101.38
412.025	94.38
412.249	97.38
412.472	94.38
412.695	116.38
412.919	104.38
413.142	108.38
413.365	105.38
413.589	102.38
413.812	95.38
414.035	119.38
414.258	96.38
414.482	105.38
414.705	111.38
414.928	105.38
415.151	104.38
415.374	95.38
415.597	97.38
415.821	109.38
416.044	100.38
416.267	95.38
416.49	102.38
416.713	95.38
416.936	103.38
417.159	113.38
417.382	103.38
417.605	103.38
417.828	102.38
418.051	103.38
418.274	100.38
418.497	110.38
418.72	107.38
418.943	107.38
419.166	114.38
419.389	106.38
419.611	103.38
419.834	110.38
420.057	104.38
420.28	98.38
420.503	113.38
420.726	112.38
420.948	109.38
421.171	89.38
421.394	99.38
421.617	89.38
421.839	101.38
422.062	106.38
422.285	106.38
422.507	98.38
422.73	120.38
422.953	139.38
423.175	113.38
423.398	99.38
423.621	101.38
423.843	110.38
424.066	96.38
424.288	95.38
424.511	95.38
424.733	114.38
424.956	97.38
425.178	91.38
425.401	86.38
425.623	100.38
425.846	95.38
426.068	97.38
426.291	90.38
426.513	109.38
426.735	97.38
426.958	104.38
427.18	112.38
427.402	98.38
427.625	106.38
427.847	108.38
428.069	111.38
428.292	107.38
428.514	103.38
428.736	98.38
428.958	98.38
429.181	109.38
429.403	97.38
429.625	108.38
429.847	115.38
430.069	111.38
430.292	108.38
430.514	106.38
430.736	108.38
430.958	87.38
431.18	86.38
431.402	98.38
431.624	94.38
431.846	91.38
432.068	106.38
432.29	106.38
432.512	104.38
432.734	102.38
432.956	99.38
433.178	93.38
433.4	92.38
433.622	82.38
433.844	101.38
434.066	97.38
434.287	93.38
434.509	99.38
434.731	100.38
434.953	90.38
435.175	100.38
435.397	91.38
435.618	100.38
435.84	87.38
436.062	102.38
436.284	99.38
436.505	93.38
436.727	102.38
436.949	102.38
437.17	98.38
437.392	99.38
437.614	98.38
437.835	98.38
438.057	100.38
438.278	103.38
438.5	95.38
438.721	116.38
438.943	100.38
439.165	118.38
439.386	107.38
439.608	107.38
439.829	103.38
440.05	116.38
440.272	111.38
440.493	111.38
440.715	96.38
440.936	102.38
441.158	84.38
441.379	102.38
441.6	99.38
441.822	115.38
442.043	132.38
442.264	133.38
442.486	117.38
442.707	88.38
442.928	100.38
443.149	88.38
443.371	104.38
443.592	110.38
443.813	94.38
444.034	101.38
444.255	98.38
444.476	127.38
444.698	102.38
444.919	87.38
445.14	201.38
445.361	139.38
445.582	100.38
445.803	103.38
446.024	94.38
446.245	103.38
446.466	113.38
446.687	106.38
446.908	87.38
447.129	108.38
447.35	111.38
447.571	110.38
447.792	83.38
448.013	108.38
448.234	112.38
448.455	99.38
448.675	103.38
448.896	101.38
449.117	107.38
449.338	135.38
449.559	158.38
449.779	121.38
450	120.38
450.221	106.38
450.442	133.38
450.662	123.38
450.883	113.38
451.104	123.38
451.324	136.38
451.545	97.38
451.766	123.38
451.986	134.38
452.207	209.38
452.428	556.38
452.648	1323.38
452.869	745.38
453.089	204.38
453.31	129.38
453.53	117.38
453.751	167.38
453.971	170.38
454.192	155.38
454.412	117.38
454.633	101.38
454.853	110.38
455.073	100.38
455.294	94.38
455.514	91.38
455.734	84.38
455.955	103.38
456.175	94.38
456.395	98.38
456.616	112.38
456.836	97.38
457.056	98.38
457.276	119.38
457.497	115.38
457.717	131.38
457.937	104.38
458.157	97.38
458.377	93.38
458.598	108.38
458.818	98.38
459.038	83.38
459.258	89.38
459.478	98.38
459.698	89.38
459.918	97.38
460.138	97.38
460.358	88.38
460.578	109.38
460.798	96.38
461.018	114.38
461.238	98.38
461.458	106.38
461.678	100.38
461.898	100.38
462.118	95.38
462.338	87.38
462.558	108.38
462.777	103.38
462.997	104.38
463.217	104.38
463.437	135.38
463.657	180.38
463.876	192.38
464.096	125.38
464.316	101.38
464.536	107.38
464.755	106.38
464.975	89.38
465.195	101.38
465.414	107.38
465.634	106.38
465.854	79.38
466.073	93.38
466.293	89.38
466.512	107.38
466.732	111.38
466.951	110.38
467.171	156.38
467.391	134.38
467.61	123.38
467.829	91.38
468.049	129.38
468.268	84.38
468.488	89.38
468.707	95.38
468.927	103.38
469.146	121.38
469.365	100.38
469.585	91.38
469.804	107.38
470.023	111.38
470.243	103.38
470.462	114.38
470.681	105.38
470.901	135.38
471.12	196.38
471.339	202.38
471.558	137.38
471.777	126.38
471.997	115.38
472.216	95.38
472.435	97.38
472.654	96.38
472.873	108.38
473.092	112.38
473.311	94.38
473.53	101.38
473.749	97.38
473.968	103.38
474.187	104.38
474.406	82.38
474.625	93.38
474.844	91.38
475.063	85.38
475.282	109.38
475.501	93.38
475.72	87.38
475.939	98.38
476.158	93.38
476.377	111.38
476.596	115.38
476.814	107.38
477.033	96.38
477.252	114.38
477.471	96.38
477.69	98.38
477.908	97.38
478.127	98.38
478.346	95.38
478.564	92.38
478.783	84.38
479.002	108.38
479.22	87.38
479.439	98.38
479.658	112.38
479.876	119.38
480.095	109.38
480.313	98.38
480.532	92.38
480.751	113.38
480.969	85.38
481.188	94.38
481.406	98.38
481.624	101.38
481.843	113.38
482.061	110.38
482.28	103.38
482.498	95.38
482.717	105.38
482.935	100.38
483.153	103.38
483.372	111.38
483.59	111.38
483.808	101.38
484.027	96.38
484.245	118.38
484.463	177.38
484.681	248.38
484.9	148.38
485.118	142.38
485.336	103.38
485.554	106.38
485.772	143.38
485.99	185.38
486.209	253.38
486.427	169.38
486.645	102.38
486.863	113.38
487.081	123.38
487.299	100.38
487.517	107.38
487.735	99.38
487.953	88.38
488.171	92.38
488.389	98.38
488.607	111.38
488.825	105.38
489.043	95.38
489.261	105.38
489.479	99.38
489.696	100.38
489.914	94.38
490.132	85.38
490.35	104.38
490.568	105.38
490.786	103.38
491.003	103.38
491.221	139.38
491.439	123.38
491.657	119.38
491.874	116.38
492.092	117.38
492.31	117.38
492.527	102.38
492.745	110.38
492.963	109.38
493.18	117.38
493.398	117.38
493.615	107.38
493.833	104.38
494.05	93.38
494.268	109.38
494.485	102.38
494.703	107.38
494.92	107.38
495.138	105.38
495.355	101.38
495.573	98.38
495.79	100.38
496.008	119.38
496.225	118.38
496.442	117.38
496.66	121.38
496.877	164.38
497.094	155.38
497.312	110.38
497.529	106.38
497.746	115.38
497.963	92.38
498.181	117.38
498.398	109.38
498.615	129.38
498.832	113.38
499.049	102.38
499.267	140.38
499.484	160.38
499.701	108.38
499.918	98.38
500.135	97.38
500.352	103.38
500.569	99.38
500.786	97.38
501.003	102.38
501.22	101.38
501.437	91.38
501.654	117.38
501.871	110.38
502.088	100.38
502.305	102.38
502.522	105.38
502.739	118.38
502.956	110.38
503.172	117.38
503.389	97.38
503.606	84.38
503.823	104.38
504.04	108.38
504.256	105.38
504.473	99.38
504.69	110.38
504.907	99.38
505.123	109.38
505.34	103.38
505.557	99.38
505.773	103.38
505.99	93.38
506.207	115.38
506.423	97.38
506.64	112.38
506.856	107.38
507.073	113.38
507.289	100.38
507.506	97.38
507.722	103.38
507.939	94.38
508.155	97.38
508.372	101.38
508.588	101.38
508.805	97.38
509.021	118.38
509.238	107.38
509.454	133.38
509.67	174.38
509.887	116.38
510.103	101.38
510.319	110.38
510.536	113.38
510.752	110.38
510.968	106.38
511.184	113.38
511.401	103.38
511.617	100.38
511.833	109.38
512.049	117.38
512.265	107.38
512.481	105.38
512.698	106.38
512.914	103.38
513.13	97.38
513.346	94.38
513.562	100.38
513.778	95.38
513.994	108.38
514.21	118.38
514.426	148.38
514.642	187.38
514.858	122.38
515.074	114.38
515.29	114.38
515.506	100.38
515.721	102.38
515.937	104.38
516.153	88.38
516.369	86.38
516.585	106.38
516.801	107.38
517.016	98.38
517.232	98.38
517.448	111.38
517.664	109.38
517.879	88.38
518.095	100.38
518.311	93.38
518.527	90.38
518.742	107.38
518.958	123.38
519.173	168.38
519.389	122.38
519.605	102.38
519.82	106.38
520.036	89.38
520.251	115.38
520.467	98.38
520.682	76.38
520.898	93.38
521.113	93.38
521.329	91.38
521.544	93.38
521.76	75.38
521.975	104.38
522.19	119.38
522.406	100.38
522.621	91.38
522.836	101.38
523.052	91.38
523.267	107.38
523.482	97.38
523.698	105.38
523.913	98.38
524.128	93.38
524.343	113.38
524.559	98.38
524.774	94.38
524.989	93.38
525.204	102.38
525.419	89.38
525.634	90.38
525.849	108.38
526.064	90.38
526.28	104.38
526.495	109.38
526.71	91.38
526.925	99.38
527.14	97.38
527.355	107.38
527.57	107.38
527.785	106.38
527.999	88.38
528.214	90.38
528.429	105.38
528.644	113.38
528.859	107.38
529.074	101.38
529.289	112.38
529.503	92.38
529.718	105.38
529.933	93.38
530.148	103.38
530.363	114.38
530.577	91.38
530.792	97.38
531.007	104.38
531.221	92.38
531.436	98.38
531.651	102.38
531.865	109.38
532.08	94.38
532.295	121.38
532.509	139.38
532.724	131.38
532.938	99.38
533.153	114.38
533.367	116.38
533.582	89.38
533.796	105.38
534.011	102.38
534.225	100.38
534.44	86.38
534.654	101.38
534.868	105.38
535.083	123.38
535.297	116.38
535.511	105.38
535.726	102.38
535.94	113.38
536.154	91.38
536.369	85.38
536.583	100.38
536.797	105.38
537.011	96.38
537.225	107.38
537.44	100.38
537.654	95.38
537.868	97.38
538.082	99.38
538.296	82.38
538.51	88.38
538.724	111.38
538.938	106.38
539.153	111.38
539.367	109.38
539.581	94.38
539.795	93.38
540.009	94.38
540.222	98.38
540.436	91.38
540.65	109.38
540.864	97.38
541.078	114.38
541.292	139.38
541.506	192.38
541.72	204.38
541.934	137.38
542.147	102.38
542.361	120.38
542.575	127.38
542.789	110.38
543.002	123.38
543.216	114.38
543.43	106.38
543.644	101.38
543.857	103.38
544.071	103.38
544.285	120.38
544.498	111.38
544.712	90.38
544.925	103.38
545.139	97.38
545.352	90.38
545.566	107.38
545.779	100.38
545.993	100.38
546.206	113.38
546.42	99.38
546.633	113.38
546.847	109.38
547.06	105.38
547.274	91.38
547.487	110.38
547.7	91.38
547.914	114.38
548.127	114.38
548.34	106.38
548.554	97.38
548.767	101.38
548.98	101.38
549.193	103.38
549.407	109.38
549.62	99.38
549.833	111.38
550.046	108.38
550.259	102.38
550.473	99.38
550.686	105.38
550.899	118.38
551.112	91.38
551.325	103.38
551.538	97.38
551.751	105.38
551.964	97.38
552.177	98.38
552.39	98.38
552.603	100.38
552.816	110.38
553.029	110.38
553.242	100.38
553.455	102.38
553.667	94.38
553.88	97.38
554.093	93.38
554.306	109.38
554.519	105.38
554.732	110.38
554.944	102.38
555.157	119.38
555.37	103.38
555.583	113.38
555.795	106.38
556.008	119.38
556.221	152.38
556.433	131.38
556.646	113.38
556.859	94.38
557.071	113.38
557.284	125.38
557.496	128.38
557.709	107.38
557.921	113.38
558.134	109.38
558.346	118.38
558.559	115.38
558.771	103.38
558.984	113.38
559.196	108.38
559.409	102.38
559.621	102.38
559.833	110.38
560.046	109.38
560.258	103.38
560.47	99.38
560.683	99.38
560.895	96.38
561.107	103.38
561.32	93.38
561.532	98.38
561.744	89.38
561.956	104.38
562.168	98.38
562.381	113.38
562.593	116.38
562.805	146.38
563.017	163.38
563.229	251.38
563.441	587.38
563.653	209.38
563.865	125.38
564.077	107.38
564.289	117.38
564.501	107.38
564.713	93.38
564.925	96.38
565.137	102.38
565.349	120.38
565.561	97.38
565.773	99.38
565.985	94.38
566.197	92.38
566.408	105.38
566.62	96.38
566.832	106.38
567.044	98.38
567.255	106.38
567.467	101.38
567.679	104.38
567.891	122.38
568.102	179.38
568.314	253.38
568.526	152.38
568.737	106.38
568.949	107.38
569.161	109.38
569.372	103.38
569.584	88.38
569.795	91.38
570.007	104.38
570.218	123.38
570.43	168.38
570.641	115.38
570.853	95.38
571.064	98.38
571.276	113.38
571.487	98.38
571.698	107.38
571.91	97.38
572.121	101.38
572.333	82.38
572.544	113.38
572.755	134.38
572.966	197.38
573.178	136.38
573.389	131.38
573.6	102.38
573.811	95.38
574.023	100.38
574.234	94.38
574.445	104.38
574.656	82.38
574.867	90.38
575.078	87.38
575.289	94.38
575.501	89.38
575.712	90.38
575.923	101.38
576.134	104.38
576.345	105.38
576.556	115.38
576.767	100.38
576.978	83.38
577.188	89.38
577.399	84.38
577.61	87.38
577.821	105.38
578.032	86.38
578.243	107.38
578.454	96.38
578.665	91.38
578.875	89.38
579.086	99.38
579.297	110.38
579.508	97.38
579.718	105.38
579.929	90.38
580.14	105.38
580.35	100.38
580.561	89.38
580.772	91.38
580.982	98.38
581.193	95.38
581.403	96.38
581.614	97.38
581.825	96.38
582.035	102.38
582.246	89.38
582.456	90.38
582.667	105.38
582.877	133.38
583.087	135.38
583.298	116.38
583.508	85.38
583.719	86.38
583.929	95.38
584.139	92.38
584.35	104.38
584.56	101.38
584.77	85.38
584.981	110.38
585.191	75.38
585.401	97.38
585.611	87.38
585.821	94.38
586.032	93.38
586.242	103.38
586.452	87.38
586.662	98.38
586.872	100.38
587.082	93.38
587.292	79.38
587.502	90.38
587.713	92.38
587.923	91.38
588.133	107.38
588.343	89.38
588.553	90.38
588.762	103.38
588.972	104.38
589.182	119.38
589.392	115.38
589.602	96.38
589.812	110.38
590.022	108.38
590.232	94.38
590.441	97.38
590.651	95.38
590.861	92.38
591.071	85.38
591.281	86.38
591.49	104.38
591.7	98.38
591.91	103.38
592.119	94.38
592.329	94.38
592.539	91.38
592.748	95.38
592.958	99.38
593.167	93.38
593.377	105.38
593.587	93.38
593.796	95.38
594.006	107.38
594.215	93.38
594.424	88.38
594.634	90.38
594.843	100.38
595.053	116.38
595.262	109.38
595.472	97.38
595.681	104.38
595.89	95.38
596.1	103.38
596.309	96.38
596.518	88.38
596.727	96.38
596.937	98.38
597.146	98.38
597.355	97.38
597.564	106.38
597.774	102.38
597.983	103.38
598.192	92.38
598.401	98.38
598.61	82.38
598.819	111.38
599.028	86.38
599.237	104.38
599.446	95.38
599.655	95.38
599.864	88.38
600.073	91.38
600.282	88.38
600.491	86.38
600.7	105.38
600.909	103.38
601.118	100.38
601.327	101.38
601.536	112.38
601.745	94.38
601.953	130.38
602.162	169.38
602.371	121.38
602.58	94.38
602.789	105.38
602.997	94.38
603.206	98.38
603.415	98.38
603.623	91.38
603.832	92.38
604.041	98.38
604.249	92.38
604.458	106.38
604.666	100.38
604.875	95.38
605.084	102.38
605.292	89.38
605.501	102.38
605.709	106.38
605.918	97.38
606.126	110.38
606.334	112.38
606.543	104.38
606.751	130.38
606.96	163.38
607.168	182.38
607.376	117.38
607.585	121.38
607.793	125.38
608.001	103.38
608.21	97.38
608.418	91.38
608.626	95.38
608.834	94.38
609.043	93.38
609.251	96.38
609.459	108.38
609.667	102.38
609.875	104.38
610.083	102.38
610.291	108.38
610.499	90.38
610.707	103.38
610.916	103.38
611.124	74.38
611.332	89.38
611.54	87.38
611.748	95.38
611.955	102.38
612.163	111.38
612.371	94.38
612.579	88.38
612.787	102.38
612.995	102.38
613.203	92.38
613.411	100.38
613.618	85.38
613.826	87.38
614.034	105.38
614.242	104.38
614.449	93.38
614.657	113.38
614.865	100.38
615.072	103.38
615.28	117.38
615.488	91.38
615.695	117.38
615.903	108.38
616.111	90.38
616.318	101.38
616.526	93.38
616.733	105.38
616.941	86.38
617.148	88.38
617.356	98.38
617.563	87.38
617.771	94.38
617.978	85.38
618.185	93.38
618.393	97.38
618.6	111.38
618.807	101.38
619.015	101.38
619.222	94.38
619.429	106.38
619.637	93.38
619.844	89.38
620.051	98.38
620.258	110.38
620.466	95.38
620.673	90.38
620.88	91.38
621.087	100.38
621.294	113.38
621.501	100.38
621.708	92.38
621.915	106.38
622.122	98.38
622.329	108.38
622.536	93.38
622.743	109.38
622.95	85.38
623.157	88.38
623.364	93.38
623.571	101.38
623.778	94.38
623.985	82.38
624.192	94.38
624.399	98.38
624.606	103.38
624.812	106.38
625.019	74.38
625.226	86.38
625.433	88.38
625.639	95.38
625.846	104.38
626.053	86.38
626.259	95.38
626.466	85.38
626.673	95.38
626.879	95.38
627.086	102.38
627.293	95.38
627.499	78.38
627.706	98.38
627.912	92.38
628.119	89.38
628.325	81.38
628.532	93.38
628.738	81.38
628.945	97.38
629.151	98.38
629.357	87.38
629.564	96.38
629.77	100.38
629.976	98.38
630.183	91.38
630.389	103.38
630.595	86.38
630.802	81.38
631.008	90.38
631.214	100.38
631.42	91.38
631.627	101.38
631.833	100.38
632.039	97.38
632.245	97.38
632.451	86.38
632.657	89.38
632.863	82.38
633.069	84.38
633.275	105.38
633.481	104.38
633.688	85.38
633.893	90.38
634.099	94.38
634.305	92.38
634.511	94.38
634.717	71.38
634.923	94.38
635.129	117.38
635.335	128.38
635.541	106.38
635.747	93.38
635.952	87.38
636.158	92.38
636.364	90.38
636.57	92.38
636.775	92.38
636.981	99.38
637.187	97.38
637.392	81.38
637.598	93.38
637.804	97.38
638.009	93.38
638.215	98.38
638.421	97.38
638.626	102.38
638.832	97.38
639.037	97.38
639.243	81.38
639.448	99.38
639.654	96.38
639.859	102.38
640.065	98.38
640.27	97.38
640.475	89.38
640.681	91.38
640.886	93.38
641.091	94.38
641.297	95.38
641.502	93.38
641.707	104.38
641.913	94.38
642.118	99.38
642.323	73.38
642.528	72.38
642.733	92.38
642.939	80.38
643.144	85.38
643.349	87.38
643.554	91.38
643.759	77.38
643.964	97.38
644.169	95.38
644.374	78.38
644.579	95.38
644.784	98.38
644.989	89.38
645.194	101.38
645.399	90.38
645.604	123.38
645.809	102.38
646.014	90.38
646.219	82.38
646.423	86.38
646.628	99.38
646.833	82.38
647.038	89.38
647.243	82.38
647.447	98.38
647.652	83.38
647.857	97.38
648.062	91.38
648.266	86.38
648.471	82.38
648.676	82.38
648.88	81.38
649.085	100.38
649.289	85.38
649.494	83.38
649.698	79.38
649.903	98.38
650.107	94.38
650.312	96.38
650.516	100.38
650.721	84.38
650.925	72.38
651.13	75.38
651.334	87.38
651.539	93.38
651.743	91.38
651.947	89.38
652.152	105.38
652.356	94.38
652.56	99.38
652.764	103.38
652.969	95.38
653.173	97.38
653.377	80.38
653.581	88.38
653.785	90.38
653.99	88.38
654.194	79.38
654.398	82.38
654.602	75.38
654.806	79.38
655.01	90.38
655.214	92.38
655.418	90.38
655.622	95.38
655.826	70.38
656.03	88.38
656.234	93.38
656.438	76.38
656.642	88.38
656.846	83.38
657.049	101.38
657.253	92.38
657.457	80.38
657.661	82.38
657.865	92.38
658.068	91.38
658.272	100.38
658.476	80.38
658.68	75.38
658.883	87.38
659.087	93.38
659.291	93.38
659.494	81.38
659.698	88.38
659.901	91.38
660.105	92.38
660.309	74.38
660.512	89.38
660.716	88.38
660.919	79.38
661.123	95.38
661.326	84.38
661.53	91.38
661.733	87.38
661.936	92.38
662.14	85.38
662.343	85.38
662.546	89.38
662.75	84.38
662.953	82.38
663.156	78.38
663.36	78.38
663.563	81.38
663.766	89.38
663.969	84.38
664.173	82.38
664.376	81.38
664.579	73.38
664.782	72.38
664.985	93.38
665.188	92.38
665.391	84.38
665.594	78.38
665.797	81.38
666	85.38
666.203	82.38
666.406	84.38
666.609	93.38
666.812	74.38
667.015	82.38
667.218	96.38
667.421	87.38
667.624	77.38
667.827	91.38
668.03	95.38
668.232	69.38
668.435	77.38
668.638	86.38
668.841	100.38
669.043	77.38
669.246	83.38
669.449	84.38
669.651	80.38
669.854	82.38
670.057	76.38
670.259	82.38
670.462	95.38
670.665	84.38
670.867	86.38
671.07	83.38
671.272	74.38
671.475	90.38
671.677	77.38
671.88	83.38
672.082	86.38
672.284	102.38
672.487	87.38
672.689	90.38
672.892	80.38
