Data from SnStandardFlinnAPT0064_LampEnergy10_LIBS07252019.E.O._I.C._HRD10591_15-20-41-493.txt Node
Date: Thu Jul 25 15:20:41 EDT 2019
User: cochatt
Spectrometer: HR+D1059
Trigger mode: 1
Integration Time (sec): 1.000000E-1
Scans to average: 1
Electric dark correction enabled: true
Nonlinearity correction enabled: false
Boxcar width: 0
XAxis mode: Wavelengths
Number of Pixels in Spectrum: 2048
>>>>>Begin Spectral Data<<<<<
223.165	-2.5
223.4	-2.5
223.635	-2.5
223.869	-24.5
224.104	-12.5
224.338	-20.5
224.573	-26.5
224.808	-9.5
225.042	-3.5
225.277	-3.5
225.511	-3.5
225.746	8.5
225.98	5.5
226.215	3.5
226.449	7.5
226.683	29.5
226.918	29.5
227.152	22.5
227.387	24.5
227.621	32.5
227.856	47.5
228.09	48.5
228.324	53.5
228.559	55.5
228.793	131.5
229.027	301.5
229.262	339.5
229.496	315.5
229.73	315.5
229.964	310.5
230.199	315.5
230.433	311.5
230.667	318.5
230.901	327.5
231.136	340.5
231.37	355.5
231.604	383.5
231.838	432.5
232.072	538.5
232.306	580.5
232.541	498.5
232.775	449.5
233.009	431.5
233.243	414.5
233.477	450.5
233.711	553.5
233.945	593.5
234.179	528.5
234.413	436.5
234.647	464.5
234.881	479.5
235.115	554.5
235.349	600.5
235.583	792.5
235.817	1014.5
236.051	1020.5
236.285	682.5
236.519	552.5
236.753	500.5
236.987	519.5
237.221	552.5
237.455	535.5
237.689	460.5
237.922	452.5
238.156	465.5
238.39	490.5
238.624	508.5
238.858	494.5
239.091	482.5
239.325	519.5
239.559	502.5
239.793	507.5
240.027	546.5
240.26	544.5
240.494	564.5
240.728	578.5
240.961	637.5
241.195	656.5
241.429	693.5
241.662	707.5
241.896	778.5
242.13	966.5
242.363	1278.5
242.597	1655.5
242.83	1568.5
243.064	1579.5
243.298	1846.5
243.531	1540.5
243.765	970.5
243.998	782.5
244.232	709.5
244.465	678.5
244.699	650.5
244.932	652.5
245.166	687.5
245.399	694.5
245.633	670.5
245.866	670.5
246.099	703.5
246.333	645.5
246.566	662.5
246.8	639.5
247.033	646.5
247.266	645.5
247.5	666.5
247.733	681.5
247.966	723.5
248.2	782.5
248.433	889.5
248.666	987.5
248.899	971.5
249.133	861.5
249.366	906.5
249.599	978.5
249.832	1102.5
250.066	1123.5
250.299	871.5
250.532	758.5
250.765	737.5
250.998	765.5
251.231	720.5
251.465	725.5
251.698	738.5
251.931	733.5
252.164	748.5
252.397	769.5
252.63	786.5
252.863	831.5
253.096	803.5
253.329	794.5
253.562	786.5
253.795	776.5
254.028	830.5
254.261	843.5
254.494	886.5
254.727	1050.5
254.96	1286.5
255.193	1216.5
255.426	977.5
255.659	877.5
255.892	876.5
256.124	874.5
256.357	875.5
256.59	922.5
256.823	974.5
257.056	1135.5
257.289	1360.5
257.521	1515.5
257.754	1218.5
257.987	982.5
258.22	923.5
258.452	946.5
258.685	930.5
258.918	962.5
259.151	1048.5
259.383	1094.5
259.616	1243.5
259.849	1320.5
260.081	1106.5
260.314	1007.5
260.547	948.5
260.779	931.5
261.012	989.5
261.244	950.5
261.477	983.5
261.71	989.5
261.942	1046.5
262.175	1036.5
262.407	1020.5
262.64	1057.5
262.872	1077.5
263.105	1150.5
263.337	1207.5
263.57	1278.5
263.802	1297.5
264.035	1319.5
264.267	1338.5
264.499	1371.5
264.732	1448.5
264.964	1448.5
265.197	1446.5
265.429	1411.5
265.661	1489.5
265.894	1592.5
266.126	1741.5
266.358	1998.5
266.591	1915.5
266.823	1627.5
267.055	1450.5
267.287	1396.5
267.52	1306.5
267.752	1326.5
267.984	1294.5
268.216	1222.5
268.448	1243.5
268.681	1240.5
268.913	1247.5
269.145	1230.5
269.377	1249.5
269.609	1248.5
269.841	1251.5
270.073	1348.5
270.306	1619.5
270.538	2117.5
270.77	3286.5
271.002	4038.5
271.234	2820.5
271.466	1908.5
271.698	1552.5
271.93	1424.5
272.162	1359.5
272.394	1319.5
272.626	1259.5
272.858	1250.5
273.09	1239.5
273.322	1182.5
273.553	1227.5
273.785	1185.5
274.017	1196.5
274.249	1207.5
274.481	1198.5
274.713	1223.5
274.945	1202.5
275.176	1233.5
275.408	1197.5
275.64	1230.5
275.872	1221.5
276.104	1256.5
276.335	1269.5
276.567	1283.5
276.799	1259.5
277.031	1308.5
277.262	1347.5
277.494	1422.5
277.726	1620.5
277.957	1864.5
278.189	2143.5
278.421	2054.5
278.652	1787.5
278.884	1705.5
279.115	1488.5
279.347	1456.5
279.579	1401.5
279.81	1399.5
280.042	1402.5
280.273	1453.5
280.505	1469.5
280.736	1486.5
280.968	1593.5
281.199	1761.5
281.431	2013.5
281.662	2150.5
281.894	1814.5
282.125	1630.5
282.356	1663.5
282.588	1677.5
282.819	1738.5
283.051	1829.5
283.282	2020.5
283.513	2455.5
283.745	3650.5
283.976	5813.5
284.207	8199.5
284.439	7410.5
284.67	4588.5
284.901	3782.5
285.132	3812.5
285.364	3656.5
285.595	2722.5
285.826	2443.5
286.057	2914.5
286.288	3957.5
286.52	5327.5
286.751	4901.5
286.982	3099.5
287.213	2332.5
287.444	1982.5
287.675	1878.5
287.906	1816.5
288.138	1734.5
288.369	1702.5
288.6	1707.5
288.831	1675.5
289.062	1661.5
289.293	1700.5
289.524	1708.5
289.755	1694.5
289.986	1732.5
290.217	1720.5
290.448	1697.5
290.679	1703.5
290.91	1758.5
291.141	1901.5
291.371	2014.5
291.602	2164.5
291.833	1974.5
292.064	1790.5
292.295	1716.5
292.526	1657.5
292.757	1664.5
292.987	1603.5
293.218	1570.5
293.449	1628.5
293.68	1561.5
293.91	1607.5
294.141	1550.5
294.372	1586.5
294.603	1590.5
294.833	1556.5
295.064	1539.5
295.295	1543.5
295.525	1562.5
295.756	1553.5
295.987	1563.5
296.217	1619.5
296.448	1597.5
296.679	1575.5
296.909	1606.5
297.14	1588.5
297.37	1623.5
297.601	1620.5
297.831	1648.5
298.062	1641.5
298.292	1652.5
298.523	1670.5
298.753	1722.5
298.984	1727.5
299.214	1749.5
299.445	1801.5
299.675	1792.5
299.905	1844.5
300.136	1942.5
300.366	2178.5
300.597	2785.5
300.827	3919.5
301.057	5358.5
301.288	5226.5
301.518	3416.5
301.748	2637.5
301.979	2384.5
302.209	2293.5
302.439	2318.5
302.669	2464.5
302.9	2979.5
303.13	4153.5
303.36	6325.5
303.59	8397.5
303.82	7297.5
304.051	4288.5
304.281	3112.5
304.511	2528.5
304.741	2349.5
304.971	2218.5
305.201	2079.5
305.431	2019.5
305.661	1993.5
305.891	1911.5
306.121	1901.5
306.352	1847.5
306.582	1823.5
306.812	1822.5
307.042	1885.5
307.272	1850.5
307.502	1810.5
307.731	1814.5
307.961	1826.5
308.191	1793.5
308.421	1772.5
308.651	1826.5
308.881	1774.5
309.111	1804.5
309.341	1792.5
309.571	1851.5
309.8	1837.5
310.03	1879.5
310.26	1876.5
310.49	1853.5
310.72	1826.5
310.949	1818.5
311.179	1866.5
311.409	1924.5
311.639	1898.5
311.868	1951.5
312.098	1927.5
312.328	1956.5
312.557	1972.5
312.787	1943.5
313.017	2000.5
313.246	1977.5
313.476	2020.5
313.706	2094.5
313.935	2235.5
314.165	2386.5
314.394	2489.5
314.624	2390.5
314.853	2146.5
315.083	2133.5
315.312	2194.5
315.542	2167.5
315.771	2217.5
316.001	2267.5
316.23	2320.5
316.46	2426.5
316.689	2636.5
316.919	3234.5
317.148	4779.5
317.377	7300.5
317.607	10621.5
317.836	11074.5
318.065	6649.5
318.295	4328.5
318.524	3479.5
318.753	3016.5
318.983	2802.5
319.212	2604.5
319.441	2546.5
319.67	2454.5
319.9	2426.5
320.129	2412.5
320.358	2354.5
320.587	2324.5
320.816	2351.5
321.046	2351.5
321.275	2374.5
321.504	2391.5
321.733	2434.5
321.962	2510.5
322.191	2547.5
322.42	2506.5
322.649	2485.5
322.878	2431.5
323.108	2484.5
323.337	2525.5
323.566	2572.5
323.795	2618.5
324.024	2665.5
324.253	2710.5
324.482	2838.5
324.71	3051.5
324.939	3214.5
325.168	3288.5
325.397	3413.5
325.626	4084.5
325.855	5711.5
326.084	8938.5
326.313	12814.5
326.542	13504.5
326.77	9290.5
326.999	5986.5
327.228	5035.5
327.457	4806.5
327.686	4862.5
327.914	5200.5
328.143	6059.5
328.372	7260.5
328.6	7867.5
328.829	7040.5
329.058	5768.5
329.287	5055.5
329.515	4697.5
329.744	4280.5
329.972	4084.5
330.201	3955.5
330.43	3710.5
330.658	3617.5
330.887	3562.5
331.115	3508.5
331.344	3476.5
331.572	3408.5
331.801	3472.5
332.03	3493.5
332.258	3485.5
332.486	3753.5
332.715	4315.5
332.943	5340.5
333.172	6713.5
333.4	6687.5
333.629	5016.5
333.857	4555.5
334.085	4542.5
334.314	4750.5
334.542	5126.5
334.771	5994.5
334.999	7430.5
335.227	9452.5
335.455	10515.5
335.684	9466.5
335.912	7767.5
336.14	6524.5
336.369	5730.5
336.597	5212.5
336.825	4779.5
337.053	4539.5
337.281	4263.5
337.51	4014.5
337.738	3916.5
337.966	3696.5
338.194	3589.5
338.422	3516.5
338.65	3354.5
338.878	3317.5
339.106	3259.5
339.334	3196.5
339.562	3126.5
339.79	3084.5
340.018	3063.5
340.246	3015.5
340.474	3024.5
340.702	3037.5
340.93	3000.5
341.158	2998.5
341.386	2987.5
341.614	2978.5
341.842	2868.5
342.07	2821.5
342.298	2797.5
342.526	2796.5
342.754	2719.5
342.981	2722.5
343.209	2746.5
343.437	2734.5
343.665	2763.5
343.893	2832.5
344.12	2796.5
344.348	2795.5
344.576	2724.5
344.804	2702.5
345.031	2619.5
345.259	2628.5
345.487	2593.5
345.714	2542.5
345.942	2554.5
346.17	2552.5
346.397	2525.5
346.625	2524.5
346.853	2525.5
347.08	2522.5
347.308	2512.5
347.535	2459.5
347.763	2475.5
347.99	2506.5
348.218	2450.5
348.445	2473.5
348.673	2444.5
348.9	2471.5
349.128	2453.5
349.355	2434.5
349.583	2388.5
349.81	2412.5
350.037	2460.5
350.265	2390.5
350.492	2396.5
350.72	2432.5
350.947	2428.5
351.174	2409.5
351.402	2376.5
351.629	2343.5
351.856	2362.5
352.083	2414.5
352.311	2366.5
352.538	2407.5
352.765	2402.5
352.992	2396.5
353.22	2357.5
353.447	2323.5
353.674	2366.5
353.901	2390.5
354.128	2393.5
354.355	2387.5
354.583	2372.5
354.81	2350.5
355.037	2438.5
355.264	2441.5
355.491	2498.5
355.718	2429.5
355.945	2428.5
356.172	2505.5
356.399	2469.5
356.626	2524.5
356.853	2507.5
357.08	2472.5
357.307	2572.5
357.534	2610.5
357.761	2568.5
357.988	2572.5
358.215	2559.5
358.441	2539.5
358.668	2485.5
358.895	2541.5
359.122	2533.5
359.349	2545.5
359.576	2534.5
359.802	2542.5
360.029	2528.5
360.256	2600.5
360.483	2522.5
360.709	2530.5
360.936	2552.5
361.163	2572.5
361.39	2539.5
361.616	2572.5
361.843	2574.5
362.07	2533.5
362.296	2591.5
362.523	2562.5
362.749	2554.5
362.976	2549.5
363.203	2522.5
363.429	2508.5
363.656	2500.5
363.882	2531.5
364.109	2508.5
364.335	2466.5
364.562	2518.5
364.788	2567.5
365.015	2578.5
365.241	2650.5
365.468	2790.5
365.694	2930.5
365.92	2838.5
366.147	2651.5
366.373	2584.5
366.599	2599.5
366.826	2621.5
367.052	2598.5
367.278	2612.5
367.505	2610.5
367.731	2620.5
367.957	2635.5
368.184	2635.5
368.41	2696.5
368.636	2634.5
368.862	2681.5
369.089	2595.5
369.315	2610.5
369.541	2644.5
369.767	2634.5
369.993	2617.5
370.219	2659.5
370.445	2612.5
370.672	2690.5
370.898	2638.5
371.124	2650.5
371.35	2709.5
371.576	2724.5
371.802	2741.5
372.028	2733.5
372.254	2702.5
372.48	2764.5
372.706	2804.5
372.932	2759.5
373.158	2778.5
373.384	2774.5
373.61	2760.5
373.835	2783.5
374.061	2787.5
374.287	2829.5
374.513	2868.5
374.739	2888.5
374.965	2923.5
375.191	2879.5
375.416	2912.5
375.642	2844.5
375.868	2854.5
376.094	2780.5
376.319	2782.5
376.545	2759.5
376.771	2749.5
376.997	2755.5
377.222	2764.5
377.448	2726.5
377.674	2748.5
377.899	2694.5
378.125	2738.5
378.35	2701.5
378.576	2738.5
378.802	2755.5
379.027	2794.5
379.253	2914.5
379.478	3075.5
379.704	3586.5
379.929	5239.5
380.155	8022.5
380.38	8742.5
380.606	5367.5
380.831	3693.5
381.057	3283.5
381.282	2943.5
381.507	2872.5
381.733	2774.5
381.958	2747.5
382.184	2702.5
382.409	2735.5
382.634	2715.5
382.86	2706.5
383.085	2647.5
383.31	2696.5
383.535	2722.5
383.761	2670.5
383.986	2695.5
384.211	2736.5
384.436	2746.5
384.662	2811.5
384.887	2740.5
385.112	2777.5
385.337	2751.5
385.562	2781.5
385.787	2786.5
386.013	2817.5
386.238	2806.5
386.463	2794.5
386.688	2750.5
386.913	2717.5
387.138	2787.5
387.363	2779.5
387.588	2733.5
387.813	2792.5
388.038	2786.5
388.263	2774.5
388.488	2743.5
388.713	2722.5
388.938	2781.5
389.163	2727.5
389.387	2752.5
389.612	2743.5
389.837	2817.5
390.062	2765.5
390.287	2786.5
390.512	2762.5
390.736	2875.5
390.961	2836.5
391.186	2865.5
391.411	2918.5
391.636	2897.5
391.86	2889.5
392.085	2942.5
392.31	2900.5
392.534	2875.5
392.759	2833.5
392.984	2847.5
393.208	2778.5
393.433	2850.5
393.658	2777.5
393.882	2764.5
394.107	2762.5
394.331	2788.5
394.556	2769.5
394.78	2828.5
395.005	2858.5
395.229	2828.5
395.454	2897.5
395.678	2880.5
395.903	2892.5
396.127	2870.5
396.352	2883.5
396.576	2842.5
396.801	2847.5
397.025	2911.5
397.249	2943.5
397.474	2927.5
397.698	2838.5
397.922	2999.5
398.147	2967.5
398.371	2982.5
398.595	3012.5
398.82	3129.5
399.044	3236.5
399.268	3304.5
399.492	3555.5
399.717	3715.5
399.941	3690.5
400.165	3510.5
400.389	3368.5
400.613	3218.5
400.837	3176.5
401.062	3142.5
401.286	3052.5
401.51	3066.5
401.734	3071.5
401.958	3068.5
402.182	3010.5
402.406	3039.5
402.63	3067.5
402.854	3042.5
403.078	3112.5
403.302	3098.5
403.526	3137.5
403.75	3114.5
403.974	3180.5
404.198	3119.5
404.422	3187.5
404.645	3171.5
404.869	3135.5
405.093	3177.5
405.317	3169.5
405.541	3223.5
405.765	3278.5
405.988	3268.5
406.212	3242.5
406.436	3222.5
406.66	3302.5
406.883	3256.5
407.107	3378.5
407.331	3352.5
407.555	3442.5
407.778	3421.5
408.002	3368.5
408.226	3387.5
408.449	3386.5
408.673	3331.5
408.896	3236.5
409.12	3227.5
409.344	3222.5
409.567	3169.5
409.791	3245.5
410.014	3174.5
410.238	3158.5
410.461	3162.5
410.685	3134.5
410.908	3125.5
411.132	3149.5
411.355	3066.5
411.578	3097.5
411.802	3042.5
412.025	3044.5
412.249	3078.5
412.472	3082.5
412.695	2977.5
412.919	2992.5
413.142	2973.5
413.365	2996.5
413.589	2990.5
413.812	2974.5
414.035	2995.5
414.258	2980.5
414.482	2986.5
414.705	3025.5
414.928	2963.5
415.151	2965.5
415.374	2888.5
415.597	2923.5
415.821	2902.5
416.044	2832.5
416.267	2870.5
416.49	2879.5
416.713	2816.5
416.936	2870.5
417.159	2826.5
417.382	2806.5
417.605	2819.5
417.828	2856.5
418.051	2901.5
418.274	2871.5
418.497	2852.5
418.72	2931.5
418.943	2898.5
419.166	3019.5
419.389	3228.5
419.611	3197.5
419.834	3086.5
420.057	3030.5
420.28	2910.5
420.503	2865.5
420.726	2902.5
420.948	2854.5
421.171	2841.5
421.394	2854.5
421.617	2841.5
421.839	2900.5
422.062	2906.5
422.285	2870.5
422.507	2925.5
422.73	2954.5
422.953	2973.5
423.175	2995.5
423.398	3000.5
423.621	2868.5
423.843	2907.5
424.066	2915.5
424.288	2835.5
424.511	2814.5
424.733	2864.5
424.956	2745.5
425.178	2866.5
425.401	2842.5
425.623	2821.5
425.846	2776.5
426.068	2775.5
426.291	2759.5
426.513	2741.5
426.735	2706.5
426.958	2706.5
427.18	2705.5
427.402	2659.5
427.625	2690.5
427.847	2662.5
428.069	2624.5
428.292	2696.5
428.514	2634.5
428.736	2637.5
428.958	2686.5
429.181	2657.5
429.403	2606.5
429.625	2674.5
429.847	2726.5
430.069	2676.5
430.292	2838.5
430.514	2844.5
430.736	2898.5
430.958	2668.5
431.18	2640.5
431.402	2686.5
431.624	2630.5
431.846	2604.5
432.068	2599.5
432.29	2657.5
432.512	2604.5
432.734	2680.5
432.956	2606.5
433.178	2621.5
433.4	2648.5
433.622	2648.5
433.844	2666.5
434.066	2658.5
434.287	2663.5
434.509	2675.5
434.731	2713.5
434.953	2742.5
435.175	2746.5
435.397	2748.5
435.618	2698.5
435.84	2631.5
436.062	2622.5
436.284	2622.5
436.505	2605.5
436.727	2598.5
436.949	2630.5
437.17	2607.5
437.392	2573.5
437.614	2590.5
437.835	2550.5
438.057	2550.5
438.278	2505.5
438.5	2535.5
438.721	2619.5
438.943	2700.5
439.165	2726.5
439.386	2736.5
439.608	2719.5
439.829	2706.5
440.05	2850.5
440.272	2954.5
440.493	2770.5
440.715	2684.5
440.936	2716.5
441.158	2768.5
441.379	2782.5
441.6	2855.5
441.822	2895.5
442.043	3062.5
442.264	3222.5
442.486	3002.5
442.707	2893.5
442.928	2867.5
443.149	2812.5
443.371	2834.5
443.592	2854.5
443.813	2832.5
444.034	2826.5
444.255	2902.5
444.476	2962.5
444.698	2986.5
444.919	3019.5
445.14	3060.5
445.361	2944.5
445.582	2849.5
445.803	2823.5
446.024	2807.5
446.245	2834.5
446.466	2840.5
446.687	2776.5
446.908	2753.5
447.129	2688.5
447.35	2645.5
447.571	2688.5
447.792	2592.5
448.013	2636.5
448.234	2560.5
448.455	2568.5
448.675	2600.5
448.896	2702.5
449.117	2787.5
449.338	3030.5
449.559	3152.5
449.779	2810.5
450	2632.5
450.221	2600.5
450.442	2585.5
450.662	2532.5
450.883	2555.5
451.104	2504.5
451.324	2540.5
451.545	2534.5
451.766	2554.5
451.986	2593.5
452.207	2839.5
452.428	3582.5
452.648	5526.5
452.869	4646.5
453.089	3220.5
453.31	2948.5
453.53	2943.5
453.751	3005.5
453.971	3197.5
454.192	3087.5
454.412	2677.5
454.633	2513.5
454.853	2508.5
455.073	2498.5
455.294	2460.5
455.514	2440.5
455.734	2470.5
455.955	2425.5
456.175	2377.5
456.395	2410.5
456.616	2431.5
456.836	2450.5
457.056	2475.5
457.276	2452.5
457.497	2632.5
457.717	2676.5
457.937	2586.5
458.157	2571.5
458.377	2570.5
458.598	2548.5
458.818	2585.5
459.038	2630.5
459.258	2663.5
459.478	2661.5
459.698	2699.5
459.918	2682.5
460.138	2719.5
460.358	2804.5
460.578	2892.5
460.798	2889.5
461.018	2899.5
461.238	2877.5
461.458	2878.5
461.678	2854.5
461.898	3010.5
462.118	2974.5
462.338	3053.5
462.558	3130.5
462.777	3158.5
462.997	3284.5
463.217	3403.5
463.437	3526.5
463.657	3557.5
463.876	3605.5
464.096	3343.5
464.316	3259.5
464.536	3162.5
464.755	3047.5
464.975	2998.5
465.195	2926.5
465.414	2836.5
465.634	2725.5
465.854	2723.5
466.073	2721.5
466.293	2616.5
466.512	2671.5
466.732	2655.5
466.951	2846.5
467.171	3043.5
467.391	2960.5
467.61	2697.5
467.829	2599.5
468.049	2586.5
468.268	2600.5
468.488	2623.5
468.707	2596.5
468.927	2586.5
469.146	2556.5
469.365	2587.5
469.585	2667.5
469.804	2681.5
470.023	2730.5
470.243	2780.5
470.462	2842.5
470.681	3027.5
470.901	3299.5
471.12	3768.5
471.339	3824.5
471.558	3172.5
471.777	2824.5
471.997	2749.5
472.216	2719.5
472.435	2648.5
472.654	2635.5
472.873	2546.5
473.092	2580.5
473.311	2626.5
473.53	2582.5
473.749	2679.5
473.968	2760.5
474.187	2636.5
474.406	2583.5
474.625	2572.5
474.844	2617.5
475.063	2620.5
475.282	2603.5
475.501	2631.5
475.72	2647.5
475.939	2639.5
476.158	2742.5
476.377	2720.5
476.596	2734.5
476.814	2717.5
477.033	2742.5
477.252	2771.5
477.471	2810.5
477.69	2844.5
477.908	2886.5
478.127	3006.5
478.346	2950.5
478.564	3024.5
478.783	3010.5
479.002	3071.5
479.22	3065.5
479.439	3098.5
479.658	3101.5
479.876	3128.5
480.095	3135.5
480.313	3227.5
480.532	3199.5
480.751	3235.5
480.969	3147.5
481.188	3138.5
481.406	3163.5
481.624	3171.5
481.843	3196.5
482.061	3177.5
482.28	3165.5
482.498	3166.5
482.717	3105.5
482.935	3180.5
483.153	3192.5
483.372	3266.5
483.59	3316.5
483.808	3345.5
484.027	3520.5
484.245	3632.5
484.463	4153.5
484.681	4578.5
484.9	4089.5
485.118	3823.5
485.336	3801.5
485.554	3770.5
485.772	4048.5
485.99	4614.5
486.209	4911.5
486.427	4077.5
486.645	3707.5
486.863	3506.5
487.081	3440.5
487.299	3407.5
487.517	3358.5
487.735	3398.5
487.953	3354.5
488.171	3370.5
488.389	3296.5
488.607	3301.5
488.825	3195.5
489.043	3248.5
489.261	3233.5
489.479	3237.5
489.696	3226.5
489.914	3276.5
490.132	3263.5
490.35	3279.5
490.568	3260.5
490.786	3362.5
491.003	3371.5
491.221	3389.5
491.439	3396.5
491.657	3379.5
491.874	3395.5
492.092	3407.5
492.31	3462.5
492.527	3419.5
492.745	3324.5
492.963	3379.5
493.18	3395.5
493.398	3388.5
493.615	3356.5
493.833	3397.5
494.05	3411.5
494.268	3420.5
494.485	3367.5
494.703	3361.5
494.92	3407.5
495.138	3417.5
495.355	3410.5
495.573	3432.5
495.79	3432.5
496.008	3487.5
496.225	3516.5
496.442	3572.5
496.66	3674.5
496.877	3854.5
497.094	3823.5
497.312	3690.5
497.529	3701.5
497.746	3742.5
497.963	3802.5
498.181	3862.5
498.398	3983.5
498.615	4086.5
498.832	4269.5
499.049	4436.5
499.267	4793.5
499.484	5106.5
499.701	5062.5
499.918	5098.5
500.135	5411.5
500.352	5750.5
500.569	5750.5
500.786	5670.5
501.003	5549.5
501.22	5252.5
501.437	5014.5
501.654	4750.5
501.871	4597.5
502.088	4295.5
502.305	4222.5
502.522	4070.5
502.739	4000.5
502.956	3894.5
503.172	3762.5
503.389	3732.5
503.606	3641.5
503.823	3598.5
504.04	3600.5
504.256	3599.5
504.473	3573.5
504.69	3547.5
504.907	3478.5
505.123	3429.5
505.34	3374.5
505.557	3255.5
505.773	3169.5
505.99	3164.5
506.207	3127.5
506.423	3139.5
506.64	3103.5
506.856	3093.5
507.073	3024.5
507.289	3051.5
507.506	2986.5
507.722	3011.5
507.939	3034.5
508.155	2933.5
508.372	2934.5
508.588	2969.5
508.805	2909.5
509.021	2949.5
509.238	3002.5
509.454	3199.5
509.67	3391.5
509.887	3094.5
510.103	3020.5
510.319	2977.5
510.536	2987.5
510.752	2890.5
510.968	2934.5
511.184	2861.5
511.401	2800.5
511.617	2846.5
511.833	2826.5
512.049	2834.5
512.265	2811.5
512.481	2830.5
512.698	2790.5
512.914	2866.5
513.13	2826.5
513.346	2849.5
513.562	2884.5
513.778	2875.5
513.994	2941.5
514.21	2970.5
514.426	3136.5
514.642	3237.5
514.858	2978.5
515.074	2925.5
515.29	2895.5
515.506	2856.5
515.721	2896.5
515.937	2919.5
516.153	2914.5
516.369	2948.5
516.585	2991.5
516.801	3048.5
517.016	3063.5
517.232	3140.5
517.448	3188.5
517.664	3198.5
517.879	3174.5
518.095	3278.5
518.311	3214.5
518.527	3146.5
518.742	3084.5
518.958	3193.5
519.173	3250.5
519.389	3106.5
519.605	3005.5
519.82	2897.5
520.036	2923.5
520.251	2866.5
520.467	2854.5
520.682	2787.5
520.898	2805.5
521.113	2748.5
521.329	2742.5
521.544	2776.5
521.76	2778.5
521.975	2782.5
522.19	2770.5
522.406	2731.5
522.621	2797.5
522.836	2782.5
523.052	2751.5
523.267	2731.5
523.482	2694.5
523.698	2728.5
523.913	2692.5
524.128	2710.5
524.343	2726.5
524.559	2702.5
524.774	2684.5
524.989	2716.5
525.204	2690.5
525.419	2703.5
525.634	2704.5
525.849	2710.5
526.064	2687.5
526.28	2683.5
526.495	2729.5
526.71	2757.5
526.925	2698.5
527.14	2732.5
527.355	2749.5
527.57	2711.5
527.785	2723.5
527.999	2751.5
528.214	2748.5
528.429	2796.5
528.644	2835.5
528.859	2847.5
529.074	2871.5
529.289	2904.5
529.503	2893.5
529.718	2925.5
529.933	2880.5
530.148	2919.5
530.363	2854.5
530.577	2862.5
530.792	2930.5
531.007	2936.5
531.221	2958.5
531.436	2970.5
531.651	3016.5
531.865	3048.5
532.08	3133.5
532.295	3179.5
532.509	3306.5
532.724	3416.5
532.938	3414.5
533.153	3582.5
533.367	3850.5
533.582	4072.5
533.796	4004.5
534.011	3878.5
534.225	3563.5
534.44	3480.5
534.654	3438.5
534.868	3303.5
535.083	3221.5
535.297	3170.5
535.511	3190.5
535.726	3100.5
535.94	3135.5
536.154	3032.5
536.369	2972.5
536.583	2869.5
536.797	2934.5
537.011	2874.5
537.225	2870.5
537.44	2808.5
537.654	2811.5
537.868	2754.5
538.082	2768.5
538.296	2770.5
538.51	2696.5
538.724	2738.5
538.938	2688.5
539.153	2710.5
539.367	2698.5
539.581	2613.5
539.795	2612.5
540.009	2655.5
540.222	2598.5
540.436	2647.5
540.65	2630.5
540.864	2616.5
541.078	2679.5
541.292	2844.5
541.506	3300.5
541.72	3527.5
541.934	3050.5
542.147	2876.5
542.361	2768.5
542.575	2683.5
542.789	2604.5
543.002	2602.5
543.216	2523.5
543.43	2509.5
543.644	2475.5
543.857	2531.5
544.071	2532.5
544.285	2510.5
544.498	2550.5
544.712	2562.5
544.925	2562.5
545.139	2590.5
545.352	2538.5
545.566	2584.5
545.779	2533.5
545.993	2534.5
546.206	2555.5
546.42	2582.5
546.633	2560.5
546.847	2536.5
547.06	2533.5
547.274	2552.5
547.487	2549.5
547.7	2539.5
547.914	2590.5
548.127	2550.5
548.34	2494.5
548.554	2518.5
548.767	2555.5
548.98	2634.5
549.193	2551.5
549.407	2539.5
549.62	2544.5
549.833	2553.5
550.046	2600.5
550.259	2508.5
550.473	2538.5
550.686	2600.5
550.899	2572.5
551.112	2507.5
551.325	2533.5
551.538	2584.5
551.751	2527.5
551.964	2501.5
552.177	2552.5
552.39	2642.5
552.603	2647.5
552.816	2694.5
553.029	2706.5
553.242	2798.5
553.455	2814.5
553.667	2842.5
553.88	2879.5
554.093	2830.5
554.306	2902.5
554.519	2930.5
554.732	2956.5
554.944	3018.5
555.157	3073.5
555.37	3163.5
555.583	3275.5
555.795	3506.5
556.008	3684.5
556.221	4223.5
556.433	4478.5
556.646	4535.5
556.859	4277.5
557.071	4121.5
557.284	4024.5
557.496	3862.5
557.709	3760.5
557.921	3714.5
558.134	3715.5
558.346	3758.5
558.559	3920.5
558.771	4215.5
558.984	4632.5
559.196	4932.5
559.409	4754.5
559.621	4317.5
559.833	4020.5
560.046	3789.5
560.258	3565.5
560.47	3480.5
560.683	3230.5
560.895	3125.5
561.107	3058.5
561.32	2991.5
561.532	2843.5
561.744	2797.5
561.956	2710.5
562.168	2717.5
562.381	2657.5
562.593	2664.5
562.805	2696.5
563.017	2707.5
563.229	2762.5
563.441	3186.5
563.653	2679.5
563.865	2457.5
564.077	2426.5
564.289	2414.5
564.501	2380.5
564.713	2354.5
564.925	2363.5
565.137	2331.5
565.349	2342.5
565.561	2358.5
565.773	2360.5
565.985	2410.5
566.197	2442.5
566.408	2475.5
566.62	2542.5
566.832	2535.5
567.044	2599.5
567.255	2598.5
567.467	2635.5
567.679	2718.5
567.891	2820.5
568.102	3088.5
568.314	3624.5
568.526	3185.5
568.737	2732.5
568.949	2510.5
569.161	2343.5
569.372	2248.5
569.584	2203.5
569.795	2151.5
570.007	2119.5
570.218	2211.5
570.43	2290.5
570.641	2042.5
570.853	1975.5
571.064	1959.5
571.276	1932.5
571.487	1900.5
571.698	1886.5
571.91	1855.5
572.121	1858.5
572.333	1856.5
572.544	1883.5
572.755	1978.5
572.966	2328.5
573.178	2129.5
573.389	1920.5
573.6	1824.5
573.811	1748.5
574.023	1780.5
574.234	1740.5
574.445	1727.5
574.656	1713.5
574.867	1721.5
575.078	1706.5
575.289	1702.5
575.501	1737.5
575.712	1687.5
575.923	1702.5
576.134	1731.5
576.345	1700.5
576.556	1740.5
576.767	1698.5
576.978	1726.5
577.188	1712.5
577.399	1702.5
577.61	1755.5
577.821	1802.5
578.032	1816.5
578.243	1832.5
578.454	1844.5
578.665	1882.5
578.875	1912.5
579.086	1992.5
579.297	2080.5
579.508	2243.5
579.718	2457.5
579.929	2843.5
580.14	3268.5
580.35	3398.5
580.561	3095.5
580.772	2762.5
580.982	2504.5
581.193	2333.5
581.403	2229.5
581.614	2135.5
581.825	2036.5
582.035	1964.5
582.246	1881.5
582.456	1851.5
582.667	1795.5
582.877	1763.5
583.087	1737.5
583.298	1654.5
583.508	1628.5
583.719	1572.5
583.929	1547.5
584.139	1503.5
584.35	1488.5
584.56	1499.5
584.77	1468.5
584.981	1420.5
585.191	1430.5
585.401	1383.5
585.611	1416.5
585.821	1369.5
586.032	1346.5
586.242	1373.5
586.452	1355.5
586.662	1303.5
586.872	1307.5
587.082	1283.5
587.292	1288.5
587.502	1264.5
587.713	1253.5
587.923	1268.5
588.133	1262.5
588.343	1239.5
588.553	1238.5
588.762	1218.5
588.972	1211.5
589.182	1208.5
589.392	1211.5
589.602	1188.5
589.812	1161.5
590.022	1195.5
590.232	1185.5
590.441	1220.5
590.651	1217.5
590.861	1208.5
591.071	1192.5
591.281	1189.5
591.49	1178.5
591.7	1159.5
591.91	1208.5
592.119	1186.5
592.329	1196.5
592.539	1209.5
592.748	1196.5
592.958	1206.5
593.167	1214.5
593.377	1216.5
593.587	1233.5
593.796	1192.5
594.006	1231.5
594.215	1213.5
594.424	1215.5
594.634	1215.5
594.843	1159.5
595.053	1178.5
595.262	1129.5
595.472	1147.5
595.681	1134.5
595.89	1115.5
596.1	1101.5
596.309	1070.5
596.518	1078.5
596.727	1060.5
596.937	1035.5
597.146	1041.5
597.355	1042.5
597.564	994.5
597.774	1010.5
597.983	983.5
598.192	970.5
598.401	985.5
598.61	970.5
598.819	979.5
599.028	967.5
599.237	961.5
599.446	956.5
599.655	962.5
599.864	970.5
600.073	935.5
600.282	946.5
600.491	932.5
600.7	954.5
600.909	946.5
601.118	970.5
601.327	926.5
601.536	945.5
601.745	996.5
601.953	1110.5
602.162	1211.5
602.371	1095.5
602.58	992.5
602.789	987.5
602.997	962.5
603.206	931.5
603.415	934.5
603.623	928.5
603.832	911.5
604.041	930.5
604.249	908.5
604.458	903.5
604.666	865.5
604.875	868.5
605.084	860.5
605.292	897.5
605.501	890.5
605.709	903.5
605.918	906.5
606.126	889.5
606.334	914.5
606.543	935.5
606.751	972.5
606.96	1139.5
607.168	1248.5
607.376	1036.5
607.585	988.5
607.793	913.5
608.001	919.5
608.21	893.5
608.418	894.5
608.626	873.5
608.834	873.5
609.043	866.5
609.251	866.5
609.459	862.5
609.667	815.5
609.875	824.5
610.083	875.5
610.291	839.5
610.499	828.5
610.707	818.5
610.916	823.5
611.124	810.5
611.332	797.5
611.54	802.5
611.748	804.5
611.955	823.5
612.163	790.5
612.371	796.5
612.579	802.5
612.787	804.5
612.995	820.5
613.203	794.5
613.411	806.5
613.618	802.5
613.826	762.5
614.034	772.5
614.242	808.5
614.449	796.5
614.657	783.5
614.865	769.5
615.072	831.5
615.28	799.5
615.488	805.5
615.695	801.5
615.903	798.5
616.111	783.5
616.318	778.5
616.526	786.5
616.733	798.5
616.941	773.5
617.148	782.5
617.356	781.5
617.563	778.5
617.771	795.5
617.978	774.5
618.185	766.5
618.393	779.5
618.6	774.5
618.807	745.5
619.015	741.5
619.222	747.5
619.429	749.5
619.637	747.5
619.844	727.5
620.051	731.5
620.258	719.5
620.466	716.5
620.673	697.5
620.88	690.5
621.087	681.5
621.294	707.5
621.501	720.5
621.708	699.5
621.915	719.5
622.122	698.5
622.329	698.5
622.536	694.5
622.743	667.5
622.95	691.5
623.157	692.5
623.364	703.5
623.571	672.5
623.778	677.5
623.985	677.5
624.192	678.5
624.399	672.5
624.606	659.5
624.812	664.5
625.019	671.5
625.226	646.5
625.433	634.5
625.639	662.5
625.846	634.5
626.053	624.5
626.259	614.5
626.466	610.5
626.673	628.5
626.879	624.5
627.086	635.5
627.293	619.5
627.499	643.5
627.706	635.5
627.912	630.5
628.119	639.5
628.325	628.5
628.532	636.5
628.738	627.5
628.945	639.5
629.151	614.5
629.357	637.5
629.564	620.5
629.77	619.5
629.976	596.5
630.183	590.5
630.389	592.5
630.595	592.5
630.802	620.5
631.008	608.5
631.214	608.5
631.42	605.5
631.627	613.5
631.833	582.5
632.039	580.5
632.245	587.5
632.451	564.5
632.657	592.5
632.863	591.5
633.069	576.5
633.275	591.5
633.481	566.5
633.688	588.5
633.893	594.5
634.099	608.5
634.305	605.5
634.511	598.5
634.717	586.5
634.923	612.5
635.129	688.5
635.335	742.5
635.541	703.5
635.747	658.5
635.952	608.5
636.158	603.5
636.364	599.5
636.57	568.5
636.775	573.5
636.981	569.5
637.187	557.5
637.392	570.5
637.598	569.5
637.804	601.5
638.009	582.5
638.215	570.5
638.421	592.5
638.626	591.5
638.832	601.5
639.037	602.5
639.243	588.5
639.448	587.5
639.654	588.5
639.859	596.5
640.065	616.5
640.27	623.5
640.475	613.5
640.681	632.5
640.886	635.5
641.091	638.5
641.297	633.5
641.502	628.5
641.707	653.5
641.913	656.5
642.118	675.5
642.323	675.5
642.528	712.5
642.733	704.5
642.939	717.5
643.144	748.5
643.349	784.5
643.554	788.5
643.759	806.5
643.964	862.5
644.169	894.5
644.374	970.5
644.579	1057.5
644.784	1152.5
644.989	1318.5
645.194	1607.5
645.399	1950.5
645.604	2143.5
645.809	1550.5
646.014	1214.5
646.219	991.5
646.423	854.5
646.628	779.5
646.833	696.5
647.038	698.5
647.243	662.5
647.447	630.5
647.652	618.5
647.857	582.5
648.062	585.5
648.266	570.5
648.471	588.5
648.676	562.5
648.88	563.5
649.085	565.5
649.289	531.5
649.494	500.5
649.698	506.5
649.903	495.5
650.107	490.5
650.312	479.5
650.516	474.5
650.721	463.5
650.925	447.5
651.13	450.5
651.334	436.5
651.539	450.5
651.743	423.5
651.947	422.5
652.152	442.5
652.356	430.5
652.56	453.5
652.764	506.5
652.969	486.5
653.173	438.5
653.377	401.5
653.581	390.5
653.785	380.5
653.99	378.5
654.194	354.5
654.398	372.5
654.602	372.5
654.806	371.5
655.01	357.5
655.214	354.5
655.418	367.5
655.622	345.5
655.826	364.5
656.03	388.5
656.234	380.5
656.438	385.5
656.642	390.5
656.846	369.5
657.049	344.5
657.253	334.5
657.457	323.5
657.661	309.5
657.865	296.5
658.068	245.5
658.272	249.5
658.476	239.5
658.68	227.5
658.883	225.5
659.087	201.5
659.291	204.5
659.494	190.5
659.698	193.5
659.901	165.5
660.105	176.5
660.309	174.5
660.512	180.5
660.716	170.5
660.919	170.5
661.123	160.5
661.326	140.5
661.53	134.5
661.733	114.5
661.936	139.5
662.14	109.5
662.343	111.5
662.546	115.5
662.75	116.5
662.953	117.5
663.156	105.5
663.36	118.5
663.563	98.5
663.766	95.5
663.969	91.5
664.173	107.5
664.376	101.5
664.579	99.5
664.782	88.5
664.985	88.5
665.188	88.5
665.391	92.5
665.594	92.5
665.797	104.5
666	93.5
666.203	94.5
666.406	85.5
666.609	77.5
666.812	79.5
667.015	99.5
667.218	86.5
667.421	98.5
667.624	94.5
667.827	102.5
668.03	91.5
668.232	96.5
668.435	86.5
668.638	77.5
668.841	93.5
669.043	83.5
669.246	77.5
669.449	97.5
669.651	95.5
669.854	92.5
670.057	96.5
670.259	83.5
670.462	101.5
670.665	83.5
670.867	81.5
671.07	105.5
671.272	101.5
671.475	95.5
671.677	85.5
671.88	80.5
672.082	94.5
672.284	79.5
672.487	87.5
672.689	84.5
672.892	93.5
