Data from SnStandardFlinnAPT0064_LampEnergy5.5_LIBS07252019.E.O._I.C._HRD10591_15-15-54-491.txt Node
Date: Thu Jul 25 15:15:54 EDT 2019
User: cochatt
Spectrometer: HR+D1059
Trigger mode: 1
Integration Time (sec): 1.000000E-1
Scans to average: 1
Electric dark correction enabled: true
Nonlinearity correction enabled: false
Boxcar width: 0
XAxis mode: Wavelengths
Number of Pixels in Spectrum: 2048
>>>>>Begin Spectral Data<<<<<
223.165	-12.88
223.4	-12.88
223.635	-12.88
223.869	-6.88
224.104	-17.88
224.338	-11.88
224.573	-16.88
224.808	-14.88
225.042	-10.88
225.277	0.12
225.511	3.12
225.746	2.12
225.98	-0.88
226.215	14.12
226.449	-0.88
226.683	18.12
226.918	19.12
227.152	37.12
227.387	29.12
227.621	45.12
227.856	36.12
228.09	32.12
228.324	45.12
228.559	69.12
228.793	61.12
229.027	147.12
229.262	159.12
229.496	136.12
229.73	132.12
229.964	147.12
230.199	138.12
230.433	154.12
230.667	174.12
230.901	166.12
231.136	177.12
231.37	184.12
231.604	181.12
231.838	186.12
232.072	232.12
232.306	220.12
232.541	185.12
232.775	205.12
233.009	200.12
233.243	191.12
233.477	200.12
233.711	211.12
233.945	232.12
234.179	210.12
234.413	211.12
234.647	219.12
234.881	218.12
235.115	242.12
235.349	252.12
235.583	319.12
235.817	392.12
236.051	394.12
236.285	276.12
236.519	241.12
236.753	225.12
236.987	240.12
237.221	252.12
237.455	238.12
237.689	217.12
237.922	223.12
238.156	204.12
238.39	222.12
238.624	218.12
238.858	211.12
239.091	207.12
239.325	232.12
239.559	214.12
239.793	241.12
240.027	246.12
240.26	210.12
240.494	253.12
240.728	256.12
240.961	241.12
241.195	270.12
241.429	273.12
241.662	283.12
241.896	320.12
242.13	377.12
242.363	472.12
242.597	583.12
242.83	581.12
243.064	576.12
243.298	658.12
243.531	550.12
243.765	388.12
243.998	327.12
244.232	309.12
244.465	301.12
244.699	282.12
244.932	292.12
245.166	302.12
245.399	284.12
245.633	291.12
245.866	291.12
246.099	285.12
246.333	291.12
246.566	276.12
246.8	280.12
247.033	282.12
247.266	284.12
247.5	282.12
247.733	301.12
247.966	297.12
248.2	311.12
248.433	368.12
248.666	389.12
248.899	370.12
249.133	341.12
249.366	350.12
249.599	374.12
249.832	409.12
250.066	416.12
250.299	328.12
250.532	338.12
250.765	323.12
250.998	313.12
251.231	323.12
251.465	336.12
251.698	323.12
251.931	331.12
252.164	321.12
252.397	326.12
252.63	333.12
252.863	341.12
253.096	327.12
253.329	340.12
253.562	345.12
253.795	339.12
254.028	355.12
254.261	359.12
254.494	381.12
254.727	430.12
254.96	489.12
255.193	470.12
255.426	406.12
255.659	365.12
255.892	367.12
256.124	359.12
256.357	360.12
256.59	377.12
256.823	392.12
257.056	426.12
257.289	494.12
257.521	551.12
257.754	455.12
257.987	409.12
258.22	399.12
258.452	386.12
258.685	391.12
258.918	384.12
259.151	430.12
259.383	441.12
259.616	475.12
259.849	485.12
260.081	445.12
260.314	419.12
260.547	399.12
260.779	401.12
261.012	405.12
261.244	401.12
261.477	413.12
261.71	441.12
261.942	431.12
262.175	431.12
262.407	467.12
262.64	439.12
262.872	464.12
263.105	471.12
263.337	529.12
263.57	541.12
263.802	554.12
264.035	567.12
264.267	590.12
264.499	595.12
264.732	605.12
264.964	605.12
265.197	610.12
265.429	601.12
265.661	611.12
265.894	647.12
266.126	715.12
266.358	775.12
266.591	726.12
266.823	665.12
267.055	599.12
267.287	591.12
267.52	574.12
267.752	539.12
267.984	535.12
268.216	532.12
268.448	525.12
268.681	506.12
268.913	501.12
269.145	519.12
269.377	539.12
269.609	534.12
269.841	552.12
270.073	576.12
270.306	645.12
270.538	825.12
270.77	1152.12
271.002	1400.12
271.234	992.12
271.466	703.12
271.698	597.12
271.93	582.12
272.162	550.12
272.394	527.12
272.626	522.12
272.858	491.12
273.09	506.12
273.322	509.12
273.553	509.12
273.785	521.12
274.017	487.12
274.249	514.12
274.481	507.12
274.713	508.12
274.945	506.12
275.176	512.12
275.408	521.12
275.64	513.12
275.872	501.12
276.104	524.12
276.335	522.12
276.567	522.12
276.799	523.12
277.031	543.12
277.262	564.12
277.494	559.12
277.726	609.12
277.957	687.12
278.189	732.12
278.421	709.12
278.652	649.12
278.884	615.12
279.115	582.12
279.347	574.12
279.579	576.12
279.81	560.12
280.042	579.12
280.273	581.12
280.505	574.12
280.736	594.12
280.968	628.12
281.199	651.12
281.431	736.12
281.662	734.12
281.894	685.12
282.125	645.12
282.356	676.12
282.588	642.12
282.819	682.12
283.051	707.12
283.282	762.12
283.513	937.12
283.745	1325.12
283.976	1983.12
284.207	2841.12
284.439	2569.12
284.67	1577.12
284.901	1284.12
285.132	1283.12
285.364	1192.12
285.595	966.12
285.826	907.12
286.057	1034.12
286.288	1399.12
286.52	1791.12
286.751	1676.12
286.982	1071.12
287.213	843.12
287.444	768.12
287.675	713.12
287.906	704.12
288.138	690.12
288.369	715.12
288.6	687.12
288.831	687.12
289.062	688.12
289.293	692.12
289.524	663.12
289.755	701.12
289.986	707.12
290.217	689.12
290.448	679.12
290.679	697.12
290.91	711.12
291.141	705.12
291.371	745.12
291.602	766.12
291.833	698.12
292.064	682.12
292.295	667.12
292.526	660.12
292.757	654.12
292.987	638.12
293.218	639.12
293.449	664.12
293.68	644.12
293.91	651.12
294.141	642.12
294.372	631.12
294.603	640.12
294.833	645.12
295.064	651.12
295.295	662.12
295.525	643.12
295.756	625.12
295.987	650.12
296.217	638.12
296.448	655.12
296.679	639.12
296.909	661.12
297.14	637.12
297.37	697.12
297.601	677.12
297.831	652.12
298.062	647.12
298.292	676.12
298.523	699.12
298.753	683.12
298.984	720.12
299.214	719.12
299.445	685.12
299.675	722.12
299.905	744.12
300.136	740.12
300.366	828.12
300.597	997.12
300.827	1337.12
301.057	1794.12
301.288	1827.12
301.518	1202.12
301.748	954.12
301.979	889.12
302.209	835.12
302.439	865.12
302.669	909.12
302.9	1079.12
303.13	1470.12
303.36	2057.12
303.59	2693.12
303.82	2379.12
304.051	1441.12
304.281	1063.12
304.511	943.12
304.741	866.12
304.971	850.12
305.201	792.12
305.431	780.12
305.661	791.12
305.891	802.12
306.121	741.12
306.352	754.12
306.582	744.12
306.812	738.12
307.042	755.12
307.272	753.12
307.502	745.12
307.731	744.12
307.961	725.12
308.191	719.12
308.421	726.12
308.651	721.12
308.881	724.12
309.111	745.12
309.341	739.12
309.571	736.12
309.8	754.12
310.03	777.12
310.26	743.12
310.49	746.12
310.72	774.12
310.949	758.12
311.179	759.12
311.409	781.12
311.639	777.12
311.868	742.12
312.098	790.12
312.328	807.12
312.557	809.12
312.787	805.12
313.017	801.12
313.246	801.12
313.476	816.12
313.706	826.12
313.935	857.12
314.165	885.12
314.394	921.12
314.624	895.12
314.853	874.12
315.083	872.12
315.312	894.12
315.542	866.12
315.771	872.12
316.001	896.12
316.23	920.12
316.46	950.12
316.689	1017.12
316.919	1209.12
317.148	1693.12
317.377	2473.12
317.607	3590.12
317.836	3664.12
318.065	2223.12
318.295	1485.12
318.524	1235.12
318.753	1125.12
318.983	1053.12
319.212	990.12
319.441	975.12
319.67	941.12
319.9	943.12
320.129	936.12
320.358	941.12
320.587	930.12
320.816	911.12
321.046	948.12
321.275	941.12
321.504	953.12
321.733	982.12
321.962	961.12
322.191	1023.12
322.42	991.12
322.649	1014.12
322.878	990.12
323.108	992.12
323.337	1024.12
323.566	990.12
323.795	999.12
324.024	1035.12
324.253	1034.12
324.482	1096.12
324.71	1128.12
324.939	1167.12
325.168	1220.12
325.397	1256.12
325.626	1460.12
325.855	2003.12
326.084	3003.12
326.313	4416.12
326.542	4677.12
326.77	3119.12
326.999	2073.12
327.228	1760.12
327.457	1691.12
327.686	1738.12
327.914	1797.12
328.143	2063.12
328.372	2377.12
328.6	2527.12
328.829	2382.12
329.058	2114.12
329.287	1874.12
329.515	1762.12
329.744	1593.12
329.972	1552.12
330.201	1450.12
330.43	1405.12
330.658	1412.12
330.887	1391.12
331.115	1357.12
331.344	1357.12
331.572	1363.12
331.801	1335.12
332.03	1361.12
332.258	1369.12
332.486	1413.12
332.715	1579.12
332.943	1895.12
333.172	2228.12
333.4	2238.12
333.629	1840.12
333.857	1661.12
334.085	1704.12
334.314	1781.12
334.542	1906.12
334.771	2180.12
334.999	2596.12
335.227	3076.12
335.455	3473.12
335.684	3153.12
335.912	2749.12
336.14	2413.12
336.369	2128.12
336.597	1994.12
336.825	1832.12
337.053	1739.12
337.281	1639.12
337.51	1579.12
337.738	1522.12
337.966	1483.12
338.194	1405.12
338.422	1401.12
338.65	1348.12
338.878	1313.12
339.106	1282.12
339.334	1245.12
339.562	1237.12
339.79	1232.12
340.018	1233.12
340.246	1226.12
340.474	1213.12
340.702	1159.12
340.93	1200.12
341.158	1178.12
341.386	1214.12
341.614	1181.12
341.842	1147.12
342.07	1142.12
342.298	1151.12
342.526	1105.12
342.754	1105.12
342.981	1108.12
343.209	1107.12
343.437	1107.12
343.665	1144.12
343.893	1178.12
344.12	1152.12
344.348	1136.12
344.576	1118.12
344.804	1087.12
345.031	1087.12
345.259	1047.12
345.487	1067.12
345.714	1051.12
345.942	1054.12
346.17	1045.12
346.397	1037.12
346.625	1027.12
346.853	1051.12
347.08	1006.12
347.308	1018.12
347.535	1005.12
347.763	1025.12
347.99	1028.12
348.218	1012.12
348.445	1024.12
348.673	985.12
348.9	1013.12
349.128	1005.12
349.355	992.12
349.583	961.12
349.81	995.12
350.037	998.12
350.265	986.12
350.492	983.12
350.72	990.12
350.947	970.12
351.174	980.12
351.402	976.12
351.629	1003.12
351.856	975.12
352.083	965.12
352.311	991.12
352.538	968.12
352.765	964.12
352.992	974.12
353.22	961.12
353.447	954.12
353.674	953.12
353.901	984.12
354.128	1009.12
354.355	963.12
354.583	962.12
354.81	1009.12
355.037	984.12
355.264	1013.12
355.491	978.12
355.718	998.12
355.945	975.12
356.172	989.12
356.399	1038.12
356.626	1014.12
356.853	1045.12
357.08	1023.12
357.307	1024.12
357.534	1046.12
357.761	1046.12
357.988	1048.12
358.215	1085.12
358.441	1033.12
358.668	1013.12
358.895	1043.12
359.122	1017.12
359.349	1040.12
359.576	1033.12
359.802	1066.12
360.029	1055.12
360.256	1045.12
360.483	1053.12
360.709	1039.12
360.936	1059.12
361.163	1038.12
361.39	1034.12
361.616	1021.12
361.843	1031.12
362.07	1056.12
362.296	1006.12
362.523	1066.12
362.749	1049.12
362.976	1057.12
363.203	1037.12
363.429	997.12
363.656	1053.12
363.882	1029.12
364.109	1047.12
364.335	1058.12
364.562	1063.12
364.788	1008.12
365.015	1043.12
365.241	1045.12
365.468	1109.12
365.694	1133.12
365.92	1125.12
366.147	1073.12
366.373	1105.12
366.599	1060.12
366.826	1054.12
367.052	1080.12
367.278	1045.12
367.505	1096.12
367.731	1114.12
367.957	1088.12
368.184	1101.12
368.41	1098.12
368.636	1089.12
368.862	1060.12
369.089	1059.12
369.315	1050.12
369.541	1070.12
369.767	1107.12
369.993	1066.12
370.219	1082.12
370.445	1094.12
370.672	1100.12
370.898	1113.12
371.124	1153.12
371.35	1131.12
371.576	1098.12
371.802	1140.12
372.028	1097.12
372.254	1136.12
372.48	1131.12
372.706	1111.12
372.932	1135.12
373.158	1161.12
373.384	1134.12
373.61	1136.12
373.835	1165.12
374.061	1128.12
374.287	1169.12
374.513	1165.12
374.739	1183.12
374.965	1193.12
375.191	1190.12
375.416	1201.12
375.642	1153.12
375.868	1168.12
376.094	1169.12
376.319	1133.12
376.545	1123.12
376.771	1141.12
376.997	1146.12
377.222	1144.12
377.448	1124.12
377.674	1118.12
377.899	1117.12
378.125	1118.12
378.35	1106.12
378.576	1097.12
378.802	1107.12
379.027	1138.12
379.253	1180.12
379.478	1201.12
379.704	1392.12
379.929	1835.12
380.155	2653.12
380.38	2825.12
380.606	1884.12
380.831	1402.12
381.057	1269.12
381.282	1203.12
381.507	1169.12
381.733	1143.12
381.958	1130.12
382.184	1127.12
382.409	1129.12
382.634	1099.12
382.86	1113.12
383.085	1107.12
383.31	1107.12
383.535	1117.12
383.761	1119.12
383.986	1144.12
384.211	1133.12
384.436	1136.12
384.662	1138.12
384.887	1130.12
385.112	1122.12
385.337	1143.12
385.562	1146.12
385.787	1174.12
386.013	1191.12
386.238	1166.12
386.463	1172.12
386.688	1159.12
386.913	1124.12
387.138	1146.12
387.363	1156.12
387.588	1121.12
387.813	1169.12
388.038	1128.12
388.263	1134.12
388.488	1148.12
388.713	1120.12
388.938	1137.12
389.163	1132.12
389.387	1141.12
389.612	1159.12
389.837	1169.12
390.062	1175.12
390.287	1199.12
390.512	1173.12
390.736	1165.12
390.961	1192.12
391.186	1187.12
391.411	1183.12
391.636	1208.12
391.86	1197.12
392.085	1214.12
392.31	1232.12
392.534	1192.12
392.759	1173.12
392.984	1187.12
393.208	1182.12
393.433	1179.12
393.658	1225.12
393.882	1162.12
394.107	1169.12
394.331	1164.12
394.556	1149.12
394.78	1149.12
395.005	1169.12
395.229	1170.12
395.454	1223.12
395.678	1177.12
395.903	1174.12
396.127	1205.12
396.352	1192.12
396.576	1156.12
396.801	1164.12
397.025	1209.12
397.249	1173.12
397.474	1198.12
397.698	1231.12
397.922	1251.12
398.147	1242.12
398.371	1248.12
398.595	1268.12
398.82	1277.12
399.044	1289.12
399.268	1385.12
399.492	1498.12
399.717	1563.12
399.941	1527.12
400.165	1464.12
400.389	1394.12
400.613	1344.12
400.837	1319.12
401.062	1318.12
401.286	1241.12
401.51	1263.12
401.734	1258.12
401.958	1287.12
402.182	1285.12
402.406	1256.12
402.63	1280.12
402.854	1297.12
403.078	1297.12
403.302	1279.12
403.526	1324.12
403.75	1341.12
403.974	1352.12
404.198	1316.12
404.422	1339.12
404.645	1322.12
404.869	1343.12
405.093	1335.12
405.317	1322.12
405.541	1359.12
405.765	1343.12
405.988	1360.12
406.212	1341.12
406.436	1337.12
406.66	1378.12
406.883	1343.12
407.107	1378.12
407.331	1423.12
407.555	1455.12
407.778	1425.12
408.002	1438.12
408.226	1425.12
408.449	1395.12
408.673	1364.12
408.896	1396.12
409.12	1316.12
409.344	1331.12
409.567	1350.12
409.791	1306.12
410.014	1343.12
410.238	1319.12
410.461	1291.12
410.685	1286.12
410.908	1291.12
411.132	1283.12
411.355	1260.12
411.578	1240.12
411.802	1287.12
412.025	1274.12
412.249	1301.12
412.472	1266.12
412.695	1257.12
412.919	1257.12
413.142	1272.12
413.365	1265.12
413.589	1271.12
413.812	1263.12
414.035	1274.12
414.258	1227.12
414.482	1233.12
414.705	1241.12
414.928	1278.12
415.151	1258.12
415.374	1252.12
415.597	1265.12
415.821	1205.12
416.044	1204.12
416.267	1217.12
416.49	1211.12
416.713	1191.12
416.936	1220.12
417.159	1209.12
417.382	1208.12
417.605	1183.12
417.828	1181.12
418.051	1224.12
418.274	1211.12
418.497	1189.12
418.72	1258.12
418.943	1214.12
419.166	1283.12
419.389	1329.12
419.611	1323.12
419.834	1308.12
420.057	1263.12
420.28	1206.12
420.503	1199.12
420.726	1186.12
420.948	1190.12
421.171	1232.12
421.394	1205.12
421.617	1210.12
421.839	1216.12
422.062	1215.12
422.285	1204.12
422.507	1236.12
422.73	1240.12
422.953	1222.12
423.175	1270.12
423.398	1228.12
423.621	1234.12
423.843	1209.12
424.066	1242.12
424.288	1197.12
424.511	1209.12
424.733	1226.12
424.956	1209.12
425.178	1188.12
425.401	1205.12
425.623	1205.12
425.846	1191.12
426.068	1193.12
426.291	1158.12
426.513	1129.12
426.735	1189.12
426.958	1151.12
427.18	1143.12
427.402	1163.12
427.625	1173.12
427.847	1133.12
428.069	1124.12
428.292	1156.12
428.514	1105.12
428.736	1139.12
428.958	1115.12
429.181	1139.12
429.403	1102.12
429.625	1101.12
429.847	1114.12
430.069	1122.12
430.292	1173.12
430.514	1190.12
430.736	1201.12
430.958	1153.12
431.18	1109.12
431.402	1098.12
431.624	1107.12
431.846	1093.12
432.068	1075.12
432.29	1107.12
432.512	1077.12
432.734	1120.12
432.956	1105.12
433.178	1104.12
433.4	1129.12
433.622	1137.12
433.844	1137.12
434.066	1090.12
434.287	1066.12
434.509	1106.12
434.731	1115.12
434.953	1173.12
435.175	1159.12
435.397	1148.12
435.618	1115.12
435.84	1131.12
436.062	1113.12
436.284	1120.12
436.505	1119.12
436.727	1110.12
436.949	1099.12
437.17	1092.12
437.392	1062.12
437.614	1079.12
437.835	1052.12
438.057	1066.12
438.278	1059.12
438.5	1073.12
438.721	1091.12
438.943	1156.12
439.165	1152.12
439.386	1174.12
439.608	1173.12
439.829	1147.12
440.05	1173.12
440.272	1202.12
440.493	1147.12
440.715	1141.12
440.936	1161.12
441.158	1164.12
441.379	1181.12
441.6	1225.12
441.822	1242.12
442.043	1294.12
442.264	1297.12
442.486	1230.12
442.707	1193.12
442.928	1224.12
443.149	1221.12
443.371	1205.12
443.592	1231.12
443.813	1192.12
444.034	1221.12
444.255	1222.12
444.476	1248.12
444.698	1252.12
444.919	1268.12
445.14	1354.12
445.361	1288.12
445.582	1222.12
445.803	1205.12
446.024	1199.12
446.245	1173.12
446.466	1181.12
446.687	1150.12
446.908	1190.12
447.129	1170.12
447.35	1115.12
447.571	1122.12
447.792	1124.12
448.013	1113.12
448.234	1128.12
448.455	1111.12
448.675	1111.12
448.896	1133.12
449.117	1154.12
449.338	1199.12
449.559	1280.12
449.779	1171.12
450	1104.12
450.221	1115.12
450.442	1100.12
450.662	1056.12
450.883	1061.12
451.104	1065.12
451.324	1085.12
451.545	1062.12
451.766	1096.12
451.986	1075.12
452.207	1132.12
452.428	1333.12
452.648	1732.12
452.869	1571.12
453.089	1206.12
453.31	1143.12
453.53	1186.12
453.751	1212.12
453.971	1222.12
454.192	1204.12
454.412	1110.12
454.633	1083.12
454.853	1055.12
455.073	1012.12
455.294	1039.12
455.514	1029.12
455.734	1023.12
455.955	1010.12
456.175	1037.12
456.395	1016.12
456.616	994.12
456.836	1020.12
457.056	1041.12
457.276	1031.12
457.497	1079.12
457.717	1112.12
457.937	1050.12
458.157	1082.12
458.377	1064.12
458.598	1073.12
458.818	1096.12
459.038	1086.12
459.258	1066.12
459.478	1103.12
459.698	1123.12
459.918	1143.12
460.138	1138.12
460.358	1184.12
460.578	1174.12
460.798	1187.12
461.018	1205.12
461.238	1213.12
461.458	1221.12
461.678	1214.12
461.898	1264.12
462.118	1254.12
462.338	1269.12
462.558	1258.12
462.777	1281.12
462.997	1368.12
463.217	1409.12
463.437	1433.12
463.657	1397.12
463.876	1449.12
464.096	1374.12
464.316	1331.12
464.536	1299.12
464.755	1284.12
464.975	1270.12
465.195	1221.12
465.414	1177.12
465.634	1118.12
465.854	1143.12
466.073	1122.12
466.293	1093.12
466.512	1103.12
466.732	1108.12
466.951	1149.12
467.171	1215.12
467.391	1208.12
467.61	1152.12
467.829	1108.12
468.049	1118.12
468.268	1089.12
468.488	1073.12
468.707	1096.12
468.927	1099.12
469.146	1058.12
469.365	1116.12
469.585	1126.12
469.804	1134.12
470.023	1139.12
470.243	1186.12
470.462	1197.12
470.681	1245.12
470.901	1314.12
471.12	1509.12
471.339	1463.12
471.558	1279.12
471.777	1167.12
471.997	1156.12
472.216	1119.12
472.435	1085.12
472.654	1077.12
472.873	1069.12
473.092	1089.12
473.311	1094.12
473.53	1118.12
473.749	1137.12
473.968	1125.12
474.187	1101.12
474.406	1087.12
474.625	1115.12
474.844	1098.12
475.063	1126.12
475.282	1111.12
475.501	1091.12
475.72	1091.12
475.939	1136.12
476.158	1161.12
476.377	1171.12
476.596	1111.12
476.814	1126.12
477.033	1172.12
477.252	1174.12
477.471	1203.12
477.69	1205.12
477.908	1216.12
478.127	1243.12
478.346	1235.12
478.564	1299.12
478.783	1322.12
479.002	1293.12
479.22	1306.12
479.439	1265.12
479.658	1304.12
479.876	1278.12
480.095	1311.12
480.313	1322.12
480.532	1340.12
480.751	1353.12
480.969	1325.12
481.188	1325.12
481.406	1277.12
481.624	1285.12
481.843	1313.12
482.061	1297.12
482.28	1307.12
482.498	1318.12
482.717	1295.12
482.935	1319.12
483.153	1346.12
483.372	1375.12
483.59	1369.12
483.808	1361.12
484.027	1384.12
484.245	1461.12
484.463	1599.12
484.681	1748.12
484.9	1590.12
485.118	1515.12
485.336	1526.12
485.554	1523.12
485.772	1610.12
485.99	1791.12
486.209	1907.12
486.427	1670.12
486.645	1512.12
486.863	1495.12
487.081	1411.12
487.299	1400.12
487.517	1424.12
487.735	1445.12
487.953	1444.12
488.171	1433.12
488.389	1440.12
488.607	1367.12
488.825	1376.12
489.043	1329.12
489.261	1347.12
489.479	1321.12
489.696	1375.12
489.914	1376.12
490.132	1361.12
490.35	1398.12
490.568	1377.12
490.786	1417.12
491.003	1429.12
491.221	1428.12
491.439	1444.12
491.657	1445.12
491.874	1454.12
492.092	1494.12
492.31	1513.12
492.527	1485.12
492.745	1505.12
492.963	1438.12
493.18	1469.12
493.398	1419.12
493.615	1510.12
493.833	1469.12
494.05	1463.12
494.268	1434.12
494.485	1444.12
494.703	1428.12
494.92	1432.12
495.138	1425.12
495.355	1415.12
495.573	1465.12
495.79	1486.12
496.008	1488.12
496.225	1442.12
496.442	1495.12
496.66	1519.12
496.877	1580.12
497.094	1592.12
497.312	1569.12
497.529	1525.12
497.746	1574.12
497.963	1617.12
498.181	1623.12
498.398	1648.12
498.615	1655.12
498.832	1742.12
499.049	1811.12
499.267	1918.12
499.484	2083.12
499.701	2086.12
499.918	2156.12
500.135	2343.12
500.352	2436.12
500.569	2473.12
500.786	2446.12
501.003	2372.12
501.22	2247.12
501.437	2124.12
501.654	1999.12
501.871	1891.12
502.088	1849.12
502.305	1753.12
502.522	1711.12
502.739	1663.12
502.956	1619.12
503.172	1566.12
503.389	1526.12
503.606	1538.12
503.823	1514.12
504.04	1500.12
504.256	1459.12
504.473	1489.12
504.69	1472.12
504.907	1495.12
505.123	1449.12
505.34	1420.12
505.557	1382.12
505.773	1406.12
505.99	1339.12
506.207	1351.12
506.423	1308.12
506.64	1295.12
506.856	1261.12
507.073	1282.12
507.289	1276.12
507.506	1254.12
507.722	1274.12
507.939	1297.12
508.155	1225.12
508.372	1229.12
508.588	1227.12
508.805	1262.12
509.021	1243.12
509.238	1267.12
509.454	1287.12
509.67	1327.12
509.887	1264.12
510.103	1227.12
510.319	1230.12
510.536	1241.12
510.752	1219.12
510.968	1210.12
511.184	1195.12
511.401	1198.12
511.617	1173.12
511.833	1197.12
512.049	1182.12
512.265	1187.12
512.481	1160.12
512.698	1158.12
512.914	1199.12
513.13	1162.12
513.346	1169.12
513.562	1142.12
513.778	1197.12
513.994	1185.12
514.21	1251.12
514.426	1241.12
514.642	1288.12
514.858	1246.12
515.074	1218.12
515.29	1203.12
515.506	1206.12
515.721	1203.12
515.937	1185.12
516.153	1211.12
516.369	1224.12
516.585	1229.12
516.801	1253.12
517.016	1298.12
517.232	1284.12
517.448	1313.12
517.664	1327.12
517.879	1370.12
518.095	1338.12
518.311	1295.12
518.527	1350.12
518.742	1288.12
518.958	1291.12
519.173	1352.12
519.389	1295.12
519.605	1248.12
519.82	1231.12
520.036	1199.12
520.251	1219.12
520.467	1179.12
520.682	1187.12
520.898	1138.12
521.113	1144.12
521.329	1138.12
521.544	1161.12
521.76	1143.12
521.975	1179.12
522.19	1131.12
522.406	1163.12
522.621	1145.12
522.836	1139.12
523.052	1117.12
523.267	1145.12
523.482	1147.12
523.698	1147.12
523.913	1138.12
524.128	1108.12
524.343	1146.12
524.559	1141.12
524.774	1121.12
524.989	1149.12
525.204	1129.12
525.419	1149.12
525.634	1128.12
525.849	1107.12
526.064	1140.12
526.28	1143.12
526.495	1137.12
526.71	1094.12
526.925	1147.12
527.14	1119.12
527.355	1138.12
527.57	1145.12
527.785	1152.12
527.999	1175.12
528.214	1173.12
528.429	1171.12
528.644	1184.12
528.859	1208.12
529.074	1212.12
529.289	1241.12
529.503	1236.12
529.718	1238.12
529.933	1203.12
530.148	1193.12
530.363	1189.12
530.577	1191.12
530.792	1209.12
531.007	1205.12
531.221	1244.12
531.436	1210.12
531.651	1219.12
531.865	1216.12
532.08	1224.12
532.295	1281.12
532.509	1290.12
532.724	1310.12
532.938	1312.12
533.153	1330.12
533.367	1436.12
533.582	1453.12
533.796	1445.12
534.011	1488.12
534.225	1360.12
534.44	1357.12
534.654	1342.12
534.868	1328.12
535.083	1308.12
535.297	1331.12
535.511	1283.12
535.726	1254.12
535.94	1263.12
536.154	1236.12
536.369	1211.12
536.583	1189.12
536.797	1166.12
537.011	1155.12
537.225	1165.12
537.44	1160.12
537.654	1169.12
537.868	1158.12
538.082	1149.12
538.296	1126.12
538.51	1111.12
538.724	1111.12
538.938	1135.12
539.153	1129.12
539.367	1149.12
539.581	1143.12
539.795	1097.12
540.009	1089.12
540.222	1067.12
540.436	1096.12
540.65	1099.12
540.864	1111.12
541.078	1158.12
541.292	1191.12
541.506	1378.12
541.72	1445.12
541.934	1271.12
542.147	1197.12
542.361	1163.12
542.575	1118.12
542.789	1097.12
543.002	1079.12
543.216	1061.12
543.43	1085.12
543.644	1076.12
543.857	1073.12
544.071	1102.12
544.285	1134.12
544.498	1057.12
544.712	1093.12
544.925	1082.12
545.139	1094.12
545.352	1096.12
545.566	1110.12
545.779	1114.12
545.993	1128.12
546.206	1107.12
546.42	1094.12
546.633	1104.12
546.847	1107.12
547.06	1127.12
547.274	1130.12
547.487	1138.12
547.7	1126.12
547.914	1108.12
548.127	1133.12
548.34	1135.12
548.554	1112.12
548.767	1081.12
548.98	1074.12
549.193	1099.12
549.407	1094.12
549.62	1103.12
549.833	1138.12
550.046	1127.12
550.259	1118.12
550.473	1090.12
550.686	1134.12
550.899	1119.12
551.112	1119.12
551.325	1108.12
551.538	1104.12
551.751	1094.12
551.964	1074.12
552.177	1104.12
552.39	1107.12
552.603	1147.12
552.816	1142.12
553.029	1201.12
553.242	1213.12
553.455	1176.12
553.667	1217.12
553.88	1208.12
554.093	1244.12
554.306	1205.12
554.519	1195.12
554.732	1223.12
554.944	1246.12
555.157	1265.12
555.37	1245.12
555.583	1331.12
555.795	1360.12
556.008	1455.12
556.221	1519.12
556.433	1577.12
556.646	1602.12
556.859	1563.12
557.071	1515.12
557.284	1526.12
557.496	1483.12
557.709	1459.12
557.921	1454.12
558.134	1427.12
558.346	1481.12
558.559	1509.12
558.771	1554.12
558.984	1669.12
559.196	1718.12
559.409	1669.12
559.621	1572.12
559.833	1533.12
560.046	1463.12
560.258	1440.12
560.47	1361.12
560.683	1331.12
560.895	1286.12
561.107	1239.12
561.32	1205.12
561.532	1189.12
561.744	1170.12
561.956	1173.12
562.168	1125.12
562.381	1113.12
562.593	1115.12
562.805	1111.12
563.017	1087.12
563.229	1118.12
563.441	1204.12
563.653	1108.12
563.865	1045.12
564.077	1057.12
564.289	1033.12
564.501	1035.12
564.713	1004.12
564.925	1029.12
565.137	1024.12
565.349	1015.12
565.561	1014.12
565.773	1029.12
565.985	1038.12
566.197	1069.12
566.408	1053.12
566.62	1102.12
566.832	1130.12
567.044	1135.12
567.255	1139.12
567.467	1133.12
567.679	1158.12
567.891	1223.12
568.102	1351.12
568.314	1484.12
568.526	1293.12
568.737	1145.12
568.949	1052.12
569.161	1005.12
569.372	955.12
569.584	938.12
569.795	921.12
570.007	897.12
570.218	906.12
570.43	917.12
570.641	872.12
570.853	880.12
571.064	846.12
571.276	857.12
571.487	803.12
571.698	817.12
571.91	815.12
572.121	817.12
572.333	811.12
572.544	811.12
572.755	842.12
572.966	951.12
573.178	907.12
573.389	834.12
573.6	791.12
573.811	763.12
574.023	774.12
574.234	769.12
574.445	717.12
574.656	725.12
574.867	744.12
575.078	732.12
575.289	754.12
575.501	723.12
575.712	752.12
575.923	736.12
576.134	728.12
576.345	746.12
576.556	741.12
576.767	721.12
576.978	767.12
577.188	740.12
577.399	744.12
577.61	750.12
577.821	751.12
578.032	746.12
578.243	752.12
578.454	782.12
578.665	785.12
578.875	814.12
579.086	829.12
579.297	851.12
579.508	899.12
579.718	936.12
579.929	1041.12
580.14	1103.12
580.35	1130.12
580.561	1121.12
580.772	1017.12
580.982	999.12
581.193	966.12
581.403	933.12
581.614	889.12
581.825	881.12
582.035	797.12
582.246	787.12
582.456	769.12
582.667	774.12
582.877	725.12
583.087	731.12
583.298	708.12
583.508	715.12
583.719	679.12
583.929	666.12
584.139	645.12
584.35	671.12
584.56	655.12
584.77	639.12
584.981	634.12
585.191	637.12
585.401	607.12
585.611	587.12
585.821	581.12
586.032	607.12
586.242	581.12
586.452	596.12
586.662	580.12
586.872	565.12
587.082	583.12
587.292	590.12
587.502	569.12
587.713	573.12
587.923	546.12
588.133	576.12
588.343	563.12
588.553	542.12
588.762	552.12
588.972	542.12
589.182	547.12
589.392	535.12
589.602	524.12
589.812	533.12
590.022	529.12
590.232	542.12
590.441	532.12
590.651	533.12
590.861	531.12
591.071	512.12
591.281	522.12
591.49	561.12
591.7	542.12
591.91	554.12
592.119	513.12
592.329	541.12
592.539	568.12
592.748	551.12
592.958	578.12
593.167	542.12
593.377	553.12
593.587	604.12
593.796	564.12
594.006	599.12
594.215	565.12
594.424	551.12
594.634	543.12
594.843	567.12
595.053	545.12
595.262	520.12
595.472	517.12
595.681	523.12
595.89	501.12
596.1	515.12
596.309	509.12
596.518	493.12
596.727	488.12
596.937	481.12
597.146	459.12
597.355	470.12
597.564	458.12
597.774	473.12
597.983	444.12
598.192	453.12
598.401	471.12
598.61	457.12
598.819	442.12
599.028	455.12
599.237	441.12
599.446	444.12
599.655	453.12
599.864	449.12
600.073	433.12
600.282	450.12
600.491	443.12
600.7	461.12
600.909	436.12
601.118	434.12
601.327	424.12
601.536	455.12
601.745	463.12
601.953	461.12
602.162	537.12
602.371	471.12
602.58	473.12
602.789	447.12
602.997	434.12
603.206	445.12
603.415	465.12
603.623	433.12
603.832	430.12
604.041	455.12
604.249	427.12
604.458	404.12
604.666	426.12
604.875	407.12
605.084	411.12
605.292	427.12
605.501	431.12
605.709	453.12
605.918	436.12
606.126	439.12
606.334	444.12
606.543	447.12
606.751	437.12
606.96	516.12
607.168	560.12
607.376	487.12
607.585	462.12
607.793	441.12
608.001	421.12
608.21	414.12
608.418	426.12
608.626	427.12
608.834	403.12
609.043	415.12
609.251	403.12
609.459	393.12
609.667	410.12
609.875	415.12
610.083	414.12
610.291	391.12
610.499	399.12
610.707	406.12
610.916	390.12
611.124	402.12
611.332	390.12
611.54	376.12
611.748	396.12
611.955	399.12
612.163	391.12
612.371	396.12
612.579	384.12
612.787	397.12
612.995	413.12
613.203	394.12
613.411	401.12
613.618	375.12
613.826	403.12
614.034	381.12
614.242	393.12
614.449	388.12
614.657	394.12
614.865	385.12
615.072	393.12
615.28	398.12
615.488	401.12
615.695	379.12
615.903	381.12
616.111	384.12
616.318	397.12
616.526	383.12
616.733	398.12
616.941	381.12
617.148	374.12
617.356	363.12
617.563	379.12
617.771	375.12
617.978	368.12
618.185	374.12
618.393	374.12
618.6	381.12
618.807	372.12
619.015	377.12
619.222	363.12
619.429	356.12
619.637	369.12
619.844	347.12
620.051	353.12
620.258	354.12
620.466	350.12
620.673	349.12
620.88	339.12
621.087	349.12
621.294	332.12
621.501	348.12
621.708	353.12
621.915	331.12
622.122	347.12
622.329	343.12
622.536	365.12
622.743	335.12
622.95	365.12
623.157	343.12
623.364	358.12
623.571	342.12
623.778	337.12
623.985	323.12
624.192	342.12
624.399	345.12
624.606	326.12
624.812	324.12
625.019	314.12
625.226	318.12
625.433	341.12
625.639	325.12
625.846	322.12
626.053	306.12
626.259	315.12
626.466	322.12
626.673	313.12
626.879	314.12
627.086	320.12
627.293	308.12
627.499	316.12
627.706	321.12
627.912	317.12
628.119	336.12
628.325	323.12
628.532	316.12
628.738	338.12
628.945	309.12
629.151	299.12
629.357	313.12
629.564	310.12
629.77	311.12
629.976	319.12
630.183	303.12
630.389	298.12
630.595	311.12
630.802	303.12
631.008	291.12
631.214	321.12
631.42	306.12
631.627	298.12
631.833	298.12
632.039	287.12
632.245	301.12
632.451	289.12
632.657	305.12
632.863	322.12
633.069	296.12
633.275	291.12
633.481	279.12
633.688	297.12
633.893	293.12
634.099	284.12
634.305	289.12
634.511	287.12
634.717	305.12
634.923	286.12
635.129	348.12
635.335	375.12
635.541	330.12
635.747	313.12
635.952	303.12
636.158	300.12
636.364	285.12
636.57	278.12
636.775	317.12
636.981	295.12
637.187	308.12
637.392	306.12
637.598	290.12
637.804	310.12
638.009	291.12
638.215	275.12
638.421	299.12
638.626	288.12
638.832	292.12
639.037	309.12
639.243	308.12
639.448	297.12
639.654	308.12
639.859	280.12
640.065	315.12
640.27	308.12
640.475	294.12
640.681	285.12
640.886	300.12
641.091	304.12
641.297	313.12
641.502	312.12
641.707	318.12
641.913	321.12
642.118	316.12
642.323	355.12
642.528	347.12
642.733	331.12
642.939	350.12
643.144	341.12
643.349	365.12
643.554	360.12
643.759	381.12
643.964	391.12
644.169	404.12
644.374	406.12
644.579	431.12
644.784	511.12
644.989	531.12
645.194	581.12
645.399	675.12
645.604	679.12
645.809	582.12
646.014	483.12
646.219	413.12
646.423	393.12
646.628	342.12
646.833	352.12
647.038	325.12
647.243	323.12
647.447	335.12
647.652	309.12
647.857	307.12
648.062	288.12
648.266	286.12
648.471	267.12
648.676	288.12
648.88	277.12
649.085	273.12
649.289	266.12
649.494	261.12
649.698	271.12
649.903	249.12
650.107	262.12
650.312	245.12
650.516	249.12
650.721	255.12
650.925	244.12
651.13	225.12
651.334	237.12
651.539	234.12
651.743	241.12
651.947	226.12
652.152	209.12
652.356	226.12
652.56	229.12
652.764	247.12
652.969	228.12
653.173	224.12
653.377	227.12
653.581	208.12
653.785	224.12
653.99	206.12
654.194	197.12
654.398	209.12
654.602	204.12
654.806	197.12
655.01	210.12
655.214	211.12
655.418	199.12
655.622	185.12
655.826	211.12
656.03	205.12
656.234	206.12
656.438	218.12
656.642	217.12
656.846	223.12
657.049	210.12
657.253	209.12
657.457	190.12
657.661	168.12
657.865	177.12
658.068	170.12
658.272	145.12
658.476	153.12
658.68	142.12
658.883	131.12
659.087	143.12
659.291	126.12
659.494	126.12
659.698	129.12
659.901	113.12
660.105	127.12
660.309	107.12
660.512	117.12
660.716	120.12
660.919	129.12
661.123	108.12
661.326	115.12
661.53	113.12
661.733	102.12
661.936	96.12
662.14	99.12
662.343	100.12
662.546	82.12
662.75	97.12
662.953	97.12
663.156	93.12
663.36	98.12
663.563	97.12
663.766	75.12
663.969	90.12
664.173	76.12
664.376	81.12
664.579	82.12
664.782	90.12
664.985	78.12
665.188	74.12
665.391	83.12
665.594	87.12
665.797	87.12
666	109.12
666.203	80.12
666.406	71.12
666.609	86.12
666.812	71.12
667.015	75.12
667.218	85.12
667.421	76.12
667.624	90.12
667.827	78.12
668.03	77.12
668.232	73.12
668.435	71.12
668.638	78.12
668.841	89.12
669.043	74.12
669.246	86.12
669.449	79.12
669.651	79.12
669.854	82.12
670.057	73.12
670.259	73.12
670.462	75.12
670.665	81.12
670.867	62.12
671.07	81.12
671.272	79.12
671.475	69.12
671.677	83.12
671.88	72.12
672.082	75.12
672.284	71.12
672.487	85.12
672.689	80.12
672.892	84.12
