Data from SnStandardFlinnAPT0064_LampEnergy5.5_LIBS07252019.E.O._I.C._HRD10591_15-16-13-492.txt Node
Date: Thu Jul 25 15:16:13 EDT 2019
User: cochatt
Spectrometer: HR+D1059
Trigger mode: 1
Integration Time (sec): 1.000000E-1
Scans to average: 1
Electric dark correction enabled: true
Nonlinearity correction enabled: false
Boxcar width: 0
XAxis mode: Wavelengths
Number of Pixels in Spectrum: 2048
>>>>>Begin Spectral Data<<<<<
223.165	-3.12
223.4	-3.12
223.635	-3.12
223.869	-12.12
224.104	-23.12
224.338	-13.12
224.573	-21.12
224.808	-21.12
225.042	0.88
225.277	-3.12
225.511	8.88
225.746	4.88
225.98	5.88
226.215	10.88
226.449	11.88
226.683	15.88
226.918	17.88
227.152	19.88
227.387	34.88
227.621	33.88
227.856	51.88
228.09	41.88
228.324	47.88
228.559	61.88
228.793	91.88
229.027	154.88
229.262	176.88
229.496	152.88
229.73	163.88
229.964	147.88
230.199	144.88
230.433	147.88
230.667	173.88
230.901	164.88
231.136	169.88
231.37	160.88
231.604	200.88
231.838	207.88
232.072	240.88
232.306	236.88
232.541	215.88
232.775	212.88
233.009	193.88
233.243	204.88
233.477	227.88
233.711	247.88
233.945	257.88
234.179	246.88
234.413	220.88
234.647	231.88
234.881	230.88
235.115	251.88
235.349	287.88
235.583	338.88
235.817	450.88
236.051	434.88
236.285	284.88
236.519	249.88
236.753	236.88
236.987	225.88
237.221	234.88
237.455	240.88
237.689	231.88
237.922	215.88
238.156	231.88
238.39	223.88
238.624	235.88
238.858	220.88
239.091	244.88
239.325	250.88
239.559	234.88
239.793	244.88
240.027	245.88
240.26	260.88
240.494	248.88
240.728	263.88
240.961	281.88
241.195	289.88
241.429	300.88
241.662	307.88
241.896	327.88
242.13	399.88
242.363	491.88
242.597	626.88
242.83	639.88
243.064	634.88
243.298	740.88
243.531	615.88
243.765	397.88
243.998	323.88
244.232	315.88
244.465	308.88
244.699	287.88
244.932	291.88
245.166	308.88
245.399	303.88
245.633	328.88
245.866	311.88
246.099	331.88
246.333	298.88
246.566	299.88
246.8	296.88
247.033	289.88
247.266	306.88
247.5	289.88
247.733	316.88
247.966	326.88
248.2	346.88
248.433	367.88
248.666	407.88
248.899	377.88
249.133	355.88
249.366	379.88
249.599	393.88
249.832	440.88
250.066	444.88
250.299	367.88
250.532	347.88
250.765	351.88
250.998	342.88
251.231	331.88
251.465	330.88
251.698	320.88
251.931	347.88
252.164	335.88
252.397	340.88
252.63	355.88
252.863	344.88
253.096	347.88
253.329	345.88
253.562	355.88
253.795	359.88
254.028	349.88
254.261	369.88
254.494	373.88
254.727	443.88
254.96	501.88
255.193	491.88
255.426	387.88
255.659	370.88
255.892	394.88
256.124	376.88
256.357	379.88
256.59	375.88
256.823	417.88
257.056	465.88
257.289	550.88
257.521	577.88
257.754	492.88
257.987	404.88
258.22	402.88
258.452	403.88
258.685	427.88
258.918	440.88
259.151	436.88
259.383	457.88
259.616	496.88
259.849	515.88
260.081	483.88
260.314	448.88
260.547	435.88
260.779	422.88
261.012	422.88
261.244	420.88
261.477	449.88
261.71	437.88
261.942	465.88
262.175	453.88
262.407	482.88
262.64	479.88
262.872	481.88
263.105	495.88
263.337	535.88
263.57	560.88
263.802	557.88
264.035	556.88
264.267	592.88
264.499	595.88
264.732	615.88
264.964	625.88
265.197	618.88
265.429	625.88
265.661	648.88
265.894	708.88
266.126	743.88
266.358	821.88
266.591	776.88
266.823	722.88
267.055	643.88
267.287	599.88
267.52	591.88
267.752	580.88
267.984	558.88
268.216	552.88
268.448	556.88
268.681	559.88
268.913	561.88
269.145	540.88
269.377	540.88
269.609	547.88
269.841	573.88
270.073	609.88
270.306	675.88
270.538	893.88
270.77	1310.88
271.002	1535.88
271.234	1101.88
271.466	725.88
271.698	635.88
271.93	607.88
272.162	573.88
272.394	540.88
272.626	545.88
272.858	521.88
273.09	533.88
273.322	535.88
273.553	525.88
273.785	515.88
274.017	527.88
274.249	533.88
274.481	544.88
274.713	535.88
274.945	516.88
275.176	545.88
275.408	526.88
275.64	536.88
275.872	530.88
276.104	548.88
276.335	535.88
276.567	552.88
276.799	560.88
277.031	587.88
277.262	562.88
277.494	608.88
277.726	641.88
277.957	755.88
278.189	797.88
278.421	745.88
278.652	709.88
278.884	649.88
279.115	613.88
279.347	596.88
279.579	593.88
279.81	611.88
280.042	595.88
280.273	606.88
280.505	637.88
280.736	628.88
280.968	657.88
281.199	717.88
281.431	775.88
281.662	787.88
281.894	704.88
282.125	680.88
282.356	667.88
282.588	679.88
282.819	708.88
283.051	740.88
283.282	820.88
283.513	987.88
283.745	1436.88
283.976	2257.88
284.207	3172.88
284.439	2815.88
284.67	1701.88
284.901	1390.88
285.132	1340.88
285.364	1281.88
285.595	1027.88
285.826	965.88
286.057	1144.88
286.288	1517.88
286.52	2043.88
286.751	1882.88
286.982	1168.88
287.213	872.88
287.444	774.88
287.675	767.88
287.906	741.88
288.138	712.88
288.369	701.88
288.6	714.88
288.831	704.88
289.062	698.88
289.293	702.88
289.524	705.88
289.755	724.88
289.986	715.88
290.217	745.88
290.448	728.88
290.679	706.88
290.91	715.88
291.141	767.88
291.371	807.88
291.602	807.88
291.833	791.88
292.064	714.88
292.295	707.88
292.526	688.88
292.757	677.88
292.987	672.88
293.218	672.88
293.449	689.88
293.68	689.88
293.91	680.88
294.141	673.88
294.372	660.88
294.603	660.88
294.833	657.88
295.064	696.88
295.295	692.88
295.525	660.88
295.756	670.88
295.987	667.88
296.217	684.88
296.448	662.88
296.679	668.88
296.909	651.88
297.14	677.88
297.37	672.88
297.601	674.88
297.831	662.88
298.062	684.88
298.292	717.88
298.523	679.88
298.753	715.88
298.984	747.88
299.214	706.88
299.445	728.88
299.675	726.88
299.905	752.88
300.136	792.88
300.366	896.88
300.597	1068.88
300.827	1478.88
301.057	2001.88
301.288	1976.88
301.518	1300.88
301.748	1015.88
301.979	941.88
302.209	882.88
302.439	889.88
302.669	973.88
302.9	1157.88
303.13	1598.88
303.36	2287.88
303.59	3114.88
303.82	2705.88
304.051	1595.88
304.281	1168.88
304.511	977.88
304.741	955.88
304.971	898.88
305.201	871.88
305.431	838.88
305.661	797.88
305.891	807.88
306.121	754.88
306.352	792.88
306.582	792.88
306.812	785.88
307.042	766.88
307.272	783.88
307.502	760.88
307.731	774.88
307.961	777.88
308.191	753.88
308.421	778.88
308.651	766.88
308.881	767.88
309.111	774.88
309.341	788.88
309.571	772.88
309.8	799.88
310.03	801.88
310.26	786.88
310.49	803.88
310.72	799.88
310.949	792.88
311.179	781.88
311.409	818.88
311.639	805.88
311.868	804.88
312.098	833.88
312.328	823.88
312.557	848.88
312.787	827.88
313.017	845.88
313.246	856.88
313.476	853.88
313.706	885.88
313.935	882.88
314.165	949.88
314.394	982.88
314.624	930.88
314.853	901.88
315.083	875.88
315.312	893.88
315.542	903.88
315.771	899.88
316.001	951.88
316.23	954.88
316.46	989.88
316.689	1080.88
316.919	1274.88
317.148	1859.88
317.377	2811.88
317.607	4070.88
317.836	4177.88
318.065	2436.88
318.295	1606.88
318.524	1289.88
318.753	1157.88
318.983	1095.88
319.212	1011.88
319.441	1020.88
319.67	975.88
319.9	982.88
320.129	976.88
320.358	960.88
320.587	945.88
320.816	970.88
321.046	975.88
321.275	956.88
321.504	989.88
321.733	1013.88
321.962	1009.88
322.191	1019.88
322.42	1005.88
322.649	1008.88
322.878	1024.88
323.108	1041.88
323.337	1036.88
323.566	1056.88
323.795	1067.88
324.024	1098.88
324.253	1116.88
324.482	1160.88
324.71	1235.88
324.939	1282.88
325.168	1308.88
325.397	1331.88
325.626	1553.88
325.855	2179.88
326.084	3374.88
326.313	5052.88
326.542	5303.88
326.77	3314.88
326.999	2229.88
327.228	1876.88
327.457	1778.88
327.686	1817.88
327.914	1940.88
328.143	2214.88
328.372	2548.88
328.6	2743.88
328.829	2563.88
329.058	2169.88
329.287	1962.88
329.515	1839.88
329.744	1678.88
329.972	1630.88
330.201	1536.88
330.43	1465.88
330.658	1450.88
330.887	1434.88
331.115	1419.88
331.344	1413.88
331.572	1386.88
331.801	1374.88
332.03	1402.88
332.258	1433.88
332.486	1533.88
332.715	1736.88
332.943	2022.88
333.172	2476.88
333.4	2441.88
333.629	1948.88
333.857	1777.88
334.085	1781.88
334.314	1825.88
334.542	1960.88
334.771	2252.88
334.999	2690.88
335.227	3300.88
335.455	3651.88
335.684	3361.88
335.912	2904.88
336.14	2511.88
336.369	2262.88
336.597	2079.88
336.825	1932.88
337.053	1803.88
337.281	1677.88
337.51	1613.88
337.738	1550.88
337.966	1500.88
338.194	1469.88
338.422	1407.88
338.65	1363.88
338.878	1376.88
339.106	1347.88
339.334	1347.88
339.562	1314.88
339.79	1275.88
340.018	1264.88
340.246	1242.88
340.474	1253.88
340.702	1240.88
340.93	1257.88
341.158	1217.88
341.386	1228.88
341.614	1229.88
341.842	1204.88
342.07	1177.88
342.298	1215.88
342.526	1182.88
342.754	1145.88
342.981	1148.88
343.209	1135.88
343.437	1180.88
343.665	1169.88
343.893	1183.88
344.12	1205.88
344.348	1183.88
344.576	1132.88
344.804	1119.88
345.031	1121.88
345.259	1095.88
345.487	1096.88
345.714	1079.88
345.942	1078.88
346.17	1074.88
346.397	1051.88
346.625	1066.88
346.853	1067.88
347.08	1051.88
347.308	1049.88
347.535	1076.88
347.763	1038.88
347.99	1041.88
348.218	1052.88
348.445	1057.88
348.673	1050.88
348.9	1046.88
349.128	1050.88
349.355	1029.88
349.583	1047.88
349.81	1018.88
350.037	996.88
350.265	1021.88
350.492	1025.88
350.72	1002.88
350.947	1001.88
351.174	993.88
351.402	1021.88
351.629	1035.88
351.856	1035.88
352.083	1028.88
352.311	998.88
352.538	1041.88
352.765	1043.88
352.992	1019.88
353.22	1009.88
353.447	1025.88
353.674	1010.88
353.901	1007.88
354.128	1021.88
354.355	1016.88
354.583	1004.88
354.81	1031.88
355.037	1040.88
355.264	1031.88
355.491	1015.88
355.718	1002.88
355.945	1043.88
356.172	1023.88
356.399	1033.88
356.626	1052.88
356.853	1035.88
357.08	1059.88
357.307	1084.88
357.534	1077.88
357.761	1094.88
357.988	1103.88
358.215	1068.88
358.441	1095.88
358.668	1088.88
358.895	1092.88
359.122	1067.88
359.349	1075.88
359.576	1048.88
359.802	1081.88
360.029	1079.88
360.256	1084.88
360.483	1113.88
360.709	1080.88
360.936	1073.88
361.163	1065.88
361.39	1066.88
361.616	1088.88
361.843	1093.88
362.07	1104.88
362.296	1069.88
362.523	1091.88
362.749	1074.88
362.976	1092.88
363.203	1119.88
363.429	1080.88
363.656	1088.88
363.882	1077.88
364.109	1102.88
364.335	1076.88
364.562	1058.88
364.788	1073.88
365.015	1113.88
365.241	1139.88
365.468	1138.88
365.694	1185.88
365.92	1152.88
366.147	1119.88
366.373	1098.88
366.599	1104.88
366.826	1113.88
367.052	1130.88
367.278	1107.88
367.505	1092.88
367.731	1113.88
367.957	1114.88
368.184	1105.88
368.41	1155.88
368.636	1140.88
368.862	1107.88
369.089	1117.88
369.315	1149.88
369.541	1143.88
369.767	1141.88
369.993	1123.88
370.219	1137.88
370.445	1147.88
370.672	1128.88
370.898	1181.88
371.124	1144.88
371.35	1155.88
371.576	1151.88
371.802	1141.88
372.028	1168.88
372.254	1180.88
372.48	1200.88
372.706	1183.88
372.932	1203.88
373.158	1192.88
373.384	1179.88
373.61	1212.88
373.835	1187.88
374.061	1202.88
374.287	1228.88
374.513	1191.88
374.739	1208.88
374.965	1213.88
375.191	1235.88
375.416	1233.88
375.642	1228.88
375.868	1208.88
376.094	1189.88
376.319	1183.88
376.545	1189.88
376.771	1181.88
376.997	1192.88
377.222	1159.88
377.448	1148.88
377.674	1157.88
377.899	1152.88
378.125	1144.88
378.35	1154.88
378.576	1199.88
378.802	1178.88
379.027	1187.88
379.253	1204.88
379.478	1236.88
379.704	1457.88
379.929	2069.88
380.155	2946.88
380.38	3172.88
380.606	1997.88
380.831	1483.88
381.057	1292.88
381.282	1236.88
381.507	1188.88
381.733	1181.88
381.958	1153.88
382.184	1181.88
382.409	1124.88
382.634	1132.88
382.86	1152.88
383.085	1177.88
383.31	1170.88
383.535	1117.88
383.761	1134.88
383.986	1165.88
384.211	1174.88
384.436	1196.88
384.662	1206.88
384.887	1210.88
385.112	1194.88
385.337	1207.88
385.562	1199.88
385.787	1192.88
386.013	1183.88
386.238	1223.88
386.463	1226.88
386.688	1201.88
386.913	1178.88
387.138	1189.88
387.363	1212.88
387.588	1203.88
387.813	1177.88
388.038	1177.88
388.263	1181.88
388.488	1193.88
388.713	1191.88
388.938	1191.88
389.163	1180.88
389.387	1187.88
389.612	1200.88
389.837	1209.88
390.062	1201.88
390.287	1219.88
390.512	1215.88
390.736	1229.88
390.961	1246.88
391.186	1230.88
391.411	1238.88
391.636	1263.88
391.86	1276.88
392.085	1243.88
392.31	1237.88
392.534	1229.88
392.759	1253.88
392.984	1220.88
393.208	1252.88
393.433	1286.88
393.658	1242.88
393.882	1233.88
394.107	1213.88
394.331	1211.88
394.556	1224.88
394.78	1245.88
395.005	1240.88
395.229	1209.88
395.454	1242.88
395.678	1248.88
395.903	1225.88
396.127	1197.88
396.352	1228.88
396.576	1243.88
396.801	1240.88
397.025	1287.88
397.249	1291.88
397.474	1248.88
397.698	1224.88
397.922	1260.88
398.147	1269.88
398.371	1319.88
398.595	1337.88
398.82	1308.88
399.044	1399.88
399.268	1425.88
399.492	1546.88
399.717	1569.88
399.941	1580.88
400.165	1553.88
400.389	1495.88
400.613	1437.88
400.837	1385.88
401.062	1347.88
401.286	1323.88
401.51	1339.88
401.734	1328.88
401.958	1352.88
402.182	1288.88
402.406	1348.88
402.63	1337.88
402.854	1367.88
403.078	1345.88
403.302	1359.88
403.526	1369.88
403.75	1401.88
403.974	1371.88
404.198	1365.88
404.422	1393.88
404.645	1391.88
404.869	1364.88
405.093	1399.88
405.317	1381.88
405.541	1362.88
405.765	1403.88
405.988	1377.88
406.212	1386.88
406.436	1404.88
406.66	1459.88
406.883	1394.88
407.107	1455.88
407.331	1500.88
407.555	1503.88
407.778	1523.88
408.002	1449.88
408.226	1451.88
408.449	1446.88
408.673	1400.88
408.896	1431.88
409.12	1377.88
409.344	1388.88
409.567	1360.88
409.791	1408.88
410.014	1362.88
410.238	1372.88
410.461	1384.88
410.685	1329.88
410.908	1341.88
411.132	1356.88
411.355	1302.88
411.578	1311.88
411.802	1308.88
412.025	1318.88
412.249	1325.88
412.472	1323.88
412.695	1297.88
412.919	1301.88
413.142	1311.88
413.365	1263.88
413.589	1325.88
413.812	1259.88
414.035	1295.88
414.258	1272.88
414.482	1259.88
414.705	1291.88
414.928	1305.88
415.151	1289.88
415.374	1297.88
415.597	1267.88
415.821	1283.88
416.044	1286.88
416.267	1243.88
416.49	1249.88
416.713	1254.88
416.936	1277.88
417.159	1255.88
417.382	1252.88
417.605	1207.88
417.828	1195.88
418.051	1254.88
418.274	1279.88
418.497	1239.88
418.72	1318.88
418.943	1228.88
419.166	1316.88
419.389	1401.88
419.611	1354.88
419.834	1354.88
420.057	1331.88
420.28	1258.88
420.503	1229.88
420.726	1252.88
420.948	1248.88
421.171	1236.88
421.394	1277.88
421.617	1250.88
421.839	1268.88
422.062	1246.88
422.285	1239.88
422.507	1285.88
422.73	1295.88
422.953	1279.88
423.175	1323.88
423.398	1277.88
423.621	1261.88
423.843	1264.88
424.066	1249.88
424.288	1248.88
424.511	1232.88
424.733	1283.88
424.956	1260.88
425.178	1251.88
425.401	1185.88
425.623	1242.88
425.846	1213.88
426.068	1229.88
426.291	1201.88
426.513	1184.88
426.735	1185.88
426.958	1202.88
427.18	1201.88
427.402	1175.88
427.625	1177.88
427.847	1168.88
428.069	1172.88
428.292	1193.88
428.514	1154.88
428.736	1161.88
428.958	1173.88
429.181	1127.88
429.403	1158.88
429.625	1151.88
429.847	1169.88
430.069	1175.88
430.292	1207.88
430.514	1256.88
430.736	1229.88
430.958	1165.88
431.18	1155.88
431.402	1151.88
431.624	1168.88
431.846	1141.88
432.068	1118.88
432.29	1163.88
432.512	1128.88
432.734	1149.88
432.956	1179.88
433.178	1176.88
433.4	1179.88
433.622	1159.88
433.844	1155.88
434.066	1174.88
434.287	1157.88
434.509	1131.88
434.731	1183.88
434.953	1180.88
435.175	1191.88
435.397	1167.88
435.618	1172.88
435.84	1137.88
436.062	1170.88
436.284	1151.88
436.505	1162.88
436.727	1153.88
436.949	1157.88
437.17	1153.88
437.392	1136.88
437.614	1132.88
437.835	1085.88
438.057	1090.88
438.278	1100.88
438.5	1125.88
438.721	1144.88
438.943	1150.88
439.165	1202.88
439.386	1190.88
439.608	1187.88
439.829	1209.88
440.05	1214.88
440.272	1283.88
440.493	1234.88
440.715	1192.88
440.936	1207.88
441.158	1186.88
441.379	1227.88
441.6	1225.88
441.822	1292.88
442.043	1320.88
442.264	1376.88
442.486	1279.88
442.707	1244.88
442.928	1211.88
443.149	1222.88
443.371	1229.88
443.592	1226.88
443.813	1227.88
444.034	1277.88
444.255	1291.88
444.476	1295.88
444.698	1351.88
444.919	1356.88
445.14	1387.88
445.361	1317.88
445.582	1293.88
445.803	1265.88
446.024	1239.88
446.245	1239.88
446.466	1236.88
446.687	1223.88
446.908	1208.88
447.129	1222.88
447.35	1185.88
447.571	1142.88
447.792	1150.88
448.013	1119.88
448.234	1148.88
448.455	1153.88
448.675	1164.88
448.896	1149.88
449.117	1195.88
449.338	1272.88
449.559	1331.88
449.779	1219.88
450	1130.88
450.221	1129.88
450.442	1139.88
450.662	1123.88
450.883	1126.88
451.104	1100.88
451.324	1089.88
451.545	1111.88
451.766	1109.88
451.986	1110.88
452.207	1213.88
452.428	1418.88
452.648	1951.88
452.869	1690.88
453.089	1240.88
453.31	1203.88
453.53	1228.88
453.751	1243.88
453.971	1316.88
454.192	1297.88
454.412	1123.88
454.633	1101.88
454.853	1085.88
455.073	1079.88
455.294	1040.88
455.514	1065.88
455.734	1082.88
455.955	1062.88
456.175	1036.88
456.395	1040.88
456.616	1037.88
456.836	1043.88
457.056	1062.88
457.276	1063.88
457.497	1132.88
457.717	1132.88
457.937	1109.88
458.157	1090.88
458.377	1120.88
458.598	1101.88
458.818	1113.88
459.038	1100.88
459.258	1120.88
459.478	1138.88
459.698	1171.88
459.918	1152.88
460.138	1194.88
460.358	1227.88
460.578	1259.88
460.798	1239.88
461.018	1268.88
461.238	1237.88
461.458	1261.88
461.678	1297.88
461.898	1316.88
462.118	1299.88
462.338	1308.88
462.558	1314.88
462.777	1371.88
462.997	1413.88
463.217	1448.88
463.437	1506.88
463.657	1541.88
463.876	1491.88
464.096	1431.88
464.316	1405.88
464.536	1351.88
464.755	1299.88
464.975	1299.88
465.195	1248.88
465.414	1253.88
465.634	1210.88
465.854	1198.88
466.073	1165.88
466.293	1167.88
466.512	1167.88
466.732	1174.88
466.951	1220.88
467.171	1284.88
467.391	1289.88
467.61	1161.88
467.829	1140.88
468.049	1124.88
468.268	1139.88
468.488	1112.88
468.707	1109.88
468.927	1143.88
469.146	1100.88
469.365	1143.88
469.585	1155.88
469.804	1184.88
470.023	1203.88
470.243	1170.88
470.462	1239.88
470.681	1291.88
470.901	1387.88
471.12	1597.88
471.339	1583.88
471.558	1358.88
471.777	1249.88
471.997	1233.88
472.216	1139.88
472.435	1134.88
472.654	1127.88
472.873	1115.88
473.092	1138.88
473.311	1117.88
473.53	1139.88
473.749	1167.88
473.968	1220.88
474.187	1161.88
474.406	1111.88
474.625	1120.88
474.844	1160.88
475.063	1153.88
475.282	1141.88
475.501	1137.88
475.72	1162.88
475.939	1157.88
476.158	1164.88
476.377	1219.88
476.596	1170.88
476.814	1185.88
477.033	1168.88
477.252	1184.88
477.471	1237.88
477.69	1274.88
477.908	1254.88
478.127	1301.88
478.346	1313.88
478.564	1306.88
478.783	1347.88
479.002	1353.88
479.22	1346.88
479.439	1362.88
479.658	1319.88
479.876	1357.88
480.095	1342.88
480.313	1373.88
480.532	1402.88
480.751	1382.88
480.969	1343.88
481.188	1360.88
481.406	1343.88
481.624	1328.88
481.843	1362.88
482.061	1342.88
482.28	1382.88
482.498	1306.88
482.717	1350.88
482.935	1375.88
483.153	1359.88
483.372	1396.88
483.59	1421.88
483.808	1435.88
484.027	1441.88
484.245	1504.88
484.463	1705.88
484.681	1898.88
484.9	1697.88
485.118	1602.88
485.336	1546.88
485.554	1579.88
485.772	1667.88
485.99	1871.88
486.209	2007.88
486.427	1736.88
486.645	1571.88
486.863	1523.88
487.081	1482.88
487.299	1465.88
487.517	1464.88
487.735	1464.88
487.953	1467.88
488.171	1518.88
488.389	1435.88
488.607	1418.88
488.825	1423.88
489.043	1382.88
489.261	1362.88
489.479	1392.88
489.696	1404.88
489.914	1397.88
490.132	1440.88
490.35	1453.88
490.568	1436.88
490.786	1437.88
491.003	1452.88
491.221	1494.88
491.439	1535.88
491.657	1467.88
491.874	1518.88
492.092	1511.88
492.31	1531.88
492.527	1519.88
492.745	1506.88
492.963	1497.88
493.18	1519.88
493.398	1528.88
493.615	1491.88
493.833	1480.88
494.05	1538.88
494.268	1497.88
494.485	1504.88
494.703	1466.88
494.92	1482.88
495.138	1500.88
495.355	1528.88
495.573	1496.88
495.79	1491.88
496.008	1517.88
496.225	1541.88
496.442	1548.88
496.66	1602.88
496.877	1657.88
497.094	1648.88
497.312	1599.88
497.529	1627.88
497.746	1612.88
497.963	1596.88
498.181	1653.88
498.398	1676.88
498.615	1723.88
498.832	1791.88
499.049	1897.88
499.267	2047.88
499.484	2142.88
499.701	2163.88
499.918	2253.88
500.135	2403.88
500.352	2473.88
500.569	2534.88
500.786	2537.88
501.003	2451.88
501.22	2359.88
501.437	2171.88
501.654	2056.88
501.871	1975.88
502.088	1882.88
502.305	1829.88
502.522	1779.88
502.739	1745.88
502.956	1696.88
503.172	1654.88
503.389	1580.88
503.606	1549.88
503.823	1514.88
504.04	1511.88
504.256	1536.88
504.473	1563.88
504.69	1537.88
504.907	1504.88
505.123	1501.88
505.34	1442.88
505.557	1406.88
505.773	1427.88
505.99	1394.88
506.207	1348.88
506.423	1361.88
506.64	1349.88
506.856	1356.88
507.073	1284.88
507.289	1309.88
507.506	1297.88
507.722	1283.88
507.939	1234.88
508.155	1282.88
508.372	1277.88
508.588	1244.88
508.805	1253.88
509.021	1235.88
509.238	1309.88
509.454	1358.88
509.67	1402.88
509.887	1321.88
510.103	1256.88
510.319	1283.88
510.536	1271.88
510.752	1236.88
510.968	1265.88
511.184	1200.88
511.401	1207.88
511.617	1220.88
511.833	1205.88
512.049	1190.88
512.265	1201.88
512.481	1188.88
512.698	1211.88
512.914	1225.88
513.13	1228.88
513.346	1201.88
513.562	1205.88
513.778	1243.88
513.994	1247.88
514.21	1292.88
514.426	1329.88
514.642	1339.88
514.858	1304.88
515.074	1266.88
515.29	1220.88
515.506	1251.88
515.721	1243.88
515.937	1277.88
516.153	1252.88
516.369	1285.88
516.585	1307.88
516.801	1291.88
517.016	1322.88
517.232	1367.88
517.448	1373.88
517.664	1372.88
517.879	1362.88
518.095	1384.88
518.311	1356.88
518.527	1350.88
518.742	1347.88
518.958	1310.88
519.173	1372.88
519.389	1341.88
519.605	1311.88
519.82	1254.88
520.036	1235.88
520.251	1247.88
520.467	1248.88
520.682	1217.88
520.898	1177.88
521.113	1217.88
521.329	1184.88
521.544	1209.88
521.76	1192.88
521.975	1206.88
522.19	1196.88
522.406	1192.88
522.621	1188.88
522.836	1182.88
523.052	1162.88
523.267	1183.88
523.482	1188.88
523.698	1195.88
523.913	1180.88
524.128	1160.88
524.343	1177.88
524.559	1179.88
524.774	1172.88
524.989	1203.88
525.204	1193.88
525.419	1201.88
525.634	1176.88
525.849	1174.88
526.064	1188.88
526.28	1171.88
526.495	1153.88
526.71	1161.88
526.925	1187.88
527.14	1163.88
527.355	1143.88
527.57	1179.88
527.785	1186.88
527.999	1185.88
528.214	1196.88
528.429	1174.88
528.644	1239.88
528.859	1231.88
529.074	1249.88
529.289	1259.88
529.503	1285.88
529.718	1260.88
529.933	1241.88
530.148	1253.88
530.363	1244.88
530.577	1231.88
530.792	1210.88
531.007	1268.88
531.221	1239.88
531.436	1251.88
531.651	1264.88
531.865	1275.88
532.08	1297.88
532.295	1301.88
532.509	1364.88
532.724	1371.88
532.938	1381.88
533.153	1441.88
533.367	1537.88
533.582	1571.88
533.796	1532.88
534.011	1469.88
534.225	1447.88
534.44	1420.88
534.654	1423.88
534.868	1396.88
535.083	1343.88
535.297	1362.88
535.511	1345.88
535.726	1290.88
535.94	1330.88
536.154	1268.88
536.369	1259.88
536.583	1235.88
536.797	1232.88
537.011	1220.88
537.225	1203.88
537.44	1176.88
537.654	1221.88
537.868	1173.88
538.082	1148.88
538.296	1162.88
538.51	1162.88
538.724	1175.88
538.938	1175.88
539.153	1165.88
539.367	1199.88
539.581	1142.88
539.795	1126.88
540.009	1143.88
540.222	1147.88
540.436	1118.88
540.65	1140.88
540.864	1129.88
541.078	1188.88
541.292	1256.88
541.506	1473.88
541.72	1512.88
541.934	1351.88
542.147	1249.88
542.361	1231.88
542.575	1166.88
542.789	1123.88
543.002	1128.88
543.216	1141.88
543.43	1068.88
543.644	1096.88
543.857	1135.88
544.071	1138.88
544.285	1133.88
544.498	1167.88
544.712	1149.88
544.925	1136.88
545.139	1127.88
545.352	1146.88
545.566	1149.88
545.779	1150.88
545.993	1147.88
546.206	1135.88
546.42	1151.88
546.633	1138.88
546.847	1171.88
547.06	1135.88
547.274	1151.88
547.487	1142.88
547.7	1170.88
547.914	1152.88
548.127	1144.88
548.34	1154.88
548.554	1154.88
548.767	1145.88
548.98	1140.88
549.193	1126.88
549.407	1139.88
549.62	1148.88
549.833	1169.88
550.046	1137.88
550.259	1112.88
550.473	1151.88
550.686	1162.88
550.899	1163.88
551.112	1151.88
551.325	1122.88
551.538	1111.88
551.751	1100.88
551.964	1145.88
552.177	1105.88
552.39	1132.88
552.603	1171.88
552.816	1238.88
553.029	1206.88
553.242	1203.88
553.455	1265.88
553.667	1258.88
553.88	1279.88
554.093	1249.88
554.306	1256.88
554.519	1276.88
554.732	1285.88
554.944	1300.88
555.157	1304.88
555.37	1361.88
555.583	1347.88
555.795	1425.88
556.008	1468.88
556.221	1580.88
556.433	1690.88
556.646	1689.88
556.859	1662.88
557.071	1568.88
557.284	1592.88
557.496	1514.88
557.709	1558.88
557.921	1530.88
558.134	1492.88
558.346	1528.88
558.559	1609.88
558.771	1614.88
558.984	1734.88
559.196	1816.88
559.409	1761.88
559.621	1688.88
559.833	1601.88
560.046	1553.88
560.258	1461.88
560.47	1384.88
560.683	1366.88
560.895	1351.88
561.107	1279.88
561.32	1256.88
561.532	1225.88
561.744	1178.88
561.956	1172.88
562.168	1168.88
562.381	1145.88
562.593	1138.88
562.805	1131.88
563.017	1151.88
563.229	1212.88
563.441	1263.88
563.653	1111.88
563.865	1076.88
564.077	1058.88
564.289	1079.88
564.501	1050.88
564.713	1039.88
564.925	1039.88
565.137	993.88
565.349	1071.88
565.561	1061.88
565.773	1057.88
565.985	1065.88
566.197	1101.88
566.408	1095.88
566.62	1153.88
566.832	1167.88
567.044	1152.88
567.255	1179.88
567.467	1204.88
567.679	1219.88
567.891	1267.88
568.102	1385.88
568.314	1576.88
568.526	1347.88
568.737	1153.88
568.949	1084.88
569.161	991.88
569.372	987.88
569.584	941.88
569.795	966.88
570.007	927.88
570.218	955.88
570.43	980.88
570.641	882.88
570.853	872.88
571.064	885.88
571.276	879.88
571.487	845.88
571.698	869.88
571.91	841.88
572.121	848.88
572.333	822.88
572.544	825.88
572.755	894.88
572.966	1025.88
573.178	944.88
573.389	819.88
573.6	811.88
573.811	792.88
574.023	781.88
574.234	769.88
574.445	773.88
574.656	768.88
574.867	742.88
575.078	779.88
575.289	795.88
575.501	760.88
575.712	779.88
575.923	770.88
576.134	772.88
576.345	764.88
576.556	769.88
576.767	775.88
576.978	770.88
577.188	783.88
577.399	789.88
577.61	772.88
577.821	791.88
578.032	785.88
578.243	813.88
578.454	833.88
578.665	821.88
578.875	840.88
579.086	879.88
579.297	879.88
579.508	913.88
579.718	969.88
579.929	1104.88
580.14	1233.88
580.35	1237.88
580.561	1177.88
580.772	1096.88
580.982	1063.88
581.193	951.88
581.403	957.88
581.614	893.88
581.825	872.88
582.035	832.88
582.246	808.88
582.456	818.88
582.667	779.88
582.877	771.88
583.087	721.88
583.298	731.88
583.508	708.88
583.719	704.88
583.929	694.88
584.139	679.88
584.35	659.88
584.56	645.88
584.77	640.88
584.981	646.88
585.191	659.88
585.401	657.88
585.611	641.88
585.821	634.88
586.032	623.88
586.242	613.88
586.452	599.88
586.662	602.88
586.872	584.88
587.082	592.88
587.292	579.88
587.502	581.88
587.713	578.88
587.923	575.88
588.133	548.88
588.343	578.88
588.553	568.88
588.762	565.88
588.972	570.88
589.182	583.88
589.392	561.88
589.602	555.88
589.812	583.88
590.022	558.88
590.232	552.88
590.441	551.88
590.651	539.88
590.861	552.88
591.071	560.88
591.281	556.88
591.49	563.88
591.7	553.88
591.91	559.88
592.119	541.88
592.329	552.88
592.539	545.88
592.748	569.88
592.958	565.88
593.167	564.88
593.377	588.88
593.587	574.88
593.796	564.88
594.006	561.88
594.215	581.88
594.424	575.88
594.634	562.88
594.843	556.88
595.053	569.88
595.262	544.88
595.472	538.88
595.681	526.88
595.89	502.88
596.1	530.88
596.309	498.88
596.518	512.88
596.727	503.88
596.937	501.88
597.146	489.88
597.355	510.88
597.564	490.88
597.774	468.88
597.983	473.88
598.192	456.88
598.401	460.88
598.61	457.88
598.819	472.88
599.028	462.88
599.237	437.88
599.446	446.88
599.655	455.88
599.864	443.88
600.073	439.88
600.282	437.88
600.491	427.88
600.7	433.88
600.909	443.88
601.118	477.88
601.327	466.88
601.536	437.88
601.745	465.88
601.953	506.88
602.162	573.88
602.371	481.88
602.58	473.88
602.789	465.88
602.997	471.88
603.206	428.88
603.415	453.88
603.623	440.88
603.832	455.88
604.041	457.88
604.249	424.88
604.458	424.88
604.666	413.88
604.875	433.88
605.084	447.88
605.292	441.88
605.501	436.88
605.709	437.88
605.918	464.88
606.126	445.88
606.334	451.88
606.543	460.88
606.751	480.88
606.96	517.88
607.168	575.88
607.376	500.88
607.585	478.88
607.793	443.88
608.001	434.88
608.21	433.88
608.418	450.88
608.626	445.88
608.834	427.88
609.043	435.88
609.251	427.88
609.459	426.88
609.667	425.88
609.875	437.88
610.083	419.88
610.291	425.88
610.499	408.88
610.707	417.88
610.916	404.88
611.124	391.88
611.332	407.88
611.54	391.88
611.748	400.88
611.955	418.88
612.163	416.88
612.371	433.88
612.579	400.88
612.787	412.88
612.995	417.88
613.203	403.88
613.411	381.88
613.618	398.88
613.826	388.88
614.034	407.88
614.242	399.88
614.449	413.88
614.657	397.88
614.865	411.88
615.072	412.88
615.28	401.88
615.488	375.88
615.695	397.88
615.903	389.88
616.111	389.88
616.318	408.88
616.526	413.88
616.733	410.88
616.941	379.88
617.148	383.88
617.356	379.88
617.563	385.88
617.771	388.88
617.978	388.88
618.185	403.88
618.393	367.88
618.6	384.88
618.807	377.88
619.015	376.88
619.222	385.88
619.429	375.88
619.637	377.88
619.844	373.88
620.051	368.88
620.258	375.88
620.466	369.88
620.673	351.88
620.88	338.88
621.087	351.88
621.294	337.88
621.501	339.88
621.708	357.88
621.915	357.88
622.122	373.88
622.329	350.88
622.536	363.88
622.743	355.88
622.95	353.88
623.157	357.88
623.364	357.88
623.571	348.88
623.778	339.88
623.985	340.88
624.192	351.88
624.399	337.88
624.606	338.88
624.812	347.88
625.019	353.88
625.226	351.88
625.433	348.88
625.639	320.88
625.846	322.88
626.053	331.88
626.259	327.88
626.466	331.88
626.673	293.88
626.879	315.88
627.086	321.88
627.293	322.88
627.499	319.88
627.706	325.88
627.912	340.88
628.119	325.88
628.325	336.88
628.532	327.88
628.738	324.88
628.945	307.88
629.151	309.88
629.357	318.88
629.564	323.88
629.77	311.88
629.976	303.88
630.183	303.88
630.389	312.88
630.595	307.88
630.802	320.88
631.008	313.88
631.214	325.88
631.42	311.88
631.627	323.88
631.833	319.88
632.039	306.88
632.245	299.88
632.451	303.88
632.657	321.88
632.863	307.88
633.069	299.88
633.275	289.88
633.481	308.88
633.688	278.88
633.893	304.88
634.099	312.88
634.305	297.88
634.511	286.88
634.717	302.88
634.923	306.88
635.129	347.88
635.335	377.88
635.541	337.88
635.747	327.88
635.952	320.88
636.158	315.88
636.364	296.88
636.57	311.88
636.775	306.88
636.981	307.88
637.187	287.88
637.392	296.88
637.598	315.88
637.804	317.88
638.009	306.88
638.215	308.88
638.421	312.88
638.626	316.88
638.832	308.88
639.037	297.88
639.243	319.88
639.448	322.88
639.654	310.88
639.859	311.88
640.065	305.88
640.27	317.88
640.475	319.88
640.681	299.88
640.886	316.88
641.091	318.88
641.297	353.88
641.502	337.88
641.707	333.88
641.913	315.88
642.118	343.88
642.323	315.88
642.528	346.88
642.733	323.88
642.939	365.88
643.144	371.88
643.349	371.88
643.554	397.88
643.759	391.88
643.964	406.88
644.169	422.88
644.374	446.88
644.579	461.88
644.784	495.88
644.989	589.88
645.194	640.88
645.399	732.88
645.604	748.88
645.809	598.88
646.014	490.88
646.219	452.88
646.423	404.88
646.628	375.88
646.833	357.88
647.038	344.88
647.243	355.88
647.447	327.88
647.652	305.88
647.857	295.88
648.062	302.88
648.266	281.88
648.471	289.88
648.676	292.88
648.88	288.88
649.085	276.88
649.289	288.88
649.494	251.88
649.698	276.88
649.903	252.88
650.107	281.88
650.312	267.88
650.516	254.88
650.721	243.88
650.925	234.88
651.13	232.88
651.334	244.88
651.539	248.88
651.743	248.88
651.947	235.88
652.152	230.88
652.356	233.88
652.56	230.88
652.764	273.88
652.969	259.88
653.173	231.88
653.377	214.88
653.581	212.88
653.785	205.88
653.99	199.88
654.194	207.88
654.398	191.88
654.602	213.88
654.806	213.88
655.01	202.88
655.214	201.88
655.418	211.88
655.622	214.88
655.826	225.88
656.03	218.88
656.234	231.88
656.438	216.88
656.642	204.88
656.846	226.88
657.049	214.88
657.253	197.88
657.457	199.88
657.661	184.88
657.865	172.88
658.068	163.88
658.272	148.88
658.476	162.88
658.68	157.88
658.883	139.88
659.087	133.88
659.291	149.88
659.494	123.88
659.698	126.88
659.901	121.88
660.105	126.88
660.309	127.88
660.512	131.88
660.716	116.88
660.919	121.88
661.123	108.88
661.326	111.88
661.53	109.88
661.733	95.88
661.936	107.88
662.14	99.88
662.343	94.88
662.546	94.88
662.75	88.88
662.953	100.88
663.156	80.88
663.36	81.88
663.563	97.88
663.766	90.88
663.969	90.88
664.173	74.88
664.376	90.88
664.579	97.88
664.782	95.88
664.985	75.88
665.188	99.88
665.391	90.88
665.594	84.88
665.797	78.88
666	77.88
666.203	73.88
666.406	89.88
666.609	83.88
666.812	79.88
667.015	91.88
667.218	83.88
667.421	79.88
667.624	81.88
667.827	94.88
668.03	81.88
668.232	83.88
668.435	82.88
668.638	90.88
668.841	87.88
669.043	88.88
669.246	81.88
669.449	86.88
669.651	81.88
669.854	74.88
670.057	88.88
670.259	75.88
670.462	98.88
670.665	92.88
670.867	94.88
671.07	80.88
671.272	91.88
671.475	95.88
671.677	84.88
671.88	86.88
672.082	90.88
672.284	82.88
672.487	75.88
672.689	80.88
672.892	82.88
