Data from SnStandardFlinnAPT0064_LampEnergy10_LIBS07252019.E.O._I.C._HRD10591_15-21-45-494.txt Node
Date: Thu Jul 25 15:21:45 EDT 2019
User: cochatt
Spectrometer: HR+D1059
Trigger mode: 1
Integration Time (sec): 1.000000E-1
Scans to average: 1
Electric dark correction enabled: true
Nonlinearity correction enabled: false
Boxcar width: 0
XAxis mode: Wavelengths
Number of Pixels in Spectrum: 2048
>>>>>Begin Spectral Data<<<<<
223.165	-16.12
223.4	-16.12
223.635	-16.12
223.869	-13.12
224.104	-8.12
224.338	-15.12
224.573	-22.12
224.808	-25.12
225.042	-12.12
225.277	-13.12
225.511	3.88
225.746	-0.12
225.98	12.88
226.215	12.88
226.449	8.88
226.683	19.88
226.918	28.88
227.152	37.88
227.387	36.88
227.621	37.88
227.856	39.88
228.09	60.88
228.324	53.88
228.559	56.88
228.793	122.88
229.027	303.88
229.262	334.88
229.496	296.88
229.73	311.88
229.964	308.88
230.199	300.88
230.433	316.88
230.667	309.88
230.901	312.88
231.136	310.88
231.37	340.88
231.604	396.88
231.838	443.88
232.072	518.88
232.306	536.88
232.541	466.88
232.775	407.88
233.009	418.88
233.243	407.88
233.477	456.88
233.711	514.88
233.945	585.88
234.179	519.88
234.413	450.88
234.647	459.88
234.881	484.88
235.115	514.88
235.349	621.88
235.583	766.88
235.817	976.88
236.051	935.88
236.285	641.88
236.519	515.88
236.753	497.88
236.987	505.88
237.221	540.88
237.455	506.88
237.689	474.88
237.922	462.88
238.156	504.88
238.39	484.88
238.624	527.88
238.858	491.88
239.091	498.88
239.325	498.88
239.559	499.88
239.793	529.88
240.027	532.88
240.26	535.88
240.494	548.88
240.728	621.88
240.961	622.88
241.195	644.88
241.429	694.88
241.662	705.88
241.896	789.88
242.13	932.88
242.363	1225.88
242.597	1569.88
242.83	1530.88
243.064	1525.88
243.298	1772.88
243.531	1464.88
243.765	951.88
243.998	785.88
244.232	717.88
244.465	655.88
244.699	650.88
244.932	666.88
245.166	671.88
245.399	680.88
245.633	686.88
245.866	694.88
246.099	670.88
246.333	650.88
246.566	644.88
246.8	653.88
247.033	647.88
247.266	635.88
247.5	637.88
247.733	679.88
247.966	729.88
248.2	781.88
248.433	872.88
248.666	989.88
248.899	964.88
249.133	830.88
249.366	882.88
249.599	963.88
249.832	1113.88
250.066	1088.88
250.299	856.88
250.532	779.88
250.765	769.88
250.998	749.88
251.231	738.88
251.465	743.88
251.698	743.88
251.931	756.88
252.164	719.88
252.397	765.88
252.63	788.88
252.863	807.88
253.096	789.88
253.329	779.88
253.562	781.88
253.795	788.88
254.028	779.88
254.261	813.88
254.494	892.88
254.727	1001.88
254.96	1236.88
255.193	1220.88
255.426	989.88
255.659	878.88
255.892	867.88
256.124	870.88
256.357	884.88
256.59	884.88
256.823	982.88
257.056	1138.88
257.289	1335.88
257.521	1466.88
257.754	1151.88
257.987	962.88
258.22	901.88
258.452	933.88
258.685	935.88
258.918	964.88
259.151	999.88
259.383	1130.88
259.616	1229.88
259.849	1302.88
260.081	1102.88
260.314	1005.88
260.547	955.88
260.779	958.88
261.012	963.88
261.244	983.88
261.477	979.88
261.71	975.88
261.942	1033.88
262.175	1018.88
262.407	1053.88
262.64	1071.88
262.872	1103.88
263.105	1148.88
263.337	1219.88
263.57	1296.88
263.802	1334.88
264.035	1331.88
264.267	1375.88
264.499	1391.88
264.732	1419.88
264.964	1490.88
265.197	1458.88
265.429	1512.88
265.661	1524.88
265.894	1594.88
266.126	1791.88
266.358	1964.88
266.591	1930.88
266.823	1630.88
267.055	1450.88
267.287	1414.88
267.52	1345.88
267.752	1312.88
267.984	1316.88
268.216	1283.88
268.448	1286.88
268.681	1242.88
268.913	1253.88
269.145	1266.88
269.377	1256.88
269.609	1238.88
269.841	1287.88
270.073	1355.88
270.306	1596.88
270.538	2125.88
270.77	3138.88
271.002	3882.88
271.234	2756.88
271.466	1868.88
271.698	1514.88
271.93	1363.88
272.162	1338.88
272.394	1287.88
272.626	1282.88
272.858	1246.88
273.09	1225.88
273.322	1242.88
273.553	1204.88
273.785	1220.88
274.017	1220.88
274.249	1206.88
274.481	1232.88
274.713	1175.88
274.945	1228.88
275.176	1229.88
275.408	1199.88
275.64	1227.88
275.872	1255.88
276.104	1275.88
276.335	1279.88
276.567	1255.88
276.799	1316.88
277.031	1294.88
277.262	1346.88
277.494	1384.88
277.726	1533.88
277.957	1822.88
278.189	2120.88
278.421	1988.88
278.652	1807.88
278.884	1706.88
279.115	1494.88
279.347	1437.88
279.579	1380.88
279.81	1397.88
280.042	1406.88
280.273	1439.88
280.505	1444.88
280.736	1502.88
280.968	1582.88
281.199	1792.88
281.431	2086.88
281.662	2102.88
281.894	1821.88
282.125	1679.88
282.356	1641.88
282.588	1675.88
282.819	1726.88
283.051	1795.88
283.282	2051.88
283.513	2485.88
283.745	3534.88
283.976	5526.88
284.207	7855.88
284.439	7195.88
284.67	4527.88
284.901	3708.88
285.132	3743.88
285.364	3487.88
285.595	2729.88
285.826	2420.88
286.057	2829.88
286.288	3833.88
286.52	5150.88
286.751	4777.88
286.982	3002.88
287.213	2264.88
287.444	2003.88
287.675	1855.88
287.906	1793.88
288.138	1738.88
288.369	1708.88
288.6	1728.88
288.831	1656.88
289.062	1709.88
289.293	1676.88
289.524	1711.88
289.755	1710.88
289.986	1720.88
290.217	1740.88
290.448	1705.88
290.679	1732.88
290.91	1793.88
291.141	1908.88
291.371	2054.88
291.602	2142.88
291.833	1914.88
292.064	1767.88
292.295	1696.88
292.526	1706.88
292.757	1643.88
292.987	1603.88
293.218	1619.88
293.449	1631.88
293.68	1598.88
293.91	1598.88
294.141	1612.88
294.372	1588.88
294.603	1589.88
294.833	1572.88
295.064	1573.88
295.295	1539.88
295.525	1538.88
295.756	1522.88
295.987	1549.88
296.217	1553.88
296.448	1599.88
296.679	1576.88
296.909	1584.88
297.14	1619.88
297.37	1636.88
297.601	1633.88
297.831	1630.88
298.062	1644.88
298.292	1681.88
298.523	1681.88
298.753	1722.88
298.984	1706.88
299.214	1741.88
299.445	1780.88
299.675	1789.88
299.905	1853.88
300.136	1922.88
300.366	2162.88
300.597	2733.88
300.827	3819.88
301.057	5152.88
301.288	5158.88
301.518	3390.88
301.748	2586.88
301.979	2356.88
302.209	2290.88
302.439	2285.88
302.669	2466.88
302.9	2972.88
303.13	4157.88
303.36	6043.88
303.59	8018.88
303.82	6986.88
304.051	4230.88
304.281	3025.88
304.511	2497.88
304.741	2382.88
304.971	2186.88
305.201	2086.88
305.431	2013.88
305.661	1981.88
305.891	1916.88
306.121	1934.88
306.352	1867.88
306.582	1866.88
306.812	1839.88
307.042	1865.88
307.272	1839.88
307.502	1843.88
307.731	1812.88
307.961	1805.88
308.191	1778.88
308.421	1771.88
308.651	1820.88
308.881	1806.88
309.111	1860.88
309.341	1835.88
309.571	1852.88
309.8	1881.88
310.03	1887.88
310.26	1893.88
310.49	1850.88
310.72	1901.88
310.949	1869.88
311.179	1919.88
311.409	1915.88
311.639	1933.88
311.868	1926.88
312.098	2003.88
312.328	1921.88
312.557	1972.88
312.787	1992.88
313.017	1989.88
313.246	2031.88
313.476	2020.88
313.706	2133.88
313.935	2216.88
314.165	2377.88
314.394	2472.88
314.624	2394.88
314.853	2170.88
315.083	2158.88
315.312	2154.88
315.542	2165.88
315.771	2223.88
316.001	2286.88
316.23	2355.88
316.46	2380.88
316.689	2671.88
316.919	3174.88
317.148	4572.88
317.377	6923.88
317.607	10088.88
317.836	10603.88
318.065	6500.88
318.295	4213.88
318.524	3388.88
318.753	2962.88
318.983	2770.88
319.212	2599.88
319.441	2529.88
319.67	2458.88
319.9	2390.88
320.129	2404.88
320.358	2328.88
320.587	2353.88
320.816	2359.88
321.046	2358.88
321.275	2346.88
321.504	2395.88
321.733	2462.88
321.962	2509.88
322.191	2550.88
322.42	2523.88
322.649	2498.88
322.878	2520.88
323.108	2508.88
323.337	2533.88
323.566	2559.88
323.795	2588.88
324.024	2619.88
324.253	2742.88
324.482	2886.88
324.71	3061.88
324.939	3189.88
325.168	3252.88
325.397	3389.88
325.626	3936.88
325.855	5599.88
326.084	8602.88
326.313	12508.88
326.542	13206.88
326.77	8900.88
326.999	5865.88
327.228	4911.88
327.457	4741.88
327.686	4863.88
327.914	5110.88
328.143	6041.88
328.372	7238.88
328.6	7832.88
328.829	7030.88
329.058	5847.88
329.287	5046.88
329.515	4670.88
329.744	4328.88
329.972	3998.88
330.201	3839.88
330.43	3789.88
330.658	3616.88
330.887	3616.88
331.115	3537.88
331.344	3484.88
331.572	3497.88
331.801	3534.88
332.03	3561.88
332.258	3614.88
332.486	3801.88
332.715	4312.88
332.943	5273.88
333.172	6504.88
333.4	6501.88
333.629	4968.88
333.857	4528.88
334.085	4474.88
334.314	4755.88
334.542	5146.88
334.771	6078.88
334.999	7484.88
335.227	9352.88
335.455	10485.88
335.684	9336.88
335.912	7713.88
336.14	6494.88
336.369	5750.88
336.597	5261.88
336.825	4860.88
337.053	4542.88
337.281	4278.88
337.51	4070.88
337.738	3903.88
337.966	3716.88
338.194	3621.88
338.422	3552.88
338.65	3415.88
338.878	3374.88
339.106	3242.88
339.334	3307.88
339.562	3178.88
339.79	3111.88
340.018	3128.88
340.246	3083.88
340.474	3075.88
340.702	3035.88
340.93	3042.88
341.158	3022.88
341.386	3008.88
341.614	2968.88
341.842	2901.88
342.07	2910.88
342.298	2856.88
342.526	2818.88
342.754	2782.88
342.981	2768.88
343.209	2756.88
343.437	2778.88
343.665	2809.88
343.893	2814.88
344.12	2851.88
344.348	2779.88
344.576	2763.88
344.804	2727.88
345.031	2676.88
345.259	2648.88
345.487	2578.88
345.714	2595.88
345.942	2568.88
346.17	2574.88
346.397	2556.88
346.625	2589.88
346.853	2535.88
347.08	2550.88
347.308	2530.88
347.535	2544.88
347.763	2566.88
347.99	2540.88
348.218	2522.88
348.445	2442.88
348.673	2448.88
348.9	2512.88
349.128	2491.88
349.355	2466.88
349.583	2493.88
349.81	2393.88
350.037	2404.88
350.265	2449.88
350.492	2371.88
350.72	2442.88
350.947	2407.88
351.174	2447.88
351.402	2405.88
351.629	2440.88
351.856	2424.88
352.083	2435.88
352.311	2407.88
352.538	2422.88
352.765	2422.88
352.992	2405.88
353.22	2375.88
353.447	2371.88
353.674	2418.88
353.901	2400.88
354.128	2419.88
354.355	2406.88
354.583	2452.88
354.81	2451.88
355.037	2468.88
355.264	2451.88
355.491	2456.88
355.718	2477.88
355.945	2457.88
356.172	2499.88
356.399	2471.88
356.626	2515.88
356.853	2560.88
357.08	2544.88
357.307	2558.88
357.534	2606.88
357.761	2606.88
357.988	2624.88
358.215	2591.88
358.441	2607.88
358.668	2568.88
358.895	2570.88
359.122	2574.88
359.349	2572.88
359.576	2564.88
359.802	2585.88
360.029	2557.88
360.256	2552.88
360.483	2570.88
360.709	2572.88
360.936	2597.88
361.163	2551.88
361.39	2549.88
361.616	2569.88
361.843	2588.88
362.07	2603.88
362.296	2580.88
362.523	2588.88
362.749	2607.88
362.976	2567.88
363.203	2567.88
363.429	2543.88
363.656	2570.88
363.882	2551.88
364.109	2586.88
364.335	2566.88
364.562	2535.88
364.788	2586.88
365.015	2572.88
365.241	2718.88
365.468	2823.88
365.694	2957.88
365.92	2884.88
366.147	2663.88
366.373	2638.88
366.599	2669.88
366.826	2598.88
367.052	2626.88
367.278	2647.88
367.505	2621.88
367.731	2687.88
367.957	2602.88
368.184	2618.88
368.41	2702.88
368.636	2677.88
368.862	2700.88
369.089	2708.88
369.315	2652.88
369.541	2698.88
369.767	2713.88
369.993	2686.88
370.219	2635.88
370.445	2644.88
370.672	2705.88
370.898	2688.88
371.124	2726.88
371.35	2724.88
371.576	2731.88
371.802	2746.88
372.028	2793.88
372.254	2791.88
372.48	2803.88
372.706	2846.88
372.932	2791.88
373.158	2820.88
373.384	2843.88
373.61	2829.88
373.835	2864.88
374.061	2862.88
374.287	2957.88
374.513	2867.88
374.739	2924.88
374.965	2918.88
375.191	2930.88
375.416	2921.88
375.642	2892.88
375.868	2884.88
376.094	2889.88
376.319	2841.88
376.545	2836.88
376.771	2803.88
376.997	2776.88
377.222	2783.88
377.448	2728.88
377.674	2752.88
377.899	2751.88
378.125	2791.88
378.35	2762.88
378.576	2719.88
378.802	2815.88
379.027	2817.88
379.253	2914.88
379.478	3082.88
379.704	3590.88
379.929	5143.88
380.155	7839.88
380.38	8483.88
380.606	5216.88
380.831	3700.88
381.057	3285.88
381.282	2966.88
381.507	2874.88
381.733	2830.88
381.958	2783.88
382.184	2803.88
382.409	2782.88
382.634	2726.88
382.86	2719.88
383.085	2718.88
383.31	2700.88
383.535	2708.88
383.761	2721.88
383.986	2740.88
384.211	2776.88
384.436	2797.88
384.662	2758.88
384.887	2773.88
385.112	2795.88
385.337	2781.88
385.562	2725.88
385.787	2776.88
386.013	2811.88
386.238	2761.88
386.463	2816.88
386.688	2842.88
386.913	2758.88
387.138	2765.88
387.363	2805.88
387.588	2737.88
387.813	2798.88
388.038	2804.88
388.263	2790.88
388.488	2766.88
388.713	2824.88
388.938	2783.88
389.163	2731.88
389.387	2802.88
389.612	2758.88
389.837	2800.88
390.062	2811.88
390.287	2810.88
390.512	2853.88
390.736	2863.88
390.961	2914.88
391.186	2872.88
391.411	2960.88
391.636	2926.88
391.86	2973.88
392.085	2942.88
392.31	3001.88
392.534	2899.88
392.759	2936.88
392.984	2856.88
393.208	2820.88
393.433	2887.88
393.658	2846.88
393.882	2796.88
394.107	2793.88
394.331	2792.88
394.556	2836.88
394.78	2790.88
395.005	2889.88
395.229	2840.88
395.454	2893.88
395.678	2914.88
395.903	2887.88
396.127	2898.88
396.352	2888.88
396.576	2865.88
396.801	2899.88
397.025	2942.88
397.249	2946.88
397.474	2969.88
397.698	2910.88
397.922	2998.88
398.147	2952.88
398.371	3007.88
398.595	3048.88
398.82	3126.88
399.044	3289.88
399.268	3454.88
399.492	3586.88
399.717	3692.88
399.941	3713.88
400.165	3559.88
400.389	3444.88
400.613	3270.88
400.837	3139.88
401.062	3100.88
401.286	3077.88
401.51	3062.88
401.734	3067.88
401.958	3145.88
402.182	3110.88
402.406	3056.88
402.63	3112.88
402.854	3153.88
403.078	3096.88
403.302	3176.88
403.526	3149.88
403.75	3160.88
403.974	3210.88
404.198	3156.88
404.422	3194.88
404.645	3203.88
404.869	3179.88
405.093	3238.88
405.317	3154.88
405.541	3266.88
405.765	3283.88
405.988	3329.88
406.212	3277.88
406.436	3239.88
406.66	3376.88
406.883	3294.88
407.107	3427.88
407.331	3446.88
407.555	3516.88
407.778	3500.88
408.002	3442.88
408.226	3472.88
408.449	3423.88
408.673	3356.88
408.896	3256.88
409.12	3221.88
409.344	3284.88
409.567	3221.88
409.791	3206.88
410.014	3268.88
410.238	3204.88
410.461	3207.88
410.685	3165.88
410.908	3132.88
411.132	3134.88
411.355	3070.88
411.578	3103.88
411.802	3047.88
412.025	3108.88
412.249	3110.88
412.472	3086.88
412.695	3044.88
412.919	2975.88
413.142	3054.88
413.365	3058.88
413.589	3077.88
413.812	3024.88
414.035	3082.88
414.258	3051.88
414.482	3002.88
414.705	3056.88
414.928	3072.88
415.151	3011.88
415.374	2998.88
415.597	2940.88
415.821	2935.88
416.044	2857.88
416.267	2918.88
416.49	2900.88
416.713	2885.88
416.936	2906.88
417.159	2838.88
417.382	2854.88
417.605	2855.88
417.828	2842.88
418.051	2907.88
418.274	2926.88
418.497	2956.88
418.72	2990.88
418.943	2939.88
419.166	3021.88
419.389	3240.88
419.611	3148.88
419.834	3110.88
420.057	3019.88
420.28	2978.88
420.503	2878.88
420.726	2870.88
420.948	2866.88
421.171	2889.88
421.394	2910.88
421.617	2892.88
421.839	2915.88
422.062	2979.88
422.285	2862.88
422.507	2935.88
422.73	2958.88
422.953	3010.88
423.175	2996.88
423.398	2908.88
423.621	2910.88
423.843	2921.88
424.066	2968.88
424.288	2913.88
424.511	2941.88
424.733	2915.88
424.956	2855.88
425.178	2874.88
425.401	2884.88
425.623	2872.88
425.846	2776.88
426.068	2819.88
426.291	2775.88
426.513	2748.88
426.735	2764.88
426.958	2768.88
427.18	2759.88
427.402	2749.88
427.625	2750.88
427.847	2668.88
428.069	2677.88
428.292	2711.88
428.514	2689.88
428.736	2680.88
428.958	2684.88
429.181	2627.88
429.403	2687.88
429.625	2635.88
429.847	2638.88
430.069	2671.88
430.292	2803.88
430.514	2854.88
430.736	2837.88
430.958	2720.88
431.18	2676.88
431.402	2623.88
431.624	2650.88
431.846	2680.88
432.068	2628.88
432.29	2710.88
432.512	2606.88
432.734	2663.88
432.956	2670.88
433.178	2676.88
433.4	2682.88
433.622	2667.88
433.844	2664.88
434.066	2710.88
434.287	2666.88
434.509	2770.88
434.731	2690.88
434.953	2803.88
435.175	2766.88
435.397	2776.88
435.618	2690.88
435.84	2709.88
436.062	2623.88
436.284	2631.88
436.505	2631.88
436.727	2700.88
436.949	2645.88
437.17	2654.88
437.392	2614.88
437.614	2603.88
437.835	2530.88
438.057	2546.88
438.278	2567.88
438.5	2583.88
438.721	2602.88
438.943	2689.88
439.165	2742.88
439.386	2746.88
439.608	2784.88
439.829	2774.88
440.05	2862.88
440.272	2841.88
440.493	2776.88
440.715	2708.88
440.936	2718.88
441.158	2778.88
441.379	2778.88
441.6	2922.88
441.822	2979.88
442.043	3071.88
442.264	3166.88
442.486	2925.88
442.707	2877.88
442.928	2831.88
443.149	2852.88
443.371	2788.88
443.592	2829.88
443.813	2842.88
444.034	2864.88
444.255	2891.88
444.476	2971.88
444.698	3010.88
444.919	3043.88
445.14	3114.88
445.361	3004.88
445.582	2936.88
445.803	2850.88
446.024	2785.88
446.245	2850.88
446.466	2799.88
446.687	2754.88
446.908	2780.88
447.129	2731.88
447.35	2682.88
447.571	2674.88
447.792	2617.88
448.013	2603.88
448.234	2586.88
448.455	2626.88
448.675	2669.88
448.896	2687.88
449.117	2742.88
449.338	3028.88
449.559	3153.88
449.779	2821.88
450	2605.88
450.221	2582.88
450.442	2571.88
450.662	2564.88
450.883	2543.88
451.104	2558.88
451.324	2551.88
451.545	2578.88
451.766	2582.88
451.986	2648.88
452.207	2800.88
452.428	3620.88
452.648	5496.88
452.869	4537.88
453.089	3134.88
453.31	2952.88
453.53	2951.88
453.751	3023.88
453.971	3165.88
454.192	3158.88
454.412	2681.88
454.633	2596.88
454.853	2589.88
455.073	2458.88
455.294	2454.88
455.514	2441.88
455.734	2456.88
455.955	2415.88
456.175	2453.88
456.395	2431.88
456.616	2420.88
456.836	2487.88
457.056	2499.88
457.276	2493.88
457.497	2648.88
457.717	2654.88
457.937	2599.88
458.157	2598.88
458.377	2577.88
458.598	2584.88
458.818	2646.88
459.038	2651.88
459.258	2622.88
459.478	2695.88
459.698	2671.88
459.918	2683.88
460.138	2791.88
460.358	2836.88
460.578	2866.88
460.798	2922.88
461.018	2898.88
461.238	2878.88
461.458	2920.88
461.678	2939.88
461.898	3023.88
462.118	2982.88
462.338	3098.88
462.558	3022.88
462.777	3150.88
462.997	3303.88
463.217	3334.88
463.437	3510.88
463.657	3536.88
463.876	3534.88
464.096	3389.88
464.316	3238.88
464.536	3217.88
464.755	3113.88
464.975	3030.88
465.195	2956.88
465.414	2876.88
465.634	2735.88
465.854	2777.88
466.073	2720.88
466.293	2672.88
466.512	2653.88
466.732	2686.88
466.951	2824.88
467.171	2987.88
467.391	2932.88
467.61	2673.88
467.829	2674.88
468.049	2592.88
468.268	2576.88
468.488	2598.88
468.707	2584.88
468.927	2605.88
469.146	2613.88
469.365	2630.88
469.585	2677.88
469.804	2690.88
470.023	2790.88
470.243	2823.88
470.462	2856.88
470.681	2999.88
470.901	3308.88
471.12	3708.88
471.339	3714.88
471.558	3125.88
471.777	2887.88
471.997	2793.88
472.216	2732.88
472.435	2674.88
472.654	2645.88
472.873	2612.88
473.092	2596.88
473.311	2605.88
473.53	2622.88
473.749	2704.88
473.968	2806.88
474.187	2655.88
474.406	2656.88
474.625	2631.88
474.844	2703.88
475.063	2629.88
475.282	2688.88
475.501	2640.88
475.72	2637.88
475.939	2725.88
476.158	2736.88
476.377	2802.88
476.596	2783.88
476.814	2789.88
477.033	2774.88
477.252	2790.88
477.471	2848.88
477.69	2916.88
477.908	2930.88
478.127	2977.88
478.346	2965.88
478.564	3049.88
478.783	3062.88
479.002	3111.88
479.22	3036.88
479.439	3118.88
479.658	3163.88
479.876	3186.88
480.095	3152.88
480.313	3250.88
480.532	3214.88
480.751	3260.88
480.969	3236.88
481.188	3209.88
481.406	3178.88
481.624	3141.88
481.843	3193.88
482.061	3158.88
482.28	3160.88
482.498	3162.88
482.717	3160.88
482.935	3191.88
483.153	3215.88
483.372	3291.88
483.59	3344.88
483.808	3338.88
484.027	3453.88
484.245	3621.88
484.463	4106.88
484.681	4416.88
484.9	4075.88
485.118	3883.88
485.336	3830.88
485.554	3806.88
485.772	4041.88
485.99	4506.88
486.209	4853.88
486.427	4098.88
486.645	3676.88
486.863	3547.88
487.081	3471.88
487.299	3447.88
487.517	3391.88
487.735	3328.88
487.953	3373.88
488.171	3351.88
488.389	3342.88
488.607	3330.88
488.825	3292.88
489.043	3292.88
489.261	3216.88
489.479	3300.88
489.696	3240.88
489.914	3279.88
490.132	3310.88
490.35	3342.88
490.568	3273.88
490.786	3338.88
491.003	3355.88
491.221	3395.88
491.439	3434.88
491.657	3352.88
491.874	3429.88
492.092	3506.88
492.31	3458.88
492.527	3448.88
492.745	3379.88
492.963	3402.88
493.18	3415.88
493.398	3413.88
493.615	3461.88
493.833	3438.88
494.05	3446.88
494.268	3448.88
494.485	3432.88
494.703	3460.88
494.92	3482.88
495.138	3427.88
495.355	3427.88
495.573	3399.88
495.79	3443.88
496.008	3476.88
496.225	3507.88
496.442	3595.88
496.66	3715.88
496.877	3867.88
497.094	3886.88
497.312	3757.88
497.529	3774.88
497.746	3804.88
497.963	3874.88
498.181	3966.88
498.398	4043.88
498.615	4048.88
498.832	4273.88
499.049	4498.88
499.267	4802.88
499.484	5042.88
499.701	5107.88
499.918	5227.88
500.135	5510.88
500.352	5714.88
500.569	5842.88
500.786	5789.88
501.003	5582.88
501.22	5333.88
501.437	5067.88
501.654	4742.88
501.871	4632.88
502.088	4461.88
502.305	4230.88
502.522	4077.88
502.739	4077.88
502.956	3937.88
503.172	3902.88
503.389	3741.88
503.606	3677.88
503.823	3582.88
504.04	3653.88
504.256	3623.88
504.473	3591.88
504.69	3568.88
504.907	3539.88
505.123	3503.88
505.34	3418.88
505.557	3250.88
505.773	3216.88
505.99	3215.88
506.207	3101.88
506.423	3168.88
506.64	3178.88
506.856	3104.88
507.073	3099.88
507.289	3094.88
507.506	3032.88
507.722	3034.88
507.939	3038.88
508.155	2967.88
508.372	2964.88
508.588	2980.88
508.805	2966.88
509.021	2983.88
509.238	3053.88
509.454	3184.88
509.67	3391.88
509.887	3114.88
510.103	3000.88
510.319	2995.88
510.536	3008.88
510.752	2944.88
510.968	2918.88
511.184	2904.88
511.401	2877.88
511.617	2896.88
511.833	2902.88
512.049	2823.88
512.265	2851.88
512.481	2846.88
512.698	2832.88
512.914	2808.88
513.13	2818.88
513.346	2854.88
513.562	2798.88
513.778	2866.88
513.994	2902.88
514.21	2997.88
514.426	3152.88
514.642	3223.88
514.858	3074.88
515.074	2912.88
515.29	2893.88
515.506	2956.88
515.721	2925.88
515.937	3008.88
516.153	2934.88
516.369	2948.88
516.585	2980.88
516.801	3083.88
517.016	3105.88
517.232	3185.88
517.448	3223.88
517.664	3298.88
517.879	3206.88
518.095	3220.88
518.311	3210.88
518.527	3206.88
518.742	3119.88
518.958	3256.88
519.173	3227.88
519.389	3201.88
519.605	3014.88
519.82	2938.88
520.036	2979.88
520.251	2873.88
520.467	2852.88
520.682	2857.88
520.898	2857.88
521.113	2790.88
521.329	2870.88
521.544	2860.88
521.76	2796.88
521.975	2796.88
522.19	2806.88
522.406	2791.88
522.621	2740.88
522.836	2758.88
523.052	2758.88
523.267	2720.88
523.482	2771.88
523.698	2703.88
523.913	2720.88
524.128	2759.88
524.343	2755.88
524.559	2748.88
524.774	2694.88
524.989	2718.88
525.204	2764.88
525.419	2712.88
525.634	2742.88
525.849	2751.88
526.064	2713.88
526.28	2677.88
526.495	2710.88
526.71	2776.88
526.925	2735.88
527.14	2743.88
527.355	2761.88
527.57	2743.88
527.785	2737.88
527.999	2774.88
528.214	2798.88
528.429	2849.88
528.644	2840.88
528.859	2870.88
529.074	2936.88
529.289	2865.88
529.503	2932.88
529.718	2906.88
529.933	2916.88
530.148	2885.88
530.363	2908.88
530.577	2932.88
530.792	2946.88
531.007	2950.88
531.221	2959.88
531.436	2991.88
531.651	2976.88
531.865	3032.88
532.08	3077.88
532.295	3180.88
532.509	3387.88
532.724	3428.88
532.938	3412.88
533.153	3548.88
533.367	3815.88
533.582	4041.88
533.796	3908.88
534.011	3790.88
534.225	3662.88
534.44	3491.88
534.654	3418.88
534.868	3300.88
535.083	3367.88
535.297	3262.88
535.511	3138.88
535.726	3155.88
535.94	3072.88
536.154	3051.88
536.369	2987.88
536.583	2946.88
536.797	2878.88
537.011	2919.88
537.225	2890.88
537.44	2868.88
537.654	2870.88
537.868	2778.88
538.082	2765.88
538.296	2732.88
538.51	2711.88
538.724	2750.88
538.938	2735.88
539.153	2698.88
539.367	2684.88
539.581	2655.88
539.795	2653.88
540.009	2647.88
540.222	2659.88
540.436	2611.88
540.65	2621.88
540.864	2650.88
541.078	2702.88
541.292	2883.88
541.506	3285.88
541.72	3513.88
541.934	3034.88
542.147	2862.88
542.361	2759.88
542.575	2676.88
542.789	2640.88
543.002	2548.88
543.216	2572.88
543.43	2521.88
543.644	2522.88
543.857	2525.88
544.071	2539.88
544.285	2567.88
544.498	2546.88
544.712	2564.88
544.925	2558.88
545.139	2540.88
545.352	2560.88
545.566	2531.88
545.779	2542.88
545.993	2584.88
546.206	2592.88
546.42	2549.88
546.633	2562.88
546.847	2591.88
547.06	2602.88
547.274	2581.88
547.487	2558.88
547.7	2576.88
547.914	2520.88
548.127	2607.88
548.34	2593.88
548.554	2560.88
548.767	2555.88
548.98	2585.88
549.193	2566.88
549.407	2559.88
549.62	2585.88
549.833	2588.88
550.046	2550.88
550.259	2577.88
550.473	2566.88
550.686	2557.88
550.899	2594.88
551.112	2565.88
551.325	2574.88
551.538	2552.88
551.751	2570.88
551.964	2658.88
552.177	2606.88
552.39	2621.88
552.603	2714.88
552.816	2755.88
553.029	2754.88
553.242	2827.88
553.455	2773.88
553.667	2849.88
553.88	2820.88
554.093	2858.88
554.306	2886.88
554.519	2895.88
554.732	2970.88
554.944	3024.88
555.157	3010.88
555.37	3153.88
555.583	3316.88
555.795	3453.88
556.008	3748.88
556.221	4137.88
556.433	4450.88
556.646	4480.88
556.859	4185.88
557.071	4065.88
557.284	4003.88
557.496	3840.88
557.709	3731.88
557.921	3728.88
558.134	3665.88
558.346	3726.88
558.559	3960.88
558.771	4075.88
558.984	4499.88
559.196	4875.88
559.409	4676.88
559.621	4196.88
559.833	3991.88
560.046	3758.88
560.258	3567.88
560.47	3422.88
560.683	3222.88
560.895	3105.88
561.107	3025.88
561.32	2980.88
561.532	2914.88
561.744	2851.88
561.956	2729.88
562.168	2773.88
562.381	2688.88
562.593	2683.88
562.805	2739.88
563.017	2691.88
563.229	2787.88
563.441	3207.88
563.653	2711.88
563.865	2485.88
564.077	2459.88
564.289	2423.88
564.501	2362.88
564.713	2354.88
564.925	2340.88
565.137	2338.88
565.349	2372.88
565.561	2431.88
565.773	2382.88
565.985	2416.88
566.197	2456.88
566.408	2509.88
566.62	2580.88
566.832	2630.88
567.044	2663.88
567.255	2617.88
567.467	2683.88
567.679	2750.88
567.891	2866.88
568.102	3123.88
568.314	3585.88
568.526	3107.88
568.737	2675.88
568.949	2461.88
569.161	2369.88
569.372	2300.88
569.584	2223.88
569.795	2190.88
570.007	2179.88
570.218	2188.88
570.43	2265.88
570.641	2086.88
570.853	2038.88
571.064	1996.88
571.276	1946.88
571.487	1924.88
571.698	1856.88
571.91	1899.88
572.121	1853.88
572.333	1880.88
572.544	1923.88
572.755	1996.88
572.966	2287.88
573.178	2116.88
573.389	1902.88
573.6	1820.88
573.811	1779.88
574.023	1758.88
574.234	1762.88
574.445	1705.88
574.656	1693.88
574.867	1733.88
575.078	1709.88
575.289	1733.88
575.501	1687.88
575.712	1690.88
575.923	1718.88
576.134	1743.88
576.345	1693.88
576.556	1763.88
576.767	1708.88
576.978	1691.88
577.188	1711.88
577.399	1711.88
577.61	1743.88
577.821	1779.88
578.032	1798.88
578.243	1794.88
578.454	1828.88
578.665	1888.88
578.875	1963.88
579.086	2005.88
579.297	2065.88
579.508	2240.88
579.718	2429.88
579.929	2787.88
580.14	3352.88
580.35	3327.88
580.561	3027.88
580.772	2715.88
580.982	2496.88
581.193	2344.88
581.403	2246.88
581.614	2105.88
581.825	2024.88
582.035	1954.88
582.246	1886.88
582.456	1818.88
582.667	1823.88
582.877	1768.88
583.087	1738.88
583.298	1664.88
583.508	1622.88
583.719	1594.88
583.929	1580.88
584.139	1515.88
584.35	1486.88
584.56	1479.88
584.77	1457.88
584.981	1471.88
585.191	1452.88
585.401	1395.88
585.611	1394.88
585.821	1375.88
586.032	1345.88
586.242	1396.88
586.452	1334.88
586.662	1343.88
586.872	1307.88
587.082	1304.88
587.292	1283.88
587.502	1299.88
587.713	1259.88
587.923	1287.88
588.133	1251.88
588.343	1239.88
588.553	1238.88
588.762	1249.88
588.972	1242.88
589.182	1236.88
589.392	1250.88
589.602	1180.88
589.812	1225.88
590.022	1214.88
590.232	1207.88
590.441	1171.88
590.651	1193.88
590.861	1198.88
591.071	1167.88
591.281	1203.88
591.49	1203.88
591.7	1231.88
591.91	1212.88
592.119	1196.88
592.329	1205.88
592.539	1192.88
592.748	1210.88
592.958	1226.88
593.167	1207.88
593.377	1231.88
593.587	1215.88
593.796	1244.88
594.006	1246.88
594.215	1238.88
594.424	1213.88
594.634	1199.88
594.843	1208.88
595.053	1182.88
595.262	1168.88
595.472	1132.88
595.681	1097.88
595.89	1125.88
596.1	1102.88
596.309	1093.88
596.518	1068.88
596.727	1072.88
596.937	1039.88
597.146	1071.88
597.355	1053.88
597.564	1053.88
597.774	989.88
597.983	984.88
598.192	979.88
598.401	994.88
598.61	1003.88
598.819	976.88
599.028	971.88
599.237	952.88
599.446	958.88
599.655	972.88
599.864	957.88
600.073	969.88
600.282	961.88
600.491	920.88
600.7	939.88
600.909	976.88
601.118	974.88
601.327	955.88
601.536	947.88
601.745	982.88
601.953	1074.88
602.162	1215.88
602.371	1092.88
602.58	999.88
602.789	992.88
602.997	976.88
603.206	959.88
603.415	940.88
603.623	912.88
603.832	938.88
604.041	926.88
604.249	895.88
604.458	895.88
604.666	882.88
604.875	906.88
605.084	897.88
605.292	905.88
605.501	901.88
605.709	913.88
605.918	918.88
606.126	894.88
606.334	940.88
606.543	918.88
606.751	1008.88
606.96	1099.88
607.168	1247.88
607.376	1075.88
607.585	976.88
607.793	984.88
608.001	931.88
608.21	883.88
608.418	873.88
608.626	902.88
608.834	859.88
609.043	874.88
609.251	887.88
609.459	854.88
609.667	857.88
609.875	886.88
610.083	862.88
610.291	830.88
610.499	832.88
610.707	834.88
610.916	837.88
611.124	840.88
611.332	835.88
611.54	830.88
611.748	820.88
611.955	819.88
612.163	802.88
612.371	838.88
612.579	815.88
612.787	792.88
612.995	774.88
613.203	794.88
613.411	800.88
613.618	797.88
613.826	798.88
614.034	797.88
614.242	790.88
614.449	782.88
614.657	811.88
614.865	796.88
615.072	785.88
615.28	816.88
615.488	822.88
615.695	788.88
615.903	784.88
616.111	774.88
616.318	795.88
616.526	808.88
616.733	785.88
616.941	759.88
617.148	813.88
617.356	776.88
617.563	792.88
617.771	788.88
617.978	762.88
618.185	784.88
618.393	754.88
618.6	800.88
618.807	734.88
619.015	758.88
619.222	756.88
619.429	745.88
619.637	742.88
619.844	740.88
620.051	712.88
620.258	709.88
620.466	680.88
620.673	676.88
620.88	727.88
621.087	685.88
621.294	691.88
621.501	685.88
621.708	702.88
621.915	733.88
622.122	711.88
622.329	709.88
622.536	727.88
622.743	694.88
622.95	705.88
623.157	714.88
623.364	709.88
623.571	697.88
623.778	711.88
623.985	649.88
624.192	708.88
624.399	679.88
624.606	679.88
624.812	675.88
625.019	682.88
625.226	687.88
625.433	639.88
625.639	656.88
625.846	644.88
626.053	627.88
626.259	633.88
626.466	653.88
626.673	646.88
626.879	626.88
627.086	648.88
627.293	651.88
627.499	635.88
627.706	643.88
627.912	627.88
628.119	640.88
628.325	640.88
628.532	647.88
628.738	624.88
628.945	622.88
629.151	607.88
629.357	622.88
629.564	646.88
629.77	615.88
629.976	603.88
630.183	631.88
630.389	610.88
630.595	590.88
630.802	587.88
631.008	597.88
631.214	596.88
631.42	616.88
631.627	581.88
631.833	595.88
632.039	598.88
632.245	597.88
632.451	599.88
632.657	586.88
632.863	567.88
633.069	606.88
633.275	591.88
633.481	586.88
633.688	573.88
633.893	577.88
634.099	594.88
634.305	598.88
634.511	593.88
634.717	596.88
634.923	612.88
635.129	670.88
635.335	775.88
635.541	680.88
635.747	647.88
635.952	619.88
636.158	594.88
636.364	587.88
636.57	600.88
636.775	596.88
636.981	601.88
637.187	586.88
637.392	590.88
637.598	588.88
637.804	584.88
638.009	603.88
638.215	588.88
638.421	588.88
638.626	606.88
638.832	603.88
639.037	581.88
639.243	589.88
639.448	595.88
639.654	616.88
639.859	605.88
640.065	599.88
640.27	619.88
640.475	591.88
640.681	611.88
640.886	596.88
641.091	619.88
641.297	646.88
641.502	618.88
641.707	642.88
641.913	642.88
642.118	665.88
642.323	667.88
642.528	701.88
642.733	692.88
642.939	698.88
643.144	731.88
643.349	776.88
643.554	782.88
643.759	801.88
643.964	835.88
644.169	919.88
644.374	974.88
644.579	1039.88
644.784	1156.88
644.989	1327.88
645.194	1562.88
645.399	1926.88
645.604	2064.88
645.809	1519.88
646.014	1164.88
646.219	943.88
646.423	860.88
646.628	772.88
646.833	748.88
647.038	688.88
647.243	653.88
647.447	654.88
647.652	604.88
647.857	590.88
648.062	579.88
648.266	574.88
648.471	567.88
648.676	555.88
648.88	526.88
649.085	535.88
649.289	520.88
649.494	512.88
649.698	521.88
649.903	494.88
650.107	512.88
650.312	490.88
650.516	488.88
650.721	476.88
650.925	444.88
651.13	440.88
651.334	442.88
651.539	424.88
651.743	446.88
651.947	425.88
652.152	419.88
652.356	427.88
652.56	461.88
652.764	498.88
652.969	435.88
653.173	425.88
653.377	413.88
653.581	378.88
653.785	384.88
653.99	380.88
654.194	366.88
654.398	364.88
654.602	348.88
654.806	365.88
655.01	345.88
655.214	351.88
655.418	364.88
655.622	343.88
655.826	362.88
656.03	376.88
656.234	376.88
656.438	394.88
656.642	370.88
656.846	368.88
657.049	343.88
657.253	347.88
657.457	313.88
657.661	280.88
657.865	275.88
658.068	280.88
658.272	259.88
658.476	254.88
658.68	229.88
658.883	222.88
659.087	215.88
659.291	203.88
659.494	182.88
659.698	192.88
659.901	174.88
660.105	167.88
660.309	178.88
660.512	163.88
660.716	160.88
660.919	163.88
661.123	151.88
661.326	151.88
661.53	149.88
661.733	140.88
661.936	112.88
662.14	125.88
662.343	108.88
662.546	118.88
662.75	114.88
662.953	107.88
663.156	94.88
663.36	100.88
663.563	104.88
663.766	105.88
663.969	103.88
664.173	107.88
664.376	91.88
664.579	94.88
664.782	89.88
664.985	93.88
665.188	98.88
665.391	93.88
665.594	97.88
665.797	84.88
666	90.88
666.203	90.88
666.406	84.88
666.609	98.88
666.812	90.88
667.015	97.88
667.218	99.88
667.421	86.88
667.624	84.88
667.827	85.88
668.03	78.88
668.232	92.88
668.435	79.88
668.638	76.88
668.841	79.88
669.043	84.88
669.246	87.88
669.449	107.88
669.651	93.88
669.854	94.88
670.057	86.88
670.259	101.88
670.462	97.88
670.665	88.88
670.867	86.88
671.07	90.88
671.272	75.88
671.475	91.88
671.677	88.88
671.88	77.88
672.082	90.88
672.284	70.88
672.487	84.88
672.689	68.88
672.892	90.88
