Data from SnStandardFlinnAPT0064_LampEnergy10_LIBS07252019.E.O._I.C._HRD10591_15-19-36-493.txt Node
Date: Thu Jul 25 15:19:36 EDT 2019
User: cochatt
Spectrometer: HR+D1059
Trigger mode: 1
Integration Time (sec): 1.000000E-1
Scans to average: 1
Electric dark correction enabled: true
Nonlinearity correction enabled: false
Boxcar width: 0
XAxis mode: Wavelengths
Number of Pixels in Spectrum: 2048
>>>>>Begin Spectral Data<<<<<
223.165	2.06
223.4	2.06
223.635	2.06
223.869	-5.94
224.104	-18.94
224.338	-27.94
224.573	-15.94
224.808	-5.94
225.042	-18.94
225.277	-13.94
225.511	-3.94
225.746	0.06
225.98	4.06
226.215	23.06
226.449	23.06
226.683	17.06
226.918	16.06
227.152	26.06
227.387	40.06
227.621	50.06
227.856	41.06
228.09	44.06
228.324	43.06
228.559	56.06
228.793	102.06
229.027	300.06
229.262	334.06
229.496	301.06
229.73	292.06
229.964	299.06
230.199	313.06
230.433	312.06
230.667	325.06
230.901	340.06
231.136	338.06
231.37	351.06
231.604	394.06
231.838	424.06
232.072	532.06
232.306	573.06
232.541	477.06
232.775	419.06
233.009	434.06
233.243	427.06
233.477	459.06
233.711	541.06
233.945	596.06
234.179	525.06
234.413	467.06
234.647	444.06
234.881	490.06
235.115	513.06
235.349	642.06
235.583	806.06
235.817	1036.06
236.051	1005.06
236.285	672.06
236.519	560.06
236.753	485.06
236.987	505.06
237.221	551.06
237.455	495.06
237.689	481.06
237.922	472.06
238.156	474.06
238.39	487.06
238.624	454.06
238.858	480.06
239.091	462.06
239.325	491.06
239.559	506.06
239.793	499.06
240.027	537.06
240.26	555.06
240.494	550.06
240.728	590.06
240.961	626.06
241.195	626.06
241.429	684.06
241.662	721.06
241.896	788.06
242.13	954.06
242.363	1288.06
242.597	1652.06
242.83	1600.06
243.064	1586.06
243.298	1866.06
243.531	1515.06
243.765	976.06
243.998	794.06
244.232	698.06
244.465	660.06
244.699	644.06
244.932	636.06
245.166	649.06
245.399	661.06
245.633	673.06
245.866	673.06
246.099	676.06
246.333	650.06
246.566	637.06
246.8	628.06
247.033	635.06
247.266	628.06
247.5	654.06
247.733	676.06
247.966	746.06
248.2	723.06
248.433	890.06
248.666	1012.06
248.899	951.06
249.133	853.06
249.366	882.06
249.599	984.06
249.832	1088.06
250.066	1075.06
250.299	859.06
250.532	781.06
250.765	735.06
250.998	724.06
251.231	717.06
251.465	720.06
251.698	723.06
251.931	717.06
252.164	712.06
252.397	766.06
252.63	785.06
252.863	792.06
253.096	780.06
253.329	782.06
253.562	760.06
253.795	786.06
254.028	778.06
254.261	822.06
254.494	858.06
254.727	1028.06
254.96	1243.06
255.193	1194.06
255.426	1008.06
255.659	869.06
255.892	858.06
256.124	870.06
256.357	874.06
256.59	892.06
256.823	973.06
257.056	1137.06
257.289	1402.06
257.521	1481.06
257.754	1214.06
257.987	972.06
258.22	890.06
258.452	905.06
258.685	875.06
258.918	924.06
259.151	973.06
259.383	1087.06
259.616	1228.06
259.849	1282.06
260.081	1082.06
260.314	967.06
260.547	943.06
260.779	941.06
261.012	919.06
261.244	920.06
261.477	939.06
261.71	948.06
261.942	988.06
262.175	974.06
262.407	1013.06
262.64	1005.06
262.872	1067.06
263.105	1108.06
263.337	1157.06
263.57	1204.06
263.802	1229.06
264.035	1280.06
264.267	1288.06
264.499	1293.06
264.732	1343.06
264.964	1384.06
265.197	1398.06
265.429	1376.06
265.661	1414.06
265.894	1477.06
266.126	1692.06
266.358	1940.06
266.591	1859.06
266.823	1547.06
267.055	1390.06
267.287	1347.06
267.52	1286.06
267.752	1257.06
267.984	1244.06
268.216	1225.06
268.448	1184.06
268.681	1168.06
268.913	1187.06
269.145	1234.06
269.377	1217.06
269.609	1213.06
269.841	1289.06
270.073	1338.06
270.306	1593.06
270.538	2171.06
270.77	3272.06
271.002	4000.06
271.234	2818.06
271.466	1897.06
271.698	1566.06
271.93	1392.06
272.162	1342.06
272.394	1232.06
272.626	1234.06
272.858	1205.06
273.09	1186.06
273.322	1185.06
273.553	1159.06
273.785	1162.06
274.017	1185.06
274.249	1204.06
274.481	1182.06
274.713	1191.06
274.945	1166.06
275.176	1193.06
275.408	1178.06
275.64	1220.06
275.872	1194.06
276.104	1185.06
276.335	1229.06
276.567	1237.06
276.799	1220.06
277.031	1306.06
277.262	1295.06
277.494	1376.06
277.726	1556.06
277.957	1879.06
278.189	2122.06
278.421	1976.06
278.652	1726.06
278.884	1661.06
279.115	1458.06
279.347	1414.06
279.579	1386.06
279.81	1354.06
280.042	1354.06
280.273	1397.06
280.505	1404.06
280.736	1456.06
280.968	1554.06
281.199	1772.06
281.431	2072.06
281.662	2098.06
281.894	1782.06
282.125	1642.06
282.356	1619.06
282.588	1657.06
282.819	1712.06
283.051	1810.06
283.282	2020.06
283.513	2513.06
283.745	3720.06
283.976	5820.06
284.207	8231.06
284.439	7452.06
284.67	4715.06
284.901	3851.06
285.132	3848.06
285.364	3632.06
285.595	2755.06
285.826	2528.06
286.057	2934.06
286.288	3958.06
286.52	5324.06
286.751	4969.06
286.982	3102.06
287.213	2306.06
287.444	2018.06
287.675	1904.06
287.906	1753.06
288.138	1728.06
288.369	1633.06
288.6	1692.06
288.831	1628.06
289.062	1637.06
289.293	1644.06
289.524	1626.06
289.755	1652.06
289.986	1666.06
290.217	1692.06
290.448	1717.06
290.679	1712.06
290.91	1747.06
291.141	1836.06
291.371	1996.06
291.602	2049.06
291.833	1926.06
292.064	1742.06
292.295	1628.06
292.526	1625.06
292.757	1583.06
292.987	1558.06
293.218	1571.06
293.449	1569.06
293.68	1566.06
293.91	1561.06
294.141	1556.06
294.372	1528.06
294.603	1503.06
294.833	1524.06
295.064	1515.06
295.295	1531.06
295.525	1515.06
295.756	1525.06
295.987	1498.06
296.217	1517.06
296.448	1518.06
296.679	1538.06
296.909	1529.06
297.14	1576.06
297.37	1558.06
297.601	1600.06
297.831	1594.06
298.062	1595.06
298.292	1574.06
298.523	1621.06
298.753	1668.06
298.984	1631.06
299.214	1714.06
299.445	1732.06
299.675	1718.06
299.905	1809.06
300.136	1882.06
300.366	2125.06
300.597	2762.06
300.827	3904.06
301.057	5263.06
301.288	5428.06
301.518	3480.06
301.748	2633.06
301.979	2378.06
302.209	2293.06
302.439	2253.06
302.669	2435.06
302.9	2985.06
303.13	4203.06
303.36	6284.06
303.59	8346.06
303.82	7310.06
304.051	4320.06
304.281	3082.06
304.511	2584.06
304.741	2342.06
304.971	2178.06
305.201	2002.06
305.431	1955.06
305.661	1920.06
305.891	1908.06
306.121	1884.06
306.352	1840.06
306.582	1793.06
306.812	1778.06
307.042	1806.06
307.272	1758.06
307.502	1735.06
307.731	1762.06
307.961	1756.06
308.191	1738.06
308.421	1742.06
308.651	1709.06
308.881	1740.06
309.111	1751.06
309.341	1758.06
309.571	1784.06
309.8	1797.06
310.03	1813.06
310.26	1826.06
310.49	1814.06
310.72	1842.06
310.949	1812.06
311.179	1826.06
311.409	1879.06
311.639	1860.06
311.868	1885.06
312.098	1875.06
312.328	1889.06
312.557	1889.06
312.787	1889.06
313.017	1909.06
313.246	1968.06
313.476	1955.06
313.706	2052.06
313.935	2143.06
314.165	2323.06
314.394	2456.06
314.624	2266.06
314.853	2105.06
315.083	2102.06
315.312	2097.06
315.542	2157.06
315.771	2197.06
316.001	2242.06
316.23	2282.06
316.46	2379.06
316.689	2698.06
316.919	3260.06
317.148	4660.06
317.377	7159.06
317.607	10602.06
317.836	11129.06
318.065	6828.06
318.295	4434.06
318.524	3564.06
318.753	2996.06
318.983	2760.06
319.212	2606.06
319.441	2487.06
319.67	2430.06
319.9	2317.06
320.129	2339.06
320.358	2324.06
320.587	2264.06
320.816	2275.06
321.046	2293.06
321.275	2279.06
321.504	2314.06
321.733	2393.06
321.962	2442.06
322.191	2484.06
322.42	2430.06
322.649	2426.06
322.878	2410.06
323.108	2450.06
323.337	2503.06
323.566	2495.06
323.795	2573.06
324.024	2614.06
324.253	2731.06
324.482	2754.06
324.71	2985.06
324.939	3210.06
325.168	3228.06
325.397	3390.06
325.626	4053.06
325.855	5673.06
326.084	8843.06
326.313	12856.06
326.542	13644.06
326.77	9325.06
326.999	6084.06
327.228	5006.06
327.457	4786.06
327.686	4790.06
327.914	5041.06
328.143	5894.06
328.372	7083.06
328.6	7680.06
328.829	6777.06
329.058	5784.06
329.287	4990.06
329.515	4596.06
329.744	4185.06
329.972	3937.06
330.201	3809.06
330.43	3664.06
330.658	3553.06
330.887	3460.06
331.115	3401.06
331.344	3404.06
331.572	3306.06
331.801	3437.06
332.03	3394.06
332.258	3504.06
332.486	3702.06
332.715	4234.06
332.943	5212.06
333.172	6620.06
333.4	6641.06
333.629	4993.06
333.857	4451.06
334.085	4435.06
334.314	4675.06
334.542	5025.06
334.771	5918.06
334.999	7288.06
335.227	9176.06
335.455	10350.06
335.684	9200.06
335.912	7582.06
336.14	6375.06
336.369	5594.06
336.597	5098.06
336.825	4692.06
337.053	4403.06
337.281	4134.06
337.51	3932.06
337.738	3733.06
337.966	3551.06
338.194	3473.06
338.422	3369.06
338.65	3264.06
338.878	3238.06
339.106	3182.06
339.334	3138.06
339.562	3018.06
339.79	2976.06
340.018	3018.06
340.246	2921.06
340.474	2938.06
340.702	2928.06
340.93	2933.06
341.158	2860.06
341.386	2900.06
341.614	2868.06
341.842	2824.06
342.07	2742.06
342.298	2702.06
342.526	2676.06
342.754	2626.06
342.981	2613.06
343.209	2652.06
343.437	2639.06
343.665	2676.06
343.893	2703.06
344.12	2683.06
344.348	2685.06
344.576	2611.06
344.804	2572.06
345.031	2554.06
345.259	2531.06
345.487	2513.06
345.714	2487.06
345.942	2469.06
346.17	2464.06
346.397	2418.06
346.625	2413.06
346.853	2457.06
347.08	2419.06
347.308	2402.06
347.535	2434.06
347.763	2438.06
347.99	2394.06
348.218	2420.06
348.445	2374.06
348.673	2360.06
348.9	2382.06
349.128	2398.06
349.355	2327.06
349.583	2341.06
349.81	2334.06
350.037	2335.06
350.265	2316.06
350.492	2317.06
350.72	2330.06
350.947	2298.06
351.174	2344.06
351.402	2295.06
351.629	2338.06
351.856	2289.06
352.083	2333.06
352.311	2256.06
352.538	2324.06
352.765	2301.06
352.992	2273.06
353.22	2319.06
353.447	2233.06
353.674	2283.06
353.901	2297.06
354.128	2343.06
354.355	2309.06
354.583	2312.06
354.81	2379.06
355.037	2371.06
355.264	2359.06
355.491	2365.06
355.718	2362.06
355.945	2378.06
356.172	2379.06
356.399	2401.06
356.626	2419.06
356.853	2428.06
357.08	2432.06
357.307	2449.06
357.534	2501.06
357.761	2492.06
357.988	2504.06
358.215	2420.06
358.441	2420.06
358.668	2427.06
358.895	2433.06
359.122	2476.06
359.349	2466.06
359.576	2436.06
359.802	2433.06
360.029	2416.06
360.256	2454.06
360.483	2404.06
360.709	2428.06
360.936	2471.06
361.163	2473.06
361.39	2430.06
361.616	2454.06
361.843	2537.06
362.07	2486.06
362.296	2505.06
362.523	2443.06
362.749	2457.06
362.976	2400.06
363.203	2447.06
363.429	2445.06
363.656	2413.06
363.882	2475.06
364.109	2446.06
364.335	2409.06
364.562	2423.06
364.788	2443.06
365.015	2450.06
365.241	2563.06
365.468	2716.06
365.694	2874.06
365.92	2716.06
366.147	2578.06
366.373	2521.06
366.599	2457.06
366.826	2472.06
367.052	2486.06
367.278	2515.06
367.505	2508.06
367.731	2478.06
367.957	2537.06
368.184	2513.06
368.41	2579.06
368.636	2537.06
368.862	2546.06
369.089	2566.06
369.315	2518.06
369.541	2543.06
369.767	2558.06
369.993	2570.06
370.219	2517.06
370.445	2557.06
370.672	2559.06
370.898	2562.06
371.124	2603.06
371.35	2574.06
371.576	2638.06
371.802	2673.06
372.028	2592.06
372.254	2658.06
372.48	2613.06
372.706	2645.06
372.932	2647.06
373.158	2659.06
373.384	2700.06
373.61	2686.06
373.835	2698.06
374.061	2717.06
374.287	2706.06
374.513	2786.06
374.739	2765.06
374.965	2800.06
375.191	2774.06
375.416	2738.06
375.642	2732.06
375.868	2695.06
376.094	2665.06
376.319	2706.06
376.545	2673.06
376.771	2653.06
376.997	2609.06
377.222	2608.06
377.448	2610.06
377.674	2616.06
377.899	2573.06
378.125	2641.06
378.35	2620.06
378.576	2632.06
378.802	2622.06
379.027	2750.06
379.253	2751.06
379.478	3002.06
379.704	3512.06
379.929	5138.06
380.155	7954.06
380.38	8673.06
380.606	5287.06
380.831	3711.06
381.057	3155.06
381.282	2909.06
381.507	2798.06
381.733	2730.06
381.958	2680.06
382.184	2630.06
382.409	2640.06
382.634	2554.06
382.86	2578.06
383.085	2580.06
383.31	2574.06
383.535	2605.06
383.761	2628.06
383.986	2613.06
384.211	2629.06
384.436	2690.06
384.662	2698.06
384.887	2667.06
385.112	2616.06
385.337	2666.06
385.562	2684.06
385.787	2708.06
386.013	2686.06
386.238	2715.06
386.463	2670.06
386.688	2701.06
386.913	2658.06
387.138	2639.06
387.363	2655.06
387.588	2635.06
387.813	2643.06
388.038	2677.06
388.263	2662.06
388.488	2680.06
388.713	2684.06
388.938	2598.06
389.163	2629.06
389.387	2668.06
389.612	2632.06
389.837	2653.06
390.062	2627.06
390.287	2694.06
390.512	2701.06
390.736	2748.06
390.961	2756.06
391.186	2785.06
391.411	2812.06
391.636	2777.06
391.86	2844.06
392.085	2811.06
392.31	2747.06
392.534	2758.06
392.759	2748.06
392.984	2742.06
393.208	2733.06
393.433	2812.06
393.658	2748.06
393.882	2677.06
394.107	2721.06
394.331	2684.06
394.556	2670.06
394.78	2760.06
395.005	2788.06
395.229	2769.06
395.454	2784.06
395.678	2762.06
395.903	2754.06
396.127	2746.06
396.352	2764.06
396.576	2793.06
396.801	2754.06
397.025	2822.06
397.249	2842.06
397.474	2764.06
397.698	2719.06
397.922	2805.06
398.147	2761.06
398.371	2849.06
398.595	2892.06
398.82	2942.06
399.044	3068.06
399.268	3178.06
399.492	3366.06
399.717	3450.06
399.941	3502.06
400.165	3316.06
400.389	3209.06
400.613	3156.06
400.837	3026.06
401.062	2992.06
401.286	2939.06
401.51	2922.06
401.734	2881.06
401.958	2938.06
402.182	2950.06
402.406	2894.06
402.63	2931.06
402.854	2964.06
403.078	2951.06
403.302	3004.06
403.526	3031.06
403.75	3015.06
403.974	3026.06
404.198	3012.06
404.422	3037.06
404.645	3040.06
404.869	2969.06
405.093	3017.06
405.317	2979.06
405.541	3062.06
405.765	3097.06
405.988	3132.06
406.212	3149.06
406.436	3096.06
406.66	3183.06
406.883	3098.06
407.107	3208.06
407.331	3221.06
407.555	3342.06
407.778	3301.06
408.002	3304.06
408.226	3260.06
408.449	3204.06
408.673	3149.06
408.896	3076.06
409.12	3104.06
409.344	3108.06
409.567	2971.06
409.791	3065.06
410.014	3049.06
410.238	2996.06
410.461	3036.06
410.685	3010.06
410.908	2953.06
411.132	2988.06
411.355	2911.06
411.578	2922.06
411.802	2888.06
412.025	2903.06
412.249	2949.06
412.472	2939.06
412.695	2857.06
412.919	2859.06
413.142	2866.06
413.365	2881.06
413.589	2869.06
413.812	2843.06
414.035	2903.06
414.258	2868.06
414.482	2877.06
414.705	2873.06
414.928	2855.06
415.151	2887.06
415.374	2849.06
415.597	2840.06
415.821	2769.06
416.044	2732.06
416.267	2716.06
416.49	2794.06
416.713	2740.06
416.936	2768.06
417.159	2672.06
417.382	2688.06
417.605	2712.06
417.828	2750.06
418.051	2741.06
418.274	2752.06
418.497	2763.06
418.72	2800.06
418.943	2797.06
419.166	2944.06
419.389	3078.06
419.611	3012.06
419.834	2919.06
420.057	2896.06
420.28	2777.06
420.503	2721.06
420.726	2705.06
420.948	2703.06
421.171	2728.06
421.394	2768.06
421.617	2740.06
421.839	2800.06
422.062	2806.06
422.285	2753.06
422.507	2802.06
422.73	2837.06
422.953	2920.06
423.175	2861.06
423.398	2840.06
423.621	2751.06
423.843	2785.06
424.066	2771.06
424.288	2717.06
424.511	2735.06
424.733	2760.06
424.956	2692.06
425.178	2725.06
425.401	2720.06
425.623	2754.06
425.846	2648.06
426.068	2684.06
426.291	2667.06
426.513	2658.06
426.735	2628.06
426.958	2661.06
427.18	2610.06
427.402	2596.06
427.625	2682.06
427.847	2620.06
428.069	2596.06
428.292	2621.06
428.514	2587.06
428.736	2572.06
428.958	2603.06
429.181	2536.06
429.403	2512.06
429.625	2507.06
429.847	2564.06
430.069	2616.06
430.292	2679.06
430.514	2782.06
430.736	2776.06
430.958	2663.06
431.18	2557.06
431.402	2536.06
431.624	2482.06
431.846	2507.06
432.068	2480.06
432.29	2544.06
432.512	2499.06
432.734	2546.06
432.956	2535.06
433.178	2536.06
433.4	2538.06
433.622	2593.06
433.844	2572.06
434.066	2560.06
434.287	2498.06
434.509	2572.06
434.731	2612.06
434.953	2595.06
435.175	2665.06
435.397	2648.06
435.618	2592.06
435.84	2610.06
436.062	2543.06
436.284	2561.06
436.505	2494.06
436.727	2519.06
436.949	2515.06
437.17	2509.06
437.392	2473.06
437.614	2473.06
437.835	2473.06
438.057	2444.06
438.278	2428.06
438.5	2485.06
438.721	2533.06
438.943	2622.06
439.165	2648.06
439.386	2652.06
439.608	2612.06
439.829	2653.06
440.05	2704.06
440.272	2794.06
440.493	2664.06
440.715	2615.06
440.936	2672.06
441.158	2636.06
441.379	2632.06
441.6	2752.06
441.822	2830.06
442.043	2978.06
442.264	3102.06
442.486	2883.06
442.707	2747.06
442.928	2754.06
443.149	2724.06
443.371	2700.06
443.592	2713.06
443.813	2744.06
444.034	2773.06
444.255	2771.06
444.476	2837.06
444.698	2896.06
444.919	2889.06
445.14	2905.06
445.361	2811.06
445.582	2768.06
445.803	2665.06
446.024	2692.06
446.245	2720.06
446.466	2697.06
446.687	2678.06
446.908	2634.06
447.129	2582.06
447.35	2532.06
447.571	2521.06
447.792	2502.06
448.013	2515.06
448.234	2499.06
448.455	2495.06
448.675	2528.06
448.896	2610.06
449.117	2644.06
449.338	2976.06
449.559	3068.06
449.779	2746.06
450	2520.06
450.221	2495.06
450.442	2494.06
450.662	2456.06
450.883	2465.06
451.104	2477.06
451.324	2467.06
451.545	2443.06
451.766	2540.06
451.986	2553.06
452.207	2742.06
452.428	3515.06
452.648	5458.06
452.869	4576.06
453.089	3122.06
453.31	2822.06
453.53	2902.06
453.751	2982.06
453.971	3164.06
454.192	3044.06
454.412	2626.06
454.633	2486.06
454.853	2450.06
455.073	2386.06
455.294	2381.06
455.514	2326.06
455.734	2324.06
455.955	2320.06
456.175	2328.06
456.395	2377.06
456.616	2388.06
456.836	2340.06
457.056	2428.06
457.276	2400.06
457.497	2540.06
457.717	2560.06
457.937	2501.06
458.157	2461.06
458.377	2493.06
458.598	2531.06
458.818	2509.06
459.038	2490.06
459.258	2500.06
459.478	2545.06
459.698	2587.06
459.918	2537.06
460.138	2672.06
460.358	2689.06
460.578	2757.06
460.798	2724.06
461.018	2807.06
461.238	2736.06
461.458	2806.06
461.678	2808.06
461.898	2879.06
462.118	2889.06
462.338	2951.06
462.558	2973.06
462.777	3068.06
462.997	3122.06
463.217	3239.06
463.437	3421.06
463.657	3466.06
463.876	3469.06
464.096	3270.06
464.316	3076.06
464.536	3012.06
464.755	2934.06
464.975	2925.06
465.195	2798.06
465.414	2758.06
465.634	2664.06
465.854	2615.06
466.073	2593.06
466.293	2610.06
466.512	2553.06
466.732	2598.06
466.951	2748.06
467.171	2944.06
467.391	2851.06
467.61	2628.06
467.829	2562.06
468.049	2571.06
468.268	2423.06
468.488	2532.06
468.707	2478.06
468.927	2498.06
469.146	2486.06
469.365	2562.06
469.585	2506.06
469.804	2627.06
470.023	2596.06
470.243	2688.06
470.462	2809.06
470.681	2921.06
470.901	3229.06
471.12	3724.06
471.339	3670.06
471.558	3104.06
471.777	2806.06
471.997	2707.06
472.216	2653.06
472.435	2570.06
472.654	2552.06
472.873	2517.06
473.092	2559.06
473.311	2562.06
473.53	2585.06
473.749	2600.06
473.968	2684.06
474.187	2610.06
474.406	2516.06
474.625	2562.06
474.844	2535.06
475.063	2538.06
475.282	2517.06
475.501	2527.06
475.72	2575.06
475.939	2563.06
476.158	2593.06
476.377	2689.06
476.596	2693.06
476.814	2660.06
477.033	2624.06
477.252	2677.06
477.471	2736.06
477.69	2737.06
477.908	2803.06
478.127	2802.06
478.346	2880.06
478.564	2887.06
478.783	2854.06
479.002	2960.06
479.22	2976.06
479.439	2984.06
479.658	2988.06
479.876	3016.06
480.095	3052.06
480.313	3100.06
480.532	3138.06
480.751	3113.06
480.969	3092.06
481.188	3060.06
481.406	2994.06
481.624	3028.06
481.843	3088.06
482.061	3089.06
482.28	3013.06
482.498	3022.06
482.717	3078.06
482.935	3060.06
483.153	3097.06
483.372	3171.06
483.59	3215.06
483.808	3258.06
484.027	3355.06
484.245	3545.06
484.463	3951.06
484.681	4390.06
484.9	4041.06
485.118	3742.06
485.336	3670.06
485.554	3676.06
485.772	3962.06
485.99	4458.06
486.209	4773.06
486.427	4089.06
486.645	3538.06
486.863	3442.06
487.081	3363.06
487.299	3304.06
487.517	3271.06
487.735	3278.06
487.953	3293.06
488.171	3293.06
488.389	3269.06
488.607	3233.06
488.825	3151.06
489.043	3130.06
489.261	3152.06
489.479	3153.06
489.696	3186.06
489.914	3148.06
490.132	3158.06
490.35	3137.06
490.568	3192.06
490.786	3242.06
491.003	3225.06
491.221	3276.06
491.439	3318.06
491.657	3307.06
491.874	3290.06
492.092	3282.06
492.31	3291.06
492.527	3286.06
492.745	3270.06
492.963	3278.06
493.18	3286.06
493.398	3271.06
493.615	3354.06
493.833	3216.06
494.05	3300.06
494.268	3333.06
494.485	3328.06
494.703	3344.06
494.92	3361.06
495.138	3331.06
495.355	3274.06
495.573	3342.06
495.79	3372.06
496.008	3371.06
496.225	3420.06
496.442	3426.06
496.66	3541.06
496.877	3746.06
497.094	3766.06
497.312	3592.06
497.529	3580.06
497.746	3593.06
497.963	3656.06
498.181	3795.06
498.398	3784.06
498.615	3962.06
498.832	4087.06
499.049	4235.06
499.267	4542.06
499.484	4906.06
499.701	4864.06
499.918	4969.06
500.135	5290.06
500.352	5526.06
500.569	5501.06
500.786	5432.06
501.003	5336.06
501.22	5087.06
501.437	4757.06
501.654	4480.06
501.871	4333.06
502.088	4184.06
502.305	4023.06
502.522	3947.06
502.739	3856.06
502.956	3690.06
503.172	3662.06
503.389	3534.06
503.606	3460.06
503.823	3461.06
504.04	3446.06
504.256	3483.06
504.473	3432.06
504.69	3420.06
504.907	3392.06
505.123	3269.06
505.34	3236.06
505.557	3158.06
505.773	3088.06
505.99	3119.06
506.207	3048.06
506.423	3001.06
506.64	3016.06
506.856	2944.06
507.073	3024.06
507.289	2948.06
507.506	2906.06
507.722	2893.06
507.939	2930.06
508.155	2889.06
508.372	2864.06
508.588	2829.06
508.805	2841.06
509.021	2818.06
509.238	2862.06
509.454	3060.06
509.67	3266.06
509.887	3064.06
510.103	2941.06
510.319	2866.06
510.536	2848.06
510.752	2780.06
510.968	2796.06
511.184	2780.06
511.401	2742.06
511.617	2758.06
511.833	2758.06
512.049	2725.06
512.265	2716.06
512.481	2734.06
512.698	2676.06
512.914	2759.06
513.13	2729.06
513.346	2715.06
513.562	2688.06
513.778	2741.06
513.994	2816.06
514.21	2889.06
514.426	3067.06
514.642	3204.06
514.858	2929.06
515.074	2798.06
515.29	2796.06
515.506	2764.06
515.721	2866.06
515.937	2882.06
516.153	2826.06
516.369	2826.06
516.585	2923.06
516.801	2891.06
517.016	2966.06
517.232	3050.06
517.448	3068.06
517.664	3090.06
517.879	3080.06
518.095	3069.06
518.311	3084.06
518.527	3051.06
518.742	3084.06
518.958	3039.06
519.173	3130.06
519.389	3015.06
519.605	2869.06
519.82	2866.06
520.036	2842.06
520.251	2770.06
520.467	2793.06
520.682	2736.06
520.898	2732.06
521.113	2683.06
521.329	2698.06
521.544	2706.06
521.76	2717.06
521.975	2707.06
522.19	2648.06
522.406	2659.06
522.621	2657.06
522.836	2620.06
523.052	2626.06
523.267	2631.06
523.482	2619.06
523.698	2665.06
523.913	2666.06
524.128	2656.06
524.343	2601.06
524.559	2608.06
524.774	2597.06
524.989	2621.06
525.204	2615.06
525.419	2601.06
525.634	2595.06
525.849	2643.06
526.064	2578.06
526.28	2612.06
526.495	2605.06
526.71	2640.06
526.925	2611.06
527.14	2571.06
527.355	2635.06
527.57	2637.06
527.785	2666.06
527.999	2664.06
528.214	2718.06
528.429	2749.06
528.644	2726.06
528.859	2759.06
529.074	2779.06
529.289	2789.06
529.503	2828.06
529.718	2829.06
529.933	2778.06
530.148	2764.06
530.363	2772.06
530.577	2784.06
530.792	2781.06
531.007	2852.06
531.221	2887.06
531.436	2879.06
531.651	2910.06
531.865	2945.06
532.08	2952.06
532.295	3060.06
532.509	3314.06
532.724	3348.06
532.938	3339.06
533.153	3409.06
533.367	3675.06
533.582	3894.06
533.796	3859.06
534.011	3729.06
534.225	3554.06
534.44	3369.06
534.654	3356.06
534.868	3284.06
535.083	3229.06
535.297	3154.06
535.511	3100.06
535.726	3018.06
535.94	3011.06
536.154	2932.06
536.369	2934.06
536.583	2812.06
536.797	2813.06
537.011	2788.06
537.225	2764.06
537.44	2728.06
537.654	2727.06
537.868	2697.06
538.082	2617.06
538.296	2658.06
538.51	2667.06
538.724	2653.06
538.938	2626.06
539.153	2626.06
539.367	2596.06
539.581	2585.06
539.795	2500.06
540.009	2519.06
540.222	2529.06
540.436	2501.06
540.65	2573.06
540.864	2547.06
541.078	2652.06
541.292	2778.06
541.506	3284.06
541.72	3486.06
541.934	2940.06
542.147	2770.06
542.361	2664.06
542.575	2580.06
542.789	2547.06
543.002	2455.06
543.216	2482.06
543.43	2442.06
543.644	2429.06
543.857	2452.06
544.071	2516.06
544.285	2499.06
544.498	2453.06
544.712	2470.06
544.925	2520.06
545.139	2537.06
545.352	2474.06
545.566	2445.06
545.779	2425.06
545.993	2530.06
546.206	2472.06
546.42	2467.06
546.633	2457.06
546.847	2490.06
547.06	2458.06
547.274	2502.06
547.487	2452.06
547.7	2491.06
547.914	2509.06
548.127	2428.06
548.34	2485.06
548.554	2522.06
548.767	2520.06
548.98	2470.06
549.193	2489.06
549.407	2484.06
549.62	2454.06
549.833	2503.06
550.046	2478.06
550.259	2486.06
550.473	2478.06
550.686	2472.06
550.899	2473.06
551.112	2508.06
551.325	2454.06
551.538	2530.06
551.751	2451.06
551.964	2487.06
552.177	2520.06
552.39	2571.06
552.603	2668.06
552.816	2644.06
553.029	2700.06
553.242	2713.06
553.455	2788.06
553.667	2763.06
553.88	2782.06
554.093	2731.06
554.306	2836.06
554.519	2843.06
554.732	2882.06
554.944	2942.06
555.157	3008.06
555.37	3086.06
555.583	3148.06
555.795	3407.06
556.008	3681.06
556.221	4066.06
556.433	4429.06
556.646	4397.06
556.859	4210.06
557.071	4021.06
557.284	3922.06
557.496	3808.06
557.709	3662.06
557.921	3668.06
558.134	3646.06
558.346	3720.06
558.559	3876.06
558.771	4093.06
558.984	4496.06
559.196	4775.06
559.409	4630.06
559.621	4250.06
559.833	3993.06
560.046	3732.06
560.258	3484.06
560.47	3328.06
560.683	3258.06
560.895	3096.06
561.107	2958.06
561.32	2843.06
561.532	2791.06
561.744	2754.06
561.956	2705.06
562.168	2708.06
562.381	2650.06
562.593	2594.06
562.805	2692.06
563.017	2667.06
563.229	2710.06
563.441	3172.06
563.653	2652.06
563.865	2431.06
564.077	2376.06
564.289	2339.06
564.501	2334.06
564.713	2370.06
564.925	2288.06
565.137	2322.06
565.349	2277.06
565.561	2346.06
565.773	2328.06
565.985	2318.06
566.197	2317.06
566.408	2429.06
566.62	2450.06
566.832	2497.06
567.044	2505.06
567.255	2557.06
567.467	2544.06
567.679	2637.06
567.891	2794.06
568.102	3069.06
568.314	3529.06
568.526	3089.06
568.737	2652.06
568.949	2394.06
569.161	2272.06
569.372	2198.06
569.584	2122.06
569.795	2104.06
570.007	2032.06
570.218	2146.06
570.43	2200.06
570.641	2010.06
570.853	1966.06
571.064	1938.06
571.276	1923.06
571.487	1877.06
571.698	1874.06
571.91	1810.06
572.121	1804.06
572.333	1830.06
572.544	1805.06
572.755	1974.06
572.966	2276.06
573.178	2117.06
573.389	1896.06
573.6	1770.06
573.811	1697.06
574.023	1717.06
574.234	1708.06
574.445	1712.06
574.656	1698.06
574.867	1681.06
575.078	1676.06
575.289	1669.06
575.501	1654.06
575.712	1641.06
575.923	1676.06
576.134	1653.06
576.345	1686.06
576.556	1687.06
576.767	1672.06
576.978	1672.06
577.188	1660.06
577.399	1692.06
577.61	1728.06
577.821	1730.06
578.032	1717.06
578.243	1778.06
578.454	1794.06
578.665	1890.06
578.875	1897.06
579.086	1943.06
579.297	2080.06
579.508	2214.06
579.718	2411.06
579.929	2755.06
580.14	3206.06
580.35	3344.06
580.561	3001.06
580.772	2708.06
580.982	2542.06
581.193	2326.06
581.403	2163.06
581.614	2088.06
581.825	2020.06
582.035	1912.06
582.246	1861.06
582.456	1810.06
582.667	1733.06
582.877	1741.06
583.087	1690.06
583.298	1648.06
583.508	1578.06
583.719	1533.06
583.929	1538.06
584.139	1484.06
584.35	1450.06
584.56	1440.06
584.77	1414.06
584.981	1404.06
585.191	1401.06
585.401	1384.06
585.611	1328.06
585.821	1312.06
586.032	1307.06
586.242	1318.06
586.452	1302.06
586.662	1282.06
586.872	1264.06
587.082	1236.06
587.292	1224.06
587.502	1248.06
587.713	1227.06
587.923	1235.06
588.133	1197.06
588.343	1216.06
588.553	1208.06
588.762	1141.06
588.972	1141.06
589.182	1218.06
589.392	1210.06
589.602	1182.06
589.812	1184.06
590.022	1180.06
590.232	1140.06
590.441	1136.06
590.651	1164.06
590.861	1139.06
591.071	1122.06
591.281	1102.06
591.49	1140.06
591.7	1145.06
591.91	1129.06
592.119	1120.06
592.329	1148.06
592.539	1153.06
592.748	1181.06
592.958	1191.06
593.167	1184.06
593.377	1154.06
593.587	1190.06
593.796	1186.06
594.006	1180.06
594.215	1192.06
594.424	1164.06
594.634	1182.06
594.843	1138.06
595.053	1145.06
595.262	1133.06
595.472	1088.06
595.681	1076.06
595.89	1048.06
596.1	1038.06
596.309	1045.06
596.518	1031.06
596.727	1010.06
596.937	992.06
597.146	1003.06
597.355	1005.06
597.564	993.06
597.774	988.06
597.983	987.06
598.192	952.06
598.401	946.06
598.61	946.06
598.819	930.06
599.028	938.06
599.237	912.06
599.446	911.06
599.655	956.06
599.864	921.06
600.073	924.06
600.282	901.06
600.491	937.06
600.7	903.06
600.909	902.06
601.118	932.06
601.327	929.06
601.536	894.06
601.745	946.06
601.953	1050.06
602.162	1198.06
602.371	1061.06
602.58	956.06
602.789	954.06
602.997	937.06
603.206	909.06
603.415	894.06
603.623	903.06
603.832	910.06
604.041	916.06
604.249	883.06
604.458	876.06
604.666	845.06
604.875	851.06
605.084	852.06
605.292	893.06
605.501	889.06
605.709	881.06
605.918	922.06
606.126	899.06
606.334	888.06
606.543	905.06
606.751	978.06
606.96	1100.06
607.168	1222.06
607.376	1054.06
607.585	926.06
607.793	905.06
608.001	893.06
608.21	909.06
608.418	827.06
608.626	844.06
608.834	850.06
609.043	860.06
609.251	834.06
609.459	846.06
609.667	845.06
609.875	805.06
610.083	828.06
610.291	809.06
610.499	820.06
610.707	806.06
610.916	799.06
611.124	788.06
611.332	797.06
611.54	825.06
611.748	816.06
611.955	820.06
612.163	812.06
612.371	785.06
612.579	775.06
612.787	752.06
612.995	792.06
613.203	773.06
613.411	780.06
613.618	780.06
613.826	785.06
614.034	747.06
614.242	777.06
614.449	770.06
614.657	786.06
614.865	766.06
615.072	794.06
615.28	798.06
615.488	790.06
615.695	762.06
615.903	764.06
616.111	767.06
616.318	740.06
616.526	774.06
616.733	782.06
616.941	764.06
617.148	768.06
617.356	780.06
617.563	757.06
617.771	745.06
617.978	725.06
618.185	731.06
618.393	739.06
618.6	764.06
618.807	743.06
619.015	742.06
619.222	716.06
619.429	754.06
619.637	722.06
619.844	702.06
620.051	709.06
620.258	716.06
620.466	693.06
620.673	666.06
620.88	648.06
621.087	662.06
621.294	666.06
621.501	681.06
621.708	664.06
621.915	689.06
622.122	701.06
622.329	664.06
622.536	677.06
622.743	675.06
622.95	688.06
623.157	680.06
623.364	672.06
623.571	676.06
623.778	655.06
623.985	655.06
624.192	644.06
624.399	657.06
624.606	646.06
624.812	648.06
625.019	652.06
625.226	662.06
625.433	633.06
625.639	640.06
625.846	632.06
626.053	619.06
626.259	624.06
626.466	636.06
626.673	625.06
626.879	626.06
627.086	603.06
627.293	611.06
627.499	618.06
627.706	634.06
627.912	606.06
628.119	618.06
628.325	636.06
628.532	611.06
628.738	590.06
628.945	610.06
629.151	601.06
629.357	609.06
629.564	602.06
629.77	590.06
629.976	621.06
630.183	608.06
630.389	597.06
630.595	585.06
630.802	587.06
631.008	585.06
631.214	595.06
631.42	580.06
631.627	584.06
631.833	579.06
632.039	580.06
632.245	569.06
632.451	572.06
632.657	578.06
632.863	582.06
633.069	571.06
633.275	560.06
633.481	574.06
633.688	579.06
633.893	576.06
634.099	570.06
634.305	576.06
634.511	570.06
634.717	582.06
634.923	595.06
635.129	672.06
635.335	747.06
635.541	663.06
635.747	612.06
635.952	625.06
636.158	587.06
636.364	598.06
636.57	584.06
636.775	577.06
636.981	599.06
637.187	578.06
637.392	566.06
637.598	579.06
637.804	601.06
638.009	560.06
638.215	571.06
638.421	562.06
638.626	570.06
638.832	562.06
639.037	590.06
639.243	571.06
639.448	584.06
639.654	569.06
639.859	575.06
640.065	606.06
640.27	602.06
640.475	619.06
640.681	613.06
640.886	598.06
641.091	613.06
641.297	631.06
641.502	632.06
641.707	637.06
641.913	636.06
642.118	661.06
642.323	640.06
642.528	672.06
642.733	689.06
642.939	726.06
643.144	718.06
643.349	740.06
643.554	767.06
643.759	806.06
643.964	845.06
644.169	935.06
644.374	955.06
644.579	1063.06
644.784	1124.06
644.989	1286.06
645.194	1538.06
645.399	1899.06
645.604	1980.06
645.809	1486.06
646.014	1152.06
646.219	941.06
646.423	847.06
646.628	765.06
646.833	713.06
647.038	665.06
647.243	629.06
647.447	614.06
647.652	613.06
647.857	585.06
648.062	566.06
648.266	555.06
648.471	557.06
648.676	532.06
648.88	534.06
649.085	531.06
649.289	519.06
649.494	494.06
649.698	522.06
649.903	503.06
650.107	484.06
650.312	481.06
650.516	450.06
650.721	451.06
650.925	439.06
651.13	449.06
651.334	430.06
651.539	423.06
651.743	415.06
651.947	418.06
652.152	430.06
652.356	432.06
652.56	458.06
652.764	500.06
652.969	456.06
653.173	425.06
653.377	413.06
653.581	371.06
653.785	368.06
653.99	380.06
654.194	344.06
654.398	357.06
654.602	344.06
654.806	334.06
655.01	347.06
655.214	345.06
655.418	341.06
655.622	345.06
655.826	356.06
656.03	354.06
656.234	361.06
656.438	384.06
656.642	384.06
656.846	378.06
657.049	354.06
657.253	342.06
657.457	341.06
657.661	293.06
657.865	285.06
658.068	269.06
658.272	245.06
658.476	234.06
658.68	220.06
658.883	217.06
659.087	213.06
659.291	194.06
659.494	191.06
659.698	182.06
659.901	184.06
660.105	175.06
660.309	160.06
660.512	153.06
660.716	146.06
660.919	149.06
661.123	145.06
661.326	126.06
661.53	140.06
661.733	125.06
661.936	113.06
662.14	118.06
662.343	103.06
662.546	108.06
662.75	104.06
662.953	115.06
663.156	109.06
663.36	104.06
663.563	97.06
663.766	103.06
663.969	93.06
664.173	88.06
664.376	89.06
664.579	94.06
664.782	84.06
664.985	87.06
665.188	76.06
665.391	89.06
665.594	94.06
665.797	86.06
666	87.06
666.203	82.06
666.406	79.06
666.609	83.06
666.812	82.06
667.015	84.06
667.218	83.06
667.421	90.06
667.624	77.06
667.827	92.06
668.03	86.06
668.232	88.06
668.435	88.06
668.638	92.06
668.841	69.06
669.043	85.06
669.246	87.06
669.449	88.06
669.651	82.06
669.854	93.06
670.057	80.06
670.259	74.06
670.462	67.06
670.665	76.06
670.867	84.06
671.07	104.06
671.272	84.06
671.475	93.06
671.677	98.06
671.88	81.06
672.082	84.06
672.284	81.06
672.487	75.06
672.689	95.06
672.892	77.06
