Data from SnStandardFlinnAPT0064_LampEnergy5.5_LIBS07252019.E.O._I.C._HRD10591_15-17-36-492.txt Node
Date: Thu Jul 25 15:17:36 EDT 2019
User: cochatt
Spectrometer: HR+D1059
Trigger mode: 1
Integration Time (sec): 1.000000E-1
Scans to average: 1
Electric dark correction enabled: true
Nonlinearity correction enabled: false
Boxcar width: 0
XAxis mode: Wavelengths
Number of Pixels in Spectrum: 2048
>>>>>Begin Spectral Data<<<<<
223.165	-29.94
223.4	-29.94
223.635	-29.94
223.869	-13.94
224.104	-31.94
224.338	-17.94
224.573	-5.94
224.808	-14.94
225.042	-20.94
225.277	-11.94
225.511	1.06
225.746	22.06
225.98	4.06
226.215	18.06
226.449	18.06
226.683	18.06
226.918	29.06
227.152	37.06
227.387	30.06
227.621	32.06
227.856	38.06
228.09	60.06
228.324	47.06
228.559	53.06
228.793	83.06
229.027	151.06
229.262	166.06
229.496	158.06
229.73	146.06
229.964	170.06
230.199	163.06
230.433	170.06
230.667	177.06
230.901	176.06
231.136	191.06
231.37	194.06
231.604	195.06
231.838	220.06
232.072	263.06
232.306	285.06
232.541	228.06
232.775	209.06
233.009	217.06
233.243	203.06
233.477	220.06
233.711	242.06
233.945	277.06
234.179	247.06
234.413	240.06
234.647	215.06
234.881	231.06
235.115	247.06
235.349	296.06
235.583	356.06
235.817	453.06
236.051	460.06
236.285	318.06
236.519	258.06
236.753	229.06
236.987	246.06
237.221	247.06
237.455	250.06
237.689	230.06
237.922	232.06
238.156	223.06
238.39	234.06
238.624	247.06
238.858	233.06
239.091	249.06
239.325	243.06
239.559	243.06
239.793	241.06
240.027	238.06
240.26	257.06
240.494	244.06
240.728	269.06
240.961	275.06
241.195	315.06
241.429	319.06
241.662	329.06
241.896	344.06
242.13	426.06
242.363	537.06
242.597	703.06
242.83	673.06
243.064	652.06
243.298	823.06
243.531	646.06
243.765	418.06
243.998	327.06
244.232	337.06
244.465	321.06
244.699	296.06
244.932	298.06
245.166	281.06
245.399	297.06
245.633	330.06
245.866	312.06
246.099	296.06
246.333	295.06
246.566	296.06
246.8	303.06
247.033	308.06
247.266	311.06
247.5	283.06
247.733	318.06
247.966	322.06
248.2	347.06
248.433	394.06
248.666	442.06
248.899	431.06
249.133	378.06
249.366	402.06
249.599	411.06
249.832	454.06
250.066	464.06
250.299	399.06
250.532	341.06
250.765	342.06
250.998	327.06
251.231	323.06
251.465	342.06
251.698	337.06
251.931	338.06
252.164	334.06
252.397	329.06
252.63	339.06
252.863	358.06
253.096	373.06
253.329	344.06
253.562	359.06
253.795	363.06
254.028	361.06
254.261	380.06
254.494	409.06
254.727	458.06
254.96	549.06
255.193	560.06
255.426	441.06
255.659	408.06
255.892	385.06
256.124	400.06
256.357	398.06
256.59	412.06
256.823	426.06
257.056	479.06
257.289	584.06
257.521	642.06
257.754	518.06
257.987	451.06
258.22	424.06
258.452	398.06
258.685	425.06
258.918	437.06
259.151	435.06
259.383	454.06
259.616	523.06
259.849	542.06
260.081	467.06
260.314	449.06
260.547	433.06
260.779	435.06
261.012	439.06
261.244	447.06
261.477	442.06
261.71	438.06
261.942	443.06
262.175	446.06
262.407	483.06
262.64	485.06
262.872	490.06
263.105	502.06
263.337	562.06
263.57	579.06
263.802	589.06
264.035	591.06
264.267	601.06
264.499	612.06
264.732	643.06
264.964	649.06
265.197	644.06
265.429	640.06
265.661	656.06
265.894	684.06
266.126	775.06
266.358	818.06
266.591	817.06
266.823	708.06
267.055	647.06
267.287	626.06
267.52	613.06
267.752	616.06
267.984	575.06
268.216	574.06
268.448	576.06
268.681	545.06
268.913	556.06
269.145	552.06
269.377	578.06
269.609	546.06
269.841	618.06
270.073	612.06
270.306	682.06
270.538	932.06
270.77	1371.06
271.002	1678.06
271.234	1162.06
271.466	768.06
271.698	642.06
271.93	584.06
272.162	572.06
272.394	569.06
272.626	555.06
272.858	559.06
273.09	530.06
273.322	553.06
273.553	547.06
273.785	524.06
274.017	545.06
274.249	533.06
274.481	531.06
274.713	539.06
274.945	519.06
275.176	538.06
275.408	551.06
275.64	528.06
275.872	542.06
276.104	571.06
276.335	562.06
276.567	546.06
276.799	573.06
277.031	584.06
277.262	583.06
277.494	621.06
277.726	674.06
277.957	762.06
278.189	852.06
278.421	805.06
278.652	722.06
278.884	694.06
279.115	610.06
279.347	613.06
279.579	623.06
279.81	595.06
280.042	610.06
280.273	626.06
280.505	629.06
280.736	648.06
280.968	663.06
281.199	742.06
281.431	817.06
281.662	844.06
281.894	752.06
282.125	688.06
282.356	702.06
282.588	731.06
282.819	752.06
283.051	766.06
283.282	846.06
283.513	1057.06
283.745	1536.06
283.976	2428.06
284.207	3453.06
284.439	3066.06
284.67	1835.06
284.901	1436.06
285.132	1461.06
285.364	1428.06
285.595	1084.06
285.826	990.06
286.057	1185.06
286.288	1646.06
286.52	2214.06
286.751	2039.06
286.982	1238.06
287.213	907.06
287.444	800.06
287.675	796.06
287.906	764.06
288.138	722.06
288.369	703.06
288.6	739.06
288.831	723.06
289.062	726.06
289.293	740.06
289.524	703.06
289.755	702.06
289.986	726.06
290.217	744.06
290.448	733.06
290.679	747.06
290.91	762.06
291.141	790.06
291.371	843.06
291.602	890.06
291.833	795.06
292.064	752.06
292.295	730.06
292.526	707.06
292.757	709.06
292.987	692.06
293.218	691.06
293.449	694.06
293.68	672.06
293.91	679.06
294.141	686.06
294.372	696.06
294.603	672.06
294.833	696.06
295.064	691.06
295.295	662.06
295.525	685.06
295.756	666.06
295.987	659.06
296.217	664.06
296.448	702.06
296.679	696.06
296.909	685.06
297.14	674.06
297.37	704.06
297.601	716.06
297.831	711.06
298.062	703.06
298.292	702.06
298.523	762.06
298.753	720.06
298.984	727.06
299.214	743.06
299.445	730.06
299.675	735.06
299.905	777.06
300.136	806.06
300.366	940.06
300.597	1162.06
300.827	1589.06
301.057	2201.06
301.288	2165.06
301.518	1369.06
301.748	1030.06
301.979	984.06
302.209	936.06
302.439	937.06
302.669	1037.06
302.9	1198.06
303.13	1721.06
303.36	2547.06
303.59	3446.06
303.82	2980.06
304.051	1676.06
304.281	1218.06
304.511	1036.06
304.741	971.06
304.971	906.06
305.201	875.06
305.431	858.06
305.661	827.06
305.891	810.06
306.121	814.06
306.352	787.06
306.582	784.06
306.812	776.06
307.042	786.06
307.272	772.06
307.502	799.06
307.731	796.06
307.961	817.06
308.191	795.06
308.421	774.06
308.651	769.06
308.881	765.06
309.111	823.06
309.341	781.06
309.571	783.06
309.8	794.06
310.03	800.06
310.26	786.06
310.49	792.06
310.72	821.06
310.949	813.06
311.179	822.06
311.409	823.06
311.639	864.06
311.868	831.06
312.098	825.06
312.328	834.06
312.557	852.06
312.787	863.06
313.017	839.06
313.246	864.06
313.476	867.06
313.706	895.06
313.935	924.06
314.165	952.06
314.394	1012.06
314.624	983.06
314.853	927.06
315.083	927.06
315.312	908.06
315.542	935.06
315.771	948.06
316.001	946.06
316.23	971.06
316.46	1005.06
316.689	1142.06
316.919	1328.06
317.148	1945.06
317.377	3060.06
317.607	4531.06
317.836	4662.06
318.065	2634.06
318.295	1677.06
318.524	1381.06
318.753	1178.06
318.983	1124.06
319.212	1083.06
319.441	1034.06
319.67	1035.06
319.9	1015.06
320.129	1002.06
320.358	997.06
320.587	997.06
320.816	988.06
321.046	991.06
321.275	978.06
321.504	1008.06
321.733	1019.06
321.962	1063.06
322.191	1054.06
322.42	1039.06
322.649	1046.06
322.878	1028.06
323.108	1058.06
323.337	1083.06
323.566	1078.06
323.795	1091.06
324.024	1107.06
324.253	1163.06
324.482	1179.06
324.71	1231.06
324.939	1294.06
325.168	1326.06
325.397	1378.06
325.626	1628.06
325.855	2366.06
326.084	3673.06
326.313	5520.06
326.542	5879.06
326.77	3610.06
326.999	2288.06
327.228	1930.06
327.457	1829.06
327.686	1867.06
327.914	2009.06
328.143	2255.06
328.372	2633.06
328.6	2791.06
328.829	2585.06
329.058	2263.06
329.287	1994.06
329.515	1831.06
329.744	1725.06
329.972	1667.06
330.201	1565.06
330.43	1505.06
330.658	1474.06
330.887	1459.06
331.115	1478.06
331.344	1415.06
331.572	1393.06
331.801	1428.06
332.03	1416.06
332.258	1440.06
332.486	1553.06
332.715	1744.06
332.943	2145.06
333.172	2587.06
333.4	2634.06
333.629	1985.06
333.857	1795.06
334.085	1755.06
334.314	1876.06
334.542	1974.06
334.771	2320.06
334.999	2766.06
335.227	3358.06
335.455	3707.06
335.684	3500.06
335.912	2960.06
336.14	2539.06
336.369	2293.06
336.597	2066.06
336.825	1928.06
337.053	1836.06
337.281	1706.06
337.51	1663.06
337.738	1588.06
337.966	1562.06
338.194	1485.06
338.422	1438.06
338.65	1390.06
338.878	1396.06
339.106	1359.06
339.334	1315.06
339.562	1300.06
339.79	1302.06
340.018	1306.06
340.246	1253.06
340.474	1265.06
340.702	1259.06
340.93	1258.06
341.158	1243.06
341.386	1274.06
341.614	1231.06
341.842	1198.06
342.07	1220.06
342.298	1192.06
342.526	1174.06
342.754	1159.06
342.981	1136.06
343.209	1162.06
343.437	1190.06
343.665	1194.06
343.893	1175.06
344.12	1199.06
344.348	1163.06
344.576	1199.06
344.804	1152.06
345.031	1128.06
345.259	1108.06
345.487	1104.06
345.714	1119.06
345.942	1078.06
346.17	1114.06
346.397	1121.06
346.625	1094.06
346.853	1070.06
347.08	1074.06
347.308	1074.06
347.535	1051.06
347.763	1074.06
347.99	1074.06
348.218	1073.06
348.445	1056.06
348.673	1061.06
348.9	1073.06
349.128	1052.06
349.355	1058.06
349.583	1067.06
349.81	1015.06
350.037	1040.06
350.265	1030.06
350.492	1029.06
350.72	1026.06
350.947	1054.06
351.174	1063.06
351.402	1025.06
351.629	1023.06
351.856	1016.06
352.083	1022.06
352.311	1027.06
352.538	1022.06
352.765	1016.06
352.992	1019.06
353.22	1010.06
353.447	1010.06
353.674	1034.06
353.901	1020.06
354.128	1035.06
354.355	1032.06
354.583	1041.06
354.81	1036.06
355.037	1043.06
355.264	1032.06
355.491	1060.06
355.718	1062.06
355.945	1074.06
356.172	1092.06
356.399	1055.06
356.626	1059.06
356.853	1071.06
357.08	1090.06
357.307	1083.06
357.534	1097.06
357.761	1087.06
357.988	1089.06
358.215	1091.06
358.441	1081.06
358.668	1068.06
358.895	1076.06
359.122	1105.06
359.349	1096.06
359.576	1080.06
359.802	1076.06
360.029	1076.06
360.256	1105.06
360.483	1074.06
360.709	1084.06
360.936	1103.06
361.163	1090.06
361.39	1113.06
361.616	1102.06
361.843	1114.06
362.07	1084.06
362.296	1095.06
362.523	1088.06
362.749	1087.06
362.976	1087.06
363.203	1114.06
363.429	1066.06
363.656	1104.06
363.882	1080.06
364.109	1097.06
364.335	1058.06
364.562	1088.06
364.788	1110.06
365.015	1101.06
365.241	1121.06
365.468	1165.06
365.694	1206.06
365.92	1176.06
366.147	1142.06
366.373	1106.06
366.599	1132.06
366.826	1110.06
367.052	1139.06
367.278	1099.06
367.505	1136.06
367.731	1134.06
367.957	1152.06
368.184	1154.06
368.41	1166.06
368.636	1145.06
368.862	1146.06
369.089	1155.06
369.315	1143.06
369.541	1119.06
369.767	1144.06
369.993	1110.06
370.219	1110.06
370.445	1155.06
370.672	1152.06
370.898	1136.06
371.124	1160.06
371.35	1175.06
371.576	1169.06
371.802	1182.06
372.028	1174.06
372.254	1178.06
372.48	1165.06
372.706	1198.06
372.932	1214.06
373.158	1209.06
373.384	1216.06
373.61	1217.06
373.835	1204.06
374.061	1196.06
374.287	1205.06
374.513	1198.06
374.739	1229.06
374.965	1228.06
375.191	1220.06
375.416	1247.06
375.642	1246.06
375.868	1188.06
376.094	1210.06
376.319	1194.06
376.545	1220.06
376.771	1196.06
376.997	1203.06
377.222	1194.06
377.448	1180.06
377.674	1170.06
377.899	1183.06
378.125	1183.06
378.35	1129.06
378.576	1207.06
378.802	1230.06
379.027	1228.06
379.253	1242.06
379.478	1313.06
379.704	1528.06
379.929	2186.06
380.155	3240.06
380.38	3505.06
380.606	2134.06
380.831	1504.06
381.057	1327.06
381.282	1246.06
381.507	1214.06
381.733	1203.06
381.958	1174.06
382.184	1195.06
382.409	1190.06
382.634	1176.06
382.86	1152.06
383.085	1184.06
383.31	1172.06
383.535	1153.06
383.761	1146.06
383.986	1194.06
384.211	1177.06
384.436	1216.06
384.662	1190.06
384.887	1227.06
385.112	1152.06
385.337	1220.06
385.562	1216.06
385.787	1175.06
386.013	1187.06
386.238	1202.06
386.463	1187.06
386.688	1186.06
386.913	1210.06
387.138	1200.06
387.363	1206.06
387.588	1192.06
387.813	1228.06
388.038	1211.06
388.263	1202.06
388.488	1227.06
388.713	1251.06
388.938	1190.06
389.163	1195.06
389.387	1199.06
389.612	1214.06
389.837	1204.06
390.062	1179.06
390.287	1190.06
390.512	1239.06
390.736	1241.06
390.961	1239.06
391.186	1207.06
391.411	1283.06
391.636	1282.06
391.86	1266.06
392.085	1287.06
392.31	1268.06
392.534	1257.06
392.759	1251.06
392.984	1235.06
393.208	1230.06
393.433	1254.06
393.658	1230.06
393.882	1176.06
394.107	1225.06
394.331	1227.06
394.556	1186.06
394.78	1248.06
395.005	1226.06
395.229	1228.06
395.454	1242.06
395.678	1249.06
395.903	1255.06
396.127	1284.06
396.352	1234.06
396.576	1217.06
396.801	1249.06
397.025	1248.06
397.249	1254.06
397.474	1282.06
397.698	1267.06
397.922	1288.06
398.147	1297.06
398.371	1288.06
398.595	1335.06
398.82	1373.06
399.044	1371.06
399.268	1424.06
399.492	1517.06
399.717	1569.06
399.941	1602.06
400.165	1519.06
400.389	1477.06
400.613	1395.06
400.837	1391.06
401.062	1369.06
401.286	1366.06
401.51	1325.06
401.734	1377.06
401.958	1348.06
402.182	1339.06
402.406	1354.06
402.63	1333.06
402.854	1340.06
403.078	1367.06
403.302	1358.06
403.526	1374.06
403.75	1352.06
403.974	1357.06
404.198	1358.06
404.422	1380.06
404.645	1384.06
404.869	1367.06
405.093	1406.06
405.317	1379.06
405.541	1389.06
405.765	1410.06
405.988	1418.06
406.212	1391.06
406.436	1387.06
406.66	1424.06
406.883	1392.06
407.107	1407.06
407.331	1491.06
407.555	1522.06
407.778	1486.06
408.002	1445.06
408.226	1467.06
408.449	1463.06
408.673	1404.06
408.896	1392.06
409.12	1368.06
409.344	1369.06
409.567	1372.06
409.791	1382.06
410.014	1372.06
410.238	1358.06
410.461	1382.06
410.685	1378.06
410.908	1363.06
411.132	1363.06
411.355	1323.06
411.578	1312.06
411.802	1338.06
412.025	1327.06
412.249	1307.06
412.472	1326.06
412.695	1334.06
412.919	1291.06
413.142	1262.06
413.365	1318.06
413.589	1295.06
413.812	1288.06
414.035	1318.06
414.258	1311.06
414.482	1298.06
414.705	1319.06
414.928	1288.06
415.151	1314.06
415.374	1316.06
415.597	1308.06
415.821	1277.06
416.044	1276.06
416.267	1257.06
416.49	1253.06
416.713	1247.06
416.936	1236.06
417.159	1252.06
417.382	1259.06
417.605	1226.06
417.828	1254.06
418.051	1252.06
418.274	1264.06
418.497	1279.06
418.72	1285.06
418.943	1255.06
419.166	1309.06
419.389	1400.06
419.611	1391.06
419.834	1359.06
420.057	1336.06
420.28	1283.06
420.503	1254.06
420.726	1272.06
420.948	1256.06
421.171	1228.06
421.394	1254.06
421.617	1242.06
421.839	1266.06
422.062	1255.06
422.285	1247.06
422.507	1300.06
422.73	1274.06
422.953	1288.06
423.175	1279.06
423.398	1298.06
423.621	1270.06
423.843	1273.06
424.066	1308.06
424.288	1257.06
424.511	1269.06
424.733	1268.06
424.956	1238.06
425.178	1259.06
425.401	1234.06
425.623	1251.06
425.846	1201.06
426.068	1208.06
426.291	1206.06
426.513	1191.06
426.735	1219.06
426.958	1207.06
427.18	1216.06
427.402	1214.06
427.625	1181.06
427.847	1178.06
428.069	1201.06
428.292	1192.06
428.514	1144.06
428.736	1176.06
428.958	1190.06
429.181	1159.06
429.403	1132.06
429.625	1134.06
429.847	1161.06
430.069	1175.06
430.292	1194.06
430.514	1269.06
430.736	1238.06
430.958	1181.06
431.18	1158.06
431.402	1193.06
431.624	1152.06
431.846	1126.06
432.068	1104.06
432.29	1158.06
432.512	1144.06
432.734	1182.06
432.956	1164.06
433.178	1164.06
433.4	1167.06
433.622	1162.06
433.844	1152.06
434.066	1154.06
434.287	1165.06
434.509	1164.06
434.731	1172.06
434.953	1212.06
435.175	1205.06
435.397	1188.06
435.618	1180.06
435.84	1168.06
436.062	1144.06
436.284	1152.06
436.505	1188.06
436.727	1126.06
436.949	1132.06
437.17	1169.06
437.392	1108.06
437.614	1116.06
437.835	1110.06
438.057	1115.06
438.278	1113.06
438.5	1125.06
438.721	1140.06
438.943	1142.06
439.165	1202.06
439.386	1218.06
439.608	1225.06
439.829	1238.06
440.05	1252.06
440.272	1262.06
440.493	1210.06
440.715	1216.06
440.936	1190.06
441.158	1227.06
441.379	1225.06
441.6	1247.06
441.822	1292.06
442.043	1400.06
442.264	1389.06
442.486	1300.06
442.707	1243.06
442.928	1211.06
443.149	1276.06
443.371	1240.06
443.592	1232.06
443.813	1262.06
444.034	1227.06
444.255	1264.06
444.476	1312.06
444.698	1340.06
444.919	1346.06
445.14	1438.06
445.361	1312.06
445.582	1292.06
445.803	1234.06
446.024	1264.06
446.245	1242.06
446.466	1272.06
446.687	1227.06
446.908	1250.06
447.129	1185.06
447.35	1167.06
447.571	1208.06
447.792	1162.06
448.013	1139.06
448.234	1156.06
448.455	1186.06
448.675	1185.06
448.896	1145.06
449.117	1242.06
449.338	1331.06
449.559	1402.06
449.779	1238.06
450	1179.06
450.221	1148.06
450.442	1107.06
450.662	1123.06
450.883	1131.06
451.104	1106.06
451.324	1135.06
451.545	1134.06
451.766	1129.06
451.986	1129.06
452.207	1177.06
452.428	1505.06
452.648	2121.06
452.869	1810.06
453.089	1299.06
453.31	1249.06
453.53	1260.06
453.751	1290.06
453.971	1368.06
454.192	1350.06
454.412	1156.06
454.633	1118.06
454.853	1089.06
455.073	1038.06
455.294	1094.06
455.514	1038.06
455.734	1058.06
455.955	1049.06
456.175	1062.06
456.395	1077.06
456.616	1059.06
456.836	1082.06
457.056	1094.06
457.276	1098.06
457.497	1153.06
457.717	1138.06
457.937	1110.06
458.157	1123.06
458.377	1113.06
458.598	1128.06
458.818	1108.06
459.038	1107.06
459.258	1153.06
459.478	1140.06
459.698	1169.06
459.918	1167.06
460.138	1204.06
460.358	1237.06
460.578	1192.06
460.798	1223.06
461.018	1250.06
461.238	1283.06
461.458	1278.06
461.678	1233.06
461.898	1302.06
462.118	1313.06
462.338	1331.06
462.558	1353.06
462.777	1399.06
462.997	1397.06
463.217	1451.06
463.437	1490.06
463.657	1505.06
463.876	1552.06
464.096	1429.06
464.316	1387.06
464.536	1399.06
464.755	1339.06
464.975	1292.06
465.195	1280.06
465.414	1238.06
465.634	1216.06
465.854	1230.06
466.073	1209.06
466.293	1153.06
466.512	1152.06
466.732	1189.06
466.951	1218.06
467.171	1329.06
467.391	1291.06
467.61	1194.06
467.829	1164.06
468.049	1156.06
468.268	1133.06
468.488	1130.06
468.707	1146.06
468.927	1152.06
469.146	1132.06
469.365	1154.06
469.585	1143.06
469.804	1182.06
470.023	1185.06
470.243	1210.06
470.462	1274.06
470.681	1311.06
470.901	1414.06
471.12	1664.06
471.339	1694.06
471.558	1354.06
471.777	1253.06
471.997	1193.06
472.216	1139.06
472.435	1154.06
472.654	1121.06
472.873	1130.06
473.092	1129.06
473.311	1147.06
473.53	1173.06
473.749	1161.06
473.968	1227.06
474.187	1148.06
474.406	1129.06
474.625	1156.06
474.844	1163.06
475.063	1137.06
475.282	1156.06
475.501	1141.06
475.72	1186.06
475.939	1202.06
476.158	1192.06
476.377	1212.06
476.596	1208.06
476.814	1198.06
477.033	1184.06
477.252	1197.06
477.471	1239.06
477.69	1301.06
477.908	1308.06
478.127	1283.06
478.346	1282.06
478.564	1309.06
478.783	1352.06
479.002	1377.06
479.22	1334.06
479.439	1370.06
479.658	1339.06
479.876	1348.06
480.095	1351.06
480.313	1370.06
480.532	1410.06
480.751	1422.06
480.969	1384.06
481.188	1362.06
481.406	1350.06
481.624	1371.06
481.843	1351.06
482.061	1357.06
482.28	1341.06
482.498	1365.06
482.717	1361.06
482.935	1382.06
483.153	1398.06
483.372	1436.06
483.59	1450.06
483.808	1440.06
484.027	1460.06
484.245	1523.06
484.463	1735.06
484.681	1938.06
484.9	1767.06
485.118	1640.06
485.336	1600.06
485.554	1578.06
485.772	1699.06
485.99	1929.06
486.209	2179.06
486.427	1786.06
486.645	1550.06
486.863	1526.06
487.081	1450.06
487.299	1495.06
487.517	1436.06
487.735	1463.06
487.953	1472.06
488.171	1454.06
488.389	1507.06
488.607	1455.06
488.825	1441.06
489.043	1396.06
489.261	1412.06
489.479	1398.06
489.696	1418.06
489.914	1402.06
490.132	1385.06
490.35	1444.06
490.568	1432.06
490.786	1477.06
491.003	1430.06
491.221	1481.06
491.439	1481.06
491.657	1537.06
491.874	1501.06
492.092	1570.06
492.31	1539.06
492.527	1525.06
492.745	1513.06
492.963	1486.06
493.18	1519.06
493.398	1510.06
493.615	1525.06
493.833	1534.06
494.05	1544.06
494.268	1512.06
494.485	1515.06
494.703	1549.06
494.92	1538.06
495.138	1548.06
495.355	1524.06
495.573	1524.06
495.79	1507.06
496.008	1488.06
496.225	1497.06
496.442	1534.06
496.66	1597.06
496.877	1657.06
497.094	1662.06
497.312	1627.06
497.529	1606.06
497.746	1616.06
497.963	1629.06
498.181	1663.06
498.398	1712.06
498.615	1750.06
498.832	1818.06
499.049	1883.06
499.267	2057.06
499.484	2174.06
499.701	2206.06
499.918	2275.06
500.135	2367.06
500.352	2497.06
500.569	2496.06
500.786	2504.06
501.003	2449.06
501.22	2298.06
501.437	2144.06
501.654	2063.06
501.871	1971.06
502.088	1895.06
502.305	1824.06
502.522	1744.06
502.739	1775.06
502.956	1697.06
503.172	1627.06
503.389	1640.06
503.606	1543.06
503.823	1563.06
504.04	1562.06
504.256	1556.06
504.473	1560.06
504.69	1540.06
504.907	1494.06
505.123	1486.06
505.34	1451.06
505.557	1451.06
505.773	1417.06
505.99	1412.06
506.207	1379.06
506.423	1321.06
506.64	1346.06
506.856	1379.06
507.073	1303.06
507.289	1308.06
507.506	1357.06
507.722	1329.06
507.939	1273.06
508.155	1294.06
508.372	1302.06
508.588	1302.06
508.805	1268.06
509.021	1317.06
509.238	1298.06
509.454	1358.06
509.67	1433.06
509.887	1354.06
510.103	1317.06
510.319	1272.06
510.536	1288.06
510.752	1283.06
510.968	1254.06
511.184	1219.06
511.401	1229.06
511.617	1220.06
511.833	1224.06
512.049	1225.06
512.265	1240.06
512.481	1217.06
512.698	1239.06
512.914	1198.06
513.13	1222.06
513.346	1247.06
513.562	1214.06
513.778	1230.06
513.994	1218.06
514.21	1289.06
514.426	1344.06
514.642	1384.06
514.858	1282.06
515.074	1227.06
515.29	1238.06
515.506	1233.06
515.721	1236.06
515.937	1264.06
516.153	1260.06
516.369	1273.06
516.585	1302.06
516.801	1312.06
517.016	1368.06
517.232	1374.06
517.448	1354.06
517.664	1406.06
517.879	1406.06
518.095	1381.06
518.311	1404.06
518.527	1382.06
518.742	1350.06
518.958	1404.06
519.173	1432.06
519.389	1355.06
519.605	1286.06
519.82	1263.06
520.036	1287.06
520.251	1255.06
520.467	1269.06
520.682	1231.06
520.898	1168.06
521.113	1196.06
521.329	1172.06
521.544	1219.06
521.76	1213.06
521.975	1186.06
522.19	1204.06
522.406	1202.06
522.621	1171.06
522.836	1167.06
523.052	1198.06
523.267	1145.06
523.482	1179.06
523.698	1195.06
523.913	1161.06
524.128	1177.06
524.343	1167.06
524.559	1199.06
524.774	1179.06
524.989	1178.06
525.204	1194.06
525.419	1182.06
525.634	1180.06
525.849	1189.06
526.064	1188.06
526.28	1178.06
526.495	1142.06
526.71	1173.06
526.925	1181.06
527.14	1198.06
527.355	1200.06
527.57	1176.06
527.785	1214.06
527.999	1232.06
528.214	1225.06
528.429	1227.06
528.644	1232.06
528.859	1247.06
529.074	1224.06
529.289	1299.06
529.503	1298.06
529.718	1254.06
529.933	1223.06
530.148	1243.06
530.363	1225.06
530.577	1248.06
530.792	1280.06
531.007	1251.06
531.221	1235.06
531.436	1259.06
531.651	1286.06
531.865	1305.06
532.08	1286.06
532.295	1334.06
532.509	1416.06
532.724	1402.06
532.938	1382.06
533.153	1477.06
533.367	1522.06
533.582	1602.06
533.796	1583.06
534.011	1518.06
534.225	1490.06
534.44	1424.06
534.654	1400.06
534.868	1401.06
535.083	1353.06
535.297	1355.06
535.511	1361.06
535.726	1288.06
535.94	1308.06
536.154	1308.06
536.369	1240.06
536.583	1249.06
536.797	1249.06
537.011	1231.06
537.225	1221.06
537.44	1218.06
537.654	1197.06
537.868	1200.06
538.082	1150.06
538.296	1145.06
538.51	1172.06
538.724	1173.06
538.938	1173.06
539.153	1155.06
539.367	1172.06
539.581	1202.06
539.795	1145.06
540.009	1164.06
540.222	1135.06
540.436	1128.06
540.65	1163.06
540.864	1137.06
541.078	1191.06
541.292	1284.06
541.506	1487.06
541.72	1526.06
541.934	1365.06
542.147	1309.06
542.361	1225.06
542.575	1185.06
542.789	1150.06
543.002	1154.06
543.216	1114.06
543.43	1096.06
543.644	1103.06
543.857	1108.06
544.071	1150.06
544.285	1154.06
544.498	1142.06
544.712	1138.06
544.925	1180.06
545.139	1171.06
545.352	1130.06
545.566	1172.06
545.779	1169.06
545.993	1159.06
546.206	1162.06
546.42	1148.06
546.633	1135.06
546.847	1146.06
547.06	1111.06
547.274	1167.06
547.487	1154.06
547.7	1164.06
547.914	1147.06
548.127	1143.06
548.34	1168.06
548.554	1152.06
548.767	1162.06
548.98	1161.06
549.193	1139.06
549.407	1119.06
549.62	1174.06
549.833	1151.06
550.046	1124.06
550.259	1174.06
550.473	1156.06
550.686	1133.06
550.899	1126.06
551.112	1134.06
551.325	1134.06
551.538	1161.06
551.751	1117.06
551.964	1122.06
552.177	1159.06
552.39	1169.06
552.603	1218.06
552.816	1232.06
553.029	1217.06
553.242	1241.06
553.455	1243.06
553.667	1250.06
553.88	1277.06
554.093	1257.06
554.306	1286.06
554.519	1248.06
554.732	1296.06
554.944	1312.06
555.157	1332.06
555.37	1328.06
555.583	1364.06
555.795	1435.06
556.008	1504.06
556.221	1641.06
556.433	1722.06
556.646	1724.06
556.859	1668.06
557.071	1647.06
557.284	1604.06
557.496	1581.06
557.709	1559.06
557.921	1586.06
558.134	1568.06
558.346	1562.06
558.559	1621.06
558.771	1684.06
558.984	1767.06
559.196	1870.06
559.409	1789.06
559.621	1700.06
559.833	1647.06
560.046	1526.06
560.258	1468.06
560.47	1443.06
560.683	1365.06
560.895	1339.06
561.107	1292.06
561.32	1229.06
561.532	1273.06
561.744	1235.06
561.956	1176.06
562.168	1180.06
562.381	1160.06
562.593	1140.06
562.805	1145.06
563.017	1184.06
563.229	1184.06
563.441	1342.06
563.653	1151.06
563.865	1078.06
564.077	1067.06
564.289	1032.06
564.501	1046.06
564.713	1063.06
564.925	1040.06
565.137	1064.06
565.349	1050.06
565.561	1066.06
565.773	1071.06
565.985	1061.06
566.197	1111.06
566.408	1089.06
566.62	1118.06
566.832	1141.06
567.044	1177.06
567.255	1173.06
567.467	1206.06
567.679	1200.06
567.891	1258.06
568.102	1426.06
568.314	1641.06
568.526	1408.06
568.737	1183.06
568.949	1099.06
569.161	1039.06
569.372	980.06
569.584	954.06
569.795	958.06
570.007	933.06
570.218	949.06
570.43	999.06
570.641	943.06
570.853	911.06
571.064	872.06
571.276	891.06
571.487	886.06
571.698	857.06
571.91	850.06
572.121	822.06
572.333	822.06
572.544	831.06
572.755	911.06
572.966	1056.06
573.178	939.06
573.389	862.06
573.6	826.06
573.811	770.06
574.023	791.06
574.234	780.06
574.445	784.06
574.656	768.06
574.867	743.06
575.078	766.06
575.289	762.06
575.501	762.06
575.712	780.06
575.923	743.06
576.134	782.06
576.345	767.06
576.556	794.06
576.767	757.06
576.978	758.06
577.188	755.06
577.399	780.06
577.61	801.06
577.821	788.06
578.032	768.06
578.243	791.06
578.454	828.06
578.665	832.06
578.875	816.06
579.086	858.06
579.297	887.06
579.508	912.06
579.718	1002.06
579.929	1077.06
580.14	1217.06
580.35	1258.06
580.561	1210.06
580.772	1086.06
580.982	1061.06
581.193	983.06
581.403	955.06
581.614	915.06
581.825	888.06
582.035	856.06
582.246	855.06
582.456	830.06
582.667	792.06
582.877	807.06
583.087	769.06
583.298	731.06
583.508	698.06
583.719	699.06
583.929	694.06
584.139	706.06
584.35	656.06
584.56	670.06
584.77	658.06
584.981	660.06
585.191	611.06
585.401	644.06
585.611	630.06
585.821	645.06
586.032	618.06
586.242	622.06
586.452	612.06
586.662	602.06
586.872	620.06
587.082	622.06
587.292	596.06
587.502	597.06
587.713	578.06
587.923	591.06
588.133	579.06
588.343	570.06
588.553	552.06
588.762	566.06
588.972	552.06
589.182	588.06
589.392	569.06
589.602	563.06
589.812	570.06
590.022	537.06
590.232	560.06
590.441	571.06
590.651	571.06
590.861	573.06
591.071	558.06
591.281	548.06
591.49	543.06
591.7	562.06
591.91	566.06
592.119	541.06
592.329	571.06
592.539	568.06
592.748	565.06
592.958	558.06
593.167	559.06
593.377	568.06
593.587	591.06
593.796	582.06
594.006	588.06
594.215	583.06
594.424	567.06
594.634	568.06
594.843	559.06
595.053	551.06
595.262	560.06
595.472	535.06
595.681	540.06
595.89	534.06
596.1	518.06
596.309	502.06
596.518	511.06
596.727	498.06
596.937	517.06
597.146	498.06
597.355	475.06
597.564	496.06
597.774	487.06
597.983	484.06
598.192	479.06
598.401	467.06
598.61	481.06
598.819	463.06
599.028	475.06
599.237	443.06
599.446	470.06
599.655	477.06
599.864	459.06
600.073	448.06
600.282	441.06
600.491	443.06
600.7	446.06
600.909	461.06
601.118	464.06
601.327	459.06
601.536	468.06
601.745	483.06
601.953	542.06
602.162	580.06
602.371	508.06
602.58	464.06
602.789	458.06
602.997	451.06
603.206	448.06
603.415	438.06
603.623	414.06
603.832	459.06
604.041	442.06
604.249	430.06
604.458	434.06
604.666	433.06
604.875	446.06
605.084	447.06
605.292	429.06
605.501	446.06
605.709	426.06
605.918	466.06
606.126	442.06
606.334	456.06
606.543	466.06
606.751	477.06
606.96	555.06
607.168	611.06
607.376	517.06
607.585	453.06
607.793	451.06
608.001	432.06
608.21	440.06
608.418	442.06
608.626	445.06
608.834	441.06
609.043	429.06
609.251	427.06
609.459	426.06
609.667	417.06
609.875	413.06
610.083	435.06
610.291	433.06
610.499	403.06
610.707	410.06
610.916	413.06
611.124	398.06
611.332	426.06
611.54	403.06
611.748	401.06
611.955	405.06
612.163	391.06
612.371	413.06
612.579	398.06
612.787	407.06
612.995	393.06
613.203	415.06
613.411	395.06
613.618	390.06
613.826	399.06
614.034	413.06
614.242	393.06
614.449	390.06
614.657	396.06
614.865	396.06
615.072	416.06
615.28	417.06
615.488	404.06
615.695	425.06
615.903	391.06
616.111	379.06
616.318	399.06
616.526	409.06
616.733	398.06
616.941	390.06
617.148	386.06
617.356	399.06
617.563	398.06
617.771	375.06
617.978	378.06
618.185	368.06
618.393	378.06
618.6	383.06
618.807	375.06
619.015	378.06
619.222	371.06
619.429	377.06
619.637	371.06
619.844	361.06
620.051	372.06
620.258	375.06
620.466	367.06
620.673	351.06
620.88	359.06
621.087	370.06
621.294	342.06
621.501	342.06
621.708	357.06
621.915	370.06
622.122	348.06
622.329	359.06
622.536	353.06
622.743	343.06
622.95	362.06
623.157	364.06
623.364	364.06
623.571	342.06
623.778	357.06
623.985	353.06
624.192	324.06
624.399	349.06
624.606	366.06
624.812	344.06
625.019	351.06
625.226	334.06
625.433	335.06
625.639	329.06
625.846	335.06
626.053	317.06
626.259	309.06
626.466	328.06
626.673	312.06
626.879	328.06
627.086	336.06
627.293	340.06
627.499	316.06
627.706	329.06
627.912	340.06
628.119	329.06
628.325	339.06
628.532	340.06
628.738	349.06
628.945	326.06
629.151	332.06
629.357	317.06
629.564	323.06
629.77	335.06
629.976	313.06
630.183	313.06
630.389	305.06
630.595	322.06
630.802	329.06
631.008	304.06
631.214	326.06
631.42	321.06
631.627	312.06
631.833	295.06
632.039	302.06
632.245	308.06
632.451	294.06
632.657	309.06
632.863	304.06
633.069	314.06
633.275	313.06
633.481	285.06
633.688	317.06
633.893	315.06
634.099	280.06
634.305	304.06
634.511	298.06
634.717	308.06
634.923	318.06
635.129	362.06
635.335	389.06
635.541	350.06
635.747	324.06
635.952	318.06
636.158	305.06
636.364	312.06
636.57	318.06
636.775	287.06
636.981	323.06
637.187	304.06
637.392	300.06
637.598	312.06
637.804	311.06
638.009	280.06
638.215	311.06
638.421	297.06
638.626	324.06
638.832	320.06
639.037	297.06
639.243	311.06
639.448	308.06
639.654	306.06
639.859	305.06
640.065	323.06
640.27	321.06
640.475	330.06
640.681	337.06
640.886	300.06
641.091	307.06
641.297	330.06
641.502	318.06
641.707	339.06
641.913	350.06
642.118	338.06
642.323	326.06
642.528	352.06
642.733	360.06
642.939	353.06
643.144	364.06
643.349	385.06
643.554	394.06
643.759	390.06
643.964	396.06
644.169	418.06
644.374	452.06
644.579	469.06
644.784	536.06
644.989	554.06
645.194	657.06
645.399	755.06
645.604	798.06
645.809	629.06
646.014	488.06
646.219	447.06
646.423	412.06
646.628	356.06
646.833	338.06
647.038	335.06
647.243	344.06
647.447	319.06
647.652	310.06
647.857	307.06
648.062	313.06
648.266	300.06
648.471	306.06
648.676	291.06
648.88	291.06
649.085	295.06
649.289	292.06
649.494	283.06
649.698	281.06
649.903	267.06
650.107	272.06
650.312	258.06
650.516	259.06
650.721	269.06
650.925	248.06
651.13	235.06
651.334	244.06
651.539	248.06
651.743	236.06
651.947	225.06
652.152	231.06
652.356	233.06
652.56	273.06
652.764	276.06
652.969	261.06
653.173	241.06
653.377	220.06
653.581	208.06
653.785	215.06
653.99	210.06
654.194	220.06
654.398	207.06
654.602	210.06
654.806	209.06
655.01	213.06
655.214	209.06
655.418	206.06
655.622	216.06
655.826	217.06
656.03	217.06
656.234	228.06
656.438	219.06
656.642	200.06
656.846	225.06
657.049	209.06
657.253	204.06
657.457	190.06
657.661	189.06
657.865	174.06
658.068	177.06
658.272	158.06
658.476	154.06
658.68	147.06
658.883	134.06
659.087	135.06
659.291	127.06
659.494	132.06
659.698	131.06
659.901	132.06
660.105	115.06
660.309	123.06
660.512	112.06
660.716	110.06
660.919	112.06
661.123	108.06
661.326	96.06
661.53	96.06
661.733	97.06
661.936	90.06
662.14	100.06
662.343	94.06
662.546	84.06
662.75	95.06
662.953	84.06
663.156	98.06
663.36	95.06
663.563	96.06
663.766	89.06
663.969	91.06
664.173	97.06
664.376	76.06
664.579	90.06
664.782	91.06
664.985	84.06
665.188	78.06
665.391	73.06
665.594	89.06
665.797	86.06
666	92.06
666.203	85.06
666.406	88.06
666.609	101.06
666.812	83.06
667.015	74.06
667.218	91.06
667.421	88.06
667.624	75.06
667.827	87.06
668.03	86.06
668.232	91.06
668.435	72.06
668.638	85.06
668.841	88.06
669.043	88.06
669.246	93.06
669.449	81.06
669.651	92.06
669.854	88.06
670.057	80.06
670.259	87.06
670.462	86.06
670.665	74.06
670.867	80.06
671.07	85.06
671.272	75.06
671.475	84.06
671.677	89.06
671.88	81.06
672.082	84.06
672.284	88.06
672.487	69.06
672.689	82.06
672.892	83.06
