Data from SnStandardFlinnAPT0064_QswitchEnergy10_LIBS07252019.E.O._I.C._HRD10591_15-27-18-973.txt Node
Date: Thu Jul 25 15:27:18 EDT 2019
User: cochatt
Spectrometer: HR+D1059
Trigger mode: 1
Integration Time (sec): 1.000000E-1
Scans to average: 1
Electric dark correction enabled: true
Nonlinearity correction enabled: false
Boxcar width: 0
XAxis mode: Wavelengths
Number of Pixels in Spectrum: 2048
>>>>>Begin Spectral Data<<<<<
223.165	2.69
223.4	2.69
223.635	2.69
223.869	-9.31
224.104	-17.31
224.338	-27.31
224.573	-15.31
224.808	-11.31
225.042	-14.31
225.277	-17.31
225.511	5.69
225.746	12.69
225.98	2.69
226.215	10.69
226.449	9.69
226.683	13.69
226.918	17.69
227.152	36.69
227.387	22.69
227.621	31.69
227.856	36.69
228.09	45.69
228.324	47.69
228.559	45.69
228.793	60.69
229.027	68.69
229.262	55.69
229.496	64.69
229.73	64.69
229.964	71.69
230.199	71.69
230.433	73.69
230.667	79.69
230.901	68.69
231.136	69.69
231.37	73.69
231.604	100.69
231.838	86.69
232.072	111.69
232.306	131.69
232.541	100.69
232.775	93.69
233.009	85.69
233.243	74.69
233.477	80.69
233.711	96.69
233.945	92.69
234.179	97.69
234.413	93.69
234.647	83.69
234.881	85.69
235.115	89.69
235.349	85.69
235.583	108.69
235.817	112.69
236.051	127.69
236.285	102.69
236.519	85.69
236.753	77.69
236.987	73.69
237.221	78.69
237.455	74.69
237.689	79.69
237.922	90.69
238.156	70.69
238.39	95.69
238.624	84.69
238.858	75.69
239.091	82.69
239.325	79.69
239.559	78.69
239.793	80.69
240.027	82.69
240.26	74.69
240.494	76.69
240.728	80.69
240.961	78.69
241.195	73.69
241.429	89.69
241.662	77.69
241.896	81.69
242.13	100.69
242.363	126.69
242.597	159.69
242.83	144.69
243.064	122.69
243.298	168.69
243.531	137.69
243.765	114.69
243.998	83.69
244.232	76.69
244.465	73.69
244.699	76.69
244.932	67.69
245.166	72.69
245.399	82.69
245.633	81.69
245.866	85.69
246.099	94.69
246.333	88.69
246.566	73.69
246.8	83.69
247.033	91.69
247.266	80.69
247.5	72.69
247.733	78.69
247.966	84.69
248.2	81.69
248.433	103.69
248.666	112.69
248.899	115.69
249.133	80.69
249.366	86.69
249.599	79.69
249.832	120.69
250.066	135.69
250.299	93.69
250.532	73.69
250.765	77.69
250.998	92.69
251.231	77.69
251.465	97.69
251.698	84.69
251.931	81.69
252.164	80.69
252.397	89.69
252.63	87.69
252.863	99.69
253.096	83.69
253.329	90.69
253.562	85.69
253.795	84.69
254.028	76.69
254.261	75.69
254.494	88.69
254.727	115.69
254.96	136.69
255.193	127.69
255.426	104.69
255.659	83.69
255.892	93.69
256.124	86.69
256.357	95.69
256.59	92.69
256.823	76.69
257.056	111.69
257.289	140.69
257.521	181.69
257.754	101.69
257.987	88.69
258.22	84.69
258.452	80.69
258.685	80.69
258.918	70.69
259.151	87.69
259.383	91.69
259.616	124.69
259.849	146.69
260.081	106.69
260.314	87.69
260.547	79.69
260.779	77.69
261.012	80.69
261.244	86.69
261.477	93.69
261.71	87.69
261.942	80.69
262.175	75.69
262.407	71.69
262.64	83.69
262.872	87.69
263.105	85.69
263.337	78.69
263.57	93.69
263.802	75.69
264.035	96.69
264.267	83.69
264.499	74.69
264.732	81.69
264.964	95.69
265.197	67.69
265.429	86.69
265.661	89.69
265.894	94.69
266.126	140.69
266.358	156.69
266.591	144.69
266.823	98.69
267.055	80.69
267.287	87.69
267.52	96.69
267.752	89.69
267.984	91.69
268.216	71.69
268.448	74.69
268.681	87.69
268.913	80.69
269.145	82.69
269.377	80.69
269.609	86.69
269.841	87.69
270.073	110.69
270.306	126.69
270.538	192.69
270.77	308.69
271.002	373.69
271.234	192.69
271.466	108.69
271.698	102.69
271.93	98.69
272.162	84.69
272.394	91.69
272.626	88.69
272.858	90.69
273.09	80.69
273.322	97.69
273.553	91.69
273.785	96.69
274.017	76.69
274.249	79.69
274.481	85.69
274.713	71.69
274.945	81.69
275.176	83.69
275.408	83.69
275.64	80.69
275.872	92.69
276.104	83.69
276.335	97.69
276.567	91.69
276.799	83.69
277.031	91.69
277.262	88.69
277.494	113.69
277.726	116.69
277.957	177.69
278.189	232.69
278.421	225.69
278.652	187.69
278.884	179.69
279.115	150.69
279.347	119.69
279.579	94.69
279.81	92.69
280.042	97.69
280.273	107.69
280.505	111.69
280.736	106.69
280.968	119.69
281.199	153.69
281.431	244.69
281.662	234.69
281.894	132.69
282.125	103.69
282.356	101.69
282.588	81.69
282.819	113.69
283.051	121.69
283.282	126.69
283.513	175.69
283.745	302.69
283.976	518.69
284.207	756.69
284.439	594.69
284.67	248.69
284.901	265.69
285.132	347.69
285.364	370.69
285.595	239.69
285.826	159.69
286.057	235.69
286.288	382.69
286.52	584.69
286.751	491.69
286.982	180.69
287.213	125.69
287.444	119.69
287.675	99.69
287.906	93.69
288.138	99.69
288.369	91.69
288.6	87.69
288.831	83.69
289.062	91.69
289.293	94.69
289.524	92.69
289.755	109.69
289.986	94.69
290.217	90.69
290.448	86.69
290.679	108.69
290.91	128.69
291.141	156.69
291.371	224.69
291.602	256.69
291.833	176.69
292.064	97.69
292.295	103.69
292.526	96.69
292.757	69.69
292.987	88.69
293.218	85.69
293.449	80.69
293.68	77.69
293.91	95.69
294.141	91.69
294.372	78.69
294.603	95.69
294.833	96.69
295.064	82.69
295.295	83.69
295.525	103.69
295.756	96.69
295.987	80.69
296.217	85.69
296.448	91.69
296.679	93.69
296.909	109.69
297.14	107.69
297.37	78.69
297.601	81.69
297.831	100.69
298.062	93.69
298.292	106.69
298.523	96.69
298.753	102.69
298.984	104.69
299.214	110.69
299.445	117.69
299.675	115.69
299.905	98.69
300.136	117.69
300.366	145.69
300.597	252.69
300.827	444.69
301.057	667.69
301.288	591.69
301.518	247.69
301.748	127.69
301.979	131.69
302.209	129.69
302.439	127.69
302.669	141.69
302.9	260.69
303.13	469.69
303.36	844.69
303.59	1169.69
303.82	833.69
304.051	265.69
304.281	139.69
304.511	135.69
304.741	117.69
304.971	115.69
305.201	105.69
305.431	96.69
305.661	91.69
305.891	97.69
306.121	94.69
306.352	100.69
306.582	94.69
306.812	94.69
307.042	100.69
307.272	105.69
307.502	110.69
307.731	101.69
307.961	107.69
308.191	101.69
308.421	109.69
308.651	95.69
308.881	96.69
309.111	102.69
309.341	105.69
309.571	93.69
309.8	96.69
310.03	118.69
310.26	121.69
310.49	92.69
310.72	115.69
310.949	87.69
311.179	93.69
311.409	93.69
311.639	107.69
311.868	105.69
312.098	111.69
312.328	95.69
312.557	105.69
312.787	109.69
313.017	95.69
313.246	116.69
313.476	100.69
313.706	119.69
313.935	164.69
314.165	184.69
314.394	201.69
314.624	153.69
314.853	130.69
315.083	111.69
315.312	127.69
315.542	128.69
315.771	131.69
316.001	100.69
316.23	112.69
316.46	145.69
316.689	169.69
316.919	250.69
317.148	486.69
317.377	871.69
317.607	1438.69
317.836	1358.69
318.065	503.69
318.295	214.69
318.524	143.69
318.753	136.69
318.983	118.69
319.212	128.69
319.441	125.69
319.67	122.69
319.9	113.69
320.129	107.69
320.358	113.69
320.587	133.69
320.816	126.69
321.046	117.69
321.275	115.69
321.504	111.69
321.733	143.69
321.962	146.69
322.191	151.69
322.42	135.69
322.649	124.69
322.878	117.69
323.108	103.69
323.337	123.69
323.566	119.69
323.795	117.69
324.024	113.69
324.253	146.69
324.482	167.69
324.71	207.69
324.939	264.69
325.168	229.69
325.397	195.69
325.626	265.69
325.855	463.69
326.084	913.69
326.313	1544.69
326.542	1527.69
326.77	594.69
326.999	234.69
327.228	193.69
327.457	204.69
327.686	208.69
327.914	161.69
328.143	129.69
328.372	120.69
328.6	115.69
328.829	103.69
329.058	98.69
329.287	112.69
329.515	109.69
329.744	129.69
329.972	121.69
330.201	110.69
330.43	115.69
330.658	110.69
330.887	108.69
331.115	98.69
331.344	107.69
331.572	88.69
331.801	116.69
332.03	117.69
332.258	135.69
332.486	159.69
332.715	273.69
332.943	488.69
333.172	744.69
333.4	623.69
333.629	231.69
333.857	138.69
334.085	119.69
334.314	119.69
334.542	109.69
334.771	110.69
334.999	94.69
335.227	124.69
335.455	125.69
335.684	115.69
335.912	113.69
336.14	112.69
336.369	101.69
336.597	114.69
336.825	99.69
337.053	104.69
337.281	98.69
337.51	90.69
337.738	108.69
337.966	96.69
338.194	101.69
338.422	104.69
338.65	98.69
338.878	120.69
339.106	103.69
339.334	122.69
339.562	110.69
339.79	119.69
340.018	101.69
340.246	96.69
340.474	116.69
340.702	113.69
340.93	105.69
341.158	99.69
341.386	110.69
341.614	119.69
341.842	100.69
342.07	118.69
342.298	118.69
342.526	105.69
342.754	105.69
342.981	117.69
343.209	105.69
343.437	110.69
343.665	111.69
343.893	97.69
344.12	115.69
344.348	107.69
344.576	100.69
344.804	106.69
345.031	107.69
345.259	101.69
345.487	95.69
345.714	114.69
345.942	99.69
346.17	107.69
346.397	111.69
346.625	92.69
346.853	103.69
347.08	110.69
347.308	88.69
347.535	104.69
347.763	95.69
347.99	99.69
348.218	94.69
348.445	113.69
348.673	104.69
348.9	110.69
349.128	118.69
349.355	110.69
349.583	105.69
349.81	111.69
350.037	118.69
350.265	113.69
350.492	104.69
350.72	104.69
350.947	107.69
351.174	99.69
351.402	102.69
351.629	97.69
351.856	110.69
352.083	109.69
352.311	100.69
352.538	112.69
352.765	103.69
352.992	123.69
353.22	87.69
353.447	101.69
353.674	104.69
353.901	100.69
354.128	101.69
354.355	113.69
354.583	111.69
354.81	99.69
355.037	103.69
355.264	96.69
355.491	95.69
355.718	102.69
355.945	108.69
356.172	93.69
356.399	99.69
356.626	91.69
356.853	100.69
357.08	108.69
357.307	118.69
357.534	107.69
357.761	118.69
357.988	93.69
358.215	104.69
358.441	115.69
358.668	102.69
358.895	104.69
359.122	111.69
359.349	104.69
359.576	107.69
359.802	92.69
360.029	105.69
360.256	98.69
360.483	107.69
360.709	104.69
360.936	109.69
361.163	103.69
361.39	100.69
361.616	95.69
361.843	94.69
362.07	96.69
362.296	106.69
362.523	105.69
362.749	98.69
362.976	94.69
363.203	118.69
363.429	99.69
363.656	97.69
363.882	121.69
364.109	104.69
364.335	111.69
364.562	98.69
364.788	107.69
365.015	111.69
365.241	129.69
365.468	165.69
365.694	214.69
365.92	191.69
366.147	114.69
366.373	87.69
366.599	104.69
366.826	98.69
367.052	98.69
367.278	92.69
367.505	91.69
367.731	94.69
367.957	101.69
368.184	104.69
368.41	101.69
368.636	107.69
368.862	108.69
369.089	100.69
369.315	88.69
369.541	85.69
369.767	113.69
369.993	109.69
370.219	92.69
370.445	107.69
370.672	98.69
370.898	109.69
371.124	97.69
371.35	104.69
371.576	93.69
371.802	108.69
372.028	94.69
372.254	101.69
372.48	107.69
372.706	107.69
372.932	109.69
373.158	103.69
373.384	117.69
373.61	111.69
373.835	111.69
374.061	100.69
374.287	95.69
374.513	103.69
374.739	106.69
374.965	109.69
375.191	102.69
375.416	98.69
375.642	108.69
375.868	107.69
376.094	100.69
376.319	107.69
376.545	97.69
376.771	109.69
376.997	102.69
377.222	107.69
377.448	97.69
377.674	114.69
377.899	109.69
378.125	94.69
378.35	112.69
378.576	105.69
378.802	107.69
379.027	117.69
379.253	140.69
379.478	166.69
379.704	281.69
379.929	742.69
380.155	1534.69
380.38	1576.69
380.606	516.69
380.831	188.69
381.057	135.69
381.282	137.69
381.507	111.69
381.733	116.69
381.958	98.69
382.184	107.69
382.409	109.69
382.634	99.69
382.86	99.69
383.085	92.69
383.31	87.69
383.535	101.69
383.761	110.69
383.986	90.69
384.211	104.69
384.436	91.69
384.662	88.69
384.887	107.69
385.112	107.69
385.337	93.69
385.562	115.69
385.787	98.69
386.013	110.69
386.238	100.69
386.463	103.69
386.688	105.69
386.913	81.69
387.138	97.69
387.363	104.69
387.588	93.69
387.813	95.69
388.038	88.69
388.263	110.69
388.488	101.69
388.713	115.69
388.938	118.69
389.163	117.69
389.387	97.69
389.612	107.69
389.837	105.69
390.062	94.69
390.287	109.69
390.512	108.69
390.736	88.69
390.961	94.69
391.186	77.69
391.411	94.69
391.636	98.69
391.86	85.69
392.085	111.69
392.31	96.69
392.534	94.69
392.759	108.69
392.984	87.69
393.208	107.69
393.433	123.69
393.658	133.69
393.882	95.69
394.107	93.69
394.331	94.69
394.556	84.69
394.78	81.69
395.005	89.69
395.229	85.69
395.454	103.69
395.678	85.69
395.903	81.69
396.127	111.69
396.352	91.69
396.576	96.69
396.801	96.69
397.025	112.69
397.249	104.69
397.474	90.69
397.698	104.69
397.922	100.69
398.147	91.69
398.371	90.69
398.595	95.69
398.82	114.69
399.044	93.69
399.268	94.69
399.492	94.69
399.717	103.69
399.941	89.69
400.165	85.69
400.389	104.69
400.613	86.69
400.837	101.69
401.062	98.69
401.286	95.69
401.51	92.69
401.734	99.69
401.958	102.69
402.182	87.69
402.406	102.69
402.63	90.69
402.854	82.69
403.078	96.69
403.302	106.69
403.526	97.69
403.75	104.69
403.974	89.69
404.198	83.69
404.422	86.69
404.645	92.69
404.869	85.69
405.093	87.69
405.317	94.69
405.541	93.69
405.765	116.69
405.988	137.69
406.212	116.69
406.436	87.69
406.66	79.69
406.883	89.69
407.107	97.69
407.331	82.69
407.555	96.69
407.778	92.69
408.002	97.69
408.226	92.69
408.449	103.69
408.673	93.69
408.896	92.69
409.12	97.69
409.344	84.69
409.567	61.69
409.791	78.69
410.014	84.69
410.238	103.69
410.461	110.69
410.685	100.69
410.908	89.69
411.132	98.69
411.355	94.69
411.578	100.69
411.802	95.69
412.025	98.69
412.249	91.69
412.472	98.69
412.695	85.69
412.919	98.69
413.142	97.69
413.365	101.69
413.589	79.69
413.812	88.69
414.035	102.69
414.258	117.69
414.482	104.69
414.705	113.69
414.928	117.69
415.151	103.69
415.374	102.69
415.597	89.69
415.821	99.69
416.044	76.69
416.267	83.69
416.49	73.69
416.713	87.69
416.936	91.69
417.159	86.69
417.382	90.69
417.605	89.69
417.828	94.69
418.051	85.69
418.274	104.69
418.497	107.69
418.72	99.69
418.943	112.69
419.166	88.69
419.389	94.69
419.611	101.69
419.834	99.69
420.057	96.69
420.28	99.69
420.503	109.69
420.726	101.69
420.948	110.69
421.171	99.69
421.394	81.69
421.617	73.69
421.839	91.69
422.062	104.69
422.285	80.69
422.507	112.69
422.73	115.69
422.953	116.69
423.175	111.69
423.398	100.69
423.621	94.69
423.843	77.69
424.066	107.69
424.288	87.69
424.511	92.69
424.733	80.69
424.956	93.69
425.178	94.69
425.401	88.69
425.623	76.69
425.846	91.69
426.068	92.69
426.291	96.69
426.513	102.69
426.735	87.69
426.958	100.69
427.18	91.69
427.402	87.69
427.625	85.69
427.847	80.69
428.069	84.69
428.292	87.69
428.514	102.69
428.736	100.69
428.958	90.69
429.181	90.69
429.403	83.69
429.625	104.69
429.847	110.69
430.069	101.69
430.292	104.69
430.514	103.69
430.736	105.69
430.958	96.69
431.18	77.69
431.402	83.69
431.624	79.69
431.846	95.69
432.068	101.69
432.29	90.69
432.512	93.69
432.734	86.69
432.956	92.69
433.178	90.69
433.4	96.69
433.622	89.69
433.844	88.69
434.066	84.69
434.287	96.69
434.509	86.69
434.731	98.69
434.953	86.69
435.175	94.69
435.397	102.69
435.618	78.69
435.84	82.69
436.062	85.69
436.284	77.69
436.505	87.69
436.727	98.69
436.949	90.69
437.17	96.69
437.392	103.69
437.614	93.69
437.835	97.69
438.057	90.69
438.278	101.69
438.5	96.69
438.721	85.69
438.943	97.69
439.165	108.69
439.386	102.69
439.608	91.69
439.829	96.69
440.05	115.69
440.272	120.69
440.493	99.69
440.715	109.69
440.936	98.69
441.158	98.69
441.379	89.69
441.6	87.69
441.822	87.69
442.043	128.69
442.264	124.69
442.486	100.69
442.707	100.69
442.928	92.69
443.149	95.69
443.371	75.69
443.592	83.69
443.813	101.69
444.034	97.69
444.255	94.69
444.476	87.69
444.698	83.69
444.919	92.69
445.14	197.69
445.361	123.69
445.582	97.69
445.803	115.69
446.024	97.69
446.245	108.69
446.466	103.69
446.687	113.69
446.908	107.69
447.129	89.69
447.35	97.69
447.571	91.69
447.792	78.69
448.013	78.69
448.234	95.69
448.455	99.69
448.675	95.69
448.896	108.69
449.117	95.69
449.338	119.69
449.559	135.69
449.779	125.69
450	116.69
450.221	102.69
450.442	113.69
450.662	107.69
450.883	97.69
451.104	99.69
451.324	101.69
451.545	105.69
451.766	126.69
451.986	137.69
452.207	197.69
452.428	517.69
452.648	1229.69
452.869	705.69
453.089	192.69
453.31	119.69
453.53	117.69
453.751	129.69
453.971	147.69
454.192	151.69
454.412	97.69
454.633	107.69
454.853	88.69
455.073	76.69
455.294	96.69
455.514	88.69
455.734	85.69
455.955	101.69
456.175	83.69
456.395	88.69
456.616	90.69
456.836	76.69
457.056	81.69
457.276	81.69
457.497	124.69
457.717	135.69
457.937	91.69
458.157	93.69
458.377	77.69
458.598	86.69
458.818	73.69
459.038	84.69
459.258	81.69
459.478	84.69
459.698	79.69
459.918	95.69
460.138	110.69
460.358	90.69
460.578	88.69
460.798	93.69
461.018	78.69
461.238	93.69
461.458	96.69
461.678	81.69
461.898	84.69
462.118	101.69
462.338	72.69
462.558	91.69
462.777	97.69
462.997	80.69
463.217	96.69
463.437	116.69
463.657	180.69
463.876	184.69
464.096	113.69
464.316	87.69
464.536	97.69
464.755	89.69
464.975	96.69
465.195	86.69
465.414	93.69
465.634	94.69
465.854	82.69
466.073	95.69
466.293	91.69
466.512	78.69
466.732	78.69
466.951	110.69
467.171	141.69
467.391	141.69
467.61	97.69
467.829	92.69
468.049	101.69
468.268	97.69
468.488	101.69
468.707	102.69
468.927	99.69
469.146	86.69
469.365	92.69
469.585	86.69
469.804	88.69
470.023	99.69
470.243	96.69
470.462	82.69
470.681	104.69
470.901	125.69
471.12	179.69
471.339	216.69
471.558	128.69
471.777	104.69
471.997	100.69
472.216	98.69
472.435	72.69
472.654	90.69
472.873	91.69
473.092	91.69
473.311	86.69
473.53	99.69
473.749	87.69
473.968	96.69
474.187	83.69
474.406	99.69
474.625	82.69
474.844	94.69
475.063	96.69
475.282	95.69
475.501	79.69
475.72	90.69
475.939	96.69
476.158	110.69
476.377	88.69
476.596	111.69
476.814	98.69
477.033	109.69
477.252	98.69
477.471	87.69
477.69	81.69
477.908	86.69
478.127	92.69
478.346	83.69
478.564	90.69
478.783	94.69
479.002	71.69
479.22	79.69
479.439	104.69
479.658	102.69
479.876	92.69
480.095	88.69
480.313	89.69
480.532	85.69
480.751	97.69
480.969	82.69
481.188	84.69
481.406	98.69
481.624	88.69
481.843	107.69
482.061	119.69
482.28	89.69
482.498	98.69
482.717	81.69
482.935	101.69
483.153	92.69
483.372	103.69
483.59	101.69
483.808	87.69
484.027	113.69
484.245	121.69
484.463	169.69
484.681	227.69
484.9	136.69
485.118	128.69
485.336	123.69
485.554	91.69
485.772	113.69
485.99	171.69
486.209	256.69
486.427	162.69
486.645	115.69
486.863	107.69
487.081	97.69
487.299	101.69
487.517	94.69
487.735	97.69
487.953	102.69
488.171	102.69
488.389	94.69
488.607	91.69
488.825	91.69
489.043	91.69
489.261	98.69
489.479	104.69
489.696	104.69
489.914	98.69
490.132	93.69
490.35	95.69
490.568	99.69
490.786	109.69
491.003	109.69
491.221	120.69
491.439	98.69
491.657	108.69
491.874	100.69
492.092	102.69
492.31	100.69
492.527	86.69
492.745	97.69
492.963	96.69
493.18	100.69
493.398	105.69
493.615	97.69
493.833	101.69
494.05	101.69
494.268	106.69
494.485	100.69
494.703	96.69
494.92	95.69
495.138	101.69
495.355	97.69
495.573	96.69
495.79	90.69
496.008	116.69
496.225	99.69
496.442	95.69
496.66	110.69
496.877	153.69
497.094	146.69
497.312	97.69
497.529	87.69
497.746	101.69
497.963	97.69
498.181	102.69
498.398	98.69
498.615	111.69
498.832	79.69
499.049	89.69
499.267	138.69
499.484	150.69
499.701	111.69
499.918	106.69
500.135	99.69
500.352	95.69
500.569	91.69
500.786	118.69
501.003	105.69
501.22	107.69
501.437	95.69
501.654	86.69
501.871	86.69
502.088	97.69
502.305	97.69
502.522	84.69
502.739	84.69
502.956	115.69
503.172	103.69
503.389	100.69
503.606	83.69
503.823	87.69
504.04	106.69
504.256	100.69
504.473	97.69
504.69	90.69
504.907	101.69
505.123	117.69
505.34	99.69
505.557	102.69
505.773	108.69
505.99	99.69
506.207	90.69
506.423	95.69
506.64	93.69
506.856	105.69
507.073	82.69
507.289	87.69
507.506	88.69
507.722	103.69
507.939	100.69
508.155	104.69
508.372	87.69
508.588	96.69
508.805	101.69
509.021	104.69
509.238	93.69
509.454	126.69
509.67	163.69
509.887	101.69
510.103	95.69
510.319	95.69
510.536	110.69
510.752	99.69
510.968	102.69
511.184	100.69
511.401	111.69
511.617	91.69
511.833	94.69
512.049	91.69
512.265	97.69
512.481	100.69
512.698	92.69
512.914	89.69
513.13	88.69
513.346	95.69
513.562	98.69
513.778	95.69
513.994	100.69
514.21	95.69
514.426	132.69
514.642	183.69
514.858	120.69
515.074	103.69
515.29	80.69
515.506	107.69
515.721	79.69
515.937	83.69
516.153	82.69
516.369	90.69
516.585	88.69
516.801	81.69
517.016	80.69
517.232	92.69
517.448	99.69
517.664	108.69
517.879	87.69
518.095	107.69
518.311	95.69
518.527	88.69
518.742	96.69
518.958	107.69
519.173	147.69
519.389	111.69
519.605	101.69
519.82	89.69
520.036	92.69
520.251	84.69
520.467	95.69
520.682	93.69
520.898	87.69
521.113	62.69
521.329	92.69
521.544	93.69
521.76	98.69
521.975	103.69
522.19	83.69
522.406	95.69
522.621	82.69
522.836	91.69
523.052	83.69
523.267	93.69
523.482	91.69
523.698	88.69
523.913	101.69
524.128	99.69
524.343	88.69
524.559	95.69
524.774	81.69
524.989	87.69
525.204	105.69
525.419	104.69
525.634	95.69
525.849	98.69
526.064	90.69
526.28	99.69
526.495	88.69
526.71	93.69
526.925	89.69
527.14	85.69
527.355	97.69
527.57	90.69
527.785	97.69
527.999	95.69
528.214	102.69
528.429	85.69
528.644	97.69
528.859	80.69
529.074	107.69
529.289	97.69
529.503	93.69
529.718	100.69
529.933	96.69
530.148	73.69
530.363	85.69
530.577	84.69
530.792	85.69
531.007	93.69
531.221	92.69
531.436	88.69
531.651	80.69
531.865	103.69
532.08	88.69
532.295	98.69
532.509	133.69
532.724	112.69
532.938	97.69
533.153	100.69
533.367	88.69
533.582	104.69
533.796	95.69
534.011	80.69
534.225	99.69
534.44	86.69
534.654	102.69
534.868	83.69
535.083	85.69
535.297	111.69
535.511	87.69
535.726	92.69
535.94	97.69
536.154	94.69
536.369	94.69
536.583	108.69
536.797	81.69
537.011	89.69
537.225	93.69
537.44	100.69
537.654	98.69
537.868	81.69
538.082	88.69
538.296	94.69
538.51	92.69
538.724	92.69
538.938	97.69
539.153	90.69
539.367	104.69
539.581	102.69
539.795	102.69
540.009	104.69
540.222	106.69
540.436	81.69
540.65	87.69
540.864	94.69
541.078	102.69
541.292	113.69
541.506	202.69
541.72	193.69
541.934	115.69
542.147	99.69
542.361	111.69
542.575	108.69
542.789	96.69
543.002	98.69
543.216	108.69
543.43	92.69
543.644	111.69
543.857	104.69
544.071	99.69
544.285	103.69
544.498	94.69
544.712	88.69
544.925	87.69
545.139	105.69
545.352	101.69
545.566	92.69
545.779	92.69
545.993	89.69
546.206	85.69
546.42	93.69
546.633	101.69
546.847	102.69
547.06	89.69
547.274	103.69
547.487	103.69
547.7	89.69
547.914	99.69
548.127	102.69
548.34	100.69
548.554	108.69
548.767	97.69
548.98	98.69
549.193	95.69
549.407	90.69
549.62	101.69
549.833	102.69
550.046	88.69
550.259	95.69
550.473	112.69
550.686	93.69
550.899	104.69
551.112	94.69
551.325	83.69
551.538	87.69
551.751	98.69
551.964	89.69
552.177	98.69
552.39	103.69
552.603	98.69
552.816	94.69
553.029	95.69
553.242	90.69
553.455	100.69
553.667	95.69
553.88	99.69
554.093	104.69
554.306	109.69
554.519	114.69
554.732	97.69
554.944	105.69
555.157	94.69
555.37	89.69
555.583	99.69
555.795	121.69
556.008	113.69
556.221	141.69
556.433	115.69
556.646	118.69
556.859	101.69
557.071	101.69
557.284	122.69
557.496	109.69
557.709	99.69
557.921	101.69
558.134	115.69
558.346	94.69
558.559	87.69
558.771	102.69
558.984	94.69
559.196	109.69
559.409	94.69
559.621	84.69
559.833	98.69
560.046	92.69
560.258	108.69
560.47	88.69
560.683	95.69
560.895	92.69
561.107	95.69
561.32	106.69
561.532	107.69
561.744	89.69
561.956	107.69
562.168	114.69
562.381	109.69
562.593	111.69
562.805	127.69
563.017	166.69
563.229	222.69
563.441	511.69
563.653	177.69
563.865	117.69
564.077	108.69
564.289	87.69
564.501	87.69
564.713	112.69
564.925	98.69
565.137	86.69
565.349	95.69
565.561	84.69
565.773	88.69
565.985	101.69
566.197	75.69
566.408	102.69
566.62	95.69
566.832	111.69
567.044	91.69
567.255	106.69
567.467	102.69
567.679	90.69
567.891	119.69
568.102	168.69
568.314	237.69
568.526	147.69
568.737	109.69
568.949	85.69
569.161	85.69
569.372	94.69
569.584	92.69
569.795	91.69
570.007	96.69
570.218	105.69
570.43	155.69
570.641	119.69
570.853	87.69
571.064	99.69
571.276	100.69
571.487	100.69
571.698	91.69
571.91	77.69
572.121	85.69
572.333	87.69
572.544	102.69
572.755	144.69
572.966	199.69
573.178	121.69
573.389	109.69
573.6	91.69
573.811	79.69
574.023	86.69
574.234	82.69
574.445	82.69
574.656	91.69
574.867	85.69
575.078	95.69
575.289	99.69
575.501	83.69
575.712	97.69
575.923	80.69
576.134	95.69
576.345	87.69
576.556	80.69
576.767	94.69
576.978	79.69
577.188	95.69
577.399	108.69
577.61	84.69
577.821	97.69
578.032	99.69
578.243	97.69
578.454	96.69
578.665	91.69
578.875	87.69
579.086	65.69
579.297	94.69
579.508	85.69
579.718	89.69
579.929	104.69
580.14	95.69
580.35	86.69
580.561	88.69
580.772	83.69
580.982	86.69
581.193	89.69
581.403	71.69
581.614	85.69
581.825	87.69
582.035	97.69
582.246	96.69
582.456	92.69
582.667	99.69
582.877	96.69
583.087	112.69
583.298	88.69
583.508	83.69
583.719	89.69
583.929	86.69
584.139	104.69
584.35	93.69
584.56	86.69
584.77	83.69
584.981	80.69
585.191	77.69
585.401	85.69
585.611	94.69
585.821	91.69
586.032	79.69
586.242	91.69
586.452	97.69
586.662	83.69
586.872	86.69
587.082	89.69
587.292	90.69
587.502	93.69
587.713	77.69
587.923	92.69
588.133	84.69
588.343	86.69
588.553	79.69
588.762	98.69
588.972	88.69
589.182	96.69
589.392	100.69
589.602	93.69
589.812	111.69
590.022	93.69
590.232	87.69
590.441	87.69
590.651	97.69
590.861	79.69
591.071	83.69
591.281	84.69
591.49	89.69
591.7	84.69
591.91	96.69
592.119	76.69
592.329	78.69
592.539	91.69
592.748	99.69
592.958	94.69
593.167	103.69
593.377	91.69
593.587	91.69
593.796	90.69
594.006	83.69
594.215	79.69
594.424	86.69
594.634	76.69
594.843	86.69
595.053	87.69
595.262	88.69
595.472	98.69
595.681	89.69
595.89	87.69
596.1	81.69
596.309	104.69
596.518	97.69
596.727	94.69
596.937	94.69
597.146	94.69
597.355	92.69
597.564	83.69
597.774	78.69
597.983	89.69
598.192	88.69
598.401	83.69
598.61	91.69
598.819	95.69
599.028	86.69
599.237	76.69
599.446	89.69
599.655	97.69
599.864	92.69
600.073	89.69
600.282	95.69
600.491	89.69
600.7	99.69
600.909	89.69
601.118	99.69
601.327	85.69
601.536	91.69
601.745	92.69
601.953	110.69
602.162	153.69
602.371	111.69
602.58	102.69
602.789	94.69
602.997	101.69
603.206	89.69
603.415	92.69
603.623	84.69
603.832	94.69
604.041	104.69
604.249	90.69
604.458	79.69
604.666	79.69
604.875	92.69
605.084	88.69
605.292	88.69
605.501	72.69
605.709	104.69
605.918	84.69
606.126	100.69
606.334	91.69
606.543	109.69
606.751	129.69
606.96	156.69
607.168	177.69
607.376	108.69
607.585	92.69
607.793	97.69
608.001	88.69
608.21	88.69
608.418	104.69
608.626	89.69
608.834	95.69
609.043	99.69
609.251	85.69
609.459	89.69
609.667	87.69
609.875	85.69
610.083	81.69
610.291	97.69
610.499	87.69
610.707	84.69
610.916	88.69
611.124	80.69
611.332	73.69
611.54	103.69
611.748	85.69
611.955	83.69
612.163	98.69
612.371	87.69
612.579	79.69
612.787	82.69
612.995	83.69
613.203	90.69
613.411	90.69
613.618	96.69
613.826	94.69
614.034	91.69
614.242	104.69
614.449	100.69
614.657	75.69
614.865	101.69
615.072	97.69
615.28	107.69
615.488	84.69
615.695	109.69
615.903	93.69
616.111	98.69
616.318	101.69
616.526	93.69
616.733	83.69
616.941	85.69
617.148	80.69
617.356	75.69
617.563	89.69
617.771	102.69
617.978	91.69
618.185	72.69
618.393	73.69
618.6	81.69
618.807	77.69
619.015	92.69
619.222	103.69
619.429	85.69
619.637	102.69
619.844	89.69
620.051	88.69
620.258	91.69
620.466	79.69
620.673	80.69
620.88	93.69
621.087	94.69
621.294	89.69
621.501	92.69
621.708	82.69
621.915	68.69
622.122	79.69
622.329	85.69
622.536	87.69
622.743	97.69
622.95	77.69
623.157	84.69
623.364	86.69
623.571	82.69
623.778	92.69
623.985	87.69
624.192	107.69
624.399	85.69
624.606	84.69
624.812	99.69
625.019	96.69
625.226	77.69
625.433	87.69
625.639	69.69
625.846	99.69
626.053	96.69
626.259	91.69
626.466	86.69
626.673	114.69
626.879	75.69
627.086	80.69
627.293	88.69
627.499	94.69
627.706	87.69
627.912	96.69
628.119	79.69
628.325	97.69
628.532	84.69
628.738	95.69
628.945	84.69
629.151	81.69
629.357	76.69
629.564	86.69
629.77	87.69
629.976	84.69
630.183	86.69
630.389	84.69
630.595	76.69
630.802	91.69
631.008	84.69
631.214	74.69
631.42	86.69
631.627	98.69
631.833	96.69
632.039	76.69
632.245	96.69
632.451	113.69
632.657	84.69
632.863	71.69
633.069	78.69
633.275	85.69
633.481	83.69
633.688	91.69
633.893	89.69
634.099	99.69
634.305	84.69
634.511	96.69
634.717	92.69
634.923	93.69
635.129	111.69
635.335	131.69
635.541	104.69
635.747	85.69
635.952	84.69
636.158	90.69
636.364	92.69
636.57	73.69
636.775	87.69
636.981	92.69
637.187	79.69
637.392	86.69
637.598	98.69
637.804	86.69
638.009	72.69
638.215	75.69
638.421	79.69
638.626	92.69
638.832	65.69
639.037	72.69
639.243	79.69
639.448	76.69
639.654	84.69
639.859	89.69
640.065	76.69
640.27	89.69
640.475	84.69
640.681	72.69
640.886	81.69
641.091	80.69
641.297	76.69
641.502	88.69
641.707	85.69
641.913	75.69
642.118	88.69
642.323	80.69
642.528	82.69
642.733	78.69
642.939	97.69
643.144	84.69
643.349	91.69
643.554	92.69
643.759	74.69
643.964	87.69
644.169	82.69
644.374	86.69
644.579	87.69
644.784	91.69
644.989	87.69
645.194	91.69
645.399	96.69
645.604	104.69
645.809	96.69
646.014	87.69
646.219	77.69
646.423	81.69
646.628	70.69
646.833	82.69
647.038	89.69
647.243	74.69
647.447	81.69
647.652	81.69
647.857	92.69
648.062	87.69
648.266	81.69
648.471	66.69
648.676	78.69
648.88	84.69
649.085	81.69
649.289	70.69
649.494	86.69
649.698	85.69
649.903	72.69
650.107	87.69
650.312	92.69
650.516	82.69
650.721	92.69
650.925	79.69
651.13	80.69
651.334	72.69
651.539	78.69
651.743	87.69
651.947	90.69
652.152	79.69
652.356	93.69
652.56	100.69
652.764	118.69
652.969	93.69
653.173	80.69
653.377	79.69
653.581	95.69
653.785	73.69
653.99	91.69
654.194	79.69
654.398	78.69
654.602	80.69
654.806	81.69
655.01	80.69
655.214	81.69
655.418	87.69
655.622	79.69
655.826	79.69
656.03	81.69
656.234	85.69
656.438	66.69
656.642	80.69
656.846	73.69
657.049	74.69
657.253	95.69
657.457	94.69
657.661	91.69
657.865	92.69
658.068	80.69
658.272	73.69
658.476	79.69
658.68	75.69
658.883	77.69
659.087	88.69
659.291	89.69
659.494	74.69
659.698	68.69
659.901	80.69
660.105	75.69
660.309	86.69
660.512	69.69
660.716	86.69
660.919	65.69
661.123	90.69
661.326	81.69
661.53	75.69
661.733	82.69
661.936	97.69
662.14	71.69
662.343	68.69
662.546	74.69
662.75	67.69
662.953	73.69
663.156	86.69
663.36	75.69
663.563	69.69
663.766	74.69
663.969	81.69
664.173	75.69
664.376	69.69
664.579	73.69
664.782	84.69
664.985	79.69
665.188	61.69
665.391	81.69
665.594	75.69
665.797	79.69
666	75.69
666.203	74.69
666.406	66.69
666.609	73.69
666.812	87.69
667.015	82.69
667.218	80.69
667.421	64.69
667.624	66.69
667.827	80.69
668.03	82.69
668.232	76.69
668.435	83.69
668.638	68.69
668.841	88.69
669.043	82.69
669.246	77.69
669.449	71.69
669.651	82.69
669.854	94.69
670.057	78.69
670.259	80.69
670.462	69.69
670.665	79.69
670.867	69.69
671.07	77.69
671.272	93.69
671.475	78.69
671.677	80.69
671.88	84.69
672.082	78.69
672.284	75.69
672.487	73.69
672.689	63.69
672.892	70.69
