Data from SnStandardFlinnAPT0064_LampEnergy5.5_LIBS07252019.E.O._I.C._HRD10591_15-14-59-491.txt Node
Date: Thu Jul 25 15:14:59 EDT 2019
User: cochatt
Spectrometer: HR+D1059
Trigger mode: 1
Integration Time (sec): 1.000000E-1
Scans to average: 1
Electric dark correction enabled: true
Nonlinearity correction enabled: false
Boxcar width: 0
XAxis mode: Wavelengths
Number of Pixels in Spectrum: 2048
>>>>>Begin Spectral Data<<<<<
223.165	1.25
223.4	1.25
223.635	1.25
223.869	-14.75
224.104	-28.75
224.338	-22.75
224.573	-12.75
224.808	-13.75
225.042	-2.75
225.277	-10.75
225.511	6.25
225.746	19.25
225.98	5.25
226.215	-3.75
226.449	22.25
226.683	12.25
226.918	18.25
227.152	25.25
227.387	30.25
227.621	35.25
227.856	37.25
228.09	49.25
228.324	42.25
228.559	58.25
228.793	67.25
229.027	133.25
229.262	155.25
229.496	143.25
229.73	142.25
229.964	145.25
230.199	167.25
230.433	168.25
230.667	157.25
230.901	153.25
231.136	167.25
231.37	171.25
231.604	163.25
231.838	209.25
232.072	211.25
232.306	226.25
232.541	210.25
232.775	196.25
233.009	189.25
233.243	167.25
233.477	193.25
233.711	220.25
233.945	234.25
234.179	225.25
234.413	206.25
234.647	206.25
234.881	196.25
235.115	226.25
235.349	246.25
235.583	299.25
235.817	370.25
236.051	375.25
236.285	277.25
236.519	230.25
236.753	237.25
236.987	210.25
237.221	228.25
237.455	244.25
237.689	204.25
237.922	209.25
238.156	202.25
238.39	214.25
238.624	214.25
238.858	216.25
239.091	223.25
239.325	211.25
239.559	238.25
239.793	210.25
240.027	239.25
240.26	224.25
240.494	228.25
240.728	228.25
240.961	242.25
241.195	277.25
241.429	282.25
241.662	271.25
241.896	304.25
242.13	356.25
242.363	461.25
242.597	533.25
242.83	533.25
243.064	563.25
243.298	641.25
243.531	549.25
243.765	374.25
243.998	326.25
244.232	290.25
244.465	286.25
244.699	282.25
244.932	275.25
245.166	293.25
245.399	274.25
245.633	295.25
245.866	285.25
246.099	279.25
246.333	284.25
246.566	277.25
246.8	293.25
247.033	274.25
247.266	282.25
247.5	274.25
247.733	294.25
247.966	296.25
248.2	304.25
248.433	343.25
248.666	363.25
248.899	353.25
249.133	345.25
249.366	343.25
249.599	356.25
249.832	421.25
250.066	377.25
250.299	333.25
250.532	321.25
250.765	323.25
250.998	308.25
251.231	310.25
251.465	311.25
251.698	307.25
251.931	316.25
252.164	325.25
252.397	311.25
252.63	322.25
252.863	330.25
253.096	330.25
253.329	325.25
253.562	336.25
253.795	333.25
254.028	330.25
254.261	333.25
254.494	383.25
254.727	396.25
254.96	455.25
255.193	459.25
255.426	384.25
255.659	368.25
255.892	379.25
256.124	358.25
256.357	359.25
256.59	360.25
256.823	370.25
257.056	418.25
257.289	501.25
257.521	517.25
257.754	450.25
257.987	384.25
258.22	399.25
258.452	362.25
258.685	391.25
258.918	405.25
259.151	405.25
259.383	413.25
259.616	456.25
259.849	463.25
260.081	429.25
260.314	404.25
260.547	408.25
260.779	397.25
261.012	410.25
261.244	424.25
261.477	412.25
261.71	424.25
261.942	436.25
262.175	442.25
262.407	451.25
262.64	456.25
262.872	482.25
263.105	471.25
263.337	505.25
263.57	509.25
263.802	554.25
264.035	533.25
264.267	565.25
264.499	558.25
264.732	587.25
264.964	610.25
265.197	600.25
265.429	605.25
265.661	619.25
265.894	630.25
266.126	708.25
266.358	749.25
266.591	733.25
266.823	637.25
267.055	612.25
267.287	570.25
267.52	545.25
267.752	538.25
267.984	539.25
268.216	533.25
268.448	537.25
268.681	534.25
268.913	514.25
269.145	489.25
269.377	522.25
269.609	519.25
269.841	531.25
270.073	565.25
270.306	611.25
270.538	789.25
270.77	1119.25
271.002	1305.25
271.234	934.25
271.466	696.25
271.698	587.25
271.93	561.25
272.162	543.25
272.394	518.25
272.626	535.25
272.858	508.25
273.09	506.25
273.322	512.25
273.553	494.25
273.785	497.25
274.017	489.25
274.249	497.25
274.481	510.25
274.713	517.25
274.945	484.25
275.176	511.25
275.408	493.25
275.64	507.25
275.872	507.25
276.104	499.25
276.335	532.25
276.567	535.25
276.799	519.25
277.031	533.25
277.262	531.25
277.494	559.25
277.726	601.25
277.957	652.25
278.189	715.25
278.421	699.25
278.652	641.25
278.884	610.25
279.115	543.25
279.347	592.25
279.579	554.25
279.81	552.25
280.042	553.25
280.273	540.25
280.505	569.25
280.736	565.25
280.968	597.25
281.199	624.25
281.431	709.25
281.662	721.25
281.894	674.25
282.125	630.25
282.356	608.25
282.588	657.25
282.819	638.25
283.051	681.25
283.282	759.25
283.513	907.25
283.745	1251.25
283.976	1863.25
284.207	2672.25
284.439	2335.25
284.67	1494.25
284.901	1221.25
285.132	1203.25
285.364	1156.25
285.595	972.25
285.826	862.25
286.057	997.25
286.288	1304.25
286.52	1705.25
286.751	1590.25
286.982	1037.25
287.213	843.25
287.444	752.25
287.675	698.25
287.906	705.25
288.138	663.25
288.369	677.25
288.6	679.25
288.831	673.25
289.062	679.25
289.293	695.25
289.524	667.25
289.755	681.25
289.986	676.25
290.217	696.25
290.448	687.25
290.679	675.25
290.91	691.25
291.141	711.25
291.371	738.25
291.602	757.25
291.833	675.25
292.064	661.25
292.295	671.25
292.526	650.25
292.757	653.25
292.987	645.25
293.218	655.25
293.449	638.25
293.68	630.25
293.91	629.25
294.141	614.25
294.372	633.25
294.603	630.25
294.833	637.25
295.064	639.25
295.295	657.25
295.525	627.25
295.756	646.25
295.987	634.25
296.217	638.25
296.448	634.25
296.679	633.25
296.909	635.25
297.14	638.25
297.37	635.25
297.601	672.25
297.831	673.25
298.062	637.25
298.292	645.25
298.523	635.25
298.753	666.25
298.984	669.25
299.214	660.25
299.445	681.25
299.675	699.25
299.905	732.25
300.136	720.25
300.366	799.25
300.597	964.25
300.827	1263.25
301.057	1682.25
301.288	1685.25
301.518	1158.25
301.748	906.25
301.979	858.25
302.209	837.25
302.439	851.25
302.669	881.25
302.9	1019.25
303.13	1362.25
303.36	1978.25
303.59	2517.25
303.82	2205.25
304.051	1374.25
304.281	1043.25
304.511	904.25
304.741	854.25
304.971	841.25
305.201	792.25
305.431	770.25
305.661	754.25
305.891	750.25
306.121	748.25
306.352	725.25
306.582	735.25
306.812	714.25
307.042	724.25
307.272	730.25
307.502	709.25
307.731	721.25
307.961	739.25
308.191	728.25
308.421	729.25
308.651	717.25
308.881	729.25
309.111	707.25
309.341	718.25
309.571	731.25
309.8	759.25
310.03	752.25
310.26	734.25
310.49	755.25
310.72	751.25
310.949	746.25
311.179	756.25
311.409	749.25
311.639	805.25
311.868	766.25
312.098	777.25
312.328	790.25
312.557	788.25
312.787	755.25
313.017	746.25
313.246	805.25
313.476	810.25
313.706	810.25
313.935	841.25
314.165	886.25
314.394	876.25
314.624	869.25
314.853	839.25
315.083	846.25
315.312	834.25
315.542	835.25
315.771	865.25
316.001	841.25
316.23	881.25
316.46	906.25
316.689	990.25
316.919	1159.25
317.148	1590.25
317.377	2309.25
317.607	3362.25
317.836	3406.25
318.065	2087.25
318.295	1435.25
318.524	1171.25
318.753	1056.25
318.983	1034.25
319.212	944.25
319.441	928.25
319.67	915.25
319.9	920.25
320.129	882.25
320.358	902.25
320.587	918.25
320.816	901.25
321.046	916.25
321.275	931.25
321.504	936.25
321.733	960.25
321.962	955.25
322.191	943.25
322.42	962.25
322.649	939.25
322.878	938.25
323.108	962.25
323.337	993.25
323.566	996.25
323.795	1011.25
324.024	1023.25
324.253	1023.25
324.482	1070.25
324.71	1112.25
324.939	1153.25
325.168	1163.25
325.397	1217.25
325.626	1407.25
325.855	1909.25
326.084	2779.25
326.313	4179.25
326.542	4345.25
326.77	2894.25
326.999	1992.25
327.228	1693.25
327.457	1639.25
327.686	1664.25
327.914	1769.25
328.143	2028.25
328.372	2307.25
328.6	2506.25
328.829	2325.25
329.058	2034.25
329.287	1856.25
329.515	1699.25
329.744	1610.25
329.972	1555.25
330.201	1461.25
330.43	1418.25
330.658	1364.25
330.887	1357.25
331.115	1327.25
331.344	1330.25
331.572	1317.25
331.801	1325.25
332.03	1343.25
332.258	1340.25
332.486	1395.25
332.715	1539.25
332.943	1842.25
333.172	2122.25
333.4	2126.25
333.629	1731.25
333.857	1620.25
334.085	1653.25
334.314	1723.25
334.542	1861.25
334.771	2101.25
334.999	2479.25
335.227	2961.25
335.455	3285.25
335.684	3149.25
335.912	2687.25
336.14	2333.25
336.369	2105.25
336.597	1961.25
336.825	1813.25
337.053	1712.25
337.281	1604.25
337.51	1551.25
337.738	1451.25
337.966	1405.25
338.194	1375.25
338.422	1320.25
338.65	1303.25
338.878	1281.25
339.106	1249.25
339.334	1238.25
339.562	1213.25
339.79	1220.25
340.018	1210.25
340.246	1177.25
340.474	1199.25
340.702	1159.25
340.93	1174.25
341.158	1185.25
341.386	1143.25
341.614	1130.25
341.842	1149.25
342.07	1130.25
342.298	1090.25
342.526	1111.25
342.754	1084.25
342.981	1071.25
343.209	1073.25
343.437	1119.25
343.665	1087.25
343.893	1130.25
344.12	1126.25
344.348	1103.25
344.576	1085.25
344.804	1059.25
345.031	1013.25
345.259	1020.25
345.487	1028.25
345.714	1003.25
345.942	1029.25
346.17	1001.25
346.397	1012.25
346.625	1014.25
346.853	1018.25
347.08	990.25
347.308	990.25
347.535	1000.25
347.763	1029.25
347.99	1019.25
348.218	974.25
348.445	973.25
348.673	976.25
348.9	989.25
349.128	976.25
349.355	954.25
349.583	962.25
349.81	973.25
350.037	950.25
350.265	979.25
350.492	951.25
350.72	981.25
350.947	965.25
351.174	941.25
351.402	960.25
351.629	952.25
351.856	961.25
352.083	965.25
352.311	938.25
352.538	955.25
352.765	950.25
352.992	943.25
353.22	955.25
353.447	971.25
353.674	952.25
353.901	959.25
354.128	947.25
354.355	952.25
354.583	950.25
354.81	995.25
355.037	974.25
355.264	978.25
355.491	974.25
355.718	957.25
355.945	983.25
356.172	966.25
356.399	977.25
356.626	985.25
356.853	989.25
357.08	997.25
357.307	989.25
357.534	1032.25
357.761	1015.25
357.988	1038.25
358.215	1011.25
358.441	1022.25
358.668	1013.25
358.895	1039.25
359.122	1012.25
359.349	994.25
359.576	1048.25
359.802	1004.25
360.029	1011.25
360.256	1006.25
360.483	1026.25
360.709	1034.25
360.936	1017.25
361.163	1047.25
361.39	1007.25
361.616	1006.25
361.843	1008.25
362.07	1021.25
362.296	1037.25
362.523	1019.25
362.749	1019.25
362.976	1043.25
363.203	1015.25
363.429	991.25
363.656	1013.25
363.882	1007.25
364.109	1011.25
364.335	1023.25
364.562	1006.25
364.788	990.25
365.015	1054.25
365.241	1050.25
365.468	1078.25
365.694	1099.25
365.92	1082.25
366.147	1058.25
366.373	1054.25
366.599	1058.25
366.826	1047.25
367.052	1042.25
367.278	1066.25
367.505	1043.25
367.731	1071.25
367.957	1063.25
368.184	1035.25
368.41	1064.25
368.636	1065.25
368.862	1047.25
369.089	1038.25
369.315	1046.25
369.541	1066.25
369.767	1066.25
369.993	1045.25
370.219	1047.25
370.445	1073.25
370.672	1050.25
370.898	1082.25
371.124	1122.25
371.35	1085.25
371.576	1069.25
371.802	1072.25
372.028	1090.25
372.254	1102.25
372.48	1102.25
372.706	1127.25
372.932	1116.25
373.158	1102.25
373.384	1127.25
373.61	1098.25
373.835	1135.25
374.061	1107.25
374.287	1128.25
374.513	1151.25
374.739	1165.25
374.965	1160.25
375.191	1170.25
375.416	1173.25
375.642	1110.25
375.868	1125.25
376.094	1139.25
376.319	1120.25
376.545	1129.25
376.771	1129.25
376.997	1079.25
377.222	1087.25
377.448	1091.25
377.674	1084.25
377.899	1089.25
378.125	1078.25
378.35	1094.25
378.576	1077.25
378.802	1095.25
379.027	1102.25
379.253	1120.25
379.478	1166.25
379.704	1338.25
379.929	1793.25
380.155	2490.25
380.38	2721.25
380.606	1806.25
380.831	1339.25
381.057	1235.25
381.282	1140.25
381.507	1111.25
381.733	1090.25
381.958	1092.25
382.184	1109.25
382.409	1105.25
382.634	1085.25
382.86	1090.25
383.085	1071.25
383.31	1089.25
383.535	1093.25
383.761	1113.25
383.986	1082.25
384.211	1099.25
384.436	1102.25
384.662	1108.25
384.887	1127.25
385.112	1121.25
385.337	1093.25
385.562	1123.25
385.787	1107.25
386.013	1135.25
386.238	1125.25
386.463	1119.25
386.688	1120.25
386.913	1129.25
387.138	1114.25
387.363	1141.25
387.588	1119.25
387.813	1113.25
388.038	1103.25
388.263	1143.25
388.488	1101.25
388.713	1117.25
388.938	1131.25
389.163	1133.25
389.387	1144.25
389.612	1145.25
389.837	1149.25
390.062	1124.25
390.287	1139.25
390.512	1135.25
390.736	1162.25
390.961	1165.25
391.186	1159.25
391.411	1140.25
391.636	1171.25
391.86	1187.25
392.085	1177.25
392.31	1178.25
392.534	1178.25
392.759	1137.25
392.984	1138.25
393.208	1162.25
393.433	1129.25
393.658	1095.25
393.882	1117.25
394.107	1155.25
394.331	1167.25
394.556	1138.25
394.78	1159.25
395.005	1143.25
395.229	1144.25
395.454	1179.25
395.678	1163.25
395.903	1171.25
396.127	1173.25
396.352	1168.25
396.576	1182.25
396.801	1134.25
397.025	1179.25
397.249	1174.25
397.474	1165.25
397.698	1188.25
397.922	1168.25
398.147	1189.25
398.371	1199.25
398.595	1238.25
398.82	1242.25
399.044	1301.25
399.268	1358.25
399.492	1454.25
399.717	1526.25
399.941	1469.25
400.165	1433.25
400.389	1384.25
400.613	1353.25
400.837	1290.25
401.062	1287.25
401.286	1262.25
401.51	1238.25
401.734	1253.25
401.958	1269.25
402.182	1253.25
402.406	1221.25
402.63	1309.25
402.854	1256.25
403.078	1271.25
403.302	1291.25
403.526	1331.25
403.75	1294.25
403.974	1302.25
404.198	1296.25
404.422	1310.25
404.645	1289.25
404.869	1333.25
405.093	1336.25
405.317	1287.25
405.541	1335.25
405.765	1293.25
405.988	1346.25
406.212	1327.25
406.436	1322.25
406.66	1329.25
406.883	1341.25
407.107	1372.25
407.331	1383.25
407.555	1395.25
407.778	1413.25
408.002	1390.25
408.226	1386.25
408.449	1379.25
408.673	1323.25
408.896	1310.25
409.12	1312.25
409.344	1329.25
409.567	1275.25
409.791	1318.25
410.014	1270.25
410.238	1268.25
410.461	1287.25
410.685	1265.25
410.908	1237.25
411.132	1245.25
411.355	1213.25
411.578	1265.25
411.802	1267.25
412.025	1224.25
412.249	1228.25
412.472	1205.25
412.695	1232.25
412.919	1233.25
413.142	1210.25
413.365	1205.25
413.589	1224.25
413.812	1216.25
414.035	1242.25
414.258	1225.25
414.482	1237.25
414.705	1239.25
414.928	1227.25
415.151	1211.25
415.374	1186.25
415.597	1218.25
415.821	1171.25
416.044	1187.25
416.267	1183.25
416.49	1170.25
416.713	1158.25
416.936	1160.25
417.159	1154.25
417.382	1178.25
417.605	1167.25
417.828	1145.25
418.051	1180.25
418.274	1163.25
418.497	1201.25
418.72	1214.25
418.943	1182.25
419.166	1253.25
419.389	1298.25
419.611	1284.25
419.834	1255.25
420.057	1246.25
420.28	1216.25
420.503	1154.25
420.726	1185.25
420.948	1161.25
421.171	1190.25
421.394	1180.25
421.617	1206.25
421.839	1187.25
422.062	1201.25
422.285	1177.25
422.507	1203.25
422.73	1228.25
422.953	1214.25
423.175	1207.25
423.398	1210.25
423.621	1169.25
423.843	1203.25
424.066	1183.25
424.288	1180.25
424.511	1190.25
424.733	1199.25
424.956	1162.25
425.178	1181.25
425.401	1178.25
425.623	1169.25
425.846	1139.25
426.068	1145.25
426.291	1149.25
426.513	1112.25
426.735	1132.25
426.958	1127.25
427.18	1121.25
427.402	1108.25
427.625	1124.25
427.847	1104.25
428.069	1075.25
428.292	1087.25
428.514	1088.25
428.736	1114.25
428.958	1089.25
429.181	1065.25
429.403	1058.25
429.625	1073.25
429.847	1072.25
430.069	1090.25
430.292	1116.25
430.514	1163.25
430.736	1159.25
430.958	1112.25
431.18	1073.25
431.402	1111.25
431.624	1063.25
431.846	1050.25
432.068	1077.25
432.29	1079.25
432.512	1049.25
432.734	1114.25
432.956	1096.25
433.178	1110.25
433.4	1110.25
433.622	1118.25
433.844	1111.25
434.066	1109.25
434.287	1090.25
434.509	1088.25
434.731	1102.25
434.953	1134.25
435.175	1133.25
435.397	1130.25
435.618	1120.25
435.84	1104.25
436.062	1095.25
436.284	1093.25
436.505	1079.25
436.727	1102.25
436.949	1079.25
437.17	1082.25
437.392	1071.25
437.614	1069.25
437.835	1024.25
438.057	1025.25
438.278	1059.25
438.5	1041.25
438.721	1058.25
438.943	1102.25
439.165	1098.25
439.386	1114.25
439.608	1133.25
439.829	1111.25
440.05	1145.25
440.272	1207.25
440.493	1137.25
440.715	1119.25
440.936	1143.25
441.158	1122.25
441.379	1170.25
441.6	1197.25
441.822	1209.25
442.043	1246.25
442.264	1305.25
442.486	1223.25
442.707	1182.25
442.928	1166.25
443.149	1174.25
443.371	1156.25
443.592	1161.25
443.813	1169.25
444.034	1158.25
444.255	1183.25
444.476	1231.25
444.698	1247.25
444.919	1247.25
445.14	1293.25
445.361	1244.25
445.582	1224.25
445.803	1188.25
446.024	1149.25
446.245	1214.25
446.466	1167.25
446.687	1121.25
446.908	1149.25
447.129	1129.25
447.35	1134.25
447.571	1121.25
447.792	1101.25
448.013	1073.25
448.234	1102.25
448.455	1092.25
448.675	1087.25
448.896	1089.25
449.117	1129.25
449.338	1177.25
449.559	1263.25
449.779	1122.25
450	1060.25
450.221	1059.25
450.442	1082.25
450.662	1025.25
450.883	1032.25
451.104	1048.25
451.324	1050.25
451.545	1023.25
451.766	1011.25
451.986	1085.25
452.207	1085.25
452.428	1258.25
452.648	1716.25
452.869	1511.25
453.089	1149.25
453.31	1113.25
453.53	1137.25
453.751	1151.25
453.971	1211.25
454.192	1168.25
454.412	1053.25
454.633	1052.25
454.853	1008.25
455.073	988.25
455.294	1009.25
455.514	1004.25
455.734	979.25
455.955	970.25
456.175	1002.25
456.395	999.25
456.616	995.25
456.836	1012.25
457.056	1048.25
457.276	1011.25
457.497	1071.25
457.717	1052.25
457.937	1047.25
458.157	1039.25
458.377	1026.25
458.598	1043.25
458.818	1079.25
459.038	1080.25
459.258	1073.25
459.478	1063.25
459.698	1091.25
459.918	1103.25
460.138	1125.25
460.358	1145.25
460.578	1180.25
460.798	1215.25
461.018	1209.25
461.238	1140.25
461.458	1178.25
461.678	1179.25
461.898	1216.25
462.118	1236.25
462.338	1230.25
462.558	1265.25
462.777	1283.25
462.997	1329.25
463.217	1367.25
463.437	1413.25
463.657	1381.25
463.876	1385.25
464.096	1327.25
464.316	1289.25
464.536	1268.25
464.755	1285.25
464.975	1230.25
465.195	1223.25
465.414	1128.25
465.634	1118.25
465.854	1127.25
466.073	1090.25
466.293	1118.25
466.512	1093.25
466.732	1113.25
466.951	1147.25
467.171	1160.25
467.391	1158.25
467.61	1112.25
467.829	1088.25
468.049	1099.25
468.268	1071.25
468.488	1058.25
468.707	1046.25
468.927	1070.25
469.146	1058.25
469.365	1082.25
469.585	1077.25
469.804	1111.25
470.023	1111.25
470.243	1137.25
470.462	1172.25
470.681	1196.25
470.901	1279.25
471.12	1440.25
471.339	1488.25
471.558	1255.25
471.777	1197.25
471.997	1133.25
472.216	1083.25
472.435	1094.25
472.654	1073.25
472.873	1042.25
473.092	1067.25
473.311	1051.25
473.53	1086.25
473.749	1105.25
473.968	1128.25
474.187	1055.25
474.406	1077.25
474.625	1063.25
474.844	1064.25
475.063	1069.25
475.282	1080.25
475.501	1073.25
475.72	1086.25
475.939	1119.25
476.158	1157.25
476.377	1147.25
476.596	1136.25
476.814	1136.25
477.033	1099.25
477.252	1151.25
477.471	1146.25
477.69	1189.25
477.908	1218.25
478.127	1227.25
478.346	1252.25
478.564	1211.25
478.783	1253.25
479.002	1266.25
479.22	1245.25
479.439	1287.25
479.658	1291.25
479.876	1280.25
480.095	1322.25
480.313	1281.25
480.532	1335.25
480.751	1300.25
480.969	1288.25
481.188	1285.25
481.406	1255.25
481.624	1266.25
481.843	1252.25
482.061	1267.25
482.28	1254.25
482.498	1264.25
482.717	1277.25
482.935	1299.25
483.153	1291.25
483.372	1317.25
483.59	1336.25
483.808	1364.25
484.027	1340.25
484.245	1410.25
484.463	1557.25
484.681	1690.25
484.9	1547.25
485.118	1484.25
485.336	1487.25
485.554	1469.25
485.772	1535.25
485.99	1709.25
486.209	1803.25
486.427	1585.25
486.645	1427.25
486.863	1409.25
487.081	1360.25
487.299	1381.25
487.517	1342.25
487.735	1395.25
487.953	1399.25
488.171	1393.25
488.389	1354.25
488.607	1377.25
488.825	1329.25
489.043	1298.25
489.261	1303.25
489.479	1329.25
489.696	1288.25
489.914	1306.25
490.132	1326.25
490.35	1375.25
490.568	1353.25
490.786	1373.25
491.003	1404.25
491.221	1374.25
491.439	1387.25
491.657	1421.25
491.874	1405.25
492.092	1466.25
492.31	1501.25
492.527	1441.25
492.745	1436.25
492.963	1477.25
493.18	1407.25
493.398	1421.25
493.615	1441.25
493.833	1425.25
494.05	1400.25
494.268	1398.25
494.485	1441.25
494.703	1417.25
494.92	1449.25
495.138	1420.25
495.355	1405.25
495.573	1416.25
495.79	1405.25
496.008	1384.25
496.225	1511.25
496.442	1479.25
496.66	1498.25
496.877	1546.25
497.094	1547.25
497.312	1511.25
497.529	1529.25
497.746	1519.25
497.963	1555.25
498.181	1565.25
498.398	1637.25
498.615	1670.25
498.832	1743.25
499.049	1842.25
499.267	1930.25
499.484	1997.25
499.701	2069.25
499.918	2179.25
500.135	2293.25
500.352	2413.25
500.569	2442.25
500.786	2450.25
501.003	2321.25
501.22	2227.25
501.437	2093.25
501.654	1975.25
501.871	1880.25
502.088	1819.25
502.305	1703.25
502.522	1678.25
502.739	1658.25
502.956	1582.25
503.172	1564.25
503.389	1504.25
503.606	1506.25
503.823	1503.25
504.04	1453.25
504.256	1470.25
504.473	1462.25
504.69	1417.25
504.907	1437.25
505.123	1430.25
505.34	1342.25
505.557	1339.25
505.773	1307.25
505.99	1314.25
506.207	1304.25
506.423	1266.25
506.64	1284.25
506.856	1256.25
507.073	1267.25
507.289	1268.25
507.506	1238.25
507.722	1261.25
507.939	1228.25
508.155	1203.25
508.372	1231.25
508.588	1212.25
508.805	1169.25
509.021	1195.25
509.238	1214.25
509.454	1250.25
509.67	1301.25
509.887	1231.25
510.103	1185.25
510.319	1199.25
510.536	1203.25
510.752	1179.25
510.968	1165.25
511.184	1148.25
511.401	1132.25
511.617	1133.25
511.833	1169.25
512.049	1143.25
512.265	1127.25
512.481	1153.25
512.698	1160.25
512.914	1166.25
513.13	1163.25
513.346	1135.25
513.562	1155.25
513.778	1120.25
513.994	1157.25
514.21	1194.25
514.426	1259.25
514.642	1256.25
514.858	1213.25
515.074	1181.25
515.29	1171.25
515.506	1167.25
515.721	1201.25
515.937	1163.25
516.153	1210.25
516.369	1191.25
516.585	1197.25
516.801	1229.25
517.016	1227.25
517.232	1303.25
517.448	1278.25
517.664	1303.25
517.879	1318.25
518.095	1292.25
518.311	1310.25
518.527	1267.25
518.742	1313.25
518.958	1270.25
519.173	1289.25
519.389	1251.25
519.605	1226.25
519.82	1205.25
520.036	1163.25
520.251	1167.25
520.467	1161.25
520.682	1143.25
520.898	1160.25
521.113	1141.25
521.329	1136.25
521.544	1142.25
521.76	1133.25
521.975	1157.25
522.19	1142.25
522.406	1146.25
522.621	1141.25
522.836	1136.25
523.052	1099.25
523.267	1135.25
523.482	1119.25
523.698	1125.25
523.913	1115.25
524.128	1131.25
524.343	1106.25
524.559	1127.25
524.774	1125.25
524.989	1126.25
525.204	1135.25
525.419	1105.25
525.634	1119.25
525.849	1155.25
526.064	1101.25
526.28	1101.25
526.495	1122.25
526.71	1083.25
526.925	1104.25
527.14	1064.25
527.355	1103.25
527.57	1104.25
527.785	1144.25
527.999	1098.25
528.214	1110.25
528.429	1163.25
528.644	1153.25
528.859	1173.25
529.074	1162.25
529.289	1187.25
529.503	1181.25
529.718	1202.25
529.933	1153.25
530.148	1174.25
530.363	1163.25
530.577	1185.25
530.792	1159.25
531.007	1164.25
531.221	1193.25
531.436	1194.25
531.651	1194.25
531.865	1199.25
532.08	1233.25
532.295	1254.25
532.509	1291.25
532.724	1283.25
532.938	1318.25
533.153	1340.25
533.367	1393.25
533.582	1435.25
533.796	1446.25
534.011	1412.25
534.225	1363.25
534.44	1316.25
534.654	1319.25
534.868	1273.25
535.083	1303.25
535.297	1274.25
535.511	1277.25
535.726	1221.25
535.94	1215.25
536.154	1214.25
536.369	1195.25
536.583	1173.25
536.797	1163.25
537.011	1147.25
537.225	1160.25
537.44	1160.25
537.654	1168.25
537.868	1103.25
538.082	1126.25
538.296	1122.25
538.51	1096.25
538.724	1124.25
538.938	1114.25
539.153	1113.25
539.367	1087.25
539.581	1073.25
539.795	1062.25
540.009	1067.25
540.222	1066.25
540.436	1065.25
540.65	1087.25
540.864	1113.25
541.078	1107.25
541.292	1157.25
541.506	1364.25
541.72	1363.25
541.934	1250.25
542.147	1209.25
542.361	1129.25
542.575	1098.25
542.789	1074.25
543.002	1070.25
543.216	1022.25
543.43	1041.25
543.644	1054.25
543.857	1068.25
544.071	1079.25
544.285	1098.25
544.498	1050.25
544.712	1083.25
544.925	1079.25
545.139	1086.25
545.352	1103.25
545.566	1095.25
545.779	1113.25
545.993	1073.25
546.206	1092.25
546.42	1064.25
546.633	1087.25
546.847	1103.25
547.06	1110.25
547.274	1097.25
547.487	1108.25
547.7	1103.25
547.914	1131.25
548.127	1079.25
548.34	1066.25
548.554	1086.25
548.767	1093.25
548.98	1076.25
549.193	1102.25
549.407	1098.25
549.62	1113.25
549.833	1091.25
550.046	1090.25
550.259	1103.25
550.473	1047.25
550.686	1090.25
550.899	1059.25
551.112	1073.25
551.325	1063.25
551.538	1092.25
551.751	1064.25
551.964	1063.25
552.177	1062.25
552.39	1091.25
552.603	1113.25
552.816	1161.25
553.029	1145.25
553.242	1170.25
553.455	1178.25
553.667	1144.25
553.88	1169.25
554.093	1148.25
554.306	1166.25
554.519	1207.25
554.732	1216.25
554.944	1230.25
555.157	1253.25
555.37	1272.25
555.583	1281.25
555.795	1331.25
556.008	1379.25
556.221	1456.25
556.433	1549.25
556.646	1557.25
556.859	1498.25
557.071	1474.25
557.284	1496.25
557.496	1461.25
557.709	1419.25
557.921	1428.25
558.134	1404.25
558.346	1439.25
558.559	1490.25
558.771	1508.25
558.984	1616.25
559.196	1656.25
559.409	1653.25
559.621	1562.25
559.833	1505.25
560.046	1415.25
560.258	1393.25
560.47	1341.25
560.683	1279.25
560.895	1268.25
561.107	1240.25
561.32	1212.25
561.532	1151.25
561.744	1133.25
561.956	1175.25
562.168	1146.25
562.381	1099.25
562.593	1078.25
562.805	1076.25
563.017	1083.25
563.229	1111.25
563.441	1187.25
563.653	1063.25
563.865	1065.25
564.077	998.25
564.289	996.25
564.501	962.25
564.713	1015.25
564.925	1039.25
565.137	979.25
565.349	1003.25
565.561	964.25
565.773	997.25
565.985	1007.25
566.197	1035.25
566.408	1066.25
566.62	1102.25
566.832	1086.25
567.044	1103.25
567.255	1110.25
567.467	1124.25
567.679	1147.25
567.891	1194.25
568.102	1304.25
568.314	1453.25
568.526	1275.25
568.737	1125.25
568.949	1016.25
569.161	975.25
569.372	943.25
569.584	911.25
569.795	900.25
570.007	897.25
570.218	912.25
570.43	931.25
570.641	889.25
570.853	850.25
571.064	856.25
571.276	834.25
571.487	829.25
571.698	808.25
571.91	811.25
572.121	790.25
572.333	759.25
572.544	802.25
572.755	837.25
572.966	959.25
573.178	838.25
573.389	790.25
573.6	776.25
573.811	738.25
574.023	742.25
574.234	745.25
574.445	710.25
574.656	721.25
574.867	725.25
575.078	705.25
575.289	719.25
575.501	715.25
575.712	733.25
575.923	727.25
576.134	722.25
576.345	719.25
576.556	728.25
576.767	765.25
576.978	742.25
577.188	754.25
577.399	723.25
577.61	736.25
577.821	742.25
578.032	722.25
578.243	754.25
578.454	731.25
578.665	785.25
578.875	767.25
579.086	802.25
579.297	841.25
579.508	857.25
579.718	919.25
579.929	1022.25
580.14	1113.25
580.35	1125.25
580.561	1104.25
580.772	1040.25
580.982	966.25
581.193	906.25
581.403	894.25
581.614	861.25
581.825	825.25
582.035	807.25
582.246	802.25
582.456	752.25
582.667	746.25
582.877	716.25
583.087	667.25
583.298	697.25
583.508	669.25
583.719	663.25
583.929	661.25
584.139	627.25
584.35	655.25
584.56	630.25
584.77	641.25
584.981	649.25
585.191	617.25
585.401	601.25
585.611	615.25
585.821	581.25
586.032	593.25
586.242	574.25
586.452	573.25
586.662	564.25
586.872	562.25
587.082	559.25
587.292	564.25
587.502	570.25
587.713	553.25
587.923	523.25
588.133	535.25
588.343	559.25
588.553	553.25
588.762	541.25
588.972	533.25
589.182	545.25
589.392	565.25
589.602	541.25
589.812	533.25
590.022	528.25
590.232	510.25
590.441	509.25
590.651	529.25
590.861	529.25
591.071	510.25
591.281	517.25
591.49	543.25
591.7	518.25
591.91	529.25
592.119	521.25
592.329	520.25
592.539	516.25
592.748	522.25
592.958	541.25
593.167	551.25
593.377	550.25
593.587	530.25
593.796	570.25
594.006	555.25
594.215	534.25
594.424	551.25
594.634	544.25
594.843	532.25
595.053	519.25
595.262	530.25
595.472	498.25
595.681	490.25
595.89	491.25
596.1	480.25
596.309	484.25
596.518	487.25
596.727	461.25
596.937	462.25
597.146	470.25
597.355	470.25
597.564	460.25
597.774	467.25
597.983	472.25
598.192	445.25
598.401	461.25
598.61	432.25
598.819	431.25
599.028	435.25
599.237	440.25
599.446	432.25
599.655	439.25
599.864	419.25
600.073	426.25
600.282	423.25
600.491	432.25
600.7	425.25
600.909	431.25
601.118	415.25
601.327	418.25
601.536	415.25
601.745	465.25
601.953	458.25
602.162	525.25
602.371	457.25
602.58	440.25
602.789	433.25
602.997	431.25
603.206	435.25
603.415	447.25
603.623	407.25
603.832	418.25
604.041	443.25
604.249	417.25
604.458	406.25
604.666	385.25
604.875	415.25
605.084	400.25
605.292	400.25
605.501	404.25
605.709	423.25
605.918	406.25
606.126	401.25
606.334	443.25
606.543	433.25
606.751	439.25
606.96	480.25
607.168	515.25
607.376	453.25
607.585	430.25
607.793	413.25
608.001	417.25
608.21	414.25
608.418	413.25
608.626	407.25
608.834	393.25
609.043	385.25
609.251	406.25
609.459	410.25
609.667	388.25
609.875	401.25
610.083	405.25
610.291	400.25
610.499	393.25
610.707	397.25
610.916	388.25
611.124	396.25
611.332	390.25
611.54	402.25
611.748	385.25
611.955	394.25
612.163	395.25
612.371	394.25
612.579	375.25
612.787	397.25
612.995	382.25
613.203	403.25
613.411	374.25
613.618	383.25
613.826	370.25
614.034	377.25
614.242	397.25
614.449	387.25
614.657	377.25
614.865	365.25
615.072	370.25
615.28	368.25
615.488	390.25
615.695	394.25
615.903	367.25
616.111	374.25
616.318	354.25
616.526	368.25
616.733	360.25
616.941	375.25
617.148	365.25
617.356	369.25
617.563	359.25
617.771	389.25
617.978	365.25
618.185	362.25
618.393	375.25
618.6	385.25
618.807	372.25
619.015	348.25
619.222	365.25
619.429	359.25
619.637	347.25
619.844	355.25
620.051	354.25
620.258	370.25
620.466	349.25
620.673	343.25
620.88	349.25
621.087	327.25
621.294	333.25
621.501	340.25
621.708	331.25
621.915	322.25
622.122	341.25
622.329	337.25
622.536	338.25
622.743	338.25
622.95	325.25
623.157	342.25
623.364	351.25
623.571	339.25
623.778	329.25
623.985	346.25
624.192	337.25
624.399	334.25
624.606	337.25
624.812	351.25
625.019	337.25
625.226	331.25
625.433	310.25
625.639	301.25
625.846	332.25
626.053	315.25
626.259	311.25
626.466	314.25
626.673	312.25
626.879	309.25
627.086	324.25
627.293	327.25
627.499	320.25
627.706	322.25
627.912	320.25
628.119	301.25
628.325	328.25
628.532	323.25
628.738	309.25
628.945	298.25
629.151	323.25
629.357	310.25
629.564	317.25
629.77	312.25
629.976	293.25
630.183	276.25
630.389	304.25
630.595	312.25
630.802	329.25
631.008	308.25
631.214	295.25
631.42	302.25
631.627	300.25
631.833	286.25
632.039	288.25
632.245	286.25
632.451	289.25
632.657	294.25
632.863	283.25
633.069	283.25
633.275	292.25
633.481	307.25
633.688	284.25
633.893	304.25
634.099	271.25
634.305	270.25
634.511	288.25
634.717	295.25
634.923	290.25
635.129	323.25
635.335	345.25
635.541	315.25
635.747	289.25
635.952	298.25
636.158	279.25
636.364	293.25
636.57	304.25
636.775	271.25
636.981	294.25
637.187	288.25
637.392	270.25
637.598	282.25
637.804	307.25
638.009	313.25
638.215	295.25
638.421	289.25
638.626	285.25
638.832	293.25
639.037	293.25
639.243	294.25
639.448	287.25
639.654	310.25
639.859	287.25
640.065	310.25
640.27	306.25
640.475	299.25
640.681	280.25
640.886	310.25
641.091	289.25
641.297	306.25
641.502	291.25
641.707	305.25
641.913	305.25
642.118	314.25
642.323	337.25
642.528	312.25
642.733	321.25
642.939	328.25
643.144	341.25
643.349	358.25
643.554	358.25
643.759	372.25
643.964	394.25
644.169	387.25
644.374	405.25
644.579	427.25
644.784	483.25
644.989	518.25
645.194	565.25
645.399	637.25
645.604	652.25
645.809	532.25
646.014	456.25
646.219	413.25
646.423	376.25
646.628	356.25
646.833	329.25
647.038	325.25
647.243	309.25
647.447	312.25
647.652	291.25
647.857	293.25
648.062	293.25
648.266	288.25
648.471	289.25
648.676	274.25
648.88	295.25
649.085	272.25
649.289	262.25
649.494	262.25
649.698	262.25
649.903	275.25
650.107	267.25
650.312	244.25
650.516	235.25
650.721	248.25
650.925	232.25
651.13	230.25
651.334	238.25
651.539	248.25
651.743	215.25
651.947	223.25
652.152	225.25
652.356	224.25
652.56	240.25
652.764	241.25
652.969	209.25
653.173	230.25
653.377	206.25
653.581	202.25
653.785	230.25
653.99	208.25
654.194	196.25
654.398	198.25
654.602	197.25
654.806	189.25
655.01	206.25
655.214	200.25
655.418	189.25
655.622	208.25
655.826	214.25
656.03	195.25
656.234	203.25
656.438	221.25
656.642	208.25
656.846	208.25
657.049	202.25
657.253	200.25
657.457	180.25
657.661	166.25
657.865	135.25
658.068	162.25
658.272	162.25
658.476	160.25
658.68	127.25
658.883	139.25
659.087	142.25
659.291	133.25
659.494	133.25
659.698	128.25
659.901	134.25
660.105	123.25
660.309	125.25
660.512	118.25
660.716	117.25
660.919	115.25
661.123	115.25
661.326	127.25
661.53	105.25
661.733	102.25
661.936	112.25
662.14	104.25
662.343	100.25
662.546	90.25
662.75	84.25
662.953	77.25
663.156	68.25
663.36	95.25
663.563	89.25
663.766	98.25
663.969	89.25
664.173	86.25
664.376	75.25
664.579	85.25
664.782	89.25
664.985	86.25
665.188	71.25
665.391	95.25
665.594	95.25
665.797	83.25
666	84.25
666.203	82.25
666.406	81.25
666.609	76.25
666.812	83.25
667.015	85.25
667.218	84.25
667.421	81.25
667.624	72.25
667.827	81.25
668.03	83.25
668.232	69.25
668.435	81.25
668.638	74.25
668.841	89.25
669.043	80.25
669.246	79.25
669.449	82.25
669.651	78.25
669.854	82.25
670.057	78.25
670.259	76.25
670.462	67.25
670.665	78.25
670.867	98.25
671.07	85.25
671.272	81.25
671.475	81.25
671.677	94.25
671.88	77.25
672.082	72.25
672.284	81.25
672.487	82.25
672.689	66.25
672.892	69.25
