Data from SnStandardFlinnAPT0064_QswitchEnergy10_LIBS07252019.E.O._I.C._HRD10591_15-28-20-974.txt Node
Date: Thu Jul 25 15:28:20 EDT 2019
User: cochatt
Spectrometer: HR+D1059
Trigger mode: 1
Integration Time (sec): 1.000000E-1
Scans to average: 1
Electric dark correction enabled: true
Nonlinearity correction enabled: false
Boxcar width: 0
XAxis mode: Wavelengths
Number of Pixels in Spectrum: 2048
>>>>>Begin Spectral Data<<<<<
223.165	-19.94
223.4	-19.94
223.635	-19.94
223.869	-13.94
224.104	-14.94
224.338	-20.94
224.573	-21.94
224.808	-9.94
225.042	-8.94
225.277	-12.94
225.511	-7.94
225.746	0.06
225.98	2.06
226.215	14.06
226.449	24.06
226.683	26.06
226.918	27.06
227.152	38.06
227.387	27.06
227.621	25.06
227.856	52.06
228.09	45.06
228.324	49.06
228.559	54.06
228.793	60.06
229.027	79.06
229.262	85.06
229.496	70.06
229.73	71.06
229.964	70.06
230.199	71.06
230.433	78.06
230.667	82.06
230.901	68.06
231.136	89.06
231.37	84.06
231.604	81.06
231.838	78.06
232.072	116.06
232.306	105.06
232.541	85.06
232.775	79.06
233.009	82.06
233.243	89.06
233.477	94.06
233.711	109.06
233.945	117.06
234.179	95.06
234.413	105.06
234.647	91.06
234.881	86.06
235.115	83.06
235.349	90.06
235.583	88.06
235.817	125.06
236.051	130.06
236.285	96.06
236.519	101.06
236.753	82.06
236.987	86.06
237.221	77.06
237.455	79.06
237.689	77.06
237.922	89.06
238.156	75.06
238.39	82.06
238.624	83.06
238.858	85.06
239.091	78.06
239.325	85.06
239.559	86.06
239.793	70.06
240.027	85.06
240.26	89.06
240.494	80.06
240.728	68.06
240.961	95.06
241.195	102.06
241.429	88.06
241.662	87.06
241.896	85.06
242.13	103.06
242.363	126.06
242.597	165.06
242.83	153.06
243.064	120.06
243.298	171.06
243.531	164.06
243.765	103.06
243.998	75.06
244.232	73.06
244.465	80.06
244.699	82.06
244.932	82.06
245.166	77.06
245.399	77.06
245.633	86.06
245.866	81.06
246.099	81.06
246.333	84.06
246.566	79.06
246.8	87.06
247.033	83.06
247.266	79.06
247.5	86.06
247.733	87.06
247.966	87.06
248.2	98.06
248.433	110.06
248.666	130.06
248.899	131.06
249.133	91.06
249.366	91.06
249.599	111.06
249.832	133.06
250.066	129.06
250.299	105.06
250.532	79.06
250.765	79.06
250.998	78.06
251.231	82.06
251.465	82.06
251.698	95.06
251.931	76.06
252.164	79.06
252.397	80.06
252.63	105.06
252.863	99.06
253.096	113.06
253.329	104.06
253.562	91.06
253.795	96.06
254.028	83.06
254.261	93.06
254.494	92.06
254.727	116.06
254.96	133.06
255.193	124.06
255.426	95.06
255.659	96.06
255.892	84.06
256.124	103.06
256.357	89.06
256.59	104.06
256.823	92.06
257.056	106.06
257.289	161.06
257.521	181.06
257.754	132.06
257.987	89.06
258.22	84.06
258.452	91.06
258.685	88.06
258.918	92.06
259.151	84.06
259.383	107.06
259.616	144.06
259.849	150.06
260.081	115.06
260.314	81.06
260.547	73.06
260.779	92.06
261.012	82.06
261.244	86.06
261.477	98.06
261.71	99.06
261.942	90.06
262.175	105.06
262.407	91.06
262.64	82.06
262.872	87.06
263.105	89.06
263.337	83.06
263.57	86.06
263.802	92.06
264.035	97.06
264.267	76.06
264.499	86.06
264.732	78.06
264.964	71.06
265.197	94.06
265.429	95.06
265.661	81.06
265.894	97.06
266.126	125.06
266.358	161.06
266.591	152.06
266.823	93.06
267.055	87.06
267.287	86.06
267.52	85.06
267.752	95.06
267.984	87.06
268.216	82.06
268.448	83.06
268.681	98.06
268.913	82.06
269.145	96.06
269.377	98.06
269.609	95.06
269.841	87.06
270.073	121.06
270.306	136.06
270.538	205.06
270.77	329.06
271.002	379.06
271.234	202.06
271.466	116.06
271.698	90.06
271.93	87.06
272.162	107.06
272.394	94.06
272.626	91.06
272.858	97.06
273.09	77.06
273.322	85.06
273.553	91.06
273.785	83.06
274.017	80.06
274.249	96.06
274.481	84.06
274.713	80.06
274.945	87.06
275.176	95.06
275.408	97.06
275.64	89.06
275.872	104.06
276.104	104.06
276.335	92.06
276.567	102.06
276.799	94.06
277.031	101.06
277.262	93.06
277.494	94.06
277.726	125.06
277.957	202.06
278.189	267.06
278.421	239.06
278.652	208.06
278.884	197.06
279.115	141.06
279.347	93.06
279.579	101.06
279.81	103.06
280.042	94.06
280.273	100.06
280.505	110.06
280.736	113.06
280.968	129.06
281.199	175.06
281.431	269.06
281.662	270.06
281.894	170.06
282.125	125.06
282.356	98.06
282.588	129.06
282.819	109.06
283.051	117.06
283.282	149.06
283.513	192.06
283.745	322.06
283.976	569.06
284.207	855.06
284.439	619.06
284.67	295.06
284.901	265.06
285.132	367.06
285.364	413.06
285.595	233.06
285.826	190.06
286.057	262.06
286.288	450.06
286.52	629.06
286.751	499.06
286.982	212.06
287.213	121.06
287.444	103.06
287.675	109.06
287.906	73.06
288.138	98.06
288.369	91.06
288.6	84.06
288.831	89.06
289.062	90.06
289.293	89.06
289.524	93.06
289.755	109.06
289.986	80.06
290.217	91.06
290.448	112.06
290.679	114.06
290.91	141.06
291.141	185.06
291.371	246.06
291.602	342.06
291.833	237.06
292.064	118.06
292.295	101.06
292.526	98.06
292.757	101.06
292.987	100.06
293.218	97.06
293.449	80.06
293.68	91.06
293.91	95.06
294.141	102.06
294.372	90.06
294.603	101.06
294.833	87.06
295.064	96.06
295.295	108.06
295.525	90.06
295.756	92.06
295.987	96.06
296.217	91.06
296.448	82.06
296.679	97.06
296.909	102.06
297.14	103.06
297.37	102.06
297.601	85.06
297.831	99.06
298.062	96.06
298.292	110.06
298.523	101.06
298.753	107.06
298.984	117.06
299.214	111.06
299.445	122.06
299.675	117.06
299.905	117.06
300.136	143.06
300.366	183.06
300.597	292.06
300.827	486.06
301.057	738.06
301.288	667.06
301.518	273.06
301.748	152.06
301.979	129.06
302.209	133.06
302.439	158.06
302.669	171.06
302.9	283.06
303.13	542.06
303.36	964.06
303.59	1301.06
303.82	917.06
304.051	312.06
304.281	177.06
304.511	159.06
304.741	118.06
304.971	110.06
305.201	101.06
305.431	98.06
305.661	109.06
305.891	97.06
306.121	117.06
306.352	113.06
306.582	112.06
306.812	102.06
307.042	124.06
307.272	105.06
307.502	100.06
307.731	112.06
307.961	120.06
308.191	98.06
308.421	106.06
308.651	105.06
308.881	103.06
309.111	103.06
309.341	124.06
309.571	119.06
309.8	105.06
310.03	111.06
310.26	121.06
310.49	107.06
310.72	115.06
310.949	111.06
311.179	110.06
311.409	101.06
311.639	113.06
311.868	127.06
312.098	114.06
312.328	105.06
312.557	125.06
312.787	128.06
313.017	121.06
313.246	127.06
313.476	126.06
313.706	136.06
313.935	153.06
314.165	222.06
314.394	243.06
314.624	197.06
314.853	130.06
315.083	118.06
315.312	136.06
315.542	131.06
315.771	132.06
316.001	139.06
316.23	143.06
316.46	145.06
316.689	187.06
316.919	263.06
317.148	547.06
317.377	950.06
317.607	1599.06
317.836	1469.06
318.065	583.06
318.295	238.06
318.524	175.06
318.753	136.06
318.983	128.06
319.212	124.06
319.441	120.06
319.67	115.06
319.9	114.06
320.129	131.06
320.358	125.06
320.587	119.06
320.816	129.06
321.046	133.06
321.275	136.06
321.504	137.06
321.733	163.06
321.962	180.06
322.191	168.06
322.42	129.06
322.649	146.06
322.878	128.06
323.108	147.06
323.337	139.06
323.566	120.06
323.795	129.06
324.024	139.06
324.253	153.06
324.482	197.06
324.71	236.06
324.939	294.06
325.168	266.06
325.397	203.06
325.626	271.06
325.855	547.06
326.084	1000.06
326.313	1717.06
326.542	1671.06
326.77	680.06
326.999	280.06
327.228	228.06
327.457	255.06
327.686	257.06
327.914	169.06
328.143	150.06
328.372	144.06
328.6	123.06
328.829	144.06
329.058	113.06
329.287	120.06
329.515	130.06
329.744	117.06
329.972	129.06
330.201	132.06
330.43	124.06
330.658	119.06
330.887	122.06
331.115	116.06
331.344	131.06
331.572	129.06
331.801	119.06
332.03	128.06
332.258	150.06
332.486	191.06
332.715	301.06
332.943	521.06
333.172	825.06
333.4	723.06
333.629	289.06
333.857	161.06
334.085	127.06
334.314	139.06
334.542	119.06
334.771	137.06
334.999	146.06
335.227	141.06
335.455	131.06
335.684	137.06
335.912	131.06
336.14	108.06
336.369	124.06
336.597	118.06
336.825	128.06
337.053	120.06
337.281	115.06
337.51	120.06
337.738	123.06
337.966	106.06
338.194	112.06
338.422	115.06
338.65	111.06
338.878	107.06
339.106	131.06
339.334	135.06
339.562	129.06
339.79	117.06
340.018	131.06
340.246	117.06
340.474	113.06
340.702	121.06
340.93	115.06
341.158	123.06
341.386	124.06
341.614	120.06
341.842	135.06
342.07	135.06
342.298	122.06
342.526	113.06
342.754	125.06
342.981	127.06
343.209	123.06
343.437	126.06
343.665	106.06
343.893	119.06
344.12	121.06
344.348	115.06
344.576	117.06
344.804	106.06
345.031	120.06
345.259	119.06
345.487	122.06
345.714	118.06
345.942	125.06
346.17	100.06
346.397	100.06
346.625	113.06
346.853	110.06
347.08	105.06
347.308	111.06
347.535	114.06
347.763	112.06
347.99	104.06
348.218	103.06
348.445	115.06
348.673	124.06
348.9	132.06
349.128	128.06
349.355	134.06
349.583	121.06
349.81	107.06
350.037	120.06
350.265	111.06
350.492	119.06
350.72	118.06
350.947	115.06
351.174	115.06
351.402	132.06
351.629	121.06
351.856	113.06
352.083	115.06
352.311	125.06
352.538	125.06
352.765	123.06
352.992	105.06
353.22	121.06
353.447	98.06
353.674	110.06
353.901	101.06
354.128	102.06
354.355	91.06
354.583	109.06
354.81	113.06
355.037	112.06
355.264	109.06
355.491	122.06
355.718	103.06
355.945	106.06
356.172	121.06
356.399	115.06
356.626	106.06
356.853	109.06
357.08	104.06
357.307	117.06
357.534	120.06
357.761	112.06
357.988	118.06
358.215	103.06
358.441	103.06
358.668	105.06
358.895	112.06
359.122	121.06
359.349	119.06
359.576	131.06
359.802	112.06
360.029	116.06
360.256	113.06
360.483	107.06
360.709	113.06
360.936	118.06
361.163	115.06
361.39	118.06
361.616	125.06
361.843	114.06
362.07	117.06
362.296	91.06
362.523	110.06
362.749	118.06
362.976	114.06
363.203	113.06
363.429	110.06
363.656	121.06
363.882	119.06
364.109	131.06
364.335	102.06
364.562	117.06
364.788	103.06
365.015	125.06
365.241	135.06
365.468	225.06
365.694	307.06
365.92	231.06
366.147	121.06
366.373	112.06
366.599	105.06
366.826	111.06
367.052	102.06
367.278	105.06
367.505	97.06
367.731	99.06
367.957	106.06
368.184	113.06
368.41	111.06
368.636	131.06
368.862	96.06
369.089	109.06
369.315	98.06
369.541	118.06
369.767	98.06
369.993	123.06
370.219	105.06
370.445	109.06
370.672	111.06
370.898	110.06
371.124	103.06
371.35	114.06
371.576	105.06
371.802	116.06
372.028	112.06
372.254	121.06
372.48	125.06
372.706	126.06
372.932	127.06
373.158	121.06
373.384	111.06
373.61	124.06
373.835	123.06
374.061	141.06
374.287	107.06
374.513	109.06
374.739	128.06
374.965	123.06
375.191	122.06
375.416	104.06
375.642	121.06
375.868	100.06
376.094	114.06
376.319	113.06
376.545	114.06
376.771	114.06
376.997	113.06
377.222	97.06
377.448	103.06
377.674	119.06
377.899	103.06
378.125	106.06
378.35	115.06
378.576	111.06
378.802	132.06
379.027	141.06
379.253	147.06
379.478	186.06
379.704	328.06
379.929	825.06
380.155	1733.06
380.38	1785.06
380.606	568.06
380.831	209.06
381.057	145.06
381.282	105.06
381.507	109.06
381.733	118.06
381.958	111.06
382.184	114.06
382.409	89.06
382.634	111.06
382.86	107.06
383.085	120.06
383.31	115.06
383.535	120.06
383.761	101.06
383.986	98.06
384.211	111.06
384.436	107.06
384.662	109.06
384.887	109.06
385.112	115.06
385.337	97.06
385.562	106.06
385.787	104.06
386.013	123.06
386.238	113.06
386.463	99.06
386.688	110.06
386.913	100.06
387.138	110.06
387.363	115.06
387.588	120.06
387.813	100.06
388.038	118.06
388.263	135.06
388.488	105.06
388.713	105.06
388.938	100.06
389.163	106.06
389.387	99.06
389.612	120.06
389.837	111.06
390.062	107.06
390.287	110.06
390.512	108.06
390.736	111.06
390.961	105.06
391.186	104.06
391.411	110.06
391.636	103.06
391.86	98.06
392.085	90.06
392.31	107.06
392.534	90.06
392.759	102.06
392.984	112.06
393.208	131.06
393.433	138.06
393.658	155.06
393.882	118.06
394.107	106.06
394.331	102.06
394.556	86.06
394.78	95.06
395.005	97.06
395.229	111.06
395.454	104.06
395.678	120.06
395.903	102.06
396.127	97.06
396.352	123.06
396.576	115.06
396.801	124.06
397.025	141.06
397.249	127.06
397.474	106.06
397.698	112.06
397.922	86.06
398.147	103.06
398.371	97.06
398.595	117.06
398.82	122.06
399.044	123.06
399.268	98.06
399.492	102.06
399.717	114.06
399.941	97.06
400.165	104.06
400.389	114.06
400.613	101.06
400.837	102.06
401.062	90.06
401.286	109.06
401.51	106.06
401.734	101.06
401.958	100.06
402.182	109.06
402.406	98.06
402.63	103.06
402.854	100.06
403.078	97.06
403.302	96.06
403.526	111.06
403.75	92.06
403.974	89.06
404.198	97.06
404.422	83.06
404.645	93.06
404.869	104.06
405.093	113.06
405.317	99.06
405.541	106.06
405.765	144.06
405.988	160.06
406.212	116.06
406.436	96.06
406.66	98.06
406.883	109.06
407.107	95.06
407.331	101.06
407.555	99.06
407.778	110.06
408.002	98.06
408.226	100.06
408.449	92.06
408.673	111.06
408.896	117.06
409.12	112.06
409.344	111.06
409.567	92.06
409.791	95.06
410.014	110.06
410.238	93.06
410.461	102.06
410.685	109.06
410.908	91.06
411.132	105.06
411.355	110.06
411.578	100.06
411.802	110.06
412.025	90.06
412.249	92.06
412.472	101.06
412.695	91.06
412.919	118.06
413.142	107.06
413.365	110.06
413.589	88.06
413.812	100.06
414.035	121.06
414.258	93.06
414.482	98.06
414.705	116.06
414.928	116.06
415.151	111.06
415.374	110.06
415.597	114.06
415.821	90.06
416.044	93.06
416.267	106.06
416.49	80.06
416.713	101.06
416.936	100.06
417.159	105.06
417.382	103.06
417.605	86.06
417.828	106.06
418.051	96.06
418.274	104.06
418.497	95.06
418.72	97.06
418.943	96.06
419.166	113.06
419.389	110.06
419.611	118.06
419.834	104.06
420.057	99.06
420.28	105.06
420.503	105.06
420.726	94.06
420.948	94.06
421.171	102.06
421.394	98.06
421.617	94.06
421.839	95.06
422.062	104.06
422.285	85.06
422.507	97.06
422.73	136.06
422.953	142.06
423.175	104.06
423.398	103.06
423.621	92.06
423.843	94.06
424.066	89.06
424.288	93.06
424.511	81.06
424.733	104.06
424.956	108.06
425.178	104.06
425.401	89.06
425.623	94.06
425.846	82.06
426.068	105.06
426.291	101.06
426.513	91.06
426.735	100.06
426.958	93.06
427.18	95.06
427.402	83.06
427.625	98.06
427.847	99.06
428.069	113.06
428.292	104.06
428.514	92.06
428.736	101.06
428.958	101.06
429.181	98.06
429.403	87.06
429.625	93.06
429.847	101.06
430.069	116.06
430.292	121.06
430.514	124.06
430.736	118.06
430.958	105.06
431.18	101.06
431.402	82.06
431.624	91.06
431.846	111.06
432.068	101.06
432.29	103.06
432.512	92.06
432.734	96.06
432.956	99.06
433.178	98.06
433.4	78.06
433.622	91.06
433.844	79.06
434.066	100.06
434.287	89.06
434.509	106.06
434.731	98.06
434.953	89.06
435.175	98.06
435.397	88.06
435.618	109.06
435.84	85.06
436.062	98.06
436.284	88.06
436.505	103.06
436.727	102.06
436.949	112.06
437.17	91.06
437.392	102.06
437.614	94.06
437.835	104.06
438.057	101.06
438.278	114.06
438.5	105.06
438.721	95.06
438.943	103.06
439.165	128.06
439.386	104.06
439.608	100.06
439.829	104.06
440.05	111.06
440.272	125.06
440.493	98.06
440.715	89.06
440.936	105.06
441.158	96.06
441.379	98.06
441.6	105.06
441.822	112.06
442.043	119.06
442.264	136.06
442.486	127.06
442.707	104.06
442.928	110.06
443.149	111.06
443.371	90.06
443.592	111.06
443.813	98.06
444.034	93.06
444.255	98.06
444.476	88.06
444.698	99.06
444.919	98.06
445.14	193.06
445.361	132.06
445.582	118.06
445.803	110.06
446.024	95.06
446.245	104.06
446.466	117.06
446.687	115.06
446.908	115.06
447.129	95.06
447.35	106.06
447.571	102.06
447.792	82.06
448.013	103.06
448.234	101.06
448.455	97.06
448.675	82.06
448.896	106.06
449.117	101.06
449.338	117.06
449.559	145.06
449.779	126.06
450	102.06
450.221	100.06
450.442	117.06
450.662	146.06
450.883	98.06
451.104	102.06
451.324	114.06
451.545	102.06
451.766	116.06
451.986	132.06
452.207	243.06
452.428	630.06
452.648	1525.06
452.869	869.06
453.089	209.06
453.31	117.06
453.53	121.06
453.751	154.06
453.971	162.06
454.192	167.06
454.412	121.06
454.633	96.06
454.853	101.06
455.073	85.06
455.294	84.06
455.514	102.06
455.734	105.06
455.955	98.06
456.175	85.06
456.395	94.06
456.616	101.06
456.836	98.06
457.056	89.06
457.276	108.06
457.497	127.06
457.717	137.06
457.937	111.06
458.157	97.06
458.377	94.06
458.598	88.06
458.818	102.06
459.038	96.06
459.258	84.06
459.478	78.06
459.698	95.06
459.918	75.06
460.138	88.06
460.358	93.06
460.578	88.06
460.798	95.06
461.018	87.06
461.238	89.06
461.458	90.06
461.678	103.06
461.898	87.06
462.118	97.06
462.338	100.06
462.558	90.06
462.777	98.06
462.997	101.06
463.217	106.06
463.437	138.06
463.657	189.06
463.876	196.06
464.096	128.06
464.316	98.06
464.536	99.06
464.755	88.06
464.975	103.06
465.195	96.06
465.414	95.06
465.634	80.06
465.854	103.06
466.073	89.06
466.293	85.06
466.512	110.06
466.732	104.06
466.951	127.06
467.171	145.06
467.391	141.06
467.61	109.06
467.829	102.06
468.049	123.06
468.268	110.06
468.488	91.06
468.707	104.06
468.927	98.06
469.146	96.06
469.365	90.06
469.585	111.06
469.804	89.06
470.023	87.06
470.243	105.06
470.462	112.06
470.681	106.06
470.901	138.06
471.12	203.06
471.339	217.06
471.558	139.06
471.777	122.06
471.997	116.06
472.216	104.06
472.435	93.06
472.654	89.06
472.873	83.06
473.092	88.06
473.311	95.06
473.53	110.06
473.749	94.06
473.968	102.06
474.187	105.06
474.406	103.06
474.625	106.06
474.844	96.06
475.063	86.06
475.282	99.06
475.501	93.06
475.72	95.06
475.939	98.06
476.158	106.06
476.377	115.06
476.596	91.06
476.814	102.06
477.033	97.06
477.252	110.06
477.471	105.06
477.69	97.06
477.908	87.06
478.127	109.06
478.346	96.06
478.564	107.06
478.783	97.06
479.002	99.06
479.22	84.06
479.439	103.06
479.658	91.06
479.876	101.06
480.095	96.06
480.313	114.06
480.532	89.06
480.751	98.06
480.969	99.06
481.188	98.06
481.406	97.06
481.624	104.06
481.843	105.06
482.061	116.06
482.28	107.06
482.498	99.06
482.717	96.06
482.935	110.06
483.153	109.06
483.372	106.06
483.59	113.06
483.808	120.06
484.027	120.06
484.245	123.06
484.463	163.06
484.681	233.06
484.9	147.06
485.118	118.06
485.336	113.06
485.554	124.06
485.772	130.06
485.99	209.06
486.209	256.06
486.427	167.06
486.645	119.06
486.863	118.06
487.081	96.06
487.299	110.06
487.517	109.06
487.735	100.06
487.953	105.06
488.171	115.06
488.389	84.06
488.607	92.06
488.825	107.06
489.043	104.06
489.261	93.06
489.479	95.06
489.696	93.06
489.914	104.06
490.132	95.06
490.35	83.06
490.568	95.06
490.786	94.06
491.003	100.06
491.221	113.06
491.439	113.06
491.657	101.06
491.874	106.06
492.092	106.06
492.31	114.06
492.527	95.06
492.745	110.06
492.963	120.06
493.18	130.06
493.398	116.06
493.615	106.06
493.833	97.06
494.05	88.06
494.268	89.06
494.485	104.06
494.703	99.06
494.92	91.06
495.138	85.06
495.355	111.06
495.573	112.06
495.79	109.06
496.008	111.06
496.225	100.06
496.442	105.06
496.66	114.06
496.877	157.06
497.094	156.06
497.312	122.06
497.529	105.06
497.746	97.06
497.963	120.06
498.181	119.06
498.398	119.06
498.615	96.06
498.832	109.06
499.049	110.06
499.267	143.06
499.484	181.06
499.701	109.06
499.918	110.06
500.135	121.06
500.352	107.06
500.569	100.06
500.786	102.06
501.003	102.06
501.22	99.06
501.437	107.06
501.654	93.06
501.871	98.06
502.088	105.06
502.305	94.06
502.522	102.06
502.739	115.06
502.956	106.06
503.172	115.06
503.389	91.06
503.606	103.06
503.823	100.06
504.04	102.06
504.256	93.06
504.473	90.06
504.69	106.06
504.907	121.06
505.123	127.06
505.34	113.06
505.557	115.06
505.773	117.06
505.99	111.06
506.207	106.06
506.423	115.06
506.64	100.06
506.856	97.06
507.073	103.06
507.289	99.06
507.506	100.06
507.722	111.06
507.939	96.06
508.155	93.06
508.372	102.06
508.588	104.06
508.805	111.06
509.021	106.06
509.238	102.06
509.454	119.06
509.67	161.06
509.887	101.06
510.103	91.06
510.319	82.06
510.536	112.06
510.752	121.06
510.968	91.06
511.184	112.06
511.401	97.06
511.617	104.06
511.833	110.06
512.049	99.06
512.265	95.06
512.481	93.06
512.698	105.06
512.914	91.06
513.13	99.06
513.346	76.06
513.562	101.06
513.778	85.06
513.994	92.06
514.21	113.06
514.426	159.06
514.642	185.06
514.858	123.06
515.074	109.06
515.29	101.06
515.506	123.06
515.721	107.06
515.937	101.06
516.153	101.06
516.369	94.06
516.585	95.06
516.801	98.06
517.016	105.06
517.232	98.06
517.448	100.06
517.664	89.06
517.879	95.06
518.095	105.06
518.311	101.06
518.527	112.06
518.742	100.06
518.958	126.06
519.173	158.06
519.389	133.06
519.605	102.06
519.82	100.06
520.036	96.06
520.251	99.06
520.467	105.06
520.682	89.06
520.898	89.06
521.113	90.06
521.329	110.06
521.544	88.06
521.76	109.06
521.975	104.06
522.19	112.06
522.406	102.06
522.621	93.06
522.836	91.06
523.052	97.06
523.267	105.06
523.482	99.06
523.698	104.06
523.913	87.06
524.128	102.06
524.343	105.06
524.559	90.06
524.774	76.06
524.989	90.06
525.204	91.06
525.419	98.06
525.634	97.06
525.849	89.06
526.064	106.06
526.28	107.06
526.495	94.06
526.71	102.06
526.925	74.06
527.14	99.06
527.355	98.06
527.57	102.06
527.785	79.06
527.999	97.06
528.214	89.06
528.429	98.06
528.644	99.06
528.859	93.06
529.074	89.06
529.289	88.06
529.503	91.06
529.718	97.06
529.933	109.06
530.148	103.06
530.363	108.06
530.577	91.06
530.792	93.06
531.007	99.06
531.221	100.06
531.436	99.06
531.651	86.06
531.865	109.06
532.08	92.06
532.295	105.06
532.509	133.06
532.724	106.06
532.938	105.06
533.153	94.06
533.367	113.06
533.582	90.06
533.796	92.06
534.011	85.06
534.225	88.06
534.44	104.06
534.654	112.06
534.868	99.06
535.083	98.06
535.297	99.06
535.511	84.06
535.726	110.06
535.94	110.06
536.154	103.06
536.369	103.06
536.583	102.06
536.797	113.06
537.011	99.06
537.225	99.06
537.44	96.06
537.654	103.06
537.868	92.06
538.082	93.06
538.296	104.06
538.51	96.06
538.724	110.06
538.938	98.06
539.153	115.06
539.367	117.06
539.581	113.06
539.795	90.06
540.009	94.06
540.222	99.06
540.436	109.06
540.65	100.06
540.864	101.06
541.078	93.06
541.292	133.06
541.506	216.06
541.72	221.06
541.934	131.06
542.147	104.06
542.361	99.06
542.575	116.06
542.789	109.06
543.002	104.06
543.216	111.06
543.43	107.06
543.644	101.06
543.857	86.06
544.071	91.06
544.285	113.06
544.498	107.06
544.712	101.06
544.925	96.06
545.139	110.06
545.352	93.06
545.566	105.06
545.779	94.06
545.993	89.06
546.206	109.06
546.42	96.06
546.633	101.06
546.847	122.06
547.06	99.06
547.274	104.06
547.487	104.06
547.7	90.06
547.914	102.06
548.127	96.06
548.34	93.06
548.554	103.06
548.767	111.06
548.98	91.06
549.193	103.06
549.407	106.06
549.62	100.06
549.833	98.06
550.046	97.06
550.259	103.06
550.473	104.06
550.686	95.06
550.899	121.06
551.112	99.06
551.325	96.06
551.538	95.06
551.751	99.06
551.964	104.06
552.177	105.06
552.39	100.06
552.603	111.06
552.816	95.06
553.029	116.06
553.242	101.06
553.455	99.06
553.667	94.06
553.88	100.06
554.093	100.06
554.306	106.06
554.519	118.06
554.732	100.06
554.944	95.06
555.157	105.06
555.37	96.06
555.583	114.06
555.795	111.06
556.008	121.06
556.221	147.06
556.433	140.06
556.646	99.06
556.859	113.06
557.071	111.06
557.284	122.06
557.496	127.06
557.709	115.06
557.921	111.06
558.134	104.06
558.346	105.06
558.559	94.06
558.771	101.06
558.984	96.06
559.196	99.06
559.409	106.06
559.621	105.06
559.833	115.06
560.046	99.06
560.258	90.06
560.47	82.06
560.683	93.06
560.895	111.06
561.107	115.06
561.32	107.06
561.532	91.06
561.744	110.06
561.956	96.06
562.168	110.06
562.381	110.06
562.593	110.06
562.805	137.06
563.017	193.06
563.229	283.06
563.441	684.06
563.653	224.06
563.865	117.06
564.077	101.06
564.289	85.06
564.501	83.06
564.713	94.06
564.925	81.06
565.137	105.06
565.349	109.06
565.561	103.06
565.773	113.06
565.985	95.06
566.197	97.06
566.408	90.06
566.62	100.06
566.832	105.06
567.044	107.06
567.255	122.06
567.467	111.06
567.679	105.06
567.891	121.06
568.102	178.06
568.314	233.06
568.526	155.06
568.737	118.06
568.949	112.06
569.161	98.06
569.372	99.06
569.584	104.06
569.795	111.06
570.007	101.06
570.218	113.06
570.43	159.06
570.641	111.06
570.853	95.06
571.064	95.06
571.276	88.06
571.487	90.06
571.698	105.06
571.91	96.06
572.121	100.06
572.333	93.06
572.544	114.06
572.755	150.06
572.966	202.06
573.178	138.06
573.389	114.06
573.6	100.06
573.811	95.06
574.023	96.06
574.234	92.06
574.445	91.06
574.656	93.06
574.867	95.06
575.078	89.06
575.289	82.06
575.501	77.06
575.712	99.06
575.923	103.06
576.134	101.06
576.345	88.06
576.556	112.06
576.767	97.06
576.978	87.06
577.188	110.06
577.399	100.06
577.61	89.06
577.821	109.06
578.032	105.06
578.243	87.06
578.454	97.06
578.665	95.06
578.875	85.06
579.086	86.06
579.297	85.06
579.508	97.06
579.718	93.06
579.929	82.06
580.14	103.06
580.35	87.06
580.561	82.06
580.772	90.06
580.982	80.06
581.193	89.06
581.403	96.06
581.614	94.06
581.825	116.06
582.035	89.06
582.246	93.06
582.456	109.06
582.667	97.06
582.877	121.06
583.087	120.06
583.298	99.06
583.508	92.06
583.719	79.06
583.929	90.06
584.139	87.06
584.35	93.06
584.56	104.06
584.77	91.06
584.981	100.06
585.191	97.06
585.401	103.06
585.611	101.06
585.821	95.06
586.032	102.06
586.242	97.06
586.452	96.06
586.662	91.06
586.872	88.06
587.082	89.06
587.292	86.06
587.502	93.06
587.713	105.06
587.923	92.06
588.133	88.06
588.343	89.06
588.553	85.06
588.762	86.06
588.972	99.06
589.182	121.06
589.392	91.06
589.602	101.06
589.812	113.06
590.022	98.06
590.232	104.06
590.441	104.06
590.651	95.06
590.861	71.06
591.071	93.06
591.281	98.06
591.49	88.06
591.7	106.06
591.91	98.06
592.119	89.06
592.329	81.06
592.539	93.06
592.748	89.06
592.958	89.06
593.167	85.06
593.377	88.06
593.587	115.06
593.796	97.06
594.006	99.06
594.215	112.06
594.424	89.06
594.634	86.06
594.843	87.06
595.053	79.06
595.262	87.06
595.472	92.06
595.681	94.06
595.89	77.06
596.1	87.06
596.309	82.06
596.518	101.06
596.727	88.06
596.937	96.06
597.146	96.06
597.355	107.06
597.564	93.06
597.774	90.06
597.983	78.06
598.192	89.06
598.401	95.06
598.61	103.06
598.819	89.06
599.028	92.06
599.237	85.06
599.446	85.06
599.655	93.06
599.864	104.06
600.073	95.06
600.282	86.06
600.491	101.06
600.7	83.06
600.909	86.06
601.118	96.06
601.327	105.06
601.536	98.06
601.745	106.06
601.953	134.06
602.162	168.06
602.371	111.06
602.58	97.06
602.789	89.06
602.997	100.06
603.206	94.06
603.415	90.06
603.623	109.06
603.832	111.06
604.041	103.06
604.249	94.06
604.458	90.06
604.666	84.06
604.875	93.06
605.084	99.06
605.292	96.06
605.501	89.06
605.709	97.06
605.918	106.06
606.126	97.06
606.334	89.06
606.543	118.06
606.751	138.06
606.96	162.06
607.168	182.06
607.376	120.06
607.585	91.06
607.793	106.06
608.001	91.06
608.21	84.06
608.418	84.06
608.626	101.06
608.834	90.06
609.043	84.06
609.251	109.06
609.459	85.06
609.667	87.06
609.875	101.06
610.083	98.06
610.291	78.06
610.499	87.06
610.707	86.06
610.916	84.06
611.124	97.06
611.332	89.06
611.54	101.06
611.748	94.06
611.955	73.06
612.163	88.06
612.371	91.06
612.579	95.06
612.787	78.06
612.995	88.06
613.203	75.06
613.411	93.06
613.618	95.06
613.826	99.06
614.034	100.06
614.242	93.06
614.449	98.06
614.657	73.06
614.865	112.06
615.072	125.06
615.28	129.06
615.488	104.06
615.695	119.06
615.903	104.06
616.111	89.06
616.318	103.06
616.526	110.06
616.733	86.06
616.941	93.06
617.148	88.06
617.356	101.06
617.563	91.06
617.771	104.06
617.978	101.06
618.185	85.06
618.393	66.06
618.6	95.06
618.807	89.06
619.015	83.06
619.222	94.06
619.429	91.06
619.637	91.06
619.844	77.06
620.051	85.06
620.258	105.06
620.466	83.06
620.673	101.06
620.88	91.06
621.087	91.06
621.294	99.06
621.501	100.06
621.708	94.06
621.915	90.06
622.122	75.06
622.329	92.06
622.536	94.06
622.743	93.06
622.95	95.06
623.157	97.06
623.364	89.06
623.571	96.06
623.778	82.06
623.985	94.06
624.192	99.06
624.399	84.06
624.606	89.06
624.812	97.06
625.019	96.06
625.226	104.06
625.433	115.06
625.639	98.06
625.846	82.06
626.053	86.06
626.259	96.06
626.466	99.06
626.673	89.06
626.879	76.06
627.086	91.06
627.293	87.06
627.499	86.06
627.706	80.06
627.912	94.06
628.119	98.06
628.325	105.06
628.532	93.06
628.738	86.06
628.945	96.06
629.151	93.06
629.357	86.06
629.564	78.06
629.77	78.06
629.976	82.06
630.183	88.06
630.389	91.06
630.595	106.06
630.802	98.06
631.008	87.06
631.214	81.06
631.42	99.06
631.627	86.06
631.833	102.06
632.039	98.06
632.245	72.06
632.451	89.06
632.657	88.06
632.863	94.06
633.069	91.06
633.275	87.06
633.481	80.06
633.688	92.06
633.893	80.06
634.099	87.06
634.305	91.06
634.511	98.06
634.717	92.06
634.923	82.06
635.129	113.06
635.335	133.06
635.541	110.06
635.747	85.06
635.952	90.06
636.158	95.06
636.364	94.06
636.57	103.06
636.775	101.06
636.981	92.06
637.187	113.06
637.392	95.06
637.598	88.06
637.804	90.06
638.009	87.06
638.215	80.06
638.421	83.06
638.626	82.06
638.832	91.06
639.037	91.06
639.243	91.06
639.448	77.06
639.654	88.06
639.859	91.06
640.065	85.06
640.27	97.06
640.475	112.06
640.681	87.06
640.886	98.06
641.091	86.06
641.297	101.06
641.502	95.06
641.707	93.06
641.913	82.06
642.118	79.06
642.323	95.06
642.528	90.06
642.733	89.06
642.939	83.06
643.144	94.06
643.349	75.06
643.554	93.06
643.759	74.06
643.964	84.06
644.169	87.06
644.374	99.06
644.579	98.06
644.784	81.06
644.989	78.06
645.194	94.06
645.399	100.06
645.604	90.06
645.809	77.06
646.014	83.06
646.219	88.06
646.423	85.06
646.628	83.06
646.833	74.06
647.038	85.06
647.243	99.06
647.447	90.06
647.652	85.06
647.857	85.06
648.062	80.06
648.266	85.06
648.471	86.06
648.676	97.06
648.88	80.06
649.085	76.06
649.289	90.06
649.494	82.06
649.698	86.06
649.903	83.06
650.107	104.06
650.312	93.06
650.516	83.06
650.721	79.06
650.925	84.06
651.13	84.06
651.334	87.06
651.539	109.06
651.743	79.06
651.947	89.06
652.152	79.06
652.356	90.06
652.56	102.06
652.764	111.06
652.969	101.06
653.173	86.06
653.377	92.06
653.581	86.06
653.785	83.06
653.99	85.06
654.194	91.06
654.398	88.06
654.602	86.06
654.806	85.06
655.01	77.06
655.214	84.06
655.418	93.06
655.622	86.06
655.826	89.06
656.03	96.06
656.234	74.06
656.438	96.06
656.642	91.06
656.846	84.06
657.049	92.06
657.253	89.06
657.457	90.06
657.661	85.06
657.865	88.06
658.068	92.06
658.272	70.06
658.476	78.06
658.68	83.06
658.883	79.06
659.087	86.06
659.291	80.06
659.494	81.06
659.698	82.06
659.901	91.06
660.105	79.06
660.309	88.06
660.512	78.06
660.716	83.06
660.919	82.06
661.123	91.06
661.326	91.06
661.53	74.06
661.733	94.06
661.936	81.06
662.14	69.06
662.343	69.06
662.546	81.06
662.75	90.06
662.953	84.06
663.156	83.06
663.36	78.06
663.563	84.06
663.766	82.06
663.969	89.06
664.173	75.06
664.376	79.06
664.579	90.06
664.782	83.06
664.985	74.06
665.188	72.06
665.391	89.06
665.594	77.06
665.797	88.06
666	88.06
666.203	87.06
666.406	91.06
666.609	83.06
666.812	78.06
667.015	80.06
667.218	74.06
667.421	85.06
667.624	72.06
667.827	85.06
668.03	84.06
668.232	83.06
668.435	87.06
668.638	73.06
668.841	94.06
669.043	89.06
669.246	71.06
669.449	78.06
669.651	69.06
669.854	92.06
670.057	87.06
670.259	83.06
670.462	84.06
670.665	98.06
670.867	76.06
671.07	83.06
671.272	78.06
671.475	78.06
671.677	71.06
671.88	79.06
672.082	56.06
672.284	85.06
672.487	79.06
672.689	83.06
672.892	84.06
