Data from SnStandardFlinnAPT0064_LampEnergy5.5_LIBS07252019.E.O._I.C._HRD10591_15-15-57-491.txt Node
Date: Thu Jul 25 15:15:57 EDT 2019
User: cochatt
Spectrometer: HR+D1059
Trigger mode: 1
Integration Time (sec): 1.000000E-1
Scans to average: 1
Electric dark correction enabled: true
Nonlinearity correction enabled: false
Boxcar width: 0
XAxis mode: Wavelengths
Number of Pixels in Spectrum: 2048
>>>>>Begin Spectral Data<<<<<
223.165	-24.38
223.4	-24.38
223.635	-24.38
223.869	-20.38
224.104	1.62
224.338	-24.38
224.573	-11.38
224.808	-23.38
225.042	-3.38
225.277	1.62
225.511	-6.38
225.746	8.62
225.98	17.62
226.215	24.62
226.449	0.62
226.683	24.62
226.918	16.62
227.152	17.62
227.387	31.62
227.621	50.62
227.856	37.62
228.09	39.62
228.324	36.62
228.559	58.62
228.793	80.62
229.027	144.62
229.262	157.62
229.496	152.62
229.73	155.62
229.964	149.62
230.199	152.62
230.433	145.62
230.667	161.62
230.901	184.62
231.136	179.62
231.37	178.62
231.604	184.62
231.838	199.62
232.072	229.62
232.306	221.62
232.541	222.62
232.775	204.62
233.009	180.62
233.243	198.62
233.477	219.62
233.711	228.62
233.945	268.62
234.179	243.62
234.413	205.62
234.647	212.62
234.881	218.62
235.115	233.62
235.349	278.62
235.583	315.62
235.817	416.62
236.051	410.62
236.285	285.62
236.519	235.62
236.753	230.62
236.987	231.62
237.221	224.62
237.455	242.62
237.689	224.62
237.922	220.62
238.156	209.62
238.39	225.62
238.624	211.62
238.858	212.62
239.091	230.62
239.325	229.62
239.559	235.62
239.793	242.62
240.027	234.62
240.26	251.62
240.494	267.62
240.728	262.62
240.961	271.62
241.195	276.62
241.429	289.62
241.662	311.62
241.896	329.62
242.13	385.62
242.363	463.62
242.597	589.62
242.83	578.62
243.064	625.62
243.298	712.62
243.531	597.62
243.765	397.62
243.998	335.62
244.232	317.62
244.465	291.62
244.699	281.62
244.932	299.62
245.166	301.62
245.399	312.62
245.633	301.62
245.866	295.62
246.099	287.62
246.333	294.62
246.566	281.62
246.8	281.62
247.033	288.62
247.266	284.62
247.5	277.62
247.733	289.62
247.966	324.62
248.2	336.62
248.433	377.62
248.666	391.62
248.899	380.62
249.133	359.62
249.366	363.62
249.599	392.62
249.832	425.62
250.066	443.62
250.299	358.62
250.532	341.62
250.765	312.62
250.998	324.62
251.231	325.62
251.465	313.62
251.698	306.62
251.931	328.62
252.164	349.62
252.397	325.62
252.63	328.62
252.863	341.62
253.096	341.62
253.329	341.62
253.562	315.62
253.795	341.62
254.028	350.62
254.261	361.62
254.494	382.62
254.727	441.62
254.96	472.62
255.193	477.62
255.426	409.62
255.659	366.62
255.892	391.62
256.124	377.62
256.357	372.62
256.59	377.62
256.823	393.62
257.056	466.62
257.289	525.62
257.521	565.62
257.754	447.62
257.987	410.62
258.22	404.62
258.452	392.62
258.685	362.62
258.918	394.62
259.151	415.62
259.383	437.62
259.616	472.62
259.849	502.62
260.081	451.62
260.314	417.62
260.547	435.62
260.779	427.62
261.012	415.62
261.244	417.62
261.477	429.62
261.71	424.62
261.942	457.62
262.175	450.62
262.407	420.62
262.64	458.62
262.872	481.62
263.105	480.62
263.337	521.62
263.57	557.62
263.802	575.62
264.035	567.62
264.267	593.62
264.499	606.62
264.732	616.62
264.964	623.62
265.197	621.62
265.429	619.62
265.661	613.62
265.894	676.62
266.126	735.62
266.358	775.62
266.591	760.62
266.823	705.62
267.055	603.62
267.287	599.62
267.52	574.62
267.752	564.62
267.984	559.62
268.216	544.62
268.448	545.62
268.681	536.62
268.913	548.62
269.145	551.62
269.377	539.62
269.609	543.62
269.841	561.62
270.073	580.62
270.306	651.62
270.538	840.62
270.77	1183.62
271.002	1469.62
271.234	1034.62
271.466	749.62
271.698	632.62
271.93	586.62
272.162	541.62
272.394	547.62
272.626	543.62
272.858	536.62
273.09	518.62
273.322	543.62
273.553	505.62
273.785	507.62
274.017	514.62
274.249	500.62
274.481	535.62
274.713	493.62
274.945	520.62
275.176	540.62
275.408	521.62
275.64	547.62
275.872	527.62
276.104	536.62
276.335	540.62
276.567	540.62
276.799	548.62
277.031	563.62
277.262	562.62
277.494	581.62
277.726	610.62
277.957	706.62
278.189	779.62
278.421	722.62
278.652	661.62
278.884	639.62
279.115	603.62
279.347	597.62
279.579	591.62
279.81	574.62
280.042	587.62
280.273	579.62
280.505	588.62
280.736	613.62
280.968	623.62
281.199	699.62
281.431	763.62
281.662	780.62
281.894	696.62
282.125	661.62
282.356	661.62
282.588	652.62
282.819	677.62
283.051	720.62
283.282	784.62
283.513	983.62
283.745	1361.62
283.976	2128.62
284.207	2989.62
284.439	2649.62
284.67	1618.62
284.901	1360.62
285.132	1310.62
285.364	1227.62
285.595	982.62
285.826	929.62
286.057	1067.62
286.288	1433.62
286.52	1899.62
286.751	1741.62
286.982	1142.62
287.213	868.62
287.444	797.62
287.675	752.62
287.906	725.62
288.138	691.62
288.369	696.62
288.6	697.62
288.831	687.62
289.062	682.62
289.293	685.62
289.524	691.62
289.755	709.62
289.986	732.62
290.217	713.62
290.448	704.62
290.679	709.62
290.91	718.62
291.141	735.62
291.371	788.62
291.602	804.62
291.833	736.62
292.064	695.62
292.295	681.62
292.526	671.62
292.757	669.62
292.987	653.62
293.218	659.62
293.449	674.62
293.68	646.62
293.91	644.62
294.141	659.62
294.372	671.62
294.603	644.62
294.833	659.62
295.064	657.62
295.295	633.62
295.525	653.62
295.756	654.62
295.987	641.62
296.217	643.62
296.448	653.62
296.679	663.62
296.909	657.62
297.14	653.62
297.37	684.62
297.601	671.62
297.831	659.62
298.062	666.62
298.292	677.62
298.523	705.62
298.753	710.62
298.984	713.62
299.214	707.62
299.445	689.62
299.675	724.62
299.905	739.62
300.136	765.62
300.366	856.62
300.597	1068.62
300.827	1427.62
301.057	1891.62
301.288	1849.62
301.518	1224.62
301.748	975.62
301.979	897.62
302.209	877.62
302.439	908.62
302.669	925.62
302.9	1119.62
303.13	1512.62
303.36	2169.62
303.59	2884.62
303.82	2576.62
304.051	1535.62
304.281	1127.62
304.511	942.62
304.741	901.62
304.971	869.62
305.201	813.62
305.431	830.62
305.661	790.62
305.891	752.62
306.121	772.62
306.352	775.62
306.582	763.62
306.812	763.62
307.042	755.62
307.272	748.62
307.502	738.62
307.731	754.62
307.961	791.62
308.191	743.62
308.421	750.62
308.651	766.62
308.881	759.62
309.111	736.62
309.341	755.62
309.571	747.62
309.8	781.62
310.03	768.62
310.26	772.62
310.49	769.62
310.72	777.62
310.949	776.62
311.179	787.62
311.409	783.62
311.639	792.62
311.868	805.62
312.098	816.62
312.328	824.62
312.557	829.62
312.787	800.62
313.017	808.62
313.246	786.62
313.476	804.62
313.706	839.62
313.935	863.62
314.165	915.62
314.394	933.62
314.624	925.62
314.853	895.62
315.083	889.62
315.312	886.62
315.542	884.62
315.771	906.62
316.001	912.62
316.23	932.62
316.46	969.62
316.689	1041.62
316.919	1223.62
317.148	1733.62
317.377	2612.62
317.607	3841.62
317.836	3903.62
318.065	2342.62
318.295	1535.62
318.524	1271.62
318.753	1139.62
318.983	1056.62
319.212	997.62
319.441	1003.62
319.67	1010.62
319.9	968.62
320.129	951.62
320.358	959.62
320.587	953.62
320.816	960.62
321.046	944.62
321.275	946.62
321.504	959.62
321.733	977.62
321.962	1015.62
322.191	991.62
322.42	992.62
322.649	1017.62
322.878	1019.62
323.108	1019.62
323.337	1033.62
323.566	1028.62
323.795	1077.62
324.024	1058.62
324.253	1064.62
324.482	1123.62
324.71	1152.62
324.939	1224.62
325.168	1253.62
325.397	1271.62
325.626	1500.62
325.855	2067.62
326.084	3190.62
326.313	4700.62
326.542	4944.62
326.77	3169.62
326.999	2161.62
327.228	1811.62
327.457	1745.62
327.686	1734.62
327.914	1833.62
328.143	2126.62
328.372	2399.62
328.6	2583.62
328.829	2447.62
329.058	2149.62
329.287	1956.62
329.515	1757.62
329.744	1665.62
329.972	1571.62
330.201	1540.62
330.43	1483.62
330.658	1446.62
330.887	1417.62
331.115	1399.62
331.344	1364.62
331.572	1368.62
331.801	1408.62
332.03	1378.62
332.258	1381.62
332.486	1449.62
332.715	1631.62
332.943	1958.62
333.172	2302.62
333.4	2315.62
333.629	1865.62
333.857	1726.62
334.085	1716.62
334.314	1777.62
334.542	1932.62
334.771	2243.62
334.999	2645.62
335.227	3179.62
335.455	3489.62
335.684	3315.62
335.912	2845.62
336.14	2455.62
336.369	2187.62
336.597	2041.62
336.825	1823.62
337.053	1737.62
337.281	1677.62
337.51	1618.62
337.738	1539.62
337.966	1446.62
338.194	1461.62
338.422	1363.62
338.65	1353.62
338.878	1321.62
339.106	1307.62
339.334	1314.62
339.562	1252.62
339.79	1254.62
340.018	1252.62
340.246	1248.62
340.474	1232.62
340.702	1238.62
340.93	1218.62
341.158	1208.62
341.386	1233.62
341.614	1198.62
341.842	1179.62
342.07	1149.62
342.298	1139.62
342.526	1122.62
342.754	1135.62
342.981	1123.62
343.209	1122.62
343.437	1121.62
343.665	1133.62
343.893	1177.62
344.12	1163.62
344.348	1122.62
344.576	1133.62
344.804	1101.62
345.031	1073.62
345.259	1056.62
345.487	1056.62
345.714	1050.62
345.942	1051.62
346.17	1037.62
346.397	1042.62
346.625	1040.62
346.853	1029.62
347.08	1036.62
347.308	1051.62
347.535	1000.62
347.763	1049.62
347.99	1040.62
348.218	1019.62
348.445	1022.62
348.673	1028.62
348.9	1018.62
349.128	1017.62
349.355	998.62
349.583	1025.62
349.81	1007.62
350.037	995.62
350.265	988.62
350.492	991.62
350.72	994.62
350.947	985.62
351.174	1005.62
351.402	1021.62
351.629	983.62
351.856	1011.62
352.083	984.62
352.311	963.62
352.538	1005.62
352.765	984.62
352.992	975.62
353.22	992.62
353.447	998.62
353.674	980.62
353.901	995.62
354.128	973.62
354.355	997.62
354.583	975.62
354.81	991.62
355.037	1020.62
355.264	1017.62
355.491	996.62
355.718	1027.62
355.945	1026.62
356.172	1024.62
356.399	1027.62
356.626	1055.62
356.853	1054.62
357.08	994.62
357.307	1057.62
357.534	1067.62
357.761	1055.62
357.988	1029.62
358.215	1071.62
358.441	1042.62
358.668	1048.62
358.895	1039.62
359.122	1038.62
359.349	1052.62
359.576	1062.62
359.802	1059.62
360.029	1052.62
360.256	1044.62
360.483	1043.62
360.709	1060.62
360.936	1067.62
361.163	1059.62
361.39	1054.62
361.616	1059.62
361.843	1052.62
362.07	1029.62
362.296	1049.62
362.523	1061.62
362.749	1068.62
362.976	1061.62
363.203	1053.62
363.429	1040.62
363.656	1077.62
363.882	1062.62
364.109	1039.62
364.335	1068.62
364.562	1047.62
364.788	1072.62
365.015	1073.62
365.241	1054.62
365.468	1147.62
365.694	1168.62
365.92	1112.62
366.147	1068.62
366.373	1089.62
366.599	1104.62
366.826	1072.62
367.052	1059.62
367.278	1090.62
367.505	1059.62
367.731	1094.62
367.957	1106.62
368.184	1117.62
368.41	1127.62
368.636	1068.62
368.862	1109.62
369.089	1113.62
369.315	1131.62
369.541	1089.62
369.767	1086.62
369.993	1099.62
370.219	1061.62
370.445	1092.62
370.672	1085.62
370.898	1107.62
371.124	1117.62
371.35	1135.62
371.576	1155.62
371.802	1153.62
372.028	1117.62
372.254	1142.62
372.48	1176.62
372.706	1163.62
372.932	1173.62
373.158	1124.62
373.384	1142.62
373.61	1184.62
373.835	1155.62
374.061	1161.62
374.287	1149.62
374.513	1150.62
374.739	1208.62
374.965	1198.62
375.191	1215.62
375.416	1188.62
375.642	1154.62
375.868	1188.62
376.094	1177.62
376.319	1146.62
376.545	1144.62
376.771	1160.62
376.997	1167.62
377.222	1148.62
377.448	1140.62
377.674	1141.62
377.899	1143.62
378.125	1165.62
378.35	1147.62
378.576	1167.62
378.802	1133.62
379.027	1163.62
379.253	1159.62
379.478	1234.62
379.704	1419.62
379.929	1911.62
380.155	2811.62
380.38	2997.62
380.606	1921.62
380.831	1435.62
381.057	1295.62
381.282	1196.62
381.507	1180.62
381.733	1161.62
381.958	1120.62
382.184	1151.62
382.409	1135.62
382.634	1115.62
382.86	1115.62
383.085	1109.62
383.31	1145.62
383.535	1132.62
383.761	1140.62
383.986	1125.62
384.211	1173.62
384.436	1157.62
384.662	1155.62
384.887	1177.62
385.112	1163.62
385.337	1166.62
385.562	1168.62
385.787	1168.62
386.013	1170.62
386.238	1193.62
386.463	1202.62
386.688	1208.62
386.913	1179.62
387.138	1173.62
387.363	1158.62
387.588	1158.62
387.813	1168.62
388.038	1181.62
388.263	1153.62
388.488	1166.62
388.713	1176.62
388.938	1165.62
389.163	1173.62
389.387	1150.62
389.612	1178.62
389.837	1144.62
390.062	1191.62
390.287	1191.62
390.512	1181.62
390.736	1176.62
390.961	1224.62
391.186	1209.62
391.411	1193.62
391.636	1240.62
391.86	1245.62
392.085	1226.62
392.31	1250.62
392.534	1208.62
392.759	1224.62
392.984	1189.62
393.208	1189.62
393.433	1205.62
393.658	1195.62
393.882	1184.62
394.107	1155.62
394.331	1197.62
394.556	1197.62
394.78	1200.62
395.005	1205.62
395.229	1180.62
395.454	1227.62
395.678	1203.62
395.903	1218.62
396.127	1206.62
396.352	1207.62
396.576	1193.62
396.801	1205.62
397.025	1199.62
397.249	1227.62
397.474	1226.62
397.698	1227.62
397.922	1260.62
398.147	1243.62
398.371	1273.62
398.595	1277.62
398.82	1304.62
399.044	1363.62
399.268	1400.62
399.492	1507.62
399.717	1542.62
399.941	1533.62
400.165	1492.62
400.389	1446.62
400.613	1385.62
400.837	1347.62
401.062	1316.62
401.286	1325.62
401.51	1329.62
401.734	1274.62
401.958	1295.62
402.182	1284.62
402.406	1262.62
402.63	1292.62
402.854	1311.62
403.078	1308.62
403.302	1333.62
403.526	1338.62
403.75	1345.62
403.974	1362.62
404.198	1361.62
404.422	1378.62
404.645	1344.62
404.869	1347.62
405.093	1326.62
405.317	1309.62
405.541	1370.62
405.765	1391.62
405.988	1363.62
406.212	1350.62
406.436	1342.62
406.66	1418.62
406.883	1371.62
407.107	1425.62
407.331	1402.62
407.555	1461.62
407.778	1407.62
408.002	1389.62
408.226	1443.62
408.449	1431.62
408.673	1361.62
408.896	1359.62
409.12	1387.62
409.344	1362.62
409.567	1342.62
409.791	1331.62
410.014	1316.62
410.238	1302.62
410.461	1323.62
410.685	1315.62
410.908	1331.62
411.132	1332.62
411.355	1295.62
411.578	1290.62
411.802	1285.62
412.025	1294.62
412.249	1249.62
412.472	1255.62
412.695	1280.62
412.919	1279.62
413.142	1270.62
413.365	1276.62
413.589	1263.62
413.812	1261.62
414.035	1235.62
414.258	1255.62
414.482	1283.62
414.705	1249.62
414.928	1287.62
415.151	1260.62
415.374	1269.62
415.597	1259.62
415.821	1182.62
416.044	1235.62
416.267	1225.62
416.49	1215.62
416.713	1212.62
416.936	1216.62
417.159	1229.62
417.382	1224.62
417.605	1188.62
417.828	1219.62
418.051	1228.62
418.274	1208.62
418.497	1232.62
418.72	1271.62
418.943	1250.62
419.166	1277.62
419.389	1325.62
419.611	1357.62
419.834	1314.62
420.057	1285.62
420.28	1266.62
420.503	1222.62
420.726	1220.62
420.948	1216.62
421.171	1231.62
421.394	1228.62
421.617	1240.62
421.839	1257.62
422.062	1260.62
422.285	1233.62
422.507	1254.62
422.73	1243.62
422.953	1267.62
423.175	1271.62
423.398	1235.62
423.621	1233.62
423.843	1251.62
424.066	1260.62
424.288	1237.62
424.511	1240.62
424.733	1252.62
424.956	1203.62
425.178	1225.62
425.401	1229.62
425.623	1211.62
425.846	1200.62
426.068	1231.62
426.291	1182.62
426.513	1191.62
426.735	1158.62
426.958	1197.62
427.18	1143.62
427.402	1172.62
427.625	1166.62
427.847	1135.62
428.069	1148.62
428.292	1118.62
428.514	1139.62
428.736	1139.62
428.958	1148.62
429.181	1131.62
429.403	1146.62
429.625	1103.62
429.847	1132.62
430.069	1142.62
430.292	1205.62
430.514	1199.62
430.736	1205.62
430.958	1156.62
431.18	1132.62
431.402	1143.62
431.624	1142.62
431.846	1122.62
432.068	1125.62
432.29	1115.62
432.512	1114.62
432.734	1150.62
432.956	1134.62
433.178	1156.62
433.4	1154.62
433.622	1185.62
433.844	1155.62
434.066	1108.62
434.287	1112.62
434.509	1140.62
434.731	1101.62
434.953	1152.62
435.175	1175.62
435.397	1180.62
435.618	1163.62
435.84	1125.62
436.062	1115.62
436.284	1127.62
436.505	1131.62
436.727	1152.62
436.949	1135.62
437.17	1095.62
437.392	1098.62
437.614	1096.62
437.835	1069.62
438.057	1050.62
438.278	1105.62
438.5	1118.62
438.721	1097.62
438.943	1141.62
439.165	1151.62
439.386	1178.62
439.608	1184.62
439.829	1158.62
440.05	1197.62
440.272	1238.62
440.493	1183.62
440.715	1147.62
440.936	1204.62
441.158	1211.62
441.379	1192.62
441.6	1247.62
441.822	1271.62
442.043	1327.62
442.264	1318.62
442.486	1269.62
442.707	1218.62
442.928	1210.62
443.149	1212.62
443.371	1203.62
443.592	1259.62
443.813	1239.62
444.034	1250.62
444.255	1253.62
444.476	1288.62
444.698	1335.62
444.919	1332.62
445.14	1350.62
445.361	1298.62
445.582	1250.62
445.803	1214.62
446.024	1189.62
446.245	1211.62
446.466	1229.62
446.687	1149.62
446.908	1191.62
447.129	1175.62
447.35	1157.62
447.571	1159.62
447.792	1127.62
448.013	1114.62
448.234	1115.62
448.455	1103.62
448.675	1117.62
448.896	1108.62
449.117	1152.62
449.338	1268.62
449.559	1265.62
449.779	1208.62
450	1120.62
450.221	1092.62
450.442	1067.62
450.662	1082.62
450.883	1065.62
451.104	1069.62
451.324	1053.62
451.545	1094.62
451.766	1110.62
451.986	1112.62
452.207	1129.62
452.428	1413.62
452.648	1873.62
452.869	1617.62
453.089	1245.62
453.31	1218.62
453.53	1209.62
453.751	1216.62
453.971	1275.62
454.192	1217.62
454.412	1121.62
454.633	1084.62
454.853	1071.62
455.073	1048.62
455.294	1044.62
455.514	1015.62
455.734	1051.62
455.955	1024.62
456.175	1055.62
456.395	1025.62
456.616	1033.62
456.836	1068.62
457.056	1037.62
457.276	1047.62
457.497	1084.62
457.717	1109.62
457.937	1071.62
458.157	1085.62
458.377	1097.62
458.598	1088.62
458.818	1141.62
459.038	1090.62
459.258	1089.62
459.478	1129.62
459.698	1120.62
459.918	1135.62
460.138	1169.62
460.358	1185.62
460.578	1184.62
460.798	1205.62
461.018	1215.62
461.238	1225.62
461.458	1243.62
461.678	1235.62
461.898	1233.62
462.118	1253.62
462.338	1313.62
462.558	1310.62
462.777	1325.62
462.997	1361.62
463.217	1431.62
463.437	1439.62
463.657	1415.62
463.876	1448.62
464.096	1372.62
464.316	1376.62
464.536	1313.62
464.755	1315.62
464.975	1271.62
465.195	1237.62
465.414	1199.62
465.634	1150.62
465.854	1156.62
466.073	1169.62
466.293	1107.62
466.512	1171.62
466.732	1150.62
466.951	1207.62
467.171	1288.62
467.391	1221.62
467.61	1151.62
467.829	1119.62
468.049	1122.62
468.268	1123.62
468.488	1085.62
468.707	1145.62
468.927	1138.62
469.146	1094.62
469.365	1136.62
469.585	1126.62
469.804	1161.62
470.023	1173.62
470.243	1153.62
470.462	1222.62
470.681	1235.62
470.901	1352.62
471.12	1518.62
471.339	1531.62
471.558	1295.62
471.777	1204.62
471.997	1187.62
472.216	1144.62
472.435	1136.62
472.654	1095.62
472.873	1083.62
473.092	1118.62
473.311	1108.62
473.53	1122.62
473.749	1156.62
473.968	1168.62
474.187	1113.62
474.406	1094.62
474.625	1099.62
474.844	1146.62
475.063	1111.62
475.282	1119.62
475.501	1112.62
475.72	1144.62
475.939	1129.62
476.158	1154.62
476.377	1171.62
476.596	1151.62
476.814	1176.62
477.033	1133.62
477.252	1183.62
477.471	1197.62
477.69	1223.62
477.908	1277.62
478.127	1272.62
478.346	1282.62
478.564	1289.62
478.783	1293.62
479.002	1343.62
479.22	1327.62
479.439	1311.62
479.658	1284.62
479.876	1291.62
480.095	1334.62
480.313	1329.62
480.532	1351.62
480.751	1359.62
480.969	1320.62
481.188	1357.62
481.406	1318.62
481.624	1289.62
481.843	1311.62
482.061	1329.62
482.28	1336.62
482.498	1311.62
482.717	1289.62
482.935	1337.62
483.153	1400.62
483.372	1394.62
483.59	1404.62
483.808	1407.62
484.027	1423.62
484.245	1491.62
484.463	1615.62
484.681	1743.62
484.9	1666.62
485.118	1569.62
485.336	1555.62
485.554	1530.62
485.772	1617.62
485.99	1811.62
486.209	1937.62
486.427	1645.62
486.645	1523.62
486.863	1482.62
487.081	1449.62
487.299	1418.62
487.517	1369.62
487.735	1403.62
487.953	1469.62
488.171	1447.62
488.389	1432.62
488.607	1388.62
488.825	1362.62
489.043	1359.62
489.261	1360.62
489.479	1353.62
489.696	1370.62
489.914	1403.62
490.132	1391.62
490.35	1382.62
490.568	1409.62
490.786	1442.62
491.003	1418.62
491.221	1459.62
491.439	1443.62
491.657	1435.62
491.874	1498.62
492.092	1494.62
492.31	1543.62
492.527	1481.62
492.745	1497.62
492.963	1492.62
493.18	1485.62
493.398	1464.62
493.615	1510.62
493.833	1459.62
494.05	1498.62
494.268	1520.62
494.485	1496.62
494.703	1488.62
494.92	1479.62
495.138	1461.62
495.355	1474.62
495.573	1472.62
495.79	1451.62
496.008	1469.62
496.225	1495.62
496.442	1522.62
496.66	1527.62
496.877	1619.62
497.094	1615.62
497.312	1563.62
497.529	1575.62
497.746	1580.62
497.963	1589.62
498.181	1623.62
498.398	1679.62
498.615	1720.62
498.832	1775.62
499.049	1824.62
499.267	1957.62
499.484	2121.62
499.701	2121.62
499.918	2210.62
500.135	2350.62
500.352	2496.62
500.569	2496.62
500.786	2456.62
501.003	2409.62
501.22	2313.62
501.437	2134.62
501.654	2012.62
501.871	1942.62
502.088	1849.62
502.305	1807.62
502.522	1745.62
502.739	1700.62
502.956	1647.62
503.172	1608.62
503.389	1570.62
503.606	1553.62
503.823	1505.62
504.04	1508.62
504.256	1492.62
504.473	1508.62
504.69	1492.62
504.907	1515.62
505.123	1498.62
505.34	1413.62
505.557	1412.62
505.773	1393.62
505.99	1357.62
506.207	1346.62
506.423	1352.62
506.64	1299.62
506.856	1295.62
507.073	1268.62
507.289	1313.62
507.506	1276.62
507.722	1272.62
507.939	1284.62
508.155	1300.62
508.372	1240.62
508.588	1256.62
508.805	1263.62
509.021	1263.62
509.238	1273.62
509.454	1323.62
509.67	1381.62
509.887	1323.62
510.103	1286.62
510.319	1236.62
510.536	1284.62
510.752	1215.62
510.968	1218.62
511.184	1191.62
511.401	1220.62
511.617	1169.62
511.833	1182.62
512.049	1199.62
512.265	1178.62
512.481	1171.62
512.698	1202.62
512.914	1158.62
513.13	1192.62
513.346	1195.62
513.562	1190.62
513.778	1177.62
513.994	1244.62
514.21	1263.62
514.426	1329.62
514.642	1310.62
514.858	1253.62
515.074	1215.62
515.29	1244.62
515.506	1236.62
515.721	1236.62
515.937	1223.62
516.153	1228.62
516.369	1217.62
516.585	1245.62
516.801	1309.62
517.016	1286.62
517.232	1341.62
517.448	1344.62
517.664	1361.62
517.879	1345.62
518.095	1364.62
518.311	1340.62
518.527	1329.62
518.742	1323.62
518.958	1309.62
519.173	1339.62
519.389	1331.62
519.605	1242.62
519.82	1246.62
520.036	1254.62
520.251	1212.62
520.467	1169.62
520.682	1180.62
520.898	1196.62
521.113	1151.62
521.329	1186.62
521.544	1173.62
521.76	1171.62
521.975	1169.62
522.19	1157.62
522.406	1153.62
522.621	1148.62
522.836	1177.62
523.052	1166.62
523.267	1160.62
523.482	1143.62
523.698	1155.62
523.913	1171.62
524.128	1166.62
524.343	1160.62
524.559	1128.62
524.774	1136.62
524.989	1163.62
525.204	1171.62
525.419	1150.62
525.634	1112.62
525.849	1162.62
526.064	1167.62
526.28	1131.62
526.495	1140.62
526.71	1155.62
526.925	1144.62
527.14	1129.62
527.355	1136.62
527.57	1135.62
527.785	1160.62
527.999	1167.62
528.214	1157.62
528.429	1184.62
528.644	1196.62
528.859	1218.62
529.074	1246.62
529.289	1236.62
529.503	1243.62
529.718	1231.62
529.933	1191.62
530.148	1192.62
530.363	1199.62
530.577	1211.62
530.792	1213.62
531.007	1231.62
531.221	1238.62
531.436	1267.62
531.651	1259.62
531.865	1235.62
532.08	1264.62
532.295	1289.62
532.509	1384.62
532.724	1335.62
532.938	1386.62
533.153	1372.62
533.367	1446.62
533.582	1510.62
533.796	1452.62
534.011	1481.62
534.225	1429.62
534.44	1405.62
534.654	1401.62
534.868	1343.62
535.083	1326.62
535.297	1329.62
535.511	1324.62
535.726	1294.62
535.94	1281.62
536.154	1231.62
536.369	1225.62
536.583	1220.62
536.797	1208.62
537.011	1190.62
537.225	1203.62
537.44	1173.62
537.654	1152.62
537.868	1139.62
538.082	1167.62
538.296	1164.62
538.51	1135.62
538.724	1134.62
538.938	1154.62
539.153	1131.62
539.367	1142.62
539.581	1118.62
539.795	1091.62
540.009	1110.62
540.222	1092.62
540.436	1104.62
540.65	1103.62
540.864	1133.62
541.078	1143.62
541.292	1221.62
541.506	1376.62
541.72	1475.62
541.934	1301.62
542.147	1263.62
542.361	1181.62
542.575	1184.62
542.789	1130.62
543.002	1084.62
543.216	1086.62
543.43	1072.62
543.644	1082.62
543.857	1105.62
544.071	1101.62
544.285	1088.62
544.498	1100.62
544.712	1128.62
544.925	1127.62
545.139	1100.62
545.352	1107.62
545.566	1131.62
545.779	1150.62
545.993	1145.62
546.206	1151.62
546.42	1129.62
546.633	1131.62
546.847	1123.62
547.06	1138.62
547.274	1117.62
547.487	1197.62
547.7	1117.62
547.914	1156.62
548.127	1151.62
548.34	1124.62
548.554	1118.62
548.767	1116.62
548.98	1128.62
549.193	1136.62
549.407	1093.62
549.62	1124.62
549.833	1132.62
550.046	1144.62
550.259	1120.62
550.473	1135.62
550.686	1134.62
550.899	1137.62
551.112	1119.62
551.325	1123.62
551.538	1147.62
551.751	1093.62
551.964	1107.62
552.177	1146.62
552.39	1119.62
552.603	1180.62
552.816	1201.62
553.029	1180.62
553.242	1214.62
553.455	1191.62
553.667	1220.62
553.88	1223.62
554.093	1225.62
554.306	1243.62
554.519	1241.62
554.732	1237.62
554.944	1265.62
555.157	1250.62
555.37	1295.62
555.583	1350.62
555.795	1385.62
556.008	1436.62
556.221	1557.62
556.433	1591.62
556.646	1649.62
556.859	1588.62
557.071	1564.62
557.284	1558.62
557.496	1504.62
557.709	1466.62
557.921	1481.62
558.134	1485.62
558.346	1485.62
558.559	1535.62
558.771	1579.62
558.984	1680.62
559.196	1727.62
559.409	1729.62
559.621	1623.62
559.833	1523.62
560.046	1463.62
560.258	1443.62
560.47	1368.62
560.683	1363.62
560.895	1301.62
561.107	1248.62
561.32	1213.62
561.532	1204.62
561.744	1165.62
561.956	1224.62
562.168	1151.62
562.381	1148.62
562.593	1108.62
562.805	1132.62
563.017	1158.62
563.229	1137.62
563.441	1247.62
563.653	1109.62
563.865	1050.62
564.077	1060.62
564.289	1032.62
564.501	1015.62
564.713	1037.62
564.925	1030.62
565.137	1003.62
565.349	1036.62
565.561	1037.62
565.773	1022.62
565.985	1041.62
566.197	1052.62
566.408	1093.62
566.62	1117.62
566.832	1138.62
567.044	1165.62
567.255	1142.62
567.467	1163.62
567.679	1201.62
567.891	1237.62
568.102	1327.62
568.314	1559.62
568.526	1321.62
568.737	1163.62
568.949	1077.62
569.161	1017.62
569.372	961.62
569.584	939.62
569.795	946.62
570.007	914.62
570.218	936.62
570.43	967.62
570.641	901.62
570.853	891.62
571.064	875.62
571.276	883.62
571.487	830.62
571.698	840.62
571.91	836.62
572.121	812.62
572.333	816.62
572.544	825.62
572.755	841.62
572.966	984.62
573.178	901.62
573.389	802.62
573.6	789.62
573.811	785.62
574.023	759.62
574.234	807.62
574.445	757.62
574.656	741.62
574.867	737.62
575.078	727.62
575.289	754.62
575.501	746.62
575.712	750.62
575.923	722.62
576.134	772.62
576.345	770.62
576.556	780.62
576.767	755.62
576.978	752.62
577.188	772.62
577.399	749.62
577.61	773.62
577.821	763.62
578.032	776.62
578.243	764.62
578.454	791.62
578.665	803.62
578.875	800.62
579.086	835.62
579.297	851.62
579.508	882.62
579.718	959.62
579.929	1076.62
580.14	1120.62
580.35	1192.62
580.561	1149.62
580.772	1027.62
580.982	1015.62
581.193	943.62
581.403	947.62
581.614	899.62
581.825	850.62
582.035	828.62
582.246	829.62
582.456	776.62
582.667	771.62
582.877	760.62
583.087	718.62
583.298	734.62
583.508	686.62
583.719	694.62
583.929	701.62
584.139	672.62
584.35	662.62
584.56	624.62
584.77	654.62
584.981	636.62
585.191	648.62
585.401	628.62
585.611	625.62
585.821	603.62
586.032	609.62
586.242	602.62
586.452	600.62
586.662	571.62
586.872	603.62
587.082	598.62
587.292	584.62
587.502	573.62
587.713	584.62
587.923	568.62
588.133	564.62
588.343	552.62
588.553	543.62
588.762	564.62
588.972	566.62
589.182	553.62
589.392	576.62
589.602	545.62
589.812	535.62
590.022	553.62
590.232	531.62
590.441	518.62
590.651	527.62
590.861	539.62
591.071	546.62
591.281	531.62
591.49	515.62
591.7	538.62
591.91	557.62
592.119	543.62
592.329	527.62
592.539	541.62
592.748	559.62
592.958	563.62
593.167	580.62
593.377	561.62
593.587	537.62
593.796	576.62
594.006	561.62
594.215	574.62
594.424	566.62
594.634	545.62
594.843	549.62
595.053	553.62
595.262	527.62
595.472	523.62
595.681	508.62
595.89	507.62
596.1	518.62
596.309	509.62
596.518	477.62
596.727	493.62
596.937	482.62
597.146	473.62
597.355	471.62
597.564	473.62
597.774	433.62
597.983	452.62
598.192	456.62
598.401	452.62
598.61	449.62
598.819	473.62
599.028	439.62
599.237	460.62
599.446	480.62
599.655	428.62
599.864	443.62
600.073	457.62
600.282	449.62
600.491	435.62
600.7	436.62
600.909	433.62
601.118	443.62
601.327	458.62
601.536	456.62
601.745	462.62
601.953	519.62
602.162	547.62
602.371	481.62
602.58	457.62
602.789	450.62
602.997	480.62
603.206	450.62
603.415	428.62
603.623	469.62
603.832	460.62
604.041	441.62
604.249	423.62
604.458	438.62
604.666	431.62
604.875	398.62
605.084	432.62
605.292	419.62
605.501	435.62
605.709	429.62
605.918	419.62
606.126	423.62
606.334	439.62
606.543	451.62
606.751	462.62
606.96	509.62
607.168	552.62
607.376	487.62
607.585	452.62
607.793	436.62
608.001	431.62
608.21	413.62
608.418	435.62
608.626	398.62
608.834	425.62
609.043	427.62
609.251	412.62
609.459	406.62
609.667	416.62
609.875	411.62
610.083	436.62
610.291	416.62
610.499	413.62
610.707	390.62
610.916	400.62
611.124	399.62
611.332	390.62
611.54	406.62
611.748	383.62
611.955	398.62
612.163	391.62
612.371	401.62
612.579	409.62
612.787	389.62
612.995	387.62
613.203	390.62
613.411	398.62
613.618	395.62
613.826	387.62
614.034	403.62
614.242	390.62
614.449	396.62
614.657	396.62
614.865	387.62
615.072	385.62
615.28	386.62
615.488	397.62
615.695	385.62
615.903	396.62
616.111	373.62
616.318	402.62
616.526	401.62
616.733	399.62
616.941	398.62
617.148	389.62
617.356	377.62
617.563	377.62
617.771	374.62
617.978	370.62
618.185	388.62
618.393	363.62
618.6	379.62
618.807	365.62
619.015	383.62
619.222	350.62
619.429	373.62
619.637	363.62
619.844	358.62
620.051	372.62
620.258	360.62
620.466	341.62
620.673	347.62
620.88	366.62
621.087	335.62
621.294	343.62
621.501	367.62
621.708	352.62
621.915	356.62
622.122	343.62
622.329	374.62
622.536	351.62
622.743	348.62
622.95	368.62
623.157	342.62
623.364	361.62
623.571	349.62
623.778	339.62
623.985	346.62
624.192	352.62
624.399	328.62
624.606	340.62
624.812	353.62
625.019	336.62
625.226	336.62
625.433	333.62
625.639	343.62
625.846	341.62
626.053	323.62
626.259	318.62
626.466	305.62
626.673	317.62
626.879	309.62
627.086	317.62
627.293	320.62
627.499	318.62
627.706	342.62
627.912	322.62
628.119	347.62
628.325	326.62
628.532	323.62
628.738	321.62
628.945	315.62
629.151	322.62
629.357	328.62
629.564	311.62
629.77	305.62
629.976	309.62
630.183	292.62
630.389	305.62
630.595	315.62
630.802	308.62
631.008	296.62
631.214	293.62
631.42	310.62
631.627	303.62
631.833	294.62
632.039	295.62
632.245	289.62
632.451	302.62
632.657	301.62
632.863	283.62
633.069	297.62
633.275	300.62
633.481	301.62
633.688	277.62
633.893	304.62
634.099	295.62
634.305	301.62
634.511	289.62
634.717	308.62
634.923	296.62
635.129	344.62
635.335	366.62
635.541	332.62
635.747	300.62
635.952	309.62
636.158	295.62
636.364	305.62
636.57	308.62
636.775	306.62
636.981	289.62
637.187	300.62
637.392	297.62
637.598	300.62
637.804	285.62
638.009	296.62
638.215	306.62
638.421	287.62
638.626	319.62
638.832	305.62
639.037	304.62
639.243	311.62
639.448	301.62
639.654	299.62
639.859	308.62
640.065	284.62
640.27	324.62
640.475	304.62
640.681	300.62
640.886	301.62
641.091	303.62
641.297	300.62
641.502	329.62
641.707	308.62
641.913	314.62
642.118	330.62
642.323	359.62
642.528	364.62
642.733	335.62
642.939	346.62
643.144	360.62
643.349	378.62
643.554	368.62
643.759	371.62
643.964	411.62
644.169	416.62
644.374	418.62
644.579	483.62
644.784	481.62
644.989	529.62
645.194	610.62
645.399	714.62
645.604	709.62
645.809	574.62
646.014	484.62
646.219	426.62
646.423	394.62
646.628	374.62
646.833	353.62
647.038	335.62
647.243	325.62
647.447	326.62
647.652	311.62
647.857	299.62
648.062	306.62
648.266	315.62
648.471	298.62
648.676	278.62
648.88	274.62
649.085	268.62
649.289	268.62
649.494	258.62
649.698	258.62
649.903	261.62
650.107	281.62
650.312	248.62
650.516	260.62
650.721	243.62
650.925	233.62
651.13	231.62
651.334	235.62
651.539	221.62
651.743	232.62
651.947	232.62
652.152	223.62
652.356	229.62
652.56	223.62
652.764	257.62
652.969	230.62
653.173	238.62
653.377	216.62
653.581	217.62
653.785	222.62
653.99	208.62
654.194	207.62
654.398	211.62
654.602	208.62
654.806	197.62
655.01	204.62
655.214	204.62
655.418	228.62
655.622	214.62
655.826	212.62
656.03	198.62
656.234	207.62
656.438	224.62
656.642	224.62
656.846	215.62
657.049	192.62
657.253	189.62
657.457	201.62
657.661	182.62
657.865	167.62
658.068	155.62
658.272	153.62
658.476	157.62
658.68	147.62
658.883	133.62
659.087	130.62
659.291	143.62
659.494	128.62
659.698	126.62
659.901	131.62
660.105	116.62
660.309	117.62
660.512	120.62
660.716	121.62
660.919	112.62
661.123	107.62
661.326	106.62
661.53	97.62
661.733	107.62
661.936	90.62
662.14	107.62
662.343	102.62
662.546	86.62
662.75	97.62
662.953	100.62
663.156	100.62
663.36	87.62
663.563	93.62
663.766	99.62
663.969	98.62
664.173	88.62
664.376	94.62
664.579	81.62
664.782	90.62
664.985	97.62
665.188	80.62
665.391	73.62
665.594	72.62
665.797	80.62
666	88.62
666.203	86.62
666.406	85.62
666.609	82.62
666.812	108.62
667.015	90.62
667.218	87.62
667.421	90.62
667.624	79.62
667.827	94.62
668.03	85.62
668.232	84.62
668.435	78.62
668.638	73.62
668.841	77.62
669.043	94.62
669.246	88.62
669.449	87.62
669.651	85.62
669.854	91.62
670.057	75.62
670.259	71.62
670.462	88.62
670.665	91.62
670.867	96.62
671.07	72.62
671.272	78.62
671.475	109.62
671.677	85.62
671.88	95.62
672.082	72.62
672.284	95.62
672.487	83.62
672.689	79.62
672.892	83.62
