Data from SnStandardFlinnAPT0064_LampEnergy10_LIBS07252019.E.O._I.C._HRD10591_15-20-14-494.txt Node
Date: Thu Jul 25 15:20:14 EDT 2019
User: cochatt
Spectrometer: HR+D1059
Trigger mode: 1
Integration Time (sec): 1.000000E-1
Scans to average: 1
Electric dark correction enabled: true
Nonlinearity correction enabled: false
Boxcar width: 0
XAxis mode: Wavelengths
Number of Pixels in Spectrum: 2048
>>>>>Begin Spectral Data<<<<<
223.165	-13.12
223.4	-13.12
223.635	-13.12
223.869	-13.12
224.104	-19.12
224.338	-21.12
224.573	-7.12
224.808	-9.12
225.042	-10.12
225.277	-13.12
225.511	-8.12
225.746	8.88
225.98	13.88
226.215	12.88
226.449	17.88
226.683	10.88
226.918	11.88
227.152	37.88
227.387	40.88
227.621	37.88
227.856	42.88
228.09	43.88
228.324	60.88
228.559	49.88
228.793	108.88
229.027	294.88
229.262	351.88
229.496	292.88
229.73	299.88
229.964	300.88
230.199	311.88
230.433	327.88
230.667	340.88
230.901	331.88
231.136	332.88
231.37	350.88
231.604	381.88
231.838	462.88
232.072	552.88
232.306	592.88
232.541	509.88
232.775	443.88
233.009	418.88
233.243	436.88
233.477	501.88
233.711	534.88
233.945	603.88
234.179	532.88
234.413	466.88
234.647	450.88
234.881	476.88
235.115	529.88
235.349	626.88
235.583	801.88
235.817	1045.88
236.051	1030.88
236.285	682.88
236.519	557.88
236.753	530.88
236.987	525.88
237.221	548.88
237.455	524.88
237.689	466.88
237.922	480.88
238.156	460.88
238.39	476.88
238.624	510.88
238.858	496.88
239.091	502.88
239.325	504.88
239.559	504.88
239.793	530.88
240.027	527.88
240.26	563.88
240.494	557.88
240.728	604.88
240.961	640.88
241.195	647.88
241.429	713.88
241.662	736.88
241.896	794.88
242.13	1002.88
242.363	1304.88
242.597	1720.88
242.83	1629.88
243.064	1627.88
243.298	1877.88
243.531	1575.88
243.765	994.88
243.998	813.88
244.232	725.88
244.465	662.88
244.699	662.88
244.932	649.88
245.166	700.88
245.399	700.88
245.633	702.88
245.866	694.88
246.099	670.88
246.333	630.88
246.566	667.88
246.8	638.88
247.033	659.88
247.266	673.88
247.5	675.88
247.733	705.88
247.966	715.88
248.2	796.88
248.433	917.88
248.666	1032.88
248.899	978.88
249.133	860.88
249.366	910.88
249.599	1000.88
249.832	1136.88
250.066	1133.88
250.299	874.88
250.532	788.88
250.765	756.88
250.998	756.88
251.231	750.88
251.465	760.88
251.698	762.88
251.931	741.88
252.164	734.88
252.397	754.88
252.63	810.88
252.863	817.88
253.096	788.88
253.329	793.88
253.562	805.88
253.795	810.88
254.028	808.88
254.261	841.88
254.494	896.88
254.727	1057.88
254.96	1290.88
255.193	1298.88
255.426	989.88
255.659	874.88
255.892	882.88
256.124	884.88
256.357	902.88
256.59	933.88
256.823	1012.88
257.056	1152.88
257.289	1412.88
257.521	1602.88
257.754	1224.88
257.987	997.88
258.22	943.88
258.452	915.88
258.685	937.88
258.918	982.88
259.151	1015.88
259.383	1131.88
259.616	1273.88
259.849	1277.88
260.081	1097.88
260.314	989.88
260.547	961.88
260.779	956.88
261.012	963.88
261.244	997.88
261.477	982.88
261.71	968.88
261.942	976.88
262.175	1015.88
262.407	1050.88
262.64	1040.88
262.872	1112.88
263.105	1141.88
263.337	1176.88
263.57	1251.88
263.802	1315.88
264.035	1317.88
264.267	1320.88
264.499	1351.88
264.732	1437.88
264.964	1446.88
265.197	1389.88
265.429	1426.88
265.661	1460.88
265.894	1577.88
266.126	1800.88
266.358	1986.88
266.591	1962.88
266.823	1606.88
267.055	1449.88
267.287	1383.88
267.52	1318.88
267.752	1310.88
267.984	1318.88
268.216	1285.88
268.448	1245.88
268.681	1233.88
268.913	1229.88
269.145	1230.88
269.377	1248.88
269.609	1254.88
269.841	1269.88
270.073	1406.88
270.306	1589.88
270.538	2240.88
270.77	3307.88
271.002	4165.88
271.234	2937.88
271.466	1948.88
271.698	1557.88
271.93	1421.88
272.162	1339.88
272.394	1321.88
272.626	1280.88
272.858	1252.88
273.09	1236.88
273.322	1237.88
273.553	1239.88
273.785	1197.88
274.017	1229.88
274.249	1220.88
274.481	1221.88
274.713	1206.88
274.945	1236.88
275.176	1225.88
275.408	1243.88
275.64	1268.88
275.872	1248.88
276.104	1257.88
276.335	1303.88
276.567	1295.88
276.799	1314.88
277.031	1311.88
277.262	1349.88
277.494	1440.88
277.726	1594.88
277.957	1866.88
278.189	2173.88
278.421	2003.88
278.652	1837.88
278.884	1722.88
279.115	1520.88
279.347	1438.88
279.579	1412.88
279.81	1407.88
280.042	1421.88
280.273	1436.88
280.505	1458.88
280.736	1515.88
280.968	1638.88
281.199	1861.88
281.431	2105.88
281.662	2208.88
281.894	1847.88
282.125	1678.88
282.356	1672.88
282.588	1699.88
282.819	1760.88
283.051	1847.88
283.282	2104.88
283.513	2606.88
283.745	3724.88
283.976	5975.88
284.207	8442.88
284.439	7684.88
284.67	4743.88
284.901	3897.88
285.132	3922.88
285.364	3811.88
285.595	2822.88
285.826	2524.88
286.057	2905.88
286.288	4080.88
286.52	5496.88
286.751	5116.88
286.982	3192.88
287.213	2363.88
287.444	2077.88
287.675	1933.88
287.906	1820.88
288.138	1756.88
288.369	1717.88
288.6	1741.88
288.831	1698.88
289.062	1717.88
289.293	1724.88
289.524	1710.88
289.755	1713.88
289.986	1724.88
290.217	1740.88
290.448	1725.88
290.679	1745.88
290.91	1796.88
291.141	1913.88
291.371	2083.88
291.602	2187.88
291.833	1977.88
292.064	1769.88
292.295	1722.88
292.526	1678.88
292.757	1695.88
292.987	1616.88
293.218	1618.88
293.449	1652.88
293.68	1629.88
293.91	1603.88
294.141	1588.88
294.372	1568.88
294.603	1595.88
294.833	1544.88
295.064	1583.88
295.295	1556.88
295.525	1558.88
295.756	1580.88
295.987	1577.88
296.217	1557.88
296.448	1612.88
296.679	1582.88
296.909	1585.88
297.14	1601.88
297.37	1619.88
297.601	1649.88
297.831	1641.88
298.062	1623.88
298.292	1608.88
298.523	1703.88
298.753	1732.88
298.984	1753.88
299.214	1768.88
299.445	1750.88
299.675	1805.88
299.905	1890.88
300.136	1962.88
300.366	2203.88
300.597	2803.88
300.827	4018.88
301.057	5476.88
301.288	5531.88
301.518	3568.88
301.748	2684.88
301.979	2409.88
302.209	2368.88
302.439	2384.88
302.669	2522.88
302.9	3069.88
303.13	4377.88
303.36	6481.88
303.59	8674.88
303.82	7521.88
304.051	4482.88
304.281	3118.88
304.511	2655.88
304.741	2418.88
304.971	2248.88
305.201	2136.88
305.431	2045.88
305.661	2015.88
305.891	1916.88
306.121	1935.88
306.352	1909.88
306.582	1885.88
306.812	1852.88
307.042	1859.88
307.272	1829.88
307.502	1848.88
307.731	1830.88
307.961	1847.88
308.191	1897.88
308.421	1800.88
308.651	1828.88
308.881	1822.88
309.111	1819.88
309.341	1828.88
309.571	1825.88
309.8	1862.88
310.03	1888.88
310.26	1855.88
310.49	1853.88
310.72	1922.88
310.949	1876.88
311.179	1925.88
311.409	1897.88
311.639	1928.88
311.868	1960.88
312.098	1950.88
312.328	1963.88
312.557	1974.88
312.787	2020.88
313.017	1970.88
313.246	2021.88
313.476	2032.88
313.706	2127.88
313.935	2233.88
314.165	2403.88
314.394	2525.88
314.624	2441.88
314.853	2225.88
315.083	2208.88
315.312	2209.88
315.542	2247.88
315.771	2231.88
316.001	2301.88
316.23	2356.88
316.46	2506.88
316.689	2761.88
316.919	3321.88
317.148	4809.88
317.377	7386.88
317.607	10973.88
317.836	11396.88
318.065	7001.88
318.295	4426.88
318.524	3571.88
318.753	3049.88
318.983	2820.88
319.212	2600.88
319.441	2508.88
319.67	2479.88
319.9	2416.88
320.129	2425.88
320.358	2365.88
320.587	2390.88
320.816	2367.88
321.046	2366.88
321.275	2394.88
321.504	2399.88
321.733	2472.88
321.962	2573.88
322.191	2582.88
322.42	2552.88
322.649	2574.88
322.878	2581.88
323.108	2529.88
323.337	2562.88
323.566	2521.88
323.795	2641.88
324.024	2695.88
324.253	2787.88
324.482	2905.88
324.71	3096.88
324.939	3336.88
325.168	3359.88
325.397	3454.88
325.626	4106.88
325.855	5848.88
326.084	9114.88
326.313	13102.88
326.542	13869.88
326.77	9466.88
326.999	6164.88
327.228	5099.88
327.457	4864.88
327.686	4962.88
327.914	5344.88
328.143	6249.88
328.372	7448.88
328.6	8087.88
328.829	7221.88
329.058	5972.88
329.287	5223.88
329.515	4780.88
329.744	4311.88
329.972	4135.88
330.201	3928.88
330.43	3802.88
330.658	3639.88
330.887	3621.88
331.115	3548.88
331.344	3520.88
331.572	3469.88
331.801	3481.88
332.03	3601.88
332.258	3669.88
332.486	3769.88
332.715	4342.88
332.943	5446.88
333.172	6885.88
333.4	6851.88
333.629	5081.88
333.857	4554.88
334.085	4530.88
334.314	4741.88
334.542	5245.88
334.771	6161.88
334.999	7702.88
335.227	9603.88
335.455	10828.88
335.684	9739.88
335.912	7869.88
336.14	6693.88
336.369	5843.88
336.597	5347.88
336.825	4918.88
337.053	4622.88
337.281	4317.88
337.51	4059.88
337.738	3904.88
337.966	3757.88
338.194	3653.88
338.422	3510.88
338.65	3393.88
338.878	3335.88
339.106	3268.88
339.334	3230.88
339.562	3145.88
339.79	3103.88
340.018	3045.88
340.246	3113.88
340.474	3101.88
340.702	3028.88
340.93	3086.88
341.158	3056.88
341.386	2997.88
341.614	2985.88
341.842	2934.88
342.07	2854.88
342.298	2838.88
342.526	2834.88
342.754	2760.88
342.981	2796.88
343.209	2733.88
343.437	2785.88
343.665	2794.88
343.893	2838.88
344.12	2841.88
344.348	2800.88
344.576	2759.88
344.804	2755.88
345.031	2671.88
345.259	2595.88
345.487	2584.88
345.714	2622.88
345.942	2532.88
346.17	2568.88
346.397	2553.88
346.625	2519.88
346.853	2564.88
347.08	2553.88
347.308	2530.88
347.535	2560.88
347.763	2534.88
347.99	2447.88
348.218	2551.88
348.445	2505.88
348.673	2475.88
348.9	2499.88
349.128	2468.88
349.355	2415.88
349.583	2498.88
349.81	2459.88
350.037	2394.88
350.265	2440.88
350.492	2426.88
350.72	2385.88
350.947	2395.88
351.174	2477.88
351.402	2395.88
351.629	2416.88
351.856	2392.88
352.083	2416.88
352.311	2394.88
352.538	2422.88
352.765	2415.88
352.992	2360.88
353.22	2359.88
353.447	2391.88
353.674	2405.88
353.901	2385.88
354.128	2421.88
354.355	2412.88
354.583	2473.88
354.81	2412.88
355.037	2441.88
355.264	2440.88
355.491	2440.88
355.718	2411.88
355.945	2417.88
356.172	2502.88
356.399	2454.88
356.626	2482.88
356.853	2505.88
357.08	2531.88
357.307	2577.88
357.534	2619.88
357.761	2639.88
357.988	2596.88
358.215	2597.88
358.441	2540.88
358.668	2540.88
358.895	2571.88
359.122	2586.88
359.349	2566.88
359.576	2581.88
359.802	2548.88
360.029	2589.88
360.256	2610.88
360.483	2549.88
360.709	2545.88
360.936	2559.88
361.163	2577.88
361.39	2573.88
361.616	2610.88
361.843	2566.88
362.07	2620.88
362.296	2580.88
362.523	2590.88
362.749	2551.88
362.976	2597.88
363.203	2550.88
363.429	2533.88
363.656	2576.88
363.882	2565.88
364.109	2551.88
364.335	2589.88
364.562	2567.88
364.788	2558.88
365.015	2589.88
365.241	2678.88
365.468	2825.88
365.694	3010.88
365.92	2913.88
366.147	2706.88
366.373	2610.88
366.599	2613.88
366.826	2631.88
367.052	2569.88
367.278	2620.88
367.505	2658.88
367.731	2628.88
367.957	2632.88
368.184	2662.88
368.41	2703.88
368.636	2713.88
368.862	2689.88
369.089	2653.88
369.315	2673.88
369.541	2648.88
369.767	2687.88
369.993	2637.88
370.219	2668.88
370.445	2673.88
370.672	2679.88
370.898	2685.88
371.124	2711.88
371.35	2697.88
371.576	2739.88
371.802	2737.88
372.028	2773.88
372.254	2785.88
372.48	2757.88
372.706	2780.88
372.932	2822.88
373.158	2824.88
373.384	2776.88
373.61	2761.88
373.835	2789.88
374.061	2811.88
374.287	2815.88
374.513	2888.88
374.739	2899.88
374.965	2902.88
375.191	2916.88
375.416	2892.88
375.642	2891.88
375.868	2849.88
376.094	2803.88
376.319	2794.88
376.545	2820.88
376.771	2815.88
376.997	2762.88
377.222	2757.88
377.448	2736.88
377.674	2730.88
377.899	2732.88
378.125	2746.88
378.35	2760.88
378.576	2765.88
378.802	2782.88
379.027	2818.88
379.253	2874.88
379.478	3107.88
379.704	3614.88
379.929	5341.88
380.155	8308.88
380.38	9198.88
380.606	5542.88
380.831	3796.88
381.057	3293.88
381.282	3024.88
381.507	2898.88
381.733	2838.88
381.958	2757.88
382.184	2722.88
382.409	2712.88
382.634	2699.88
382.86	2682.88
383.085	2652.88
383.31	2708.88
383.535	2746.88
383.761	2733.88
383.986	2750.88
384.211	2721.88
384.436	2746.88
384.662	2787.88
384.887	2780.88
385.112	2761.88
385.337	2817.88
385.562	2789.88
385.787	2804.88
386.013	2807.88
386.238	2842.88
386.463	2826.88
386.688	2794.88
386.913	2780.88
387.138	2819.88
387.363	2806.88
387.588	2713.88
387.813	2758.88
388.038	2756.88
388.263	2794.88
388.488	2800.88
388.713	2826.88
388.938	2832.88
389.163	2785.88
389.387	2764.88
389.612	2751.88
389.837	2817.88
390.062	2770.88
390.287	2835.88
390.512	2795.88
390.736	2813.88
390.961	2882.88
391.186	2900.88
391.411	2937.88
391.636	2912.88
391.86	2933.88
392.085	2921.88
392.31	2915.88
392.534	2904.88
392.759	2886.88
392.984	2835.88
393.208	2904.88
393.433	2867.88
393.658	2849.88
393.882	2848.88
394.107	2781.88
394.331	2840.88
394.556	2842.88
394.78	2894.88
395.005	2846.88
395.229	2800.88
395.454	2891.88
395.678	2904.88
395.903	2906.88
396.127	2871.88
396.352	2862.88
396.576	2882.88
396.801	2883.88
397.025	2934.88
397.249	2928.88
397.474	2933.88
397.698	2952.88
397.922	2974.88
398.147	2926.88
398.371	3033.88
398.595	3026.88
398.82	3057.88
399.044	3231.88
399.268	3344.88
399.492	3481.88
399.717	3632.88
399.941	3640.88
400.165	3562.88
400.389	3376.88
400.613	3214.88
400.837	3137.88
401.062	3138.88
401.286	3097.88
401.51	3102.88
401.734	3004.88
401.958	3076.88
402.182	3086.88
402.406	3082.88
402.63	3072.88
402.854	3114.88
403.078	3121.88
403.302	3130.88
403.526	3136.88
403.75	3165.88
403.974	3114.88
404.198	3186.88
404.422	3224.88
404.645	3160.88
404.869	3150.88
405.093	3190.88
405.317	3154.88
405.541	3268.88
405.765	3225.88
405.988	3279.88
406.212	3329.88
406.436	3252.88
406.66	3278.88
406.883	3268.88
407.107	3381.88
407.331	3453.88
407.555	3508.88
407.778	3460.88
408.002	3463.88
408.226	3437.88
408.449	3416.88
408.673	3351.88
408.896	3253.88
409.12	3214.88
409.344	3284.88
409.567	3195.88
409.791	3217.88
410.014	3181.88
410.238	3150.88
410.461	3164.88
410.685	3142.88
410.908	3102.88
411.132	3132.88
411.355	3054.88
411.578	3063.88
411.802	3100.88
412.025	3027.88
412.249	3062.88
412.472	3032.88
412.695	3019.88
412.919	3033.88
413.142	3004.88
413.365	2984.88
413.589	3059.88
413.812	3045.88
414.035	3059.88
414.258	3022.88
414.482	3004.88
414.705	3026.88
414.928	2982.88
415.151	3028.88
415.374	2970.88
415.597	2953.88
415.821	2897.88
416.044	2875.88
416.267	2899.88
416.49	2890.88
416.713	2902.88
416.936	2931.88
417.159	2890.88
417.382	2868.88
417.605	2825.88
417.828	2900.88
418.051	2895.88
418.274	2942.88
418.497	2902.88
418.72	2989.88
418.943	2919.88
419.166	3093.88
419.389	3228.88
419.611	3197.88
419.834	3033.88
420.057	2995.88
420.28	2947.88
420.503	2883.88
420.726	2875.88
420.948	2845.88
421.171	2928.88
421.394	2900.88
421.617	2873.88
421.839	2921.88
422.062	2968.88
422.285	2887.88
422.507	2925.88
422.73	2937.88
422.953	3017.88
423.175	3037.88
423.398	2994.88
423.621	2883.88
423.843	2948.88
424.066	2907.88
424.288	2873.88
424.511	2869.88
424.733	2872.88
424.956	2933.88
425.178	2772.88
425.401	2769.88
425.623	2868.88
425.846	2733.88
426.068	2836.88
426.291	2736.88
426.513	2738.88
426.735	2793.88
426.958	2774.88
427.18	2708.88
427.402	2754.88
427.625	2749.88
427.847	2684.88
428.069	2621.88
428.292	2816.88
428.514	2669.88
428.736	2635.88
428.958	2720.88
429.181	2626.88
429.403	2665.88
429.625	2665.88
429.847	2643.88
430.069	2760.88
430.292	2866.88
430.514	2898.88
430.736	2883.88
430.958	2707.88
431.18	2644.88
431.402	2674.88
431.624	2638.88
431.846	2627.88
432.068	2614.88
432.29	2689.88
432.512	2610.88
432.734	2653.88
432.956	2593.88
433.178	2652.88
433.4	2704.88
433.622	2637.88
433.844	2695.88
434.066	2638.88
434.287	2694.88
434.509	2716.88
434.731	2731.88
434.953	2753.88
435.175	2795.88
435.397	2765.88
435.618	2681.88
435.84	2665.88
436.062	2661.88
436.284	2620.88
436.505	2646.88
436.727	2661.88
436.949	2651.88
437.17	2632.88
437.392	2539.88
437.614	2584.88
437.835	2520.88
438.057	2602.88
438.278	2508.88
438.5	2556.88
438.721	2594.88
438.943	2716.88
439.165	2773.88
439.386	2750.88
439.608	2765.88
439.829	2752.88
440.05	2874.88
440.272	2984.88
440.493	2800.88
440.715	2796.88
440.936	2779.88
441.158	2810.88
441.379	2795.88
441.6	2904.88
441.822	2981.88
442.043	3124.88
442.264	3194.88
442.486	2975.88
442.707	2880.88
442.928	2870.88
443.149	2864.88
443.371	2790.88
443.592	2805.88
443.813	2865.88
444.034	2895.88
444.255	2873.88
444.476	2920.88
444.698	3003.88
444.919	3080.88
445.14	3078.88
445.361	2991.88
445.582	2899.88
445.803	2840.88
446.024	2753.88
446.245	2824.88
446.466	2860.88
446.687	2834.88
446.908	2748.88
447.129	2681.88
447.35	2725.88
447.571	2639.88
447.792	2626.88
448.013	2612.88
448.234	2605.88
448.455	2624.88
448.675	2672.88
448.896	2737.88
449.117	2822.88
449.338	3025.88
449.559	3144.88
449.779	2847.88
450	2661.88
450.221	2591.88
450.442	2574.88
450.662	2587.88
450.883	2590.88
451.104	2553.88
451.324	2566.88
451.545	2580.88
451.766	2585.88
451.986	2605.88
452.207	2852.88
452.428	3708.88
452.648	5734.88
452.869	4813.88
453.089	3232.88
453.31	3049.88
453.53	2996.88
453.751	3099.88
453.971	3218.88
454.192	3142.88
454.412	2762.88
454.633	2553.88
454.853	2523.88
455.073	2499.88
455.294	2460.88
455.514	2421.88
455.734	2464.88
455.955	2421.88
456.175	2395.88
456.395	2408.88
456.616	2409.88
456.836	2471.88
457.056	2503.88
457.276	2480.88
457.497	2640.88
457.717	2654.88
457.937	2615.88
458.157	2534.88
458.377	2589.88
458.598	2611.88
458.818	2612.88
459.038	2619.88
459.258	2573.88
459.478	2627.88
459.698	2683.88
459.918	2746.88
460.138	2769.88
460.358	2784.88
460.578	2869.88
460.798	2872.88
461.018	2850.88
461.238	2896.88
461.458	2956.88
461.678	2883.88
461.898	3002.88
462.118	3045.88
462.338	3107.88
462.558	3074.88
462.777	3179.88
462.997	3300.88
463.217	3414.88
463.437	3531.88
463.657	3579.88
463.876	3576.88
464.096	3418.88
464.316	3238.88
464.536	3172.88
464.755	3049.88
464.975	3072.88
465.195	2915.88
465.414	2858.88
465.634	2785.88
465.854	2810.88
466.073	2693.88
466.293	2662.88
466.512	2676.88
466.732	2694.88
466.951	2837.88
467.171	3068.88
467.391	3002.88
467.61	2786.88
467.829	2632.88
468.049	2642.88
468.268	2617.88
468.488	2597.88
468.707	2612.88
468.927	2610.88
469.146	2593.88
469.365	2606.88
469.585	2688.88
469.804	2710.88
470.023	2762.88
470.243	2792.88
470.462	2932.88
470.681	3058.88
470.901	3428.88
471.12	3882.88
471.339	3850.88
471.558	3246.88
471.777	2954.88
471.997	2802.88
472.216	2720.88
472.435	2667.88
472.654	2681.88
472.873	2606.88
473.092	2647.88
473.311	2649.88
473.53	2656.88
473.749	2739.88
473.968	2834.88
474.187	2684.88
474.406	2575.88
474.625	2646.88
474.844	2641.88
475.063	2675.88
475.282	2620.88
475.501	2660.88
475.72	2679.88
475.939	2672.88
476.158	2749.88
476.377	2824.88
476.596	2779.88
476.814	2810.88
477.033	2745.88
477.252	2795.88
477.471	2812.88
477.69	2888.88
477.908	2902.88
478.127	2898.88
478.346	2953.88
478.564	3045.88
478.783	3061.88
479.002	3137.88
479.22	3106.88
479.439	3129.88
479.658	3153.88
479.876	3087.88
480.095	3157.88
480.313	3230.88
480.532	3280.88
480.751	3221.88
480.969	3225.88
481.188	3219.88
481.406	3167.88
481.624	3191.88
481.843	3204.88
482.061	3198.88
482.28	3145.88
482.498	3194.88
482.717	3154.88
482.935	3252.88
483.153	3256.88
483.372	3295.88
483.59	3317.88
483.808	3385.88
484.027	3425.88
484.245	3681.88
484.463	4128.88
484.681	4588.88
484.9	4193.88
485.118	3892.88
485.336	3787.88
485.554	3870.88
485.772	4081.88
485.99	4642.88
486.209	5010.88
486.427	4163.88
486.645	3707.88
486.863	3566.88
487.081	3524.88
487.299	3405.88
487.517	3425.88
487.735	3427.88
487.953	3381.88
488.171	3310.88
488.389	3368.88
488.607	3292.88
488.825	3334.88
489.043	3273.88
489.261	3257.88
489.479	3273.88
489.696	3221.88
489.914	3283.88
490.132	3241.88
490.35	3352.88
490.568	3368.88
490.786	3348.88
491.003	3372.88
491.221	3438.88
491.439	3467.88
491.657	3370.88
491.874	3430.88
492.092	3470.88
492.31	3468.88
492.527	3420.88
492.745	3384.88
492.963	3403.88
493.18	3403.88
493.398	3388.88
493.615	3434.88
493.833	3437.88
494.05	3449.88
494.268	3436.88
494.485	3495.88
494.703	3482.88
494.92	3425.88
495.138	3460.88
495.355	3450.88
495.573	3456.88
495.79	3481.88
496.008	3492.88
496.225	3547.88
496.442	3624.88
496.66	3652.88
496.877	3928.88
497.094	3937.88
497.312	3787.88
497.529	3724.88
497.746	3809.88
497.963	3803.88
498.181	3946.88
498.398	3971.88
498.615	4112.88
498.832	4223.88
499.049	4483.88
499.267	4807.88
499.484	5123.88
499.701	5102.88
499.918	5188.88
500.135	5493.88
500.352	5695.88
500.569	5860.88
500.786	5748.88
501.003	5505.88
501.22	5242.88
501.437	5126.88
501.654	4793.88
501.871	4593.88
502.088	4419.88
502.305	4212.88
502.522	4108.88
502.739	4036.88
502.956	3876.88
503.172	3810.88
503.389	3708.88
503.606	3688.88
503.823	3624.88
504.04	3607.88
504.256	3569.88
504.473	3542.88
504.69	3588.88
504.907	3532.88
505.123	3492.88
505.34	3406.88
505.557	3296.88
505.773	3234.88
505.99	3239.88
506.207	3149.88
506.423	3178.88
506.64	3102.88
506.856	3053.88
507.073	3061.88
507.289	3034.88
507.506	3008.88
507.722	3045.88
507.939	3021.88
508.155	2984.88
508.372	2965.88
508.588	2956.88
508.805	2951.88
509.021	2931.88
509.238	2978.88
509.454	3233.88
509.67	3432.88
509.887	3132.88
510.103	3028.88
510.319	2981.88
510.536	2941.88
510.752	2983.88
510.968	2893.88
511.184	2844.88
511.401	2840.88
511.617	2856.88
511.833	2901.88
512.049	2808.88
512.265	2860.88
512.481	2816.88
512.698	2826.88
512.914	2846.88
513.13	2868.88
513.346	2843.88
513.562	2847.88
513.778	2912.88
513.994	2944.88
514.21	2997.88
514.426	3192.88
514.642	3371.88
514.858	3045.88
515.074	2917.88
515.29	2946.88
515.506	2941.88
515.721	2909.88
515.937	2910.88
516.153	2983.88
516.369	2993.88
516.585	3080.88
516.801	3058.88
517.016	3087.88
517.232	3205.88
517.448	3229.88
517.664	3282.88
517.879	3256.88
518.095	3200.88
518.311	3205.88
518.527	3177.88
518.742	3181.88
518.958	3150.88
519.173	3300.88
519.389	3194.88
519.605	3000.88
519.82	2949.88
520.036	2979.88
520.251	2918.88
520.467	2858.88
520.682	2866.88
520.898	2798.88
521.113	2803.88
521.329	2790.88
521.544	2751.88
521.76	2791.88
521.975	2803.88
522.19	2776.88
522.406	2767.88
522.621	2718.88
522.836	2710.88
523.052	2787.88
523.267	2736.88
523.482	2708.88
523.698	2757.88
523.913	2742.88
524.128	2763.88
524.343	2769.88
524.559	2748.88
524.774	2744.88
524.989	2746.88
525.204	2756.88
525.419	2730.88
525.634	2713.88
525.849	2710.88
526.064	2758.88
526.28	2756.88
526.495	2686.88
526.71	2722.88
526.925	2764.88
527.14	2706.88
527.355	2760.88
527.57	2761.88
527.785	2771.88
527.999	2836.88
528.214	2807.88
528.429	2824.88
528.644	2814.88
528.859	2946.88
529.074	2862.88
529.289	3005.88
529.503	2933.88
529.718	2898.88
529.933	2876.88
530.148	2915.88
530.363	2917.88
530.577	2931.88
530.792	2930.88
531.007	2966.88
531.221	3027.88
531.436	3004.88
531.651	2988.88
531.865	3070.88
532.08	3142.88
532.295	3220.88
532.509	3439.88
532.724	3424.88
532.938	3469.88
533.153	3644.88
533.367	3868.88
533.582	4161.88
533.796	3998.88
534.011	3837.88
534.225	3716.88
534.44	3543.88
534.654	3474.88
534.868	3339.88
535.083	3350.88
535.297	3226.88
535.511	3182.88
535.726	3147.88
535.94	3077.88
536.154	3057.88
536.369	3013.88
536.583	2944.88
536.797	2935.88
537.011	2948.88
537.225	2883.88
537.44	2870.88
537.654	2835.88
537.868	2852.88
538.082	2770.88
538.296	2712.88
538.51	2785.88
538.724	2730.88
538.938	2725.88
539.153	2668.88
539.367	2697.88
539.581	2702.88
539.795	2617.88
540.009	2636.88
540.222	2630.88
540.436	2600.88
540.65	2613.88
540.864	2680.88
541.078	2739.88
541.292	2915.88
541.506	3413.88
541.72	3577.88
541.934	3073.88
542.147	2920.88
542.361	2800.88
542.575	2701.88
542.789	2642.88
543.002	2553.88
543.216	2568.88
543.43	2565.88
543.644	2536.88
543.857	2544.88
544.071	2572.88
544.285	2600.88
544.498	2561.88
544.712	2583.88
544.925	2613.88
545.139	2561.88
545.352	2571.88
545.566	2590.88
545.779	2553.88
545.993	2546.88
546.206	2615.88
546.42	2576.88
546.633	2571.88
546.847	2598.88
547.06	2575.88
547.274	2538.88
547.487	2584.88
547.7	2609.88
547.914	2565.88
548.127	2571.88
548.34	2599.88
548.554	2603.88
548.767	2596.88
548.98	2591.88
549.193	2580.88
549.407	2574.88
549.62	2548.88
549.833	2570.88
550.046	2591.88
550.259	2570.88
550.473	2556.88
550.686	2574.88
550.899	2620.88
551.112	2565.88
551.325	2572.88
551.538	2534.88
551.751	2569.88
551.964	2561.88
552.177	2620.88
552.39	2689.88
552.603	2687.88
552.816	2711.88
553.029	2787.88
553.242	2825.88
553.455	2806.88
553.667	2874.88
553.88	2886.88
554.093	2915.88
554.306	2948.88
554.519	2953.88
554.732	2934.88
554.944	2988.88
555.157	3145.88
555.37	3202.88
555.583	3363.88
555.795	3490.88
556.008	3780.88
556.221	4327.88
556.433	4571.88
556.646	4602.88
556.859	4357.88
557.071	4248.88
557.284	4100.88
557.496	3922.88
557.709	3871.88
557.921	3829.88
558.134	3809.88
558.346	3916.88
558.559	4047.88
558.771	4294.88
558.984	4725.88
559.196	5069.88
559.409	4800.88
559.621	4359.88
559.833	4100.88
560.046	3815.88
560.258	3714.88
560.47	3473.88
560.683	3298.88
560.895	3177.88
561.107	3100.88
561.32	3007.88
561.532	2956.88
561.744	2808.88
561.956	2726.88
562.168	2760.88
562.381	2718.88
562.593	2693.88
562.805	2753.88
563.017	2819.88
563.229	2844.88
563.441	3296.88
563.653	2706.88
563.865	2540.88
564.077	2510.88
564.289	2407.88
564.501	2414.88
564.713	2416.88
564.925	2388.88
565.137	2384.88
565.349	2385.88
565.561	2417.88
565.773	2401.88
565.985	2421.88
566.197	2431.88
566.408	2491.88
566.62	2518.88
566.832	2626.88
567.044	2654.88
567.255	2602.88
567.467	2666.88
567.679	2696.88
567.891	2876.88
568.102	3199.88
568.314	3634.88
568.526	3138.88
568.737	2804.88
568.949	2514.88
569.161	2360.88
569.372	2273.88
569.584	2208.88
569.795	2139.88
570.007	2174.88
570.218	2218.88
570.43	2271.88
570.641	2109.88
570.853	2020.88
571.064	2000.88
571.276	1985.88
571.487	1932.88
571.698	1864.88
571.91	1904.88
572.121	1914.88
572.333	1877.88
572.544	1886.88
572.755	1998.88
572.966	2360.88
573.178	2159.88
573.389	1914.88
573.6	1847.88
573.811	1813.88
574.023	1783.88
574.234	1742.88
574.445	1764.88
574.656	1754.88
574.867	1730.88
575.078	1765.88
575.289	1776.88
575.501	1730.88
575.712	1699.88
575.923	1733.88
576.134	1725.88
576.345	1712.88
576.556	1729.88
576.767	1734.88
576.978	1741.88
577.188	1766.88
577.399	1749.88
577.61	1771.88
577.821	1758.88
578.032	1804.88
578.243	1848.88
578.454	1891.88
578.665	1937.88
578.875	1940.88
579.086	2016.88
579.297	2137.88
579.508	2282.88
579.718	2477.88
579.929	2860.88
580.14	3394.88
580.35	3478.88
580.561	3176.88
580.772	2817.88
580.982	2612.88
581.193	2409.88
581.403	2284.88
581.614	2188.88
581.825	2078.88
582.035	2011.88
582.246	1929.88
582.456	1860.88
582.667	1808.88
582.877	1824.88
583.087	1779.88
583.298	1666.88
583.508	1640.88
583.719	1630.88
583.929	1574.88
584.139	1560.88
584.35	1525.88
584.56	1506.88
584.77	1477.88
584.981	1478.88
585.191	1452.88
585.401	1405.88
585.611	1401.88
585.821	1373.88
586.032	1361.88
586.242	1373.88
586.452	1329.88
586.662	1326.88
586.872	1365.88
587.082	1313.88
587.292	1270.88
587.502	1310.88
587.713	1275.88
587.923	1236.88
588.133	1226.88
588.343	1227.88
588.553	1216.88
588.762	1226.88
588.972	1213.88
589.182	1278.88
589.392	1229.88
589.602	1193.88
589.812	1241.88
590.022	1182.88
590.232	1186.88
590.441	1208.88
590.651	1184.88
590.861	1200.88
591.071	1173.88
591.281	1176.88
591.49	1210.88
591.7	1205.88
591.91	1166.88
592.119	1188.88
592.329	1158.88
592.539	1213.88
592.748	1227.88
592.958	1229.88
593.167	1236.88
593.377	1248.88
593.587	1223.88
593.796	1229.88
594.006	1247.88
594.215	1245.88
594.424	1255.88
594.634	1207.88
594.843	1201.88
595.053	1179.88
595.262	1147.88
595.472	1170.88
595.681	1125.88
595.89	1089.88
596.1	1090.88
596.309	1074.88
596.518	1070.88
596.727	1068.88
596.937	1041.88
597.146	1050.88
597.355	1028.88
597.564	1035.88
597.774	1020.88
597.983	1037.88
598.192	1004.88
598.401	1013.88
598.61	984.88
598.819	973.88
599.028	960.88
599.237	980.88
599.446	956.88
599.655	984.88
599.864	947.88
600.073	930.88
600.282	951.88
600.491	953.88
600.7	970.88
600.909	933.88
601.118	937.88
601.327	942.88
601.536	994.88
601.745	990.88
601.953	1084.88
602.162	1234.88
602.371	1081.88
602.58	988.88
602.789	963.88
602.997	964.88
603.206	946.88
603.415	944.88
603.623	911.88
603.832	910.88
604.041	915.88
604.249	897.88
604.458	894.88
604.666	903.88
604.875	873.88
605.084	899.88
605.292	924.88
605.501	912.88
605.709	902.88
605.918	902.88
606.126	933.88
606.334	908.88
606.543	933.88
606.751	1010.88
606.96	1155.88
607.168	1273.88
607.376	1065.88
607.585	980.88
607.793	950.88
608.001	922.88
608.21	898.88
608.418	888.88
608.626	888.88
608.834	886.88
609.043	887.88
609.251	900.88
609.459	863.88
609.667	859.88
609.875	856.88
610.083	848.88
610.291	847.88
610.499	838.88
610.707	819.88
610.916	846.88
611.124	860.88
611.332	836.88
611.54	818.88
611.748	859.88
611.955	834.88
612.163	821.88
612.371	800.88
612.579	801.88
612.787	809.88
612.995	765.88
613.203	825.88
613.411	827.88
613.618	791.88
613.826	788.88
614.034	786.88
614.242	818.88
614.449	793.88
614.657	799.88
614.865	809.88
615.072	817.88
615.28	822.88
615.488	832.88
615.695	795.88
615.903	807.88
616.111	778.88
616.318	810.88
616.526	810.88
616.733	811.88
616.941	791.88
617.148	795.88
617.356	808.88
617.563	773.88
617.771	804.88
617.978	741.88
618.185	749.88
618.393	756.88
618.6	752.88
618.807	760.88
619.015	795.88
619.222	772.88
619.429	768.88
619.637	738.88
619.844	741.88
620.051	736.88
620.258	736.88
620.466	726.88
620.673	721.88
620.88	700.88
621.087	723.88
621.294	695.88
621.501	678.88
621.708	696.88
621.915	716.88
622.122	705.88
622.329	701.88
622.536	710.88
622.743	732.88
622.95	712.88
623.157	691.88
623.364	710.88
623.571	697.88
623.778	691.88
623.985	693.88
624.192	685.88
624.399	702.88
624.606	677.88
624.812	691.88
625.019	673.88
625.226	664.88
625.433	673.88
625.639	672.88
625.846	665.88
626.053	632.88
626.259	668.88
626.466	640.88
626.673	632.88
626.879	619.88
627.086	646.88
627.293	660.88
627.499	659.88
627.706	629.88
627.912	652.88
628.119	651.88
628.325	649.88
628.532	630.88
628.738	652.88
628.945	636.88
629.151	593.88
629.357	625.88
629.564	593.88
629.77	613.88
629.976	621.88
630.183	636.88
630.389	590.88
630.595	620.88
630.802	612.88
631.008	585.88
631.214	621.88
631.42	614.88
631.627	615.88
631.833	598.88
632.039	600.88
632.245	599.88
632.451	608.88
632.657	586.88
632.863	589.88
633.069	603.88
633.275	584.88
633.481	579.88
633.688	581.88
633.893	585.88
634.099	606.88
634.305	613.88
634.511	589.88
634.717	583.88
634.923	628.88
635.129	704.88
635.335	786.88
635.541	697.88
635.747	644.88
635.952	604.88
636.158	641.88
636.364	600.88
636.57	580.88
636.775	584.88
636.981	593.88
637.187	588.88
637.392	610.88
637.598	589.88
637.804	576.88
638.009	590.88
638.215	582.88
638.421	596.88
638.626	600.88
638.832	602.88
639.037	583.88
639.243	590.88
639.448	593.88
639.654	610.88
639.859	617.88
640.065	636.88
640.27	624.88
640.475	650.88
640.681	648.88
640.886	635.88
641.091	628.88
641.297	637.88
641.502	617.88
641.707	649.88
641.913	646.88
642.118	668.88
642.323	678.88
642.528	708.88
642.733	719.88
642.939	726.88
643.144	740.88
643.349	760.88
643.554	809.88
643.759	842.88
643.964	878.88
644.169	913.88
644.374	1013.88
644.579	1097.88
644.784	1192.88
644.989	1345.88
645.194	1600.88
645.399	2007.88
645.604	2124.88
645.809	1575.88
646.014	1213.88
646.219	982.88
646.423	896.88
646.628	793.88
646.833	725.88
647.038	690.88
647.243	659.88
647.447	651.88
647.652	612.88
647.857	590.88
648.062	608.88
648.266	568.88
648.471	574.88
648.676	565.88
648.88	532.88
649.085	530.88
649.289	545.88
649.494	524.88
649.698	504.88
649.903	491.88
650.107	486.88
650.312	493.88
650.516	484.88
650.721	475.88
650.925	462.88
651.13	458.88
651.334	437.88
651.539	456.88
651.743	445.88
651.947	447.88
652.152	453.88
652.356	444.88
652.56	435.88
652.764	514.88
652.969	472.88
653.173	436.88
653.377	407.88
653.581	402.88
653.785	384.88
653.99	380.88
654.194	363.88
654.398	374.88
654.602	354.88
654.806	349.88
655.01	350.88
655.214	358.88
655.418	347.88
655.622	349.88
655.826	362.88
656.03	370.88
656.234	368.88
656.438	363.88
656.642	396.88
656.846	366.88
657.049	349.88
657.253	325.88
657.457	314.88
657.661	293.88
657.865	261.88
658.068	267.88
658.272	260.88
658.476	273.88
658.68	232.88
658.883	238.88
659.087	222.88
659.291	211.88
659.494	211.88
659.698	190.88
659.901	186.88
660.105	175.88
660.309	174.88
660.512	170.88
660.716	149.88
660.919	147.88
661.123	142.88
661.326	138.88
661.53	146.88
661.733	134.88
661.936	140.88
662.14	124.88
662.343	121.88
662.546	113.88
662.75	124.88
662.953	112.88
663.156	112.88
663.36	109.88
663.563	107.88
663.766	93.88
663.969	90.88
664.173	91.88
664.376	90.88
664.579	90.88
664.782	97.88
664.985	85.88
665.188	75.88
665.391	85.88
665.594	83.88
665.797	85.88
666	82.88
666.203	83.88
666.406	98.88
666.609	89.88
666.812	82.88
667.015	98.88
667.218	101.88
667.421	86.88
667.624	85.88
667.827	91.88
668.03	99.88
668.232	93.88
668.435	101.88
668.638	78.88
668.841	81.88
669.043	75.88
669.246	83.88
669.449	89.88
669.651	82.88
669.854	76.88
670.057	74.88
670.259	82.88
670.462	87.88
670.665	79.88
670.867	75.88
671.07	89.88
671.272	84.88
671.475	92.88
671.677	85.88
671.88	95.88
672.082	87.88
672.284	86.88
672.487	85.88
672.689	84.88
672.892	88.88
