Data from SnStandardFlinnAPT0064_LampEnergy5.5_LIBS07252019.E.O._I.C._HRD10591_15-16-42-491.txt Node
Date: Thu Jul 25 15:16:42 EDT 2019
User: cochatt
Spectrometer: HR+D1059
Trigger mode: 1
Integration Time (sec): 1.000000E-1
Scans to average: 1
Electric dark correction enabled: true
Nonlinearity correction enabled: false
Boxcar width: 0
XAxis mode: Wavelengths
Number of Pixels in Spectrum: 2048
>>>>>Begin Spectral Data<<<<<
223.165	-15.12
223.4	-15.12
223.635	-15.12
223.869	-14.12
224.104	-32.12
224.338	-12.12
224.573	-0.12
224.808	-9.12
225.042	-16.12
225.277	-3.12
225.511	-11.12
225.746	10.88
225.98	17.88
226.215	17.88
226.449	14.88
226.683	21.88
226.918	10.88
227.152	18.88
227.387	37.88
227.621	30.88
227.856	40.88
228.09	39.88
228.324	59.88
228.559	53.88
228.793	85.88
229.027	148.88
229.262	178.88
229.496	146.88
229.73	144.88
229.964	165.88
230.199	148.88
230.433	166.88
230.667	162.88
230.901	172.88
231.136	176.88
231.37	179.88
231.604	190.88
231.838	201.88
232.072	234.88
232.306	256.88
232.541	228.88
232.775	219.88
233.009	188.88
233.243	211.88
233.477	223.88
233.711	227.88
233.945	275.88
234.179	235.88
234.413	223.88
234.647	219.88
234.881	219.88
235.115	255.88
235.349	278.88
235.583	349.88
235.817	426.88
236.051	440.88
236.285	296.88
236.519	256.88
236.753	220.88
236.987	239.88
237.221	265.88
237.455	238.88
237.689	215.88
237.922	217.88
238.156	240.88
238.39	230.88
238.624	244.88
238.858	229.88
239.091	241.88
239.325	239.88
239.559	251.88
239.793	227.88
240.027	244.88
240.26	246.88
240.494	265.88
240.728	261.88
240.961	267.88
241.195	284.88
241.429	314.88
241.662	324.88
241.896	354.88
242.13	399.88
242.363	528.88
242.597	664.88
242.83	644.88
243.064	642.88
243.298	786.88
243.531	635.88
243.765	406.88
243.998	346.88
244.232	307.88
244.465	306.88
244.699	290.88
244.932	300.88
245.166	317.88
245.399	291.88
245.633	308.88
245.866	300.88
246.099	291.88
246.333	305.88
246.566	310.88
246.8	290.88
247.033	292.88
247.266	298.88
247.5	287.88
247.733	320.88
247.966	307.88
248.2	342.88
248.433	376.88
248.666	423.88
248.899	405.88
249.133	361.88
249.366	371.88
249.599	414.88
249.832	472.88
250.066	454.88
250.299	392.88
250.532	357.88
250.765	340.88
250.998	336.88
251.231	350.88
251.465	365.88
251.698	329.88
251.931	350.88
252.164	335.88
252.397	352.88
252.63	370.88
252.863	357.88
253.096	345.88
253.329	333.88
253.562	357.88
253.795	358.88
254.028	348.88
254.261	358.88
254.494	389.88
254.727	460.88
254.96	503.88
255.193	520.88
255.426	417.88
255.659	366.88
255.892	384.88
256.124	400.88
256.357	377.88
256.59	403.88
256.823	411.88
257.056	474.88
257.289	549.88
257.521	597.88
257.754	500.88
257.987	424.88
258.22	411.88
258.452	411.88
258.685	401.88
258.918	422.88
259.151	418.88
259.383	474.88
259.616	492.88
259.849	516.88
260.081	472.88
260.314	439.88
260.547	426.88
260.779	425.88
261.012	445.88
261.244	447.88
261.477	442.88
261.71	455.88
261.942	451.88
262.175	454.88
262.407	457.88
262.64	467.88
262.872	479.88
263.105	501.88
263.337	539.88
263.57	573.88
263.802	576.88
264.035	589.88
264.267	570.88
264.499	621.88
264.732	648.88
264.964	629.88
265.197	628.88
265.429	624.88
265.661	649.88
265.894	691.88
266.126	768.88
266.358	826.88
266.591	808.88
266.823	691.88
267.055	644.88
267.287	604.88
267.52	599.88
267.752	585.88
267.984	577.88
268.216	561.88
268.448	556.88
268.681	558.88
268.913	538.88
269.145	522.88
269.377	553.88
269.609	560.88
269.841	566.88
270.073	602.88
270.306	683.88
270.538	926.88
270.77	1358.88
271.002	1582.88
271.234	1089.88
271.466	748.88
271.698	624.88
271.93	574.88
272.162	578.88
272.394	552.88
272.626	546.88
272.858	548.88
273.09	512.88
273.322	526.88
273.553	528.88
273.785	519.88
274.017	542.88
274.249	532.88
274.481	525.88
274.713	534.88
274.945	504.88
275.176	539.88
275.408	542.88
275.64	517.88
275.872	530.88
276.104	570.88
276.335	547.88
276.567	558.88
276.799	546.88
277.031	554.88
277.262	614.88
277.494	575.88
277.726	645.88
277.957	722.88
278.189	810.88
278.421	786.88
278.652	684.88
278.884	691.88
279.115	648.88
279.347	624.88
279.579	616.88
279.81	604.88
280.042	596.88
280.273	614.88
280.505	633.88
280.736	620.88
280.968	658.88
281.199	728.88
281.431	814.88
281.662	776.88
281.894	700.88
282.125	691.88
282.356	688.88
282.588	689.88
282.819	700.88
283.051	777.88
283.282	823.88
283.513	1024.88
283.745	1472.88
283.976	2323.88
284.207	3328.88
284.439	2894.88
284.67	1733.88
284.901	1391.88
285.132	1393.88
285.364	1346.88
285.595	1056.88
285.826	980.88
286.057	1153.88
286.288	1573.88
286.52	2114.88
286.751	1948.88
286.982	1192.88
287.213	933.88
287.444	807.88
287.675	752.88
287.906	745.88
288.138	734.88
288.369	706.88
288.6	708.88
288.831	717.88
289.062	700.88
289.293	701.88
289.524	722.88
289.755	715.88
289.986	707.88
290.217	744.88
290.448	726.88
290.679	737.88
290.91	748.88
291.141	775.88
291.371	785.88
291.602	861.88
291.833	770.88
292.064	726.88
292.295	712.88
292.526	709.88
292.757	704.88
292.987	675.88
293.218	676.88
293.449	690.88
293.68	701.88
293.91	672.88
294.141	682.88
294.372	681.88
294.603	671.88
294.833	680.88
295.064	700.88
295.295	699.88
295.525	628.88
295.756	662.88
295.987	689.88
296.217	688.88
296.448	675.88
296.679	686.88
296.909	689.88
297.14	680.88
297.37	686.88
297.601	691.88
297.831	683.88
298.062	695.88
298.292	712.88
298.523	714.88
298.753	722.88
298.984	722.88
299.214	724.88
299.445	720.88
299.675	740.88
299.905	775.88
300.136	788.88
300.366	856.88
300.597	1123.88
300.827	1541.88
301.057	2118.88
301.288	2096.88
301.518	1351.88
301.748	1045.88
301.979	948.88
302.209	925.88
302.439	932.88
302.669	957.88
302.9	1184.88
303.13	1637.88
303.36	2418.88
303.59	3264.88
303.82	2801.88
304.051	1574.88
304.281	1139.88
304.511	994.88
304.741	912.88
304.971	879.88
305.201	836.88
305.431	810.88
305.661	811.88
305.891	804.88
306.121	780.88
306.352	804.88
306.582	796.88
306.812	796.88
307.042	779.88
307.272	775.88
307.502	783.88
307.731	792.88
307.961	780.88
308.191	767.88
308.421	794.88
308.651	781.88
308.881	736.88
309.111	770.88
309.341	784.88
309.571	771.88
309.8	803.88
310.03	789.88
310.26	804.88
310.49	810.88
310.72	788.88
310.949	810.88
311.179	808.88
311.409	822.88
311.639	830.88
311.868	816.88
312.098	799.88
312.328	816.88
312.557	846.88
312.787	840.88
313.017	868.88
313.246	824.88
313.476	847.88
313.706	871.88
313.935	927.88
314.165	928.88
314.394	998.88
314.624	955.88
314.853	930.88
315.083	894.88
315.312	911.88
315.542	930.88
315.771	953.88
316.001	947.88
316.23	954.88
316.46	1024.88
316.689	1085.88
316.919	1317.88
317.148	1868.88
317.377	2900.88
317.607	4257.88
317.836	4382.88
318.065	2544.88
318.295	1632.88
318.524	1303.88
318.753	1163.88
318.983	1076.88
319.212	1030.88
319.441	1022.88
319.67	992.88
319.9	974.88
320.129	978.88
320.358	991.88
320.587	977.88
320.816	978.88
321.046	980.88
321.275	971.88
321.504	992.88
321.733	1009.88
321.962	994.88
322.191	1045.88
322.42	1010.88
322.649	1025.88
322.878	1047.88
323.108	1035.88
323.337	1066.88
323.566	1083.88
323.795	1096.88
324.024	1090.88
324.253	1108.88
324.482	1148.88
324.71	1218.88
324.939	1306.88
325.168	1275.88
325.397	1376.88
325.626	1598.88
325.855	2228.88
326.084	3529.88
326.313	5279.88
326.542	5542.88
326.77	3443.88
326.999	2225.88
327.228	1875.88
327.457	1810.88
327.686	1814.88
327.914	1915.88
328.143	2273.88
328.372	2593.88
328.6	2813.88
328.829	2579.88
329.058	2184.88
329.287	2002.88
329.515	1828.88
329.744	1698.88
329.972	1622.88
330.201	1544.88
330.43	1490.88
330.658	1478.88
330.887	1455.88
331.115	1433.88
331.344	1429.88
331.572	1347.88
331.801	1412.88
332.03	1432.88
332.258	1443.88
332.486	1473.88
332.715	1708.88
332.943	2069.88
333.172	2538.88
333.4	2498.88
333.629	1970.88
333.857	1768.88
334.085	1746.88
334.314	1867.88
334.542	1990.88
334.771	2307.88
334.999	2791.88
335.227	3407.88
335.455	3812.88
335.684	3467.88
335.912	2929.88
336.14	2501.88
336.369	2261.88
336.597	2042.88
336.825	1908.88
337.053	1803.88
337.281	1698.88
337.51	1616.88
337.738	1558.88
337.966	1514.88
338.194	1459.88
338.422	1420.88
338.65	1397.88
338.878	1347.88
339.106	1338.88
339.334	1353.88
339.562	1299.88
339.79	1254.88
340.018	1282.88
340.246	1287.88
340.474	1266.88
340.702	1246.88
340.93	1227.88
341.158	1290.88
341.386	1238.88
341.614	1250.88
341.842	1208.88
342.07	1210.88
342.298	1165.88
342.526	1144.88
342.754	1143.88
342.981	1164.88
343.209	1143.88
343.437	1179.88
343.665	1170.88
343.893	1187.88
344.12	1217.88
344.348	1151.88
344.576	1174.88
344.804	1140.88
345.031	1123.88
345.259	1075.88
345.487	1080.88
345.714	1086.88
345.942	1082.88
346.17	1095.88
346.397	1082.88
346.625	1071.88
346.853	1061.88
347.08	1059.88
347.308	1070.88
347.535	1084.88
347.763	1080.88
347.99	1039.88
348.218	1060.88
348.445	1029.88
348.673	1024.88
348.9	1051.88
349.128	1038.88
349.355	1064.88
349.583	1044.88
349.81	1008.88
350.037	1051.88
350.265	1032.88
350.492	1023.88
350.72	1033.88
350.947	1028.88
351.174	1009.88
351.402	1040.88
351.629	1007.88
351.856	1024.88
352.083	1035.88
352.311	1019.88
352.538	1002.88
352.765	1029.88
352.992	1041.88
353.22	1020.88
353.447	1017.88
353.674	1032.88
353.901	1023.88
354.128	1034.88
354.355	1022.88
354.583	1042.88
354.81	1035.88
355.037	1055.88
355.264	1050.88
355.491	1060.88
355.718	1027.88
355.945	1041.88
356.172	1042.88
356.399	1040.88
356.626	1027.88
356.853	1038.88
357.08	1068.88
357.307	1073.88
357.534	1119.88
357.761	1103.88
357.988	1099.88
358.215	1072.88
358.441	1072.88
358.668	1073.88
358.895	1079.88
359.122	1073.88
359.349	1086.88
359.576	1061.88
359.802	1090.88
360.029	1092.88
360.256	1091.88
360.483	1074.88
360.709	1066.88
360.936	1092.88
361.163	1095.88
361.39	1092.88
361.616	1094.88
361.843	1086.88
362.07	1072.88
362.296	1067.88
362.523	1075.88
362.749	1062.88
362.976	1072.88
363.203	1122.88
363.429	1065.88
363.656	1079.88
363.882	1087.88
364.109	1081.88
364.335	1091.88
364.562	1082.88
364.788	1074.88
365.015	1111.88
365.241	1109.88
365.468	1154.88
365.694	1199.88
365.92	1150.88
366.147	1089.88
366.373	1104.88
366.599	1094.88
366.826	1101.88
367.052	1090.88
367.278	1092.88
367.505	1114.88
367.731	1095.88
367.957	1128.88
368.184	1122.88
368.41	1091.88
368.636	1123.88
368.862	1126.88
369.089	1114.88
369.315	1148.88
369.541	1110.88
369.767	1144.88
369.993	1120.88
370.219	1077.88
370.445	1122.88
370.672	1152.88
370.898	1176.88
371.124	1160.88
371.35	1161.88
371.576	1174.88
371.802	1178.88
372.028	1173.88
372.254	1172.88
372.48	1179.88
372.706	1198.88
372.932	1179.88
373.158	1182.88
373.384	1195.88
373.61	1175.88
373.835	1198.88
374.061	1206.88
374.287	1210.88
374.513	1206.88
374.739	1198.88
374.965	1228.88
375.191	1236.88
375.416	1236.88
375.642	1208.88
375.868	1208.88
376.094	1188.88
376.319	1184.88
376.545	1192.88
376.771	1147.88
376.997	1170.88
377.222	1139.88
377.448	1148.88
377.674	1166.88
377.899	1160.88
378.125	1174.88
378.35	1162.88
378.576	1172.88
378.802	1165.88
379.027	1193.88
379.253	1234.88
379.478	1265.88
379.704	1437.88
379.929	2095.88
380.155	3105.88
380.38	3357.88
380.606	2054.88
380.831	1495.88
381.057	1287.88
381.282	1220.88
381.507	1222.88
381.733	1190.88
381.958	1164.88
382.184	1182.88
382.409	1145.88
382.634	1163.88
382.86	1143.88
383.085	1147.88
383.31	1152.88
383.535	1165.88
383.761	1148.88
383.986	1180.88
384.211	1172.88
384.436	1187.88
384.662	1199.88
384.887	1193.88
385.112	1172.88
385.337	1235.88
385.562	1179.88
385.787	1192.88
386.013	1202.88
386.238	1199.88
386.463	1186.88
386.688	1200.88
386.913	1168.88
387.138	1177.88
387.363	1195.88
387.588	1178.88
387.813	1217.88
388.038	1195.88
388.263	1201.88
388.488	1202.88
388.713	1172.88
388.938	1229.88
389.163	1170.88
389.387	1200.88
389.612	1186.88
389.837	1157.88
390.062	1210.88
390.287	1193.88
390.512	1206.88
390.736	1188.88
390.961	1215.88
391.186	1243.88
391.411	1259.88
391.636	1227.88
391.86	1254.88
392.085	1283.88
392.31	1226.88
392.534	1234.88
392.759	1224.88
392.984	1208.88
393.208	1249.88
393.433	1266.88
393.658	1269.88
393.882	1212.88
394.107	1198.88
394.331	1233.88
394.556	1229.88
394.78	1217.88
395.005	1240.88
395.229	1188.88
395.454	1233.88
395.678	1253.88
395.903	1222.88
396.127	1240.88
396.352	1241.88
396.576	1255.88
396.801	1254.88
397.025	1273.88
397.249	1255.88
397.474	1290.88
397.698	1278.88
397.922	1305.88
398.147	1262.88
398.371	1321.88
398.595	1319.88
398.82	1387.88
399.044	1402.88
399.268	1480.88
399.492	1542.88
399.717	1580.88
399.941	1594.88
400.165	1536.88
400.389	1462.88
400.613	1404.88
400.837	1387.88
401.062	1335.88
401.286	1321.88
401.51	1355.88
401.734	1332.88
401.958	1352.88
402.182	1320.88
402.406	1342.88
402.63	1334.88
402.854	1363.88
403.078	1366.88
403.302	1360.88
403.526	1356.88
403.75	1359.88
403.974	1352.88
404.198	1339.88
404.422	1399.88
404.645	1365.88
404.869	1346.88
405.093	1380.88
405.317	1373.88
405.541	1403.88
405.765	1408.88
405.988	1402.88
406.212	1404.88
406.436	1400.88
406.66	1441.88
406.883	1420.88
407.107	1409.88
407.331	1465.88
407.555	1507.88
407.778	1484.88
408.002	1454.88
408.226	1451.88
408.449	1460.88
408.673	1424.88
408.896	1401.88
409.12	1381.88
409.344	1403.88
409.567	1406.88
409.791	1406.88
410.014	1396.88
410.238	1338.88
410.461	1345.88
410.685	1370.88
410.908	1353.88
411.132	1350.88
411.355	1337.88
411.578	1346.88
411.802	1311.88
412.025	1321.88
412.249	1301.88
412.472	1342.88
412.695	1292.88
412.919	1313.88
413.142	1307.88
413.365	1291.88
413.589	1303.88
413.812	1312.88
414.035	1297.88
414.258	1311.88
414.482	1308.88
414.705	1294.88
414.928	1292.88
415.151	1311.88
415.374	1297.88
415.597	1276.88
415.821	1295.88
416.044	1247.88
416.267	1274.88
416.49	1263.88
416.713	1266.88
416.936	1251.88
417.159	1275.88
417.382	1252.88
417.605	1228.88
417.828	1244.88
418.051	1261.88
418.274	1237.88
418.497	1289.88
418.72	1284.88
418.943	1268.88
419.166	1350.88
419.389	1387.88
419.611	1353.88
419.834	1354.88
420.057	1313.88
420.28	1262.88
420.503	1250.88
420.726	1216.88
420.948	1250.88
421.171	1228.88
421.394	1247.88
421.617	1278.88
421.839	1288.88
422.062	1309.88
422.285	1254.88
422.507	1267.88
422.73	1300.88
422.953	1320.88
423.175	1306.88
423.398	1282.88
423.621	1254.88
423.843	1303.88
424.066	1255.88
424.288	1273.88
424.511	1266.88
424.733	1265.88
424.956	1253.88
425.178	1249.88
425.401	1235.88
425.623	1272.88
425.846	1240.88
426.068	1260.88
426.291	1224.88
426.513	1202.88
426.735	1209.88
426.958	1222.88
427.18	1162.88
427.402	1206.88
427.625	1154.88
427.847	1162.88
428.069	1151.88
428.292	1201.88
428.514	1165.88
428.736	1149.88
428.958	1162.88
429.181	1141.88
429.403	1159.88
429.625	1146.88
429.847	1162.88
430.069	1162.88
430.292	1220.88
430.514	1232.88
430.736	1225.88
430.958	1160.88
431.18	1164.88
431.402	1169.88
431.624	1137.88
431.846	1152.88
432.068	1143.88
432.29	1140.88
432.512	1146.88
432.734	1144.88
432.956	1138.88
433.178	1180.88
433.4	1207.88
433.622	1180.88
433.844	1193.88
434.066	1151.88
434.287	1155.88
434.509	1162.88
434.731	1196.88
434.953	1185.88
435.175	1217.88
435.397	1198.88
435.618	1183.88
435.84	1190.88
436.062	1148.88
436.284	1164.88
436.505	1160.88
436.727	1173.88
436.949	1143.88
437.17	1170.88
437.392	1146.88
437.614	1124.88
437.835	1115.88
438.057	1080.88
438.278	1109.88
438.5	1092.88
438.721	1138.88
438.943	1187.88
439.165	1219.88
439.386	1200.88
439.608	1187.88
439.829	1208.88
440.05	1206.88
440.272	1258.88
440.493	1191.88
440.715	1190.88
440.936	1194.88
441.158	1212.88
441.379	1219.88
441.6	1279.88
441.822	1298.88
442.043	1344.88
442.264	1386.88
442.486	1256.88
442.707	1240.88
442.928	1250.88
443.149	1248.88
443.371	1222.88
443.592	1231.88
443.813	1266.88
444.034	1279.88
444.255	1296.88
444.476	1290.88
444.698	1327.88
444.919	1349.88
445.14	1407.88
445.361	1334.88
445.582	1278.88
445.803	1235.88
446.024	1196.88
446.245	1245.88
446.466	1249.88
446.687	1205.88
446.908	1236.88
447.129	1192.88
447.35	1182.88
447.571	1176.88
447.792	1141.88
448.013	1164.88
448.234	1152.88
448.455	1141.88
448.675	1150.88
448.896	1204.88
449.117	1244.88
449.338	1318.88
449.559	1371.88
449.779	1228.88
450	1134.88
450.221	1138.88
450.442	1124.88
450.662	1115.88
450.883	1110.88
451.104	1124.88
451.324	1124.88
451.545	1119.88
451.766	1113.88
451.986	1120.88
452.207	1186.88
452.428	1456.88
452.648	2015.88
452.869	1723.88
453.089	1284.88
453.31	1218.88
453.53	1227.88
453.751	1283.88
453.971	1331.88
454.192	1350.88
454.412	1176.88
454.633	1120.88
454.853	1094.88
455.073	1051.88
455.294	1080.88
455.514	1073.88
455.734	1070.88
455.955	1056.88
456.175	1065.88
456.395	1058.88
456.616	1074.88
456.836	1089.88
457.056	1063.88
457.276	1076.88
457.497	1150.88
457.717	1137.88
457.937	1131.88
458.157	1158.88
458.377	1112.88
458.598	1116.88
458.818	1104.88
459.038	1089.88
459.258	1134.88
459.478	1152.88
459.698	1169.88
459.918	1159.88
460.138	1186.88
460.358	1222.88
460.578	1272.88
460.798	1268.88
461.018	1225.88
461.238	1270.88
461.458	1288.88
461.678	1259.88
461.898	1258.88
462.118	1293.88
462.338	1299.88
462.558	1347.88
462.777	1377.88
462.997	1384.88
463.217	1449.88
463.437	1502.88
463.657	1494.88
463.876	1485.88
464.096	1412.88
464.316	1360.88
464.536	1339.88
464.755	1329.88
464.975	1306.88
465.195	1288.88
465.414	1204.88
465.634	1201.88
465.854	1201.88
466.073	1179.88
466.293	1169.88
466.512	1134.88
466.732	1195.88
466.951	1214.88
467.171	1302.88
467.391	1259.88
467.61	1186.88
467.829	1142.88
468.049	1107.88
468.268	1119.88
468.488	1128.88
468.707	1112.88
468.927	1106.88
469.146	1126.88
469.365	1181.88
469.585	1142.88
469.804	1177.88
470.023	1188.88
470.243	1208.88
470.462	1238.88
470.681	1289.88
470.901	1420.88
471.12	1610.88
471.339	1628.88
471.558	1370.88
471.777	1260.88
471.997	1200.88
472.216	1154.88
472.435	1139.88
472.654	1145.88
472.873	1129.88
473.092	1116.88
473.311	1138.88
473.53	1168.88
473.749	1155.88
473.968	1164.88
474.187	1156.88
474.406	1135.88
474.625	1112.88
474.844	1125.88
475.063	1131.88
475.282	1131.88
475.501	1133.88
475.72	1178.88
475.939	1143.88
476.158	1198.88
476.377	1191.88
476.596	1181.88
476.814	1165.88
477.033	1187.88
477.252	1224.88
477.471	1225.88
477.69	1259.88
477.908	1279.88
478.127	1297.88
478.346	1296.88
478.564	1321.88
478.783	1324.88
479.002	1359.88
479.22	1301.88
479.439	1374.88
479.658	1298.88
479.876	1373.88
480.095	1375.88
480.313	1416.88
480.532	1414.88
480.751	1394.88
480.969	1366.88
481.188	1350.88
481.406	1350.88
481.624	1312.88
481.843	1318.88
482.061	1364.88
482.28	1361.88
482.498	1366.88
482.717	1324.88
482.935	1350.88
483.153	1363.88
483.372	1402.88
483.59	1447.88
483.808	1428.88
484.027	1447.88
484.245	1543.88
484.463	1737.88
484.681	1897.88
484.9	1718.88
485.118	1589.88
485.336	1554.88
485.554	1574.88
485.772	1671.88
485.99	1904.88
486.209	2118.88
486.427	1753.88
486.645	1562.88
486.863	1523.88
487.081	1487.88
487.299	1448.88
487.517	1471.88
487.735	1446.88
487.953	1476.88
488.171	1491.88
488.389	1448.88
488.607	1433.88
488.825	1407.88
489.043	1375.88
489.261	1382.88
489.479	1410.88
489.696	1414.88
489.914	1420.88
490.132	1418.88
490.35	1445.88
490.568	1463.88
490.786	1412.88
491.003	1499.88
491.221	1506.88
491.439	1510.88
491.657	1509.88
491.874	1518.88
492.092	1545.88
492.31	1557.88
492.527	1533.88
492.745	1494.88
492.963	1538.88
493.18	1516.88
493.398	1504.88
493.615	1488.88
493.833	1515.88
494.05	1511.88
494.268	1536.88
494.485	1521.88
494.703	1537.88
494.92	1523.88
495.138	1492.88
495.355	1521.88
495.573	1507.88
495.79	1528.88
496.008	1525.88
496.225	1554.88
496.442	1537.88
496.66	1603.88
496.877	1658.88
497.094	1648.88
497.312	1634.88
497.529	1598.88
497.746	1599.88
497.963	1641.88
498.181	1653.88
498.398	1671.88
498.615	1754.88
498.832	1790.88
499.049	1911.88
499.267	2032.88
499.484	2183.88
499.701	2211.88
499.918	2250.88
500.135	2396.88
500.352	2452.88
500.569	2536.88
500.786	2523.88
501.003	2406.88
501.22	2292.88
501.437	2190.88
501.654	2044.88
501.871	1970.88
502.088	1886.88
502.305	1817.88
502.522	1806.88
502.739	1735.88
502.956	1716.88
503.172	1663.88
503.389	1594.88
503.606	1588.88
503.823	1567.88
504.04	1523.88
504.256	1544.88
504.473	1539.88
504.69	1555.88
504.907	1552.88
505.123	1481.88
505.34	1434.88
505.557	1395.88
505.773	1437.88
505.99	1434.88
506.207	1374.88
506.423	1347.88
506.64	1371.88
506.856	1356.88
507.073	1316.88
507.289	1347.88
507.506	1346.88
507.722	1323.88
507.939	1322.88
508.155	1293.88
508.372	1283.88
508.588	1308.88
508.805	1282.88
509.021	1283.88
509.238	1301.88
509.454	1359.88
509.67	1450.88
509.887	1340.88
510.103	1268.88
510.319	1285.88
510.536	1271.88
510.752	1259.88
510.968	1220.88
511.184	1240.88
511.401	1241.88
511.617	1220.88
511.833	1206.88
512.049	1219.88
512.265	1227.88
512.481	1220.88
512.698	1216.88
512.914	1193.88
513.13	1213.88
513.346	1210.88
513.562	1233.88
513.778	1230.88
513.994	1222.88
514.21	1287.88
514.426	1337.88
514.642	1347.88
514.858	1299.88
515.074	1268.88
515.29	1242.88
515.506	1224.88
515.721	1242.88
515.937	1248.88
516.153	1278.88
516.369	1263.88
516.585	1303.88
516.801	1307.88
517.016	1332.88
517.232	1326.88
517.448	1400.88
517.664	1372.88
517.879	1416.88
518.095	1385.88
518.311	1356.88
518.527	1370.88
518.742	1340.88
518.958	1364.88
519.173	1399.88
519.389	1303.88
519.605	1282.88
519.82	1250.88
520.036	1278.88
520.251	1216.88
520.467	1239.88
520.682	1218.88
520.898	1216.88
521.113	1229.88
521.329	1202.88
521.544	1194.88
521.76	1225.88
521.975	1173.88
522.19	1176.88
522.406	1193.88
522.621	1227.88
522.836	1180.88
523.052	1219.88
523.267	1184.88
523.482	1200.88
523.698	1199.88
523.913	1171.88
524.128	1207.88
524.343	1203.88
524.559	1164.88
524.774	1199.88
524.989	1177.88
525.204	1187.88
525.419	1189.88
525.634	1152.88
525.849	1188.88
526.064	1172.88
526.28	1168.88
526.495	1156.88
526.71	1180.88
526.925	1171.88
527.14	1177.88
527.355	1183.88
527.57	1185.88
527.785	1173.88
527.999	1150.88
528.214	1191.88
528.429	1206.88
528.644	1215.88
528.859	1254.88
529.074	1259.88
529.289	1288.88
529.503	1285.88
529.718	1242.88
529.933	1230.88
530.148	1263.88
530.363	1245.88
530.577	1227.88
530.792	1208.88
531.007	1268.88
531.221	1264.88
531.436	1247.88
531.651	1259.88
531.865	1250.88
532.08	1321.88
532.295	1369.88
532.509	1407.88
532.724	1406.88
532.938	1402.88
533.153	1433.88
533.367	1566.88
533.582	1603.88
533.796	1591.88
534.011	1543.88
534.225	1438.88
534.44	1456.88
534.654	1438.88
534.868	1373.88
535.083	1351.88
535.297	1388.88
535.511	1346.88
535.726	1337.88
535.94	1300.88
536.154	1294.88
536.369	1250.88
536.583	1247.88
536.797	1214.88
537.011	1203.88
537.225	1206.88
537.44	1198.88
537.654	1175.88
537.868	1200.88
538.082	1170.88
538.296	1158.88
538.51	1161.88
538.724	1186.88
538.938	1204.88
539.153	1189.88
539.367	1178.88
539.581	1110.88
539.795	1141.88
540.009	1102.88
540.222	1116.88
540.436	1134.88
540.65	1150.88
540.864	1149.88
541.078	1207.88
541.292	1248.88
541.506	1492.88
541.72	1549.88
541.934	1377.88
542.147	1282.88
542.361	1198.88
542.575	1158.88
542.789	1160.88
543.002	1145.88
543.216	1090.88
543.43	1129.88
543.644	1113.88
543.857	1116.88
544.071	1154.88
544.285	1128.88
544.498	1140.88
544.712	1126.88
544.925	1147.88
545.139	1166.88
545.352	1146.88
545.566	1160.88
545.779	1164.88
545.993	1153.88
546.206	1160.88
546.42	1151.88
546.633	1160.88
546.847	1140.88
547.06	1154.88
547.274	1174.88
547.487	1151.88
547.7	1170.88
547.914	1195.88
548.127	1127.88
548.34	1156.88
548.554	1172.88
548.767	1162.88
548.98	1178.88
549.193	1152.88
549.407	1150.88
549.62	1165.88
549.833	1139.88
550.046	1150.88
550.259	1174.88
550.473	1130.88
550.686	1151.88
550.899	1154.88
551.112	1163.88
551.325	1113.88
551.538	1146.88
551.751	1116.88
551.964	1113.88
552.177	1114.88
552.39	1178.88
552.603	1228.88
552.816	1194.88
553.029	1208.88
553.242	1185.88
553.455	1238.88
553.667	1232.88
553.88	1252.88
554.093	1242.88
554.306	1241.88
554.519	1278.88
554.732	1295.88
554.944	1311.88
555.157	1322.88
555.37	1360.88
555.583	1368.88
555.795	1475.88
556.008	1557.88
556.221	1634.88
556.433	1756.88
556.646	1728.88
556.859	1676.88
557.071	1639.88
557.284	1611.88
557.496	1582.88
557.709	1514.88
557.921	1550.88
558.134	1539.88
558.346	1543.88
558.559	1576.88
558.771	1689.88
558.984	1796.88
559.196	1939.88
559.409	1810.88
559.621	1686.88
559.833	1608.88
560.046	1536.88
560.258	1492.88
560.47	1432.88
560.683	1360.88
560.895	1344.88
561.107	1312.88
561.32	1266.88
561.532	1224.88
561.744	1221.88
561.956	1207.88
562.168	1167.88
562.381	1165.88
562.593	1147.88
562.805	1172.88
563.017	1145.88
563.229	1184.88
563.441	1257.88
563.653	1128.88
563.865	1078.88
564.077	1056.88
564.289	1066.88
564.501	1042.88
564.713	1055.88
564.925	1054.88
565.137	1067.88
565.349	1043.88
565.561	1056.88
565.773	1078.88
565.985	1106.88
566.197	1088.88
566.408	1134.88
566.62	1144.88
566.832	1164.88
567.044	1156.88
567.255	1176.88
567.467	1195.88
567.679	1189.88
567.891	1270.88
568.102	1421.88
568.314	1616.88
568.526	1354.88
568.737	1179.88
568.949	1101.88
569.161	1036.88
569.372	991.88
569.584	952.88
569.795	955.88
570.007	963.88
570.218	975.88
570.43	971.88
570.641	914.88
570.853	889.88
571.064	886.88
571.276	895.88
571.487	842.88
571.698	848.88
571.91	838.88
572.121	866.88
572.333	802.88
572.544	856.88
572.755	903.88
572.966	1052.88
573.178	906.88
573.389	839.88
573.6	814.88
573.811	786.88
574.023	798.88
574.234	783.88
574.445	747.88
574.656	747.88
574.867	772.88
575.078	745.88
575.289	802.88
575.501	784.88
575.712	757.88
575.923	759.88
576.134	767.88
576.345	792.88
576.556	759.88
576.767	763.88
576.978	740.88
577.188	780.88
577.399	781.88
577.61	799.88
577.821	794.88
578.032	781.88
578.243	780.88
578.454	802.88
578.665	811.88
578.875	865.88
579.086	854.88
579.297	894.88
579.508	939.88
579.718	991.88
579.929	1118.88
580.14	1226.88
580.35	1282.88
580.561	1175.88
580.772	1122.88
580.982	1010.88
581.193	992.88
581.403	979.88
581.614	928.88
581.825	841.88
582.035	843.88
582.246	839.88
582.456	778.88
582.667	789.88
582.877	783.88
583.087	777.88
583.298	733.88
583.508	740.88
583.719	707.88
583.929	696.88
584.139	686.88
584.35	674.88
584.56	667.88
584.77	661.88
584.981	649.88
585.191	636.88
585.401	648.88
585.611	623.88
585.821	632.88
586.032	610.88
586.242	623.88
586.452	610.88
586.662	616.88
586.872	601.88
587.082	608.88
587.292	578.88
587.502	580.88
587.713	579.88
587.923	586.88
588.133	581.88
588.343	553.88
588.553	570.88
588.762	578.88
588.972	598.88
589.182	573.88
589.392	563.88
589.602	550.88
589.812	576.88
590.022	548.88
590.232	536.88
590.441	572.88
590.651	556.88
590.861	549.88
591.071	539.88
591.281	562.88
591.49	546.88
591.7	545.88
591.91	578.88
592.119	570.88
592.329	552.88
592.539	565.88
592.748	560.88
592.958	588.88
593.167	572.88
593.377	560.88
593.587	576.88
593.796	569.88
594.006	578.88
594.215	592.88
594.424	606.88
594.634	541.88
594.843	555.88
595.053	579.88
595.262	546.88
595.472	515.88
595.681	518.88
595.89	534.88
596.1	504.88
596.309	512.88
596.518	500.88
596.727	490.88
596.937	504.88
597.146	488.88
597.355	489.88
597.564	472.88
597.774	474.88
597.983	466.88
598.192	468.88
598.401	461.88
598.61	481.88
598.819	452.88
599.028	461.88
599.237	464.88
599.446	430.88
599.655	468.88
599.864	451.88
600.073	447.88
600.282	456.88
600.491	449.88
600.7	441.88
600.909	452.88
601.118	468.88
601.327	460.88
601.536	480.88
601.745	460.88
601.953	539.88
602.162	592.88
602.371	508.88
602.58	466.88
602.789	455.88
602.997	454.88
603.206	460.88
603.415	465.88
603.623	464.88
603.832	455.88
604.041	426.88
604.249	442.88
604.458	431.88
604.666	436.88
604.875	436.88
605.084	431.88
605.292	433.88
605.501	427.88
605.709	455.88
605.918	441.88
606.126	459.88
606.334	443.88
606.543	452.88
606.751	478.88
606.96	534.88
607.168	603.88
607.376	532.88
607.585	468.88
607.793	456.88
608.001	443.88
608.21	422.88
608.418	450.88
608.626	435.88
608.834	443.88
609.043	441.88
609.251	438.88
609.459	432.88
609.667	411.88
609.875	418.88
610.083	405.88
610.291	411.88
610.499	416.88
610.707	423.88
610.916	417.88
611.124	419.88
611.332	419.88
611.54	401.88
611.748	410.88
611.955	408.88
612.163	411.88
612.371	410.88
612.579	402.88
612.787	409.88
612.995	386.88
613.203	404.88
613.411	396.88
613.618	407.88
613.826	422.88
614.034	414.88
614.242	399.88
614.449	399.88
614.657	408.88
614.865	402.88
615.072	409.88
615.28	417.88
615.488	406.88
615.695	414.88
615.903	412.88
616.111	421.88
616.318	404.88
616.526	403.88
616.733	390.88
616.941	417.88
617.148	400.88
617.356	394.88
617.563	388.88
617.771	372.88
617.978	368.88
618.185	369.88
618.393	383.88
618.6	386.88
618.807	416.88
619.015	390.88
619.222	375.88
619.429	384.88
619.637	363.88
619.844	368.88
620.051	378.88
620.258	375.88
620.466	363.88
620.673	363.88
620.88	359.88
621.087	356.88
621.294	344.88
621.501	343.88
621.708	360.88
621.915	370.88
622.122	344.88
622.329	359.88
622.536	361.88
622.743	371.88
622.95	330.88
623.157	348.88
623.364	339.88
623.571	352.88
623.778	361.88
623.985	340.88
624.192	356.88
624.399	349.88
624.606	357.88
624.812	327.88
625.019	345.88
625.226	332.88
625.433	353.88
625.639	347.88
625.846	335.88
626.053	322.88
626.259	322.88
626.466	319.88
626.673	324.88
626.879	319.88
627.086	338.88
627.293	326.88
627.499	345.88
627.706	320.88
627.912	328.88
628.119	336.88
628.325	340.88
628.532	321.88
628.738	336.88
628.945	317.88
629.151	326.88
629.357	315.88
629.564	312.88
629.77	315.88
629.976	316.88
630.183	323.88
630.389	309.88
630.595	328.88
630.802	324.88
631.008	313.88
631.214	299.88
631.42	346.88
631.627	306.88
631.833	297.88
632.039	300.88
632.245	293.88
632.451	313.88
632.657	293.88
632.863	331.88
633.069	308.88
633.275	302.88
633.481	295.88
633.688	302.88
633.893	309.88
634.099	298.88
634.305	281.88
634.511	292.88
634.717	308.88
634.923	312.88
635.129	348.88
635.335	379.88
635.541	356.88
635.747	312.88
635.952	304.88
636.158	323.88
636.364	316.88
636.57	311.88
636.775	300.88
636.981	317.88
637.187	302.88
637.392	294.88
637.598	300.88
637.804	298.88
638.009	312.88
638.215	294.88
638.421	310.88
638.626	308.88
638.832	294.88
639.037	296.88
639.243	315.88
639.448	320.88
639.654	304.88
639.859	329.88
640.065	320.88
640.27	314.88
640.475	320.88
640.681	312.88
640.886	335.88
641.091	308.88
641.297	326.88
641.502	295.88
641.707	312.88
641.913	336.88
642.118	326.88
642.323	350.88
642.528	354.88
642.733	349.88
642.939	356.88
643.144	358.88
643.349	350.88
643.554	374.88
643.759	405.88
643.964	411.88
644.169	420.88
644.374	447.88
644.579	470.88
644.784	514.88
644.989	584.88
645.194	674.88
645.399	756.88
645.604	795.88
645.809	635.88
646.014	523.88
646.219	450.88
646.423	404.88
646.628	355.88
646.833	342.88
647.038	327.88
647.243	322.88
647.447	312.88
647.652	318.88
647.857	291.88
648.062	319.88
648.266	286.88
648.471	290.88
648.676	293.88
648.88	291.88
649.085	297.88
649.289	279.88
649.494	298.88
649.698	274.88
649.903	284.88
650.107	292.88
650.312	265.88
650.516	263.88
650.721	238.88
650.925	252.88
651.13	247.88
651.334	242.88
651.539	233.88
651.743	247.88
651.947	217.88
652.152	246.88
652.356	234.88
652.56	256.88
652.764	276.88
652.969	260.88
653.173	245.88
653.377	217.88
653.581	222.88
653.785	206.88
653.99	202.88
654.194	209.88
654.398	198.88
654.602	214.88
654.806	204.88
655.01	206.88
655.214	201.88
655.418	207.88
655.622	210.88
655.826	211.88
656.03	216.88
656.234	222.88
656.438	218.88
656.642	221.88
656.846	214.88
657.049	203.88
657.253	204.88
657.457	175.88
657.661	168.88
657.865	182.88
658.068	166.88
658.272	149.88
658.476	156.88
658.68	137.88
658.883	148.88
659.087	149.88
659.291	129.88
659.494	139.88
659.698	123.88
659.901	132.88
660.105	124.88
660.309	119.88
660.512	122.88
660.716	111.88
660.919	126.88
661.123	98.88
661.326	91.88
661.53	104.88
661.733	106.88
661.936	116.88
662.14	101.88
662.343	98.88
662.546	88.88
662.75	97.88
662.953	84.88
663.156	98.88
663.36	93.88
663.563	89.88
663.766	82.88
663.969	69.88
664.173	90.88
664.376	91.88
664.579	81.88
664.782	91.88
664.985	80.88
665.188	87.88
665.391	87.88
665.594	84.88
665.797	91.88
666	96.88
666.203	79.88
666.406	80.88
666.609	79.88
666.812	81.88
667.015	77.88
667.218	74.88
667.421	79.88
667.624	82.88
667.827	83.88
668.03	93.88
668.232	81.88
668.435	75.88
668.638	87.88
668.841	85.88
669.043	79.88
669.246	79.88
669.449	86.88
669.651	82.88
669.854	88.88
670.057	82.88
670.259	94.88
670.462	76.88
670.665	70.88
670.867	75.88
671.07	84.88
671.272	75.88
671.475	98.88
671.677	81.88
671.88	76.88
672.082	94.88
672.284	84.88
672.487	76.88
672.689	87.88
672.892	98.88
