Data from SnStandardFlinnAPT0064_LampEnergy5.5_LIBS07252019.E.O._I.C._HRD10591_15-16-47-492.txt Node
Date: Thu Jul 25 15:16:47 EDT 2019
User: cochatt
Spectrometer: HR+D1059
Trigger mode: 1
Integration Time (sec): 1.000000E-1
Scans to average: 1
Electric dark correction enabled: true
Nonlinearity correction enabled: false
Boxcar width: 0
XAxis mode: Wavelengths
Number of Pixels in Spectrum: 2048
>>>>>Begin Spectral Data<<<<<
223.165	-8.31
223.4	-8.31
223.635	-8.31
223.869	-24.31
224.104	-12.31
224.338	-16.31
224.573	-20.31
224.808	-15.31
225.042	0.69
225.277	-17.31
225.511	-5.31
225.746	3.69
225.98	7.69
226.215	19.69
226.449	16.69
226.683	24.69
226.918	23.69
227.152	22.69
227.387	34.69
227.621	51.69
227.856	27.69
228.09	28.69
228.324	62.69
228.559	58.69
228.793	70.69
229.027	148.69
229.262	167.69
229.496	153.69
229.73	133.69
229.964	147.69
230.199	140.69
230.433	151.69
230.667	167.69
230.901	169.69
231.136	172.69
231.37	183.69
231.604	185.69
231.838	205.69
232.072	241.69
232.306	247.69
232.541	205.69
232.775	215.69
233.009	204.69
233.243	207.69
233.477	219.69
233.711	242.69
233.945	272.69
234.179	240.69
234.413	221.69
234.647	203.69
234.881	217.69
235.115	240.69
235.349	279.69
235.583	368.69
235.817	433.69
236.051	428.69
236.285	309.69
236.519	241.69
236.753	225.69
236.987	241.69
237.221	253.69
237.455	233.69
237.689	225.69
237.922	223.69
238.156	219.69
238.39	235.69
238.624	238.69
238.858	224.69
239.091	225.69
239.325	240.69
239.559	236.69
239.793	238.69
240.027	233.69
240.26	247.69
240.494	253.69
240.728	249.69
240.961	269.69
241.195	286.69
241.429	300.69
241.662	321.69
241.896	340.69
242.13	404.69
242.363	537.69
242.597	668.69
242.83	625.69
243.064	631.69
243.298	753.69
243.531	655.69
243.765	413.69
243.998	352.69
244.232	315.69
244.465	296.69
244.699	292.69
244.932	283.69
245.166	284.69
245.399	312.69
245.633	301.69
245.866	282.69
246.099	296.69
246.333	297.69
246.566	283.69
246.8	303.69
247.033	291.69
247.266	297.69
247.5	312.69
247.733	305.69
247.966	308.69
248.2	327.69
248.433	349.69
248.666	391.69
248.899	406.69
249.133	343.69
249.366	370.69
249.599	403.69
249.832	445.69
250.066	463.69
250.299	365.69
250.532	358.69
250.765	341.69
250.998	338.69
251.231	327.69
251.465	318.69
251.698	335.69
251.931	335.69
252.164	347.69
252.397	355.69
252.63	353.69
252.863	355.69
253.096	343.69
253.329	352.69
253.562	334.69
253.795	351.69
254.028	363.69
254.261	371.69
254.494	381.69
254.727	443.69
254.96	522.69
255.193	521.69
255.426	397.69
255.659	379.69
255.892	379.69
256.124	372.69
256.357	360.69
256.59	384.69
256.823	428.69
257.056	465.69
257.289	569.69
257.521	617.69
257.754	489.69
257.987	421.69
258.22	422.69
258.452	421.69
258.685	412.69
258.918	425.69
259.151	438.69
259.383	475.69
259.616	507.69
259.849	524.69
260.081	467.69
260.314	438.69
260.547	415.69
260.779	430.69
261.012	421.69
261.244	421.69
261.477	438.69
261.71	457.69
261.942	438.69
262.175	457.69
262.407	443.69
262.64	444.69
262.872	516.69
263.105	498.69
263.337	531.69
263.57	556.69
263.802	558.69
264.035	590.69
264.267	589.69
264.499	607.69
264.732	608.69
264.964	633.69
265.197	617.69
265.429	613.69
265.661	645.69
265.894	674.69
266.126	778.69
266.358	809.69
266.591	797.69
266.823	684.69
267.055	634.69
267.287	598.69
267.52	587.69
267.752	557.69
267.984	575.69
268.216	596.69
268.448	559.69
268.681	559.69
268.913	555.69
269.145	555.69
269.377	546.69
269.609	555.69
269.841	556.69
270.073	600.69
270.306	666.69
270.538	909.69
270.77	1312.69
271.002	1599.69
271.234	1113.69
271.466	779.69
271.698	634.69
271.93	592.69
272.162	556.69
272.394	530.69
272.626	521.69
272.858	547.69
273.09	555.69
273.322	528.69
273.553	524.69
273.785	539.69
274.017	559.69
274.249	534.69
274.481	541.69
274.713	517.69
274.945	521.69
275.176	522.69
275.408	531.69
275.64	549.69
275.872	534.69
276.104	546.69
276.335	548.69
276.567	540.69
276.799	578.69
277.031	553.69
277.262	563.69
277.494	567.69
277.726	658.69
277.957	750.69
278.189	835.69
278.421	803.69
278.652	690.69
278.884	674.69
279.115	641.69
279.347	630.69
279.579	606.69
279.81	593.69
280.042	593.69
280.273	603.69
280.505	626.69
280.736	622.69
280.968	645.69
281.199	726.69
281.431	804.69
281.662	848.69
281.894	731.69
282.125	681.69
282.356	665.69
282.588	712.69
282.819	724.69
283.051	750.69
283.282	853.69
283.513	1047.69
283.745	1484.69
283.976	2339.69
284.207	3347.69
284.439	2969.69
284.67	1734.69
284.901	1409.69
285.132	1358.69
285.364	1337.69
285.595	1067.69
285.826	965.69
286.057	1147.69
286.288	1591.69
286.52	2128.69
286.751	1951.69
286.982	1195.69
287.213	924.69
287.444	801.69
287.675	765.69
287.906	708.69
288.138	703.69
288.369	722.69
288.6	713.69
288.831	678.69
289.062	717.69
289.293	708.69
289.524	693.69
289.755	732.69
289.986	710.69
290.217	718.69
290.448	727.69
290.679	757.69
290.91	752.69
291.141	765.69
291.371	829.69
291.602	818.69
291.833	777.69
292.064	740.69
292.295	733.69
292.526	705.69
292.757	688.69
292.987	688.69
293.218	692.69
293.449	702.69
293.68	704.69
293.91	656.69
294.141	688.69
294.372	677.69
294.603	655.69
294.833	658.69
295.064	650.69
295.295	695.69
295.525	665.69
295.756	659.69
295.987	671.69
296.217	666.69
296.448	647.69
296.679	678.69
296.909	693.69
297.14	676.69
297.37	701.69
297.601	707.69
297.831	670.69
298.062	665.69
298.292	719.69
298.523	712.69
298.753	708.69
298.984	724.69
299.214	732.69
299.445	726.69
299.675	741.69
299.905	752.69
300.136	783.69
300.366	891.69
300.597	1131.69
300.827	1568.69
301.057	2116.69
301.288	2119.69
301.518	1312.69
301.748	1021.69
301.979	943.69
302.209	908.69
302.439	944.69
302.669	965.69
302.9	1188.69
303.13	1660.69
303.36	2466.69
303.59	3273.69
303.82	2839.69
304.051	1606.69
304.281	1169.69
304.511	983.69
304.741	927.69
304.971	895.69
305.201	838.69
305.431	823.69
305.661	814.69
305.891	793.69
306.121	796.69
306.352	780.69
306.582	796.69
306.812	776.69
307.042	785.69
307.272	774.69
307.502	780.69
307.731	781.69
307.961	778.69
308.191	775.69
308.421	761.69
308.651	767.69
308.881	771.69
309.111	765.69
309.341	770.69
309.571	762.69
309.8	801.69
310.03	797.69
310.26	768.69
310.49	796.69
310.72	823.69
310.949	776.69
311.179	818.69
311.409	803.69
311.639	834.69
311.868	851.69
312.098	822.69
312.328	826.69
312.557	842.69
312.787	834.69
313.017	847.69
313.246	861.69
313.476	846.69
313.706	899.69
313.935	895.69
314.165	960.69
314.394	1009.69
314.624	1015.69
314.853	901.69
315.083	873.69
315.312	925.69
315.542	923.69
315.771	886.69
316.001	957.69
316.23	960.69
316.46	1008.69
316.689	1108.69
316.919	1304.69
317.148	1839.69
317.377	2913.69
317.607	4295.69
317.836	4406.69
318.065	2554.69
318.295	1665.69
318.524	1303.69
318.753	1127.69
318.983	1100.69
319.212	1065.69
319.441	1016.69
319.67	978.69
319.9	977.69
320.129	983.69
320.358	977.69
320.587	973.69
320.816	984.69
321.046	981.69
321.275	988.69
321.504	999.69
321.733	1016.69
321.962	1008.69
322.191	1028.69
322.42	1021.69
322.649	1033.69
322.878	1020.69
323.108	1046.69
323.337	1047.69
323.566	1061.69
323.795	1074.69
324.024	1096.69
324.253	1127.69
324.482	1159.69
324.71	1203.69
324.939	1287.69
325.168	1288.69
325.397	1354.69
325.626	1582.69
325.855	2249.69
326.084	3541.69
326.313	5260.69
326.542	5657.69
326.77	3459.69
326.999	2253.69
327.228	1876.69
327.457	1808.69
327.686	1812.69
327.914	1931.69
328.143	2203.69
328.372	2581.69
328.6	2770.69
328.829	2543.69
329.058	2267.69
329.287	2040.69
329.515	1843.69
329.744	1709.69
329.972	1600.69
330.201	1508.69
330.43	1492.69
330.658	1446.69
330.887	1405.69
331.115	1455.69
331.344	1405.69
331.572	1417.69
331.801	1411.69
332.03	1414.69
332.258	1431.69
332.486	1510.69
332.715	1735.69
332.943	2103.69
333.172	2516.69
333.4	2505.69
333.629	1932.69
333.857	1756.69
334.085	1769.69
334.314	1888.69
334.542	2011.69
334.771	2271.69
334.999	2770.69
335.227	3277.69
335.455	3728.69
335.684	3448.69
335.912	2889.69
336.14	2508.69
336.369	2253.69
336.597	2069.69
336.825	1902.69
337.053	1791.69
337.281	1728.69
337.51	1597.69
337.738	1552.69
337.966	1539.69
338.194	1431.69
338.422	1386.69
338.65	1381.69
338.878	1357.69
339.106	1354.69
339.334	1300.69
339.562	1329.69
339.79	1288.69
340.018	1281.69
340.246	1260.69
340.474	1278.69
340.702	1243.69
340.93	1270.69
341.158	1227.69
341.386	1264.69
341.614	1211.69
341.842	1210.69
342.07	1203.69
342.298	1180.69
342.526	1173.69
342.754	1137.69
342.981	1137.69
343.209	1159.69
343.437	1152.69
343.665	1185.69
343.893	1199.69
344.12	1196.69
344.348	1167.69
344.576	1129.69
344.804	1125.69
345.031	1124.69
345.259	1109.69
345.487	1112.69
345.714	1125.69
345.942	1086.69
346.17	1075.69
346.397	1066.69
346.625	1095.69
346.853	1055.69
347.08	1047.69
347.308	1056.69
347.535	1076.69
347.763	1077.69
347.99	1064.69
348.218	1044.69
348.445	1052.69
348.673	1044.69
348.9	1042.69
349.128	1049.69
349.355	1046.69
349.583	1061.69
349.81	1023.69
350.037	1031.69
350.265	1024.69
350.492	1032.69
350.72	1029.69
350.947	1035.69
351.174	1046.69
351.402	1051.69
351.629	1017.69
351.856	1037.69
352.083	1046.69
352.311	1019.69
352.538	1012.69
352.765	990.69
352.992	997.69
353.22	1014.69
353.447	1015.69
353.674	992.69
353.901	1007.69
354.128	1041.69
354.355	1022.69
354.583	1008.69
354.81	1009.69
355.037	1038.69
355.264	1037.69
355.491	1043.69
355.718	1036.69
355.945	1071.69
356.172	1052.69
356.399	1035.69
356.626	1040.69
356.853	1051.69
357.08	1064.69
357.307	1039.69
357.534	1058.69
357.761	1079.69
357.988	1088.69
358.215	1085.69
358.441	1086.69
358.668	1064.69
358.895	1097.69
359.122	1084.69
359.349	1070.69
359.576	1046.69
359.802	1074.69
360.029	1067.69
360.256	1092.69
360.483	1083.69
360.709	1064.69
360.936	1085.69
361.163	1074.69
361.39	1096.69
361.616	1094.69
361.843	1074.69
362.07	1084.69
362.296	1091.69
362.523	1096.69
362.749	1105.69
362.976	1083.69
363.203	1077.69
363.429	1075.69
363.656	1093.69
363.882	1063.69
364.109	1073.69
364.335	1061.69
364.562	1058.69
364.788	1070.69
365.015	1098.69
365.241	1120.69
365.468	1183.69
365.694	1213.69
365.92	1171.69
366.147	1093.69
366.373	1112.69
366.599	1116.69
366.826	1113.69
367.052	1101.69
367.278	1114.69
367.505	1085.69
367.731	1116.69
367.957	1092.69
368.184	1124.69
368.41	1132.69
368.636	1129.69
368.862	1118.69
369.089	1145.69
369.315	1125.69
369.541	1149.69
369.767	1115.69
369.993	1107.69
370.219	1127.69
370.445	1126.69
370.672	1110.69
370.898	1139.69
371.124	1132.69
371.35	1152.69
371.576	1136.69
371.802	1168.69
372.028	1168.69
372.254	1156.69
372.48	1139.69
372.706	1187.69
372.932	1198.69
373.158	1190.69
373.384	1162.69
373.61	1160.69
373.835	1198.69
374.061	1155.69
374.287	1175.69
374.513	1239.69
374.739	1210.69
374.965	1222.69
375.191	1237.69
375.416	1227.69
375.642	1190.69
375.868	1213.69
376.094	1185.69
376.319	1167.69
376.545	1161.69
376.771	1152.69
376.997	1144.69
377.222	1147.69
377.448	1148.69
377.674	1157.69
377.899	1181.69
378.125	1155.69
378.35	1160.69
378.576	1206.69
378.802	1149.69
379.027	1219.69
379.253	1232.69
379.478	1268.69
379.704	1465.69
379.929	2085.69
380.155	3165.69
380.38	3421.69
380.606	2077.69
380.831	1491.69
381.057	1285.69
381.282	1219.69
381.507	1180.69
381.733	1183.69
381.958	1147.69
382.184	1183.69
382.409	1177.69
382.634	1177.69
382.86	1152.69
383.085	1142.69
383.31	1167.69
383.535	1138.69
383.761	1157.69
383.986	1161.69
384.211	1156.69
384.436	1206.69
384.662	1188.69
384.887	1212.69
385.112	1149.69
385.337	1205.69
385.562	1173.69
385.787	1210.69
386.013	1220.69
386.238	1235.69
386.463	1197.69
386.688	1175.69
386.913	1166.69
387.138	1182.69
387.363	1215.69
387.588	1190.69
387.813	1185.69
388.038	1198.69
388.263	1199.69
388.488	1196.69
388.713	1209.69
388.938	1160.69
389.163	1155.69
389.387	1190.69
389.612	1180.69
389.837	1159.69
390.062	1205.69
390.287	1230.69
390.512	1189.69
390.736	1242.69
390.961	1253.69
391.186	1256.69
391.411	1215.69
391.636	1243.69
391.86	1242.69
392.085	1255.69
392.31	1237.69
392.534	1215.69
392.759	1223.69
392.984	1238.69
393.208	1251.69
393.433	1260.69
393.658	1263.69
393.882	1230.69
394.107	1212.69
394.331	1212.69
394.556	1192.69
394.78	1204.69
395.005	1207.69
395.229	1232.69
395.454	1263.69
395.678	1239.69
395.903	1231.69
396.127	1220.69
396.352	1242.69
396.576	1221.69
396.801	1251.69
397.025	1303.69
397.249	1296.69
397.474	1287.69
397.698	1306.69
397.922	1245.69
398.147	1289.69
398.371	1301.69
398.595	1329.69
398.82	1303.69
399.044	1367.69
399.268	1456.69
399.492	1520.69
399.717	1575.69
399.941	1570.69
400.165	1488.69
400.389	1461.69
400.613	1385.69
400.837	1360.69
401.062	1345.69
401.286	1350.69
401.51	1319.69
401.734	1325.69
401.958	1341.69
402.182	1340.69
402.406	1317.69
402.63	1344.69
402.854	1356.69
403.078	1362.69
403.302	1353.69
403.526	1359.69
403.75	1403.69
403.974	1368.69
404.198	1378.69
404.422	1409.69
404.645	1373.69
404.869	1389.69
405.093	1362.69
405.317	1345.69
405.541	1347.69
405.765	1374.69
405.988	1424.69
406.212	1407.69
406.436	1384.69
406.66	1405.69
406.883	1427.69
407.107	1459.69
407.331	1476.69
407.555	1501.69
407.778	1478.69
408.002	1471.69
408.226	1475.69
408.449	1464.69
408.673	1429.69
408.896	1401.69
409.12	1420.69
409.344	1400.69
409.567	1416.69
409.791	1395.69
410.014	1379.69
410.238	1335.69
410.461	1328.69
410.685	1348.69
410.908	1350.69
411.132	1366.69
411.355	1317.69
411.578	1309.69
411.802	1294.69
412.025	1337.69
412.249	1347.69
412.472	1316.69
412.695	1318.69
412.919	1304.69
413.142	1311.69
413.365	1307.69
413.589	1303.69
413.812	1286.69
414.035	1320.69
414.258	1289.69
414.482	1311.69
414.705	1336.69
414.928	1331.69
415.151	1325.69
415.374	1332.69
415.597	1283.69
415.821	1283.69
416.044	1246.69
416.267	1263.69
416.49	1266.69
416.713	1265.69
416.936	1261.69
417.159	1246.69
417.382	1233.69
417.605	1205.69
417.828	1239.69
418.051	1240.69
418.274	1259.69
418.497	1268.69
418.72	1283.69
418.943	1250.69
419.166	1313.69
419.389	1416.69
419.611	1359.69
419.834	1345.69
420.057	1280.69
420.28	1289.69
420.503	1255.69
420.726	1275.69
420.948	1236.69
421.171	1235.69
421.394	1271.69
421.617	1250.69
421.839	1266.69
422.062	1282.69
422.285	1250.69
422.507	1292.69
422.73	1288.69
422.953	1301.69
423.175	1279.69
423.398	1289.69
423.621	1265.69
423.843	1261.69
424.066	1290.69
424.288	1247.69
424.511	1254.69
424.733	1253.69
424.956	1243.69
425.178	1229.69
425.401	1259.69
425.623	1267.69
425.846	1225.69
426.068	1231.69
426.291	1223.69
426.513	1197.69
426.735	1226.69
426.958	1221.69
427.18	1195.69
427.402	1183.69
427.625	1175.69
427.847	1147.69
428.069	1168.69
428.292	1203.69
428.514	1170.69
428.736	1172.69
428.958	1178.69
429.181	1126.69
429.403	1141.69
429.625	1154.69
429.847	1171.69
430.069	1187.69
430.292	1200.69
430.514	1200.69
430.736	1222.69
430.958	1183.69
431.18	1127.69
431.402	1169.69
431.624	1119.69
431.846	1131.69
432.068	1154.69
432.29	1128.69
432.512	1124.69
432.734	1148.69
432.956	1157.69
433.178	1161.69
433.4	1159.69
433.622	1180.69
433.844	1167.69
434.066	1165.69
434.287	1141.69
434.509	1144.69
434.731	1183.69
434.953	1183.69
435.175	1231.69
435.397	1231.69
435.618	1166.69
435.84	1158.69
436.062	1145.69
436.284	1147.69
436.505	1176.69
436.727	1153.69
436.949	1143.69
437.17	1162.69
437.392	1137.69
437.614	1123.69
437.835	1073.69
438.057	1115.69
438.278	1113.69
438.5	1099.69
438.721	1137.69
438.943	1166.69
439.165	1190.69
439.386	1222.69
439.608	1204.69
439.829	1199.69
440.05	1249.69
440.272	1282.69
440.493	1215.69
440.715	1189.69
440.936	1198.69
441.158	1214.69
441.379	1217.69
441.6	1256.69
441.822	1297.69
442.043	1333.69
442.264	1370.69
442.486	1296.69
442.707	1228.69
442.928	1227.69
443.149	1245.69
443.371	1229.69
443.592	1239.69
443.813	1281.69
444.034	1263.69
444.255	1286.69
444.476	1264.69
444.698	1304.69
444.919	1351.69
445.14	1425.69
445.361	1344.69
445.582	1286.69
445.803	1233.69
446.024	1205.69
446.245	1256.69
446.466	1241.69
446.687	1193.69
446.908	1220.69
447.129	1217.69
447.35	1183.69
447.571	1172.69
447.792	1131.69
448.013	1115.69
448.234	1155.69
448.455	1160.69
448.675	1167.69
448.896	1175.69
449.117	1210.69
449.338	1327.69
449.559	1356.69
449.779	1206.69
450	1143.69
450.221	1112.69
450.442	1118.69
450.662	1101.69
450.883	1118.69
451.104	1165.69
451.324	1111.69
451.545	1111.69
451.766	1111.69
451.986	1116.69
452.207	1203.69
452.428	1461.69
452.648	2047.69
452.869	1788.69
453.089	1294.69
453.31	1261.69
453.53	1219.69
453.751	1275.69
453.971	1335.69
454.192	1325.69
454.412	1137.69
454.633	1094.69
454.853	1111.69
455.073	1051.69
455.294	1049.69
455.514	1044.69
455.734	1061.69
455.955	1032.69
456.175	1077.69
456.395	1077.69
456.616	1059.69
456.836	1092.69
457.056	1063.69
457.276	1093.69
457.497	1129.69
457.717	1121.69
457.937	1102.69
458.157	1096.69
458.377	1118.69
458.598	1112.69
458.818	1151.69
459.038	1106.69
459.258	1105.69
459.478	1137.69
459.698	1156.69
459.918	1190.69
460.138	1198.69
460.358	1259.69
460.578	1247.69
460.798	1242.69
461.018	1237.69
461.238	1239.69
461.458	1230.69
461.678	1258.69
461.898	1296.69
462.118	1329.69
462.338	1318.69
462.558	1313.69
462.777	1341.69
462.997	1391.69
463.217	1445.69
463.437	1494.69
463.657	1553.69
463.876	1531.69
464.096	1420.69
464.316	1364.69
464.536	1334.69
464.755	1373.69
464.975	1300.69
465.195	1260.69
465.414	1220.69
465.634	1173.69
465.854	1156.69
466.073	1171.69
466.293	1177.69
466.512	1145.69
466.732	1142.69
466.951	1250.69
467.171	1307.69
467.391	1278.69
467.61	1195.69
467.829	1136.69
468.049	1157.69
468.268	1124.69
468.488	1093.69
468.707	1131.69
468.927	1147.69
469.146	1128.69
469.365	1183.69
469.585	1150.69
469.804	1127.69
470.023	1192.69
470.243	1186.69
470.462	1252.69
470.681	1311.69
470.901	1372.69
471.12	1647.69
471.339	1599.69
471.558	1331.69
471.777	1240.69
471.997	1201.69
472.216	1152.69
472.435	1140.69
472.654	1141.69
472.873	1110.69
473.092	1139.69
473.311	1121.69
473.53	1172.69
473.749	1187.69
473.968	1184.69
474.187	1158.69
474.406	1137.69
474.625	1141.69
474.844	1167.69
475.063	1115.69
475.282	1170.69
475.501	1150.69
475.72	1149.69
475.939	1148.69
476.158	1176.69
476.377	1204.69
476.596	1177.69
476.814	1165.69
477.033	1186.69
477.252	1231.69
477.471	1241.69
477.69	1262.69
477.908	1291.69
478.127	1275.69
478.346	1312.69
478.564	1331.69
478.783	1325.69
479.002	1355.69
479.22	1335.69
479.439	1350.69
479.658	1320.69
479.876	1335.69
480.095	1349.69
480.313	1376.69
480.532	1407.69
480.751	1379.69
480.969	1375.69
481.188	1348.69
481.406	1332.69
481.624	1309.69
481.843	1346.69
482.061	1348.69
482.28	1358.69
482.498	1331.69
482.717	1334.69
482.935	1353.69
483.153	1381.69
483.372	1446.69
483.59	1441.69
483.808	1443.69
484.027	1472.69
484.245	1542.69
484.463	1752.69
484.681	1889.69
484.9	1741.69
485.118	1593.69
485.336	1583.69
485.554	1617.69
485.772	1648.69
485.99	1878.69
486.209	2072.69
486.427	1755.69
486.645	1558.69
486.863	1510.69
487.081	1435.69
487.299	1447.69
487.517	1462.69
487.735	1465.69
487.953	1494.69
488.171	1459.69
488.389	1445.69
488.607	1436.69
488.825	1413.69
489.043	1350.69
489.261	1355.69
489.479	1394.69
489.696	1440.69
489.914	1437.69
490.132	1415.69
490.35	1437.69
490.568	1443.69
490.786	1475.69
491.003	1468.69
491.221	1505.69
491.439	1475.69
491.657	1494.69
491.874	1502.69
492.092	1536.69
492.31	1568.69
492.527	1577.69
492.745	1504.69
492.963	1494.69
493.18	1532.69
493.398	1497.69
493.615	1510.69
493.833	1481.69
494.05	1501.69
494.268	1483.69
494.485	1526.69
494.703	1519.69
494.92	1484.69
495.138	1488.69
495.355	1571.69
495.573	1495.69
495.79	1476.69
496.008	1557.69
496.225	1549.69
496.442	1490.69
496.66	1586.69
496.877	1671.69
497.094	1643.69
497.312	1613.69
497.529	1598.69
497.746	1627.69
497.963	1652.69
498.181	1688.69
498.398	1657.69
498.615	1744.69
498.832	1771.69
499.049	1896.69
499.267	2084.69
499.484	2140.69
499.701	2211.69
499.918	2278.69
500.135	2405.69
500.352	2466.69
500.569	2567.69
500.786	2523.69
501.003	2404.69
501.22	2360.69
501.437	2189.69
501.654	2010.69
501.871	2018.69
502.088	1908.69
502.305	1825.69
502.522	1767.69
502.739	1742.69
502.956	1698.69
503.172	1659.69
503.389	1609.69
503.606	1589.69
503.823	1525.69
504.04	1522.69
504.256	1522.69
504.473	1560.69
504.69	1549.69
504.907	1540.69
505.123	1515.69
505.34	1428.69
505.557	1407.69
505.773	1432.69
505.99	1383.69
506.207	1379.69
506.423	1353.69
506.64	1358.69
506.856	1352.69
507.073	1355.69
507.289	1329.69
507.506	1339.69
507.722	1313.69
507.939	1315.69
508.155	1255.69
508.372	1293.69
508.588	1291.69
508.805	1280.69
509.021	1303.69
509.238	1298.69
509.454	1379.69
509.67	1429.69
509.887	1341.69
510.103	1293.69
510.319	1297.69
510.536	1272.69
510.752	1232.69
510.968	1249.69
511.184	1240.69
511.401	1259.69
511.617	1211.69
511.833	1205.69
512.049	1204.69
512.265	1212.69
512.481	1215.69
512.698	1199.69
512.914	1213.69
513.13	1184.69
513.346	1219.69
513.562	1219.69
513.778	1195.69
513.994	1224.69
514.21	1273.69
514.426	1325.69
514.642	1356.69
514.858	1281.69
515.074	1244.69
515.29	1243.69
515.506	1244.69
515.721	1263.69
515.937	1249.69
516.153	1273.69
516.369	1307.69
516.585	1286.69
516.801	1285.69
517.016	1347.69
517.232	1379.69
517.448	1400.69
517.664	1345.69
517.879	1350.69
518.095	1370.69
518.311	1379.69
518.527	1349.69
518.742	1393.69
518.958	1349.69
519.173	1347.69
519.389	1327.69
519.605	1264.69
519.82	1238.69
520.036	1248.69
520.251	1250.69
520.467	1244.69
520.682	1227.69
520.898	1221.69
521.113	1208.69
521.329	1217.69
521.544	1192.69
521.76	1187.69
521.975	1201.69
522.19	1199.69
522.406	1193.69
522.621	1192.69
522.836	1201.69
523.052	1140.69
523.267	1150.69
523.482	1186.69
523.698	1161.69
523.913	1161.69
524.128	1154.69
524.343	1158.69
524.559	1167.69
524.774	1207.69
524.989	1185.69
525.204	1175.69
525.419	1188.69
525.634	1169.69
525.849	1199.69
526.064	1168.69
526.28	1187.69
526.495	1156.69
526.71	1181.69
526.925	1159.69
527.14	1176.69
527.355	1159.69
527.57	1171.69
527.785	1160.69
527.999	1194.69
528.214	1209.69
528.429	1236.69
528.644	1205.69
528.859	1248.69
529.074	1238.69
529.289	1294.69
529.503	1282.69
529.718	1254.69
529.933	1284.69
530.148	1234.69
530.363	1224.69
530.577	1222.69
530.792	1199.69
531.007	1251.69
531.221	1252.69
531.436	1240.69
531.651	1250.69
531.865	1332.69
532.08	1324.69
532.295	1335.69
532.509	1397.69
532.724	1384.69
532.938	1409.69
533.153	1440.69
533.367	1526.69
533.582	1587.69
533.796	1528.69
534.011	1523.69
534.225	1445.69
534.44	1411.69
534.654	1380.69
534.868	1405.69
535.083	1375.69
535.297	1358.69
535.511	1310.69
535.726	1302.69
535.94	1308.69
536.154	1271.69
536.369	1264.69
536.583	1254.69
536.797	1239.69
537.011	1204.69
537.225	1185.69
537.44	1194.69
537.654	1197.69
537.868	1189.69
538.082	1188.69
538.296	1186.69
538.51	1176.69
538.724	1159.69
538.938	1196.69
539.153	1196.69
539.367	1185.69
539.581	1164.69
539.795	1133.69
540.009	1138.69
540.222	1104.69
540.436	1141.69
540.65	1142.69
540.864	1149.69
541.078	1186.69
541.292	1254.69
541.506	1458.69
541.72	1544.69
541.934	1339.69
542.147	1281.69
542.361	1203.69
542.575	1199.69
542.789	1143.69
543.002	1098.69
543.216	1091.69
543.43	1093.69
543.644	1105.69
543.857	1116.69
544.071	1139.69
544.285	1155.69
544.498	1140.69
544.712	1133.69
544.925	1156.69
545.139	1110.69
545.352	1136.69
545.566	1135.69
545.779	1155.69
545.993	1151.69
546.206	1160.69
546.42	1186.69
546.633	1157.69
546.847	1147.69
547.06	1158.69
547.274	1149.69
547.487	1151.69
547.7	1163.69
547.914	1173.69
548.127	1168.69
548.34	1142.69
548.554	1137.69
548.767	1123.69
548.98	1149.69
549.193	1153.69
549.407	1127.69
549.62	1145.69
549.833	1151.69
550.046	1141.69
550.259	1142.69
550.473	1150.69
550.686	1144.69
550.899	1147.69
551.112	1120.69
551.325	1143.69
551.538	1137.69
551.751	1110.69
551.964	1143.69
552.177	1141.69
552.39	1162.69
552.603	1191.69
552.816	1195.69
553.029	1226.69
553.242	1235.69
553.455	1246.69
553.667	1251.69
553.88	1241.69
554.093	1250.69
554.306	1271.69
554.519	1255.69
554.732	1306.69
554.944	1267.69
555.157	1325.69
555.37	1365.69
555.583	1372.69
555.795	1430.69
556.008	1492.69
556.221	1634.69
556.433	1699.69
556.646	1701.69
556.859	1652.69
557.071	1603.69
557.284	1605.69
557.496	1536.69
557.709	1561.69
557.921	1537.69
558.134	1543.69
558.346	1562.69
558.559	1571.69
558.771	1637.69
558.984	1763.69
559.196	1843.69
559.409	1811.69
559.621	1695.69
559.833	1605.69
560.046	1511.69
560.258	1473.69
560.47	1418.69
560.683	1370.69
560.895	1342.69
561.107	1313.69
561.32	1269.69
561.532	1210.69
561.744	1201.69
561.956	1189.69
562.168	1173.69
562.381	1171.69
562.593	1146.69
562.805	1142.69
563.017	1162.69
563.229	1148.69
563.441	1282.69
563.653	1158.69
563.865	1071.69
564.077	1083.69
564.289	1064.69
564.501	1052.69
564.713	1037.69
564.925	1041.69
565.137	1047.69
565.349	1037.69
565.561	1041.69
565.773	1057.69
565.985	1083.69
566.197	1111.69
566.408	1079.69
566.62	1132.69
566.832	1135.69
567.044	1145.69
567.255	1191.69
567.467	1201.69
567.679	1183.69
567.891	1253.69
568.102	1399.69
568.314	1651.69
568.526	1360.69
568.737	1151.69
568.949	1101.69
569.161	1011.69
569.372	989.69
569.584	952.69
569.795	949.69
570.007	950.69
570.218	941.69
570.43	968.69
570.641	915.69
570.853	898.69
571.064	887.69
571.276	883.69
571.487	869.69
571.698	854.69
571.91	851.69
572.121	831.69
572.333	817.69
572.544	828.69
572.755	892.69
572.966	1033.69
573.178	942.69
573.389	853.69
573.6	823.69
573.811	803.69
574.023	797.69
574.234	792.69
574.445	786.69
574.656	773.69
574.867	772.69
575.078	757.69
575.289	776.69
575.501	762.69
575.712	742.69
575.923	760.69
576.134	735.69
576.345	786.69
576.556	765.69
576.767	753.69
576.978	762.69
577.188	768.69
577.399	749.69
577.61	773.69
577.821	794.69
578.032	767.69
578.243	778.69
578.454	788.69
578.665	837.69
578.875	816.69
579.086	857.69
579.297	872.69
579.508	945.69
579.718	998.69
579.929	1097.69
580.14	1213.69
580.35	1284.69
580.561	1171.69
580.772	1108.69
580.982	1080.69
581.193	987.69
581.403	928.69
581.614	914.69
581.825	857.69
582.035	803.69
582.246	824.69
582.456	803.69
582.667	776.69
582.877	753.69
583.087	780.69
583.298	718.69
583.508	699.69
583.719	715.69
583.929	699.69
584.139	691.69
584.35	660.69
584.56	647.69
584.77	646.69
584.981	644.69
585.191	657.69
585.401	615.69
585.611	639.69
585.821	633.69
586.032	606.69
586.242	623.69
586.452	589.69
586.662	609.69
586.872	591.69
587.082	580.69
587.292	583.69
587.502	574.69
587.713	569.69
587.923	571.69
588.133	582.69
588.343	579.69
588.553	564.69
588.762	552.69
588.972	561.69
589.182	552.69
589.392	558.69
589.602	553.69
589.812	555.69
590.022	569.69
590.232	534.69
590.441	560.69
590.651	560.69
590.861	543.69
591.071	541.69
591.281	560.69
591.49	559.69
591.7	528.69
591.91	563.69
592.119	560.69
592.329	556.69
592.539	582.69
592.748	563.69
592.958	558.69
593.167	558.69
593.377	586.69
593.587	577.69
593.796	585.69
594.006	593.69
594.215	569.69
594.424	600.69
594.634	555.69
594.843	565.69
595.053	561.69
595.262	540.69
595.472	531.69
595.681	535.69
595.89	531.69
596.1	485.69
596.309	523.69
596.518	518.69
596.727	481.69
596.937	512.69
597.146	479.69
597.355	471.69
597.564	485.69
597.774	467.69
597.983	462.69
598.192	436.69
598.401	452.69
598.61	459.69
598.819	451.69
599.028	472.69
599.237	462.69
599.446	454.69
599.655	459.69
599.864	454.69
600.073	467.69
600.282	464.69
600.491	456.69
600.7	454.69
600.909	440.69
601.118	453.69
601.327	473.69
601.536	468.69
601.745	462.69
601.953	518.69
602.162	578.69
602.371	528.69
602.58	466.69
602.789	447.69
602.997	450.69
603.206	453.69
603.415	429.69
603.623	444.69
603.832	433.69
604.041	428.69
604.249	422.69
604.458	406.69
604.666	418.69
604.875	419.69
605.084	431.69
605.292	442.69
605.501	447.69
605.709	449.69
605.918	453.69
606.126	452.69
606.334	419.69
606.543	455.69
606.751	468.69
606.96	517.69
607.168	588.69
607.376	489.69
607.585	464.69
607.793	455.69
608.001	453.69
608.21	411.69
608.418	431.69
608.626	405.69
608.834	431.69
609.043	428.69
609.251	429.69
609.459	415.69
609.667	428.69
609.875	429.69
610.083	427.69
610.291	423.69
610.499	407.69
610.707	428.69
610.916	399.69
611.124	411.69
611.332	403.69
611.54	416.69
611.748	417.69
611.955	425.69
612.163	398.69
612.371	393.69
612.579	403.69
612.787	392.69
612.995	386.69
613.203	405.69
613.411	400.69
613.618	396.69
613.826	399.69
614.034	408.69
614.242	404.69
614.449	408.69
614.657	418.69
614.865	372.69
615.072	403.69
615.28	392.69
615.488	402.69
615.695	387.69
615.903	398.69
616.111	394.69
616.318	402.69
616.526	385.69
616.733	412.69
616.941	391.69
617.148	389.69
617.356	398.69
617.563	375.69
617.771	375.69
617.978	379.69
618.185	372.69
618.393	389.69
618.6	382.69
618.807	393.69
619.015	379.69
619.222	399.69
619.429	353.69
619.637	371.69
619.844	347.69
620.051	363.69
620.258	340.69
620.466	352.69
620.673	360.69
620.88	363.69
621.087	351.69
621.294	354.69
621.501	342.69
621.708	334.69
621.915	336.69
622.122	365.69
622.329	346.69
622.536	355.69
622.743	373.69
622.95	351.69
623.157	346.69
623.364	338.69
623.571	346.69
623.778	350.69
623.985	356.69
624.192	358.69
624.399	340.69
624.606	356.69
624.812	337.69
625.019	328.69
625.226	328.69
625.433	343.69
625.639	323.69
625.846	321.69
626.053	323.69
626.259	328.69
626.466	319.69
626.673	327.69
626.879	324.69
627.086	318.69
627.293	329.69
627.499	320.69
627.706	325.69
627.912	332.69
628.119	348.69
628.325	320.69
628.532	329.69
628.738	308.69
628.945	308.69
629.151	309.69
629.357	313.69
629.564	327.69
629.77	338.69
629.976	315.69
630.183	323.69
630.389	313.69
630.595	308.69
630.802	308.69
631.008	308.69
631.214	313.69
631.42	299.69
631.627	295.69
631.833	299.69
632.039	288.69
632.245	288.69
632.451	317.69
632.657	313.69
632.863	307.69
633.069	305.69
633.275	319.69
633.481	293.69
633.688	313.69
633.893	297.69
634.099	324.69
634.305	313.69
634.511	314.69
634.717	313.69
634.923	305.69
635.129	341.69
635.335	391.69
635.541	351.69
635.747	311.69
635.952	303.69
636.158	315.69
636.364	324.69
636.57	297.69
636.775	297.69
636.981	321.69
637.187	302.69
637.392	303.69
637.598	317.69
637.804	305.69
638.009	311.69
638.215	321.69
638.421	315.69
638.626	303.69
638.832	312.69
639.037	309.69
639.243	291.69
639.448	309.69
639.654	312.69
639.859	317.69
640.065	324.69
640.27	311.69
640.475	317.69
640.681	314.69
640.886	319.69
641.091	320.69
641.297	318.69
641.502	328.69
641.707	317.69
641.913	318.69
642.118	347.69
642.323	325.69
642.528	333.69
642.733	331.69
642.939	352.69
643.144	360.69
643.349	361.69
643.554	388.69
643.759	375.69
643.964	400.69
644.169	413.69
644.374	419.69
644.579	479.69
644.784	524.69
644.989	557.69
645.194	628.69
645.399	741.69
645.604	778.69
645.809	635.69
646.014	495.69
646.219	421.69
646.423	414.69
646.628	380.69
646.833	346.69
647.038	344.69
647.243	324.69
647.447	328.69
647.652	334.69
647.857	296.69
648.062	303.69
648.266	288.69
648.471	277.69
648.676	284.69
648.88	284.69
649.085	276.69
649.289	266.69
649.494	244.69
649.698	275.69
649.903	275.69
650.107	270.69
650.312	253.69
650.516	239.69
650.721	265.69
650.925	246.69
651.13	236.69
651.334	221.69
651.539	231.69
651.743	227.69
651.947	227.69
652.152	243.69
652.356	220.69
652.56	257.69
652.764	277.69
652.969	263.69
653.173	228.69
653.377	223.69
653.581	209.69
653.785	214.69
653.99	191.69
654.194	208.69
654.398	216.69
654.602	229.69
654.806	206.69
655.01	211.69
655.214	205.69
655.418	201.69
655.622	189.69
655.826	205.69
656.03	207.69
656.234	205.69
656.438	220.69
656.642	229.69
656.846	230.69
657.049	222.69
657.253	196.69
657.457	203.69
657.661	175.69
657.865	170.69
658.068	168.69
658.272	159.69
658.476	151.69
658.68	155.69
658.883	141.69
659.087	142.69
659.291	119.69
659.494	124.69
659.698	123.69
659.901	131.69
660.105	107.69
660.309	118.69
660.512	113.69
660.716	122.69
660.919	108.69
661.123	99.69
661.326	121.69
661.53	98.69
661.733	104.69
661.936	95.69
662.14	82.69
662.343	86.69
662.546	93.69
662.75	93.69
662.953	89.69
663.156	85.69
663.36	92.69
663.563	92.69
663.766	81.69
663.969	90.69
664.173	78.69
664.376	83.69
664.579	81.69
664.782	83.69
664.985	76.69
665.188	69.69
665.391	75.69
665.594	72.69
665.797	69.69
666	76.69
666.203	87.69
666.406	72.69
666.609	88.69
666.812	84.69
667.015	74.69
667.218	74.69
667.421	88.69
667.624	85.69
667.827	73.69
668.03	79.69
668.232	80.69
668.435	80.69
668.638	88.69
668.841	67.69
669.043	75.69
669.246	88.69
669.449	89.69
669.651	90.69
669.854	93.69
670.057	74.69
670.259	81.69
670.462	93.69
670.665	82.69
670.867	81.69
671.07	85.69
671.272	79.69
671.475	92.69
671.677	82.69
671.88	86.69
672.082	79.69
672.284	77.69
672.487	82.69
672.689	85.69
672.892	83.69
