Data from SnStandardFlinnAPT0064_LampEnergy5.5_LIBS07252019.E.O._I.C._HRD10591_15-17-02-492.txt Node
Date: Thu Jul 25 15:17:02 EDT 2019
User: cochatt
Spectrometer: HR+D1059
Trigger mode: 1
Integration Time (sec): 1.000000E-1
Scans to average: 1
Electric dark correction enabled: true
Nonlinearity correction enabled: false
Boxcar width: 0
XAxis mode: Wavelengths
Number of Pixels in Spectrum: 2048
>>>>>Begin Spectral Data<<<<<
223.165	-20.44
223.4	-20.44
223.635	-20.44
223.869	-19.44
224.104	-24.44
224.338	-12.44
224.573	-14.44
224.808	-3.44
225.042	-2.44
225.277	-17.44
225.511	5.56
225.746	3.56
225.98	-2.44
226.215	12.56
226.449	25.56
226.683	17.56
226.918	20.56
227.152	31.56
227.387	9.56
227.621	41.56
227.856	53.56
228.09	41.56
228.324	51.56
228.559	56.56
228.793	95.56
229.027	153.56
229.262	164.56
229.496	147.56
229.73	144.56
229.964	154.56
230.199	135.56
230.433	172.56
230.667	163.56
230.901	186.56
231.136	167.56
231.37	176.56
231.604	195.56
231.838	221.56
232.072	239.56
232.306	261.56
232.541	211.56
232.775	197.56
233.009	211.56
233.243	203.56
233.477	229.56
233.711	252.56
233.945	283.56
234.179	242.56
234.413	226.56
234.647	217.56
234.881	221.56
235.115	238.56
235.349	268.56
235.583	346.56
235.817	458.56
236.051	450.56
236.285	314.56
236.519	252.56
236.753	224.56
236.987	233.56
237.221	246.56
237.455	255.56
237.689	221.56
237.922	223.56
238.156	215.56
238.39	233.56
238.624	225.56
238.858	206.56
239.091	208.56
239.325	249.56
239.559	240.56
239.793	250.56
240.027	263.56
240.26	253.56
240.494	264.56
240.728	271.56
240.961	269.56
241.195	279.56
241.429	287.56
241.662	296.56
241.896	339.56
242.13	400.56
242.363	521.56
242.597	679.56
242.83	631.56
243.064	646.56
243.298	762.56
243.531	625.56
243.765	404.56
243.998	324.56
244.232	324.56
244.465	299.56
244.699	300.56
244.932	293.56
245.166	280.56
245.399	300.56
245.633	282.56
245.866	308.56
246.099	305.56
246.333	287.56
246.566	283.56
246.8	284.56
247.033	282.56
247.266	298.56
247.5	282.56
247.733	300.56
247.966	322.56
248.2	341.56
248.433	385.56
248.666	429.56
248.899	388.56
249.133	358.56
249.366	363.56
249.599	394.56
249.832	449.56
250.066	455.56
250.299	379.56
250.532	337.56
250.765	322.56
250.998	340.56
251.231	321.56
251.465	327.56
251.698	332.56
251.931	338.56
252.164	338.56
252.397	330.56
252.63	332.56
252.863	377.56
253.096	366.56
253.329	345.56
253.562	363.56
253.795	363.56
254.028	352.56
254.261	359.56
254.494	383.56
254.727	437.56
254.96	531.56
255.193	531.56
255.426	408.56
255.659	364.56
255.892	383.56
256.124	383.56
256.357	371.56
256.59	402.56
256.823	420.56
257.056	461.56
257.289	547.56
257.521	610.56
257.754	481.56
257.987	411.56
258.22	417.56
258.452	403.56
258.685	399.56
258.918	412.56
259.151	441.56
259.383	485.56
259.616	496.56
259.849	532.56
260.081	455.56
260.314	443.56
260.547	436.56
260.779	439.56
261.012	443.56
261.244	416.56
261.477	439.56
261.71	438.56
261.942	451.56
262.175	490.56
262.407	467.56
262.64	476.56
262.872	492.56
263.105	488.56
263.337	532.56
263.57	559.56
263.802	551.56
264.035	569.56
264.267	573.56
264.499	612.56
264.732	614.56
264.964	636.56
265.197	630.56
265.429	620.56
265.661	619.56
265.894	681.56
266.126	767.56
266.358	840.56
266.591	784.56
266.823	654.56
267.055	625.56
267.287	619.56
267.52	584.56
267.752	577.56
267.984	569.56
268.216	556.56
268.448	560.56
268.681	540.56
268.913	548.56
269.145	525.56
269.377	550.56
269.609	543.56
269.841	552.56
270.073	597.56
270.306	694.56
270.538	917.56
270.77	1333.56
271.002	1649.56
271.234	1142.56
271.466	762.56
271.698	621.56
271.93	577.56
272.162	557.56
272.394	567.56
272.626	529.56
272.858	524.56
273.09	545.56
273.322	529.56
273.553	539.56
273.785	519.56
274.017	515.56
274.249	528.56
274.481	537.56
274.713	535.56
274.945	534.56
275.176	522.56
275.408	540.56
275.64	542.56
275.872	513.56
276.104	553.56
276.335	531.56
276.567	548.56
276.799	531.56
277.031	559.56
277.262	567.56
277.494	580.56
277.726	660.56
277.957	744.56
278.189	836.56
278.421	823.56
278.652	730.56
278.884	661.56
279.115	621.56
279.347	607.56
279.579	601.56
279.81	597.56
280.042	601.56
280.273	600.56
280.505	609.56
280.736	628.56
280.968	653.56
281.199	715.56
281.431	793.56
281.662	789.56
281.894	734.56
282.125	675.56
282.356	674.56
282.588	661.56
282.819	711.56
283.051	748.56
283.282	843.56
283.513	1027.56
283.745	1475.56
283.976	2373.56
284.207	3326.56
284.439	2963.56
284.67	1752.56
284.901	1400.56
285.132	1388.56
285.364	1335.56
285.595	1048.56
285.826	963.56
286.057	1144.56
286.288	1602.56
286.52	2113.56
286.751	1952.56
286.982	1232.56
287.213	913.56
287.444	800.56
287.675	740.56
287.906	740.56
288.138	725.56
288.369	707.56
288.6	707.56
288.831	704.56
289.062	697.56
289.293	698.56
289.524	724.56
289.755	716.56
289.986	713.56
290.217	713.56
290.448	720.56
290.679	736.56
290.91	735.56
291.141	776.56
291.371	807.56
291.602	801.56
291.833	762.56
292.064	726.56
292.295	708.56
292.526	712.56
292.757	699.56
292.987	682.56
293.218	680.56
293.449	679.56
293.68	687.56
293.91	657.56
294.141	665.56
294.372	662.56
294.603	654.56
294.833	674.56
295.064	662.56
295.295	657.56
295.525	661.56
295.756	660.56
295.987	685.56
296.217	669.56
296.448	667.56
296.679	684.56
296.909	671.56
297.14	674.56
297.37	677.56
297.601	687.56
297.831	673.56
298.062	689.56
298.292	704.56
298.523	708.56
298.753	737.56
298.984	734.56
299.214	738.56
299.445	747.56
299.675	735.56
299.905	774.56
300.136	808.56
300.366	866.56
300.597	1147.56
300.827	1603.56
301.057	2137.56
301.288	2037.56
301.518	1316.56
301.748	1005.56
301.979	937.56
302.209	922.56
302.439	932.56
302.669	975.56
302.9	1175.56
303.13	1655.56
303.36	2429.56
303.59	3258.56
303.82	2802.56
304.051	1617.56
304.281	1169.56
304.511	998.56
304.741	933.56
304.971	897.56
305.201	872.56
305.431	813.56
305.661	825.56
305.891	791.56
306.121	791.56
306.352	795.56
306.582	798.56
306.812	784.56
307.042	781.56
307.272	773.56
307.502	765.56
307.731	759.56
307.961	771.56
308.191	768.56
308.421	771.56
308.651	769.56
308.881	763.56
309.111	759.56
309.341	776.56
309.571	791.56
309.8	799.56
310.03	787.56
310.26	787.56
310.49	782.56
310.72	784.56
310.949	796.56
311.179	799.56
311.409	821.56
311.639	813.56
311.868	812.56
312.098	826.56
312.328	847.56
312.557	836.56
312.787	823.56
313.017	836.56
313.246	845.56
313.476	853.56
313.706	884.56
313.935	921.56
314.165	963.56
314.394	997.56
314.624	965.56
314.853	917.56
315.083	890.56
315.312	913.56
315.542	903.56
315.771	934.56
316.001	917.56
316.23	945.56
316.46	995.56
316.689	1092.56
316.919	1330.56
317.148	1913.56
317.377	2987.56
317.607	4307.56
317.836	4489.56
318.065	2549.56
318.295	1640.56
318.524	1312.56
318.753	1178.56
318.983	1085.56
319.212	1027.56
319.441	1050.56
319.67	1004.56
319.9	966.56
320.129	980.56
320.358	955.56
320.587	952.56
320.816	958.56
321.046	968.56
321.275	966.56
321.504	967.56
321.733	983.56
321.962	1021.56
322.191	1042.56
322.42	1029.56
322.649	996.56
322.878	1017.56
323.108	1039.56
323.337	1057.56
323.566	1043.56
323.795	1091.56
324.024	1105.56
324.253	1067.56
324.482	1128.56
324.71	1256.56
324.939	1256.56
325.168	1321.56
325.397	1367.56
325.626	1633.56
325.855	2234.56
326.084	3497.56
326.313	5243.56
326.542	5625.56
326.77	3458.56
326.999	2214.56
327.228	1857.56
327.457	1805.56
327.686	1828.56
327.914	1928.56
328.143	2140.56
328.372	2539.56
328.6	2689.56
328.829	2481.56
329.058	2169.56
329.287	1923.56
329.515	1770.56
329.744	1636.56
329.972	1604.56
330.201	1556.56
330.43	1494.56
330.658	1453.56
330.887	1407.56
331.115	1388.56
331.344	1445.56
331.572	1395.56
331.801	1398.56
332.03	1387.56
332.258	1431.56
332.486	1484.56
332.715	1715.56
332.943	2101.56
333.172	2587.56
333.4	2515.56
333.629	1948.56
333.857	1738.56
334.085	1712.56
334.314	1849.56
334.542	1985.56
334.771	2290.56
334.999	2699.56
335.227	3237.56
335.455	3611.56
335.684	3371.56
335.912	2884.56
336.14	2476.56
336.369	2217.56
336.597	2031.56
336.825	1882.56
337.053	1797.56
337.281	1711.56
337.51	1628.56
337.738	1568.56
337.966	1509.56
338.194	1471.56
338.422	1431.56
338.65	1361.56
338.878	1367.56
339.106	1314.56
339.334	1314.56
339.562	1290.56
339.79	1279.56
340.018	1228.56
340.246	1252.56
340.474	1229.56
340.702	1225.56
340.93	1264.56
341.158	1239.56
341.386	1236.56
341.614	1212.56
341.842	1222.56
342.07	1177.56
342.298	1163.56
342.526	1144.56
342.754	1160.56
342.981	1156.56
343.209	1138.56
343.437	1145.56
343.665	1157.56
343.893	1164.56
344.12	1153.56
344.348	1177.56
344.576	1176.56
344.804	1126.56
345.031	1075.56
345.259	1115.56
345.487	1082.56
345.714	1084.56
345.942	1102.56
346.17	1072.56
346.397	1063.56
346.625	1073.56
346.853	1073.56
347.08	1061.56
347.308	1048.56
347.535	1041.56
347.763	1031.56
347.99	1037.56
348.218	1043.56
348.445	1065.56
348.673	1068.56
348.9	1048.56
349.128	1022.56
349.355	1023.56
349.583	1055.56
349.81	1028.56
350.037	1045.56
350.265	1015.56
350.492	991.56
350.72	998.56
350.947	1010.56
351.174	1035.56
351.402	1025.56
351.629	1003.56
351.856	1001.56
352.083	1033.56
352.311	1001.56
352.538	994.56
352.765	1013.56
352.992	1009.56
353.22	1013.56
353.447	1015.56
353.674	997.56
353.901	1025.56
354.128	1032.56
354.355	988.56
354.583	1012.56
354.81	1031.56
355.037	1033.56
355.264	1013.56
355.491	1065.56
355.718	1038.56
355.945	1025.56
356.172	1043.56
356.399	1080.56
356.626	1033.56
356.853	1039.56
357.08	1039.56
357.307	1073.56
357.534	1079.56
357.761	1080.56
357.988	1088.56
358.215	1073.56
358.441	1044.56
358.668	1092.56
358.895	1081.56
359.122	1056.56
359.349	1061.56
359.576	1067.56
359.802	1083.56
360.029	1075.56
360.256	1068.56
360.483	1073.56
360.709	1085.56
360.936	1058.56
361.163	1100.56
361.39	1077.56
361.616	1079.56
361.843	1070.56
362.07	1069.56
362.296	1112.56
362.523	1085.56
362.749	1100.56
362.976	1084.56
363.203	1066.56
363.429	1054.56
363.656	1065.56
363.882	1100.56
364.109	1056.56
364.335	1055.56
364.562	1061.56
364.788	1060.56
365.015	1059.56
365.241	1107.56
365.468	1130.56
365.694	1195.56
365.92	1157.56
366.147	1102.56
366.373	1112.56
366.599	1095.56
366.826	1075.56
367.052	1113.56
367.278	1132.56
367.505	1105.56
367.731	1095.56
367.957	1125.56
368.184	1108.56
368.41	1107.56
368.636	1127.56
368.862	1099.56
369.089	1105.56
369.315	1106.56
369.541	1137.56
369.767	1105.56
369.993	1110.56
370.219	1144.56
370.445	1121.56
370.672	1120.56
370.898	1122.56
371.124	1104.56
371.35	1126.56
371.576	1154.56
371.802	1164.56
372.028	1148.56
372.254	1159.56
372.48	1175.56
372.706	1173.56
372.932	1170.56
373.158	1195.56
373.384	1215.56
373.61	1205.56
373.835	1190.56
374.061	1178.56
374.287	1185.56
374.513	1194.56
374.739	1212.56
374.965	1224.56
375.191	1245.56
375.416	1227.56
375.642	1216.56
375.868	1208.56
376.094	1192.56
376.319	1169.56
376.545	1173.56
376.771	1176.56
376.997	1159.56
377.222	1137.56
377.448	1131.56
377.674	1153.56
377.899	1139.56
378.125	1128.56
378.35	1179.56
378.576	1181.56
378.802	1187.56
379.027	1176.56
379.253	1234.56
379.478	1281.56
379.704	1453.56
379.929	2079.56
380.155	3195.56
380.38	3407.56
380.606	2032.56
380.831	1489.56
381.057	1296.56
381.282	1259.56
381.507	1217.56
381.733	1179.56
381.958	1176.56
382.184	1156.56
382.409	1132.56
382.634	1135.56
382.86	1134.56
383.085	1136.56
383.31	1161.56
383.535	1127.56
383.761	1124.56
383.986	1152.56
384.211	1171.56
384.436	1188.56
384.662	1165.56
384.887	1189.56
385.112	1199.56
385.337	1184.56
385.562	1172.56
385.787	1172.56
386.013	1176.56
386.238	1202.56
386.463	1195.56
386.688	1190.56
386.913	1144.56
387.138	1177.56
387.363	1208.56
387.588	1183.56
387.813	1209.56
388.038	1190.56
388.263	1191.56
388.488	1166.56
388.713	1171.56
388.938	1193.56
389.163	1169.56
389.387	1172.56
389.612	1178.56
389.837	1173.56
390.062	1193.56
390.287	1166.56
390.512	1205.56
390.736	1227.56
390.961	1189.56
391.186	1235.56
391.411	1212.56
391.636	1226.56
391.86	1241.56
392.085	1259.56
392.31	1264.56
392.534	1223.56
392.759	1248.56
392.984	1246.56
393.208	1221.56
393.433	1233.56
393.658	1251.56
393.882	1204.56
394.107	1205.56
394.331	1205.56
394.556	1230.56
394.78	1224.56
395.005	1251.56
395.229	1215.56
395.454	1254.56
395.678	1241.56
395.903	1227.56
396.127	1239.56
396.352	1235.56
396.576	1220.56
396.801	1223.56
397.025	1254.56
397.249	1228.56
397.474	1242.56
397.698	1244.56
397.922	1277.56
398.147	1251.56
398.371	1277.56
398.595	1299.56
398.82	1291.56
399.044	1383.56
399.268	1437.56
399.492	1517.56
399.717	1573.56
399.941	1561.56
400.165	1558.56
400.389	1492.56
400.613	1421.56
400.837	1349.56
401.062	1355.56
401.286	1340.56
401.51	1323.56
401.734	1311.56
401.958	1299.56
402.182	1320.56
402.406	1320.56
402.63	1326.56
402.854	1345.56
403.078	1340.56
403.302	1344.56
403.526	1379.56
403.75	1350.56
403.974	1385.56
404.198	1352.56
404.422	1390.56
404.645	1313.56
404.869	1361.56
405.093	1371.56
405.317	1377.56
405.541	1371.56
405.765	1366.56
405.988	1398.56
406.212	1397.56
406.436	1357.56
406.66	1405.56
406.883	1403.56
407.107	1452.56
407.331	1478.56
407.555	1485.56
407.778	1473.56
408.002	1474.56
408.226	1444.56
408.449	1469.56
408.673	1401.56
408.896	1388.56
409.12	1379.56
409.344	1400.56
409.567	1392.56
409.791	1355.56
410.014	1359.56
410.238	1347.56
410.461	1365.56
410.685	1348.56
410.908	1350.56
411.132	1315.56
411.355	1299.56
411.578	1315.56
411.802	1307.56
412.025	1304.56
412.249	1292.56
412.472	1302.56
412.695	1331.56
412.919	1315.56
413.142	1332.56
413.365	1301.56
413.589	1302.56
413.812	1261.56
414.035	1308.56
414.258	1275.56
414.482	1304.56
414.705	1245.56
414.928	1254.56
415.151	1281.56
415.374	1246.56
415.597	1285.56
415.821	1241.56
416.044	1241.56
416.267	1256.56
416.49	1244.56
416.713	1237.56
416.936	1238.56
417.159	1242.56
417.382	1200.56
417.605	1227.56
417.828	1225.56
418.051	1239.56
418.274	1259.56
418.497	1260.56
418.72	1282.56
418.943	1279.56
419.166	1307.56
419.389	1391.56
419.611	1384.56
419.834	1323.56
420.057	1312.56
420.28	1271.56
420.503	1258.56
420.726	1237.56
420.948	1248.56
421.171	1295.56
421.394	1274.56
421.617	1248.56
421.839	1256.56
422.062	1259.56
422.285	1209.56
422.507	1283.56
422.73	1281.56
422.953	1274.56
423.175	1296.56
423.398	1271.56
423.621	1233.56
423.843	1264.56
424.066	1249.56
424.288	1246.56
424.511	1256.56
424.733	1251.56
424.956	1213.56
425.178	1233.56
425.401	1251.56
425.623	1256.56
425.846	1184.56
426.068	1208.56
426.291	1205.56
426.513	1188.56
426.735	1192.56
426.958	1218.56
427.18	1145.56
427.402	1193.56
427.625	1201.56
427.847	1173.56
428.069	1156.56
428.292	1186.56
428.514	1160.56
428.736	1182.56
428.958	1161.56
429.181	1152.56
429.403	1126.56
429.625	1149.56
429.847	1161.56
430.069	1156.56
430.292	1191.56
430.514	1227.56
430.736	1229.56
430.958	1193.56
431.18	1151.56
431.402	1166.56
431.624	1132.56
431.846	1133.56
432.068	1126.56
432.29	1153.56
432.512	1136.56
432.734	1145.56
432.956	1121.56
433.178	1155.56
433.4	1157.56
433.622	1152.56
433.844	1183.56
434.066	1178.56
434.287	1116.56
434.509	1155.56
434.731	1139.56
434.953	1213.56
435.175	1191.56
435.397	1191.56
435.618	1139.56
435.84	1155.56
436.062	1097.56
436.284	1138.56
436.505	1146.56
436.727	1138.56
436.949	1152.56
437.17	1124.56
437.392	1125.56
437.614	1166.56
437.835	1079.56
438.057	1097.56
438.278	1095.56
438.5	1098.56
438.721	1137.56
438.943	1142.56
439.165	1179.56
439.386	1199.56
439.608	1181.56
439.829	1187.56
440.05	1209.56
440.272	1281.56
440.493	1191.56
440.715	1206.56
440.936	1197.56
441.158	1177.56
441.379	1207.56
441.6	1250.56
441.822	1276.56
442.043	1350.56
442.264	1372.56
442.486	1285.56
442.707	1243.56
442.928	1207.56
443.149	1241.56
443.371	1222.56
443.592	1225.56
443.813	1223.56
444.034	1218.56
444.255	1246.56
444.476	1267.56
444.698	1295.56
444.919	1324.56
445.14	1415.56
445.361	1315.56
445.582	1228.56
445.803	1241.56
446.024	1214.56
446.245	1241.56
446.466	1265.56
446.687	1201.56
446.908	1171.56
447.129	1219.56
447.35	1157.56
447.571	1168.56
447.792	1128.56
448.013	1126.56
448.234	1148.56
448.455	1145.56
448.675	1163.56
448.896	1172.56
449.117	1236.56
449.338	1279.56
449.559	1331.56
449.779	1212.56
450	1138.56
450.221	1143.56
450.442	1141.56
450.662	1113.56
450.883	1064.56
451.104	1108.56
451.324	1109.56
451.545	1109.56
451.766	1096.56
451.986	1089.56
452.207	1155.56
452.428	1468.56
452.648	2031.56
452.869	1750.56
453.089	1285.56
453.31	1210.56
453.53	1248.56
453.751	1275.56
453.971	1317.56
454.192	1346.56
454.412	1166.56
454.633	1109.56
454.853	1079.56
455.073	1069.56
455.294	1079.56
455.514	1041.56
455.734	1069.56
455.955	1034.56
456.175	1057.56
456.395	1060.56
456.616	1054.56
456.836	1052.56
457.056	1077.56
457.276	1035.56
457.497	1141.56
457.717	1137.56
457.937	1089.56
458.157	1105.56
458.377	1096.56
458.598	1105.56
458.818	1116.56
459.038	1120.56
459.258	1135.56
459.478	1141.56
459.698	1107.56
459.918	1161.56
460.138	1198.56
460.358	1212.56
460.578	1181.56
460.798	1241.56
461.018	1217.56
461.238	1233.56
461.458	1259.56
461.678	1268.56
461.898	1311.56
462.118	1307.56
462.338	1289.56
462.558	1331.56
462.777	1373.56
462.997	1367.56
463.217	1422.56
463.437	1450.56
463.657	1523.56
463.876	1500.56
464.096	1444.56
464.316	1383.56
464.536	1343.56
464.755	1324.56
464.975	1288.56
465.195	1260.56
465.414	1231.56
465.634	1180.56
465.854	1185.56
466.073	1167.56
466.293	1171.56
466.512	1157.56
466.732	1185.56
466.951	1203.56
467.171	1261.56
467.391	1281.56
467.61	1153.56
467.829	1116.56
468.049	1150.56
468.268	1124.56
468.488	1115.56
468.707	1116.56
468.927	1146.56
469.146	1136.56
469.365	1166.56
469.585	1129.56
469.804	1148.56
470.023	1201.56
470.243	1196.56
470.462	1217.56
470.681	1303.56
470.901	1387.56
471.12	1611.56
471.339	1637.56
471.558	1345.56
471.777	1210.56
471.997	1203.56
472.216	1162.56
472.435	1144.56
472.654	1112.56
472.873	1107.56
473.092	1113.56
473.311	1137.56
473.53	1151.56
473.749	1158.56
473.968	1183.56
474.187	1136.56
474.406	1141.56
474.625	1151.56
474.844	1147.56
475.063	1125.56
475.282	1142.56
475.501	1141.56
475.72	1161.56
475.939	1159.56
476.158	1190.56
476.377	1203.56
476.596	1148.56
476.814	1201.56
477.033	1153.56
477.252	1204.56
477.471	1211.56
477.69	1266.56
477.908	1280.56
478.127	1333.56
478.346	1309.56
478.564	1295.56
478.783	1304.56
479.002	1340.56
479.22	1330.56
479.439	1299.56
479.658	1315.56
479.876	1337.56
480.095	1363.56
480.313	1379.56
480.532	1354.56
480.751	1372.56
480.969	1353.56
481.188	1315.56
481.406	1297.56
481.624	1321.56
481.843	1328.56
482.061	1366.56
482.28	1321.56
482.498	1362.56
482.717	1322.56
482.935	1350.56
483.153	1362.56
483.372	1382.56
483.59	1443.56
483.808	1423.56
484.027	1457.56
484.245	1503.56
484.463	1704.56
484.681	1877.56
484.9	1704.56
485.118	1634.56
485.336	1559.56
485.554	1537.56
485.772	1680.56
485.99	1893.56
486.209	2087.56
486.427	1691.56
486.645	1557.56
486.863	1504.56
487.081	1464.56
487.299	1404.56
487.517	1445.56
487.735	1479.56
487.953	1471.56
488.171	1421.56
488.389	1437.56
488.607	1424.56
488.825	1388.56
489.043	1368.56
489.261	1348.56
489.479	1394.56
489.696	1397.56
489.914	1400.56
490.132	1409.56
490.35	1466.56
490.568	1443.56
490.786	1423.56
491.003	1433.56
491.221	1486.56
491.439	1499.56
491.657	1452.56
491.874	1519.56
492.092	1535.56
492.31	1561.56
492.527	1506.56
492.745	1532.56
492.963	1491.56
493.18	1504.56
493.398	1490.56
493.615	1504.56
493.833	1476.56
494.05	1513.56
494.268	1494.56
494.485	1461.56
494.703	1456.56
494.92	1507.56
495.138	1489.56
495.355	1508.56
495.573	1475.56
495.79	1521.56
496.008	1539.56
496.225	1550.56
496.442	1570.56
496.66	1588.56
496.877	1631.56
497.094	1627.56
497.312	1587.56
497.529	1592.56
497.746	1617.56
497.963	1635.56
498.181	1657.56
498.398	1721.56
498.615	1763.56
498.832	1811.56
499.049	1909.56
499.267	2011.56
499.484	2153.56
499.701	2165.56
499.918	2218.56
500.135	2349.56
500.352	2494.56
500.569	2469.56
500.786	2460.56
501.003	2412.56
501.22	2349.56
501.437	2194.56
501.654	2095.56
501.871	1955.56
502.088	1879.56
502.305	1817.56
502.522	1751.56
502.739	1707.56
502.956	1640.56
503.172	1676.56
503.389	1616.56
503.606	1566.56
503.823	1529.56
504.04	1542.56
504.256	1523.56
504.473	1523.56
504.69	1538.56
504.907	1530.56
505.123	1472.56
505.34	1434.56
505.557	1411.56
505.773	1391.56
505.99	1352.56
506.207	1345.56
506.423	1321.56
506.64	1347.56
506.856	1329.56
507.073	1322.56
507.289	1309.56
507.506	1309.56
507.722	1287.56
507.939	1293.56
508.155	1277.56
508.372	1290.56
508.588	1270.56
508.805	1259.56
509.021	1266.56
509.238	1285.56
509.454	1368.56
509.67	1427.56
509.887	1301.56
510.103	1268.56
510.319	1243.56
510.536	1283.56
510.752	1279.56
510.968	1234.56
511.184	1201.56
511.401	1192.56
511.617	1213.56
511.833	1234.56
512.049	1190.56
512.265	1233.56
512.481	1211.56
512.698	1216.56
512.914	1195.56
513.13	1189.56
513.346	1177.56
513.562	1202.56
513.778	1205.56
513.994	1223.56
514.21	1272.56
514.426	1326.56
514.642	1396.56
514.858	1266.56
515.074	1233.56
515.29	1242.56
515.506	1261.56
515.721	1213.56
515.937	1233.56
516.153	1314.56
516.369	1308.56
516.585	1283.56
516.801	1268.56
517.016	1303.56
517.232	1311.56
517.448	1376.56
517.664	1381.56
517.879	1368.56
518.095	1371.56
518.311	1374.56
518.527	1325.56
518.742	1353.56
518.958	1325.56
519.173	1337.56
519.389	1314.56
519.605	1300.56
519.82	1253.56
520.036	1272.56
520.251	1209.56
520.467	1222.56
520.682	1204.56
520.898	1203.56
521.113	1210.56
521.329	1192.56
521.544	1194.56
521.76	1168.56
521.975	1169.56
522.19	1196.56
522.406	1155.56
522.621	1155.56
522.836	1163.56
523.052	1193.56
523.267	1150.56
523.482	1179.56
523.698	1161.56
523.913	1208.56
524.128	1170.56
524.343	1164.56
524.559	1162.56
524.774	1172.56
524.989	1218.56
525.204	1159.56
525.419	1200.56
525.634	1165.56
525.849	1161.56
526.064	1166.56
526.28	1147.56
526.495	1162.56
526.71	1182.56
526.925	1130.56
527.14	1132.56
527.355	1185.56
527.57	1157.56
527.785	1191.56
527.999	1165.56
528.214	1193.56
528.429	1181.56
528.644	1221.56
528.859	1225.56
529.074	1260.56
529.289	1274.56
529.503	1322.56
529.718	1248.56
529.933	1224.56
530.148	1236.56
530.363	1247.56
530.577	1194.56
530.792	1202.56
531.007	1224.56
531.221	1225.56
531.436	1237.56
531.651	1254.56
531.865	1263.56
532.08	1291.56
532.295	1313.56
532.509	1378.56
532.724	1383.56
532.938	1384.56
533.153	1398.56
533.367	1507.56
533.582	1578.56
533.796	1558.56
534.011	1485.56
534.225	1453.56
534.44	1396.56
534.654	1394.56
534.868	1380.56
535.083	1379.56
535.297	1362.56
535.511	1331.56
535.726	1298.56
535.94	1304.56
536.154	1242.56
536.369	1260.56
536.583	1195.56
536.797	1226.56
537.011	1190.56
537.225	1187.56
537.44	1170.56
537.654	1178.56
537.868	1142.56
538.082	1162.56
538.296	1149.56
538.51	1127.56
538.724	1157.56
538.938	1183.56
539.153	1148.56
539.367	1163.56
539.581	1146.56
539.795	1121.56
540.009	1099.56
540.222	1110.56
540.436	1120.56
540.65	1155.56
540.864	1164.56
541.078	1175.56
541.292	1225.56
541.506	1483.56
541.72	1570.56
541.934	1305.56
542.147	1261.56
542.361	1205.56
542.575	1207.56
542.789	1127.56
543.002	1083.56
543.216	1110.56
543.43	1096.56
543.644	1096.56
543.857	1107.56
544.071	1128.56
544.285	1121.56
544.498	1149.56
544.712	1125.56
544.925	1130.56
545.139	1147.56
545.352	1129.56
545.566	1133.56
545.779	1142.56
545.993	1123.56
546.206	1150.56
546.42	1148.56
546.633	1155.56
546.847	1111.56
547.06	1155.56
547.274	1123.56
547.487	1131.56
547.7	1154.56
547.914	1135.56
548.127	1144.56
548.34	1124.56
548.554	1123.56
548.767	1144.56
548.98	1138.56
549.193	1137.56
549.407	1142.56
549.62	1161.56
549.833	1162.56
550.046	1139.56
550.259	1103.56
550.473	1102.56
550.686	1178.56
550.899	1102.56
551.112	1094.56
551.325	1127.56
551.538	1124.56
551.751	1111.56
551.964	1128.56
552.177	1119.56
552.39	1125.56
552.603	1175.56
552.816	1199.56
553.029	1232.56
553.242	1214.56
553.455	1245.56
553.667	1258.56
553.88	1259.56
554.093	1273.56
554.306	1230.56
554.519	1269.56
554.732	1299.56
554.944	1294.56
555.157	1278.56
555.37	1323.56
555.583	1353.56
555.795	1433.56
556.008	1490.56
556.221	1581.56
556.433	1659.56
556.646	1694.56
556.859	1649.56
557.071	1602.56
557.284	1563.56
557.496	1553.56
557.709	1546.56
557.921	1513.56
558.134	1521.56
558.346	1561.56
558.559	1552.56
558.771	1640.56
558.984	1738.56
559.196	1816.56
559.409	1777.56
559.621	1617.56
559.833	1583.56
560.046	1544.56
560.258	1457.56
560.47	1425.56
560.683	1348.56
560.895	1315.56
561.107	1319.56
561.32	1233.56
561.532	1223.56
561.744	1198.56
561.956	1201.56
562.168	1151.56
562.381	1161.56
562.593	1161.56
562.805	1138.56
563.017	1124.56
563.229	1173.56
563.441	1347.56
563.653	1161.56
563.865	1080.56
564.077	1069.56
564.289	1039.56
564.501	1027.56
564.713	1065.56
564.925	1037.56
565.137	1063.56
565.349	1054.56
565.561	1064.56
565.773	1091.56
565.985	1069.56
566.197	1068.56
566.408	1099.56
566.62	1116.56
566.832	1135.56
567.044	1175.56
567.255	1155.56
567.467	1167.56
567.679	1188.56
567.891	1269.56
568.102	1372.56
568.314	1633.56
568.526	1370.56
568.737	1173.56
568.949	1066.56
569.161	1040.56
569.372	986.56
569.584	959.56
569.795	944.56
570.007	919.56
570.218	937.56
570.43	987.56
570.641	915.56
570.853	886.56
571.064	868.56
571.276	871.56
571.487	868.56
571.698	842.56
571.91	866.56
572.121	837.56
572.333	817.56
572.544	821.56
572.755	892.56
572.966	1053.56
573.178	956.56
573.389	832.56
573.6	808.56
573.811	789.56
574.023	760.56
574.234	757.56
574.445	757.56
574.656	745.56
574.867	754.56
575.078	771.56
575.289	770.56
575.501	761.56
575.712	728.56
575.923	748.56
576.134	764.56
576.345	768.56
576.556	779.56
576.767	757.56
576.978	754.56
577.188	746.56
577.399	763.56
577.61	775.56
577.821	772.56
578.032	800.56
578.243	779.56
578.454	796.56
578.665	818.56
578.875	844.56
579.086	833.56
579.297	873.56
579.508	895.56
579.718	967.56
579.929	1050.56
580.14	1212.56
580.35	1231.56
580.561	1175.56
580.772	1088.56
580.982	1031.56
581.193	971.56
581.403	938.56
581.614	908.56
581.825	876.56
582.035	834.56
582.246	811.56
582.456	769.56
582.667	783.56
582.877	777.56
583.087	752.56
583.298	734.56
583.508	687.56
583.719	706.56
583.929	700.56
584.139	680.56
584.35	650.56
584.56	647.56
584.77	647.56
584.981	638.56
585.191	615.56
585.401	624.56
585.611	637.56
585.821	628.56
586.032	596.56
586.242	629.56
586.452	627.56
586.662	594.56
586.872	594.56
587.082	616.56
587.292	587.56
587.502	601.56
587.713	538.56
587.923	561.56
588.133	545.56
588.343	556.56
588.553	559.56
588.762	550.56
588.972	565.56
589.182	573.56
589.392	571.56
589.602	562.56
589.812	563.56
590.022	548.56
590.232	561.56
590.441	550.56
590.651	537.56
590.861	534.56
591.071	544.56
591.281	537.56
591.49	545.56
591.7	536.56
591.91	550.56
592.119	580.56
592.329	560.56
592.539	554.56
592.748	548.56
592.958	567.56
593.167	563.56
593.377	583.56
593.587	581.56
593.796	556.56
594.006	565.56
594.215	583.56
594.424	569.56
594.634	540.56
594.843	561.56
595.053	547.56
595.262	531.56
595.472	524.56
595.681	517.56
595.89	521.56
596.1	511.56
596.309	491.56
596.518	497.56
596.727	495.56
596.937	466.56
597.146	492.56
597.355	479.56
597.564	495.56
597.774	491.56
597.983	473.56
598.192	458.56
598.401	473.56
598.61	468.56
598.819	454.56
599.028	455.56
599.237	442.56
599.446	449.56
599.655	462.56
599.864	455.56
600.073	453.56
600.282	459.56
600.491	454.56
600.7	436.56
600.909	439.56
601.118	457.56
601.327	450.56
601.536	464.56
601.745	463.56
601.953	493.56
602.162	584.56
602.371	515.56
602.58	475.56
602.789	480.56
602.997	462.56
603.206	451.56
603.415	436.56
603.623	439.56
603.832	442.56
604.041	441.56
604.249	427.56
604.458	421.56
604.666	426.56
604.875	413.56
605.084	424.56
605.292	434.56
605.501	427.56
605.709	440.56
605.918	452.56
606.126	448.56
606.334	461.56
606.543	450.56
606.751	463.56
606.96	523.56
607.168	600.56
607.376	483.56
607.585	468.56
607.793	440.56
608.001	437.56
608.21	427.56
608.418	421.56
608.626	409.56
608.834	420.56
609.043	401.56
609.251	431.56
609.459	411.56
609.667	430.56
609.875	423.56
610.083	421.56
610.291	411.56
610.499	421.56
610.707	418.56
610.916	419.56
611.124	398.56
611.332	394.56
611.54	393.56
611.748	387.56
611.955	412.56
612.163	404.56
612.371	425.56
612.579	378.56
612.787	409.56
612.995	412.56
613.203	419.56
613.411	395.56
613.618	397.56
613.826	398.56
614.034	396.56
614.242	399.56
614.449	397.56
614.657	404.56
614.865	381.56
615.072	396.56
615.28	422.56
615.488	401.56
615.695	422.56
615.903	396.56
616.111	388.56
616.318	402.56
616.526	405.56
616.733	383.56
616.941	373.56
617.148	396.56
617.356	387.56
617.563	377.56
617.771	389.56
617.978	384.56
618.185	386.56
618.393	370.56
618.6	377.56
618.807	392.56
619.015	377.56
619.222	374.56
619.429	381.56
619.637	372.56
619.844	353.56
620.051	352.56
620.258	358.56
620.466	339.56
620.673	343.56
620.88	361.56
621.087	360.56
621.294	343.56
621.501	365.56
621.708	368.56
621.915	376.56
622.122	362.56
622.329	355.56
622.536	330.56
622.743	352.56
622.95	341.56
623.157	343.56
623.364	355.56
623.571	359.56
623.778	341.56
623.985	343.56
624.192	338.56
624.399	337.56
624.606	353.56
624.812	362.56
625.019	324.56
625.226	343.56
625.433	334.56
625.639	328.56
625.846	345.56
626.053	324.56
626.259	317.56
626.466	333.56
626.673	344.56
626.879	309.56
627.086	311.56
627.293	327.56
627.499	297.56
627.706	339.56
627.912	335.56
628.119	337.56
628.325	328.56
628.532	329.56
628.738	336.56
628.945	318.56
629.151	314.56
629.357	337.56
629.564	318.56
629.77	330.56
629.976	333.56
630.183	320.56
630.389	316.56
630.595	317.56
630.802	300.56
631.008	310.56
631.214	289.56
631.42	316.56
631.627	292.56
631.833	304.56
632.039	315.56
632.245	319.56
632.451	295.56
632.657	312.56
632.863	329.56
633.069	320.56
633.275	322.56
633.481	296.56
633.688	305.56
633.893	282.56
634.099	304.56
634.305	311.56
634.511	319.56
634.717	311.56
634.923	318.56
635.129	332.56
635.335	377.56
635.541	331.56
635.747	313.56
635.952	333.56
636.158	312.56
636.364	291.56
636.57	326.56
636.775	305.56
636.981	307.56
637.187	307.56
637.392	295.56
637.598	314.56
637.804	281.56
638.009	295.56
638.215	302.56
638.421	313.56
638.626	307.56
638.832	297.56
639.037	277.56
639.243	298.56
639.448	309.56
639.654	315.56
639.859	316.56
640.065	309.56
640.27	321.56
640.475	315.56
640.681	314.56
640.886	321.56
641.091	316.56
641.297	317.56
641.502	309.56
641.707	324.56
641.913	352.56
642.118	337.56
642.323	348.56
642.528	347.56
642.733	343.56
642.939	348.56
643.144	367.56
643.349	375.56
643.554	376.56
643.759	378.56
643.964	391.56
644.169	420.56
644.374	449.56
644.579	475.56
644.784	509.56
644.989	569.56
645.194	636.56
645.399	729.56
645.604	761.56
645.809	631.56
646.014	492.56
646.219	447.56
646.423	402.56
646.628	363.56
646.833	354.56
647.038	351.56
647.243	329.56
647.447	333.56
647.652	310.56
647.857	316.56
648.062	322.56
648.266	284.56
648.471	302.56
648.676	291.56
648.88	282.56
649.085	285.56
649.289	275.56
649.494	279.56
649.698	277.56
649.903	242.56
650.107	242.56
650.312	252.56
650.516	259.56
650.721	262.56
650.925	250.56
651.13	236.56
651.334	235.56
651.539	246.56
651.743	225.56
651.947	243.56
652.152	248.56
652.356	243.56
652.56	258.56
652.764	277.56
652.969	247.56
653.173	240.56
653.377	227.56
653.581	192.56
653.785	205.56
653.99	215.56
654.194	220.56
654.398	202.56
654.602	201.56
654.806	209.56
655.01	200.56
655.214	209.56
655.418	204.56
655.622	209.56
655.826	211.56
656.03	208.56
656.234	216.56
656.438	216.56
656.642	220.56
656.846	224.56
657.049	217.56
657.253	211.56
657.457	186.56
657.661	175.56
657.865	163.56
658.068	169.56
658.272	166.56
658.476	163.56
658.68	147.56
658.883	145.56
659.087	132.56
659.291	129.56
659.494	136.56
659.698	124.56
659.901	120.56
660.105	136.56
660.309	118.56
660.512	109.56
660.716	120.56
660.919	99.56
661.123	114.56
661.326	111.56
661.53	103.56
661.733	98.56
661.936	97.56
662.14	97.56
662.343	85.56
662.546	95.56
662.75	97.56
662.953	91.56
663.156	92.56
663.36	91.56
663.563	101.56
663.766	91.56
663.969	85.56
664.173	89.56
664.376	87.56
664.579	91.56
664.782	89.56
664.985	79.56
665.188	81.56
665.391	90.56
665.594	81.56
665.797	94.56
666	93.56
666.203	76.56
666.406	78.56
666.609	72.56
666.812	97.56
667.015	94.56
667.218	98.56
667.421	77.56
667.624	90.56
667.827	84.56
668.03	72.56
668.232	73.56
668.435	94.56
668.638	85.56
668.841	99.56
669.043	86.56
669.246	87.56
669.449	86.56
669.651	77.56
669.854	65.56
670.057	85.56
670.259	81.56
670.462	79.56
670.665	78.56
670.867	71.56
671.07	79.56
671.272	78.56
671.475	88.56
671.677	75.56
671.88	87.56
672.082	70.56
672.284	90.56
672.487	95.56
672.689	90.56
672.892	86.56
