Data from SnStandardFlinnAPT0064_LampEnergy10_LIBS07252019.E.O._I.C._HRD10591_15-20-49-494.txt Node
Date: Thu Jul 25 15:20:49 EDT 2019
User: cochatt
Spectrometer: HR+D1059
Trigger mode: 1
Integration Time (sec): 1.000000E-1
Scans to average: 1
Electric dark correction enabled: true
Nonlinearity correction enabled: false
Boxcar width: 0
XAxis mode: Wavelengths
Number of Pixels in Spectrum: 2048
>>>>>Begin Spectral Data<<<<<
223.165	-15.5
223.4	-15.5
223.635	-15.5
223.869	-13.5
224.104	-12.5
224.338	-11.5
224.573	-14.5
224.808	-4.5
225.042	-10.5
225.277	-13.5
225.511	-0.5
225.746	-0.5
225.98	6.5
226.215	9.5
226.449	11.5
226.683	21.5
226.918	26.5
227.152	21.5
227.387	31.5
227.621	8.5
227.856	46.5
228.09	48.5
228.324	53.5
228.559	45.5
228.793	107.5
229.027	307.5
229.262	341.5
229.496	293.5
229.73	302.5
229.964	302.5
230.199	272.5
230.433	306.5
230.667	309.5
230.901	316.5
231.136	313.5
231.37	355.5
231.604	385.5
231.838	434.5
232.072	508.5
232.306	542.5
232.541	473.5
232.775	411.5
233.009	427.5
233.243	435.5
233.477	465.5
233.711	514.5
233.945	562.5
234.179	501.5
234.413	447.5
234.647	455.5
234.881	467.5
235.115	515.5
235.349	621.5
235.583	780.5
235.817	1006.5
236.051	970.5
236.285	645.5
236.519	532.5
236.753	497.5
236.987	506.5
237.221	534.5
237.455	517.5
237.689	468.5
237.922	446.5
238.156	471.5
238.39	482.5
238.624	490.5
238.858	492.5
239.091	493.5
239.325	476.5
239.559	495.5
239.793	482.5
240.027	547.5
240.26	548.5
240.494	583.5
240.728	558.5
240.961	597.5
241.195	646.5
241.429	656.5
241.662	705.5
241.896	785.5
242.13	948.5
242.363	1284.5
242.597	1638.5
242.83	1564.5
243.064	1561.5
243.298	1813.5
243.531	1506.5
243.765	956.5
243.998	771.5
244.232	722.5
244.465	668.5
244.699	650.5
244.932	643.5
245.166	678.5
245.399	692.5
245.633	684.5
245.866	676.5
246.099	678.5
246.333	654.5
246.566	671.5
246.8	638.5
247.033	652.5
247.266	638.5
247.5	655.5
247.733	674.5
247.966	709.5
248.2	776.5
248.433	876.5
248.666	971.5
248.899	974.5
249.133	851.5
249.366	886.5
249.599	965.5
249.832	1065.5
250.066	1060.5
250.299	866.5
250.532	789.5
250.765	738.5
250.998	759.5
251.231	721.5
251.465	737.5
251.698	732.5
251.931	752.5
252.164	751.5
252.397	768.5
252.63	774.5
252.863	796.5
253.096	795.5
253.329	782.5
253.562	764.5
253.795	783.5
254.028	818.5
254.261	837.5
254.494	865.5
254.727	1006.5
254.96	1245.5
255.193	1223.5
255.426	975.5
255.659	876.5
255.892	845.5
256.124	833.5
256.357	885.5
256.59	907.5
256.823	965.5
257.056	1140.5
257.289	1331.5
257.521	1516.5
257.754	1182.5
257.987	993.5
258.22	928.5
258.452	911.5
258.685	916.5
258.918	941.5
259.151	975.5
259.383	1080.5
259.616	1235.5
259.849	1294.5
260.081	1103.5
260.314	1006.5
260.547	954.5
260.779	944.5
261.012	958.5
261.244	992.5
261.477	957.5
261.71	989.5
261.942	1013.5
262.175	998.5
262.407	1054.5
262.64	1053.5
262.872	1110.5
263.105	1136.5
263.337	1194.5
263.57	1284.5
263.802	1296.5
264.035	1311.5
264.267	1352.5
264.499	1380.5
264.732	1435.5
264.964	1447.5
265.197	1439.5
265.429	1442.5
265.661	1492.5
265.894	1597.5
266.126	1752.5
266.358	1966.5
266.591	1922.5
266.823	1586.5
267.055	1454.5
267.287	1397.5
267.52	1312.5
267.752	1292.5
267.984	1270.5
268.216	1258.5
268.448	1222.5
268.681	1218.5
268.913	1222.5
269.145	1218.5
269.377	1223.5
269.609	1254.5
269.841	1279.5
270.073	1382.5
270.306	1631.5
270.538	2147.5
270.77	3225.5
271.002	3930.5
271.234	2796.5
271.466	1904.5
271.698	1565.5
271.93	1426.5
272.162	1332.5
272.394	1296.5
272.626	1261.5
272.858	1248.5
273.09	1234.5
273.322	1226.5
273.553	1210.5
273.785	1234.5
274.017	1182.5
274.249	1228.5
274.481	1206.5
274.713	1211.5
274.945	1199.5
275.176	1206.5
275.408	1214.5
275.64	1208.5
275.872	1246.5
276.104	1285.5
276.335	1281.5
276.567	1297.5
276.799	1291.5
277.031	1309.5
277.262	1341.5
277.494	1390.5
277.726	1569.5
277.957	1886.5
278.189	2120.5
278.421	1988.5
278.652	1751.5
278.884	1633.5
279.115	1475.5
279.347	1454.5
279.579	1426.5
279.81	1406.5
280.042	1396.5
280.273	1429.5
280.505	1465.5
280.736	1494.5
280.968	1630.5
281.199	1782.5
281.431	2068.5
281.662	2095.5
281.894	1832.5
282.125	1639.5
282.356	1631.5
282.588	1685.5
282.819	1723.5
283.051	1839.5
283.282	2030.5
283.513	2510.5
283.745	3589.5
283.976	5707.5
284.207	7997.5
284.439	7370.5
284.67	4510.5
284.901	3699.5
285.132	3775.5
285.364	3617.5
285.595	2714.5
285.826	2462.5
286.057	2855.5
286.288	3911.5
286.52	5262.5
286.751	4914.5
286.982	3074.5
287.213	2270.5
287.444	1997.5
287.675	1871.5
287.906	1831.5
288.138	1743.5
288.369	1698.5
288.6	1710.5
288.831	1706.5
289.062	1680.5
289.293	1691.5
289.524	1701.5
289.755	1717.5
289.986	1724.5
290.217	1722.5
290.448	1741.5
290.679	1750.5
290.91	1791.5
291.141	1898.5
291.371	2044.5
291.602	2164.5
291.833	1930.5
292.064	1736.5
292.295	1664.5
292.526	1655.5
292.757	1611.5
292.987	1616.5
293.218	1612.5
293.449	1604.5
293.68	1578.5
293.91	1553.5
294.141	1566.5
294.372	1534.5
294.603	1563.5
294.833	1568.5
295.064	1587.5
295.295	1567.5
295.525	1607.5
295.756	1571.5
295.987	1514.5
296.217	1584.5
296.448	1608.5
296.679	1587.5
296.909	1578.5
297.14	1610.5
297.37	1630.5
297.601	1664.5
297.831	1667.5
298.062	1605.5
298.292	1670.5
298.523	1676.5
298.753	1714.5
298.984	1714.5
299.214	1711.5
299.445	1730.5
299.675	1768.5
299.905	1864.5
300.136	1933.5
300.366	2172.5
300.597	2759.5
300.827	3912.5
301.057	5249.5
301.288	5270.5
301.518	3365.5
301.748	2574.5
301.979	2402.5
302.209	2305.5
302.439	2324.5
302.669	2469.5
302.9	2998.5
303.13	4195.5
303.36	6244.5
303.59	8219.5
303.82	7126.5
304.051	4212.5
304.281	3088.5
304.511	2538.5
304.741	2326.5
304.971	2211.5
305.201	2109.5
305.431	2005.5
305.661	1960.5
305.891	1883.5
306.121	1904.5
306.352	1864.5
306.582	1883.5
306.812	1879.5
307.042	1807.5
307.272	1889.5
307.502	1841.5
307.731	1861.5
307.961	1842.5
308.191	1803.5
308.421	1802.5
308.651	1812.5
308.881	1821.5
309.111	1855.5
309.341	1803.5
309.571	1830.5
309.8	1842.5
310.03	1858.5
310.26	1869.5
310.49	1869.5
310.72	1860.5
310.949	1895.5
311.179	1906.5
311.409	1934.5
311.639	1930.5
311.868	1958.5
312.098	1942.5
312.328	1958.5
312.557	1972.5
312.787	1989.5
313.017	1943.5
313.246	2018.5
313.476	2005.5
313.706	2063.5
313.935	2194.5
314.165	2341.5
314.394	2468.5
314.624	2414.5
314.853	2199.5
315.083	2155.5
315.312	2147.5
315.542	2218.5
315.771	2213.5
316.001	2245.5
316.23	2323.5
316.46	2461.5
316.689	2709.5
316.919	3268.5
317.148	4572.5
317.377	7128.5
317.607	10504.5
317.836	10818.5
318.065	6604.5
318.295	4324.5
318.524	3477.5
318.753	3005.5
318.983	2752.5
319.212	2591.5
319.441	2487.5
319.67	2458.5
319.9	2432.5
320.129	2414.5
320.358	2352.5
320.587	2360.5
320.816	2342.5
321.046	2352.5
321.275	2395.5
321.504	2389.5
321.733	2464.5
321.962	2495.5
322.191	2518.5
322.42	2535.5
322.649	2476.5
322.878	2494.5
323.108	2478.5
323.337	2563.5
323.566	2589.5
323.795	2654.5
324.024	2676.5
324.253	2774.5
324.482	2855.5
324.71	3004.5
324.939	3205.5
325.168	3298.5
325.397	3422.5
325.626	4017.5
325.855	5654.5
326.084	8773.5
326.313	12724.5
326.542	13449.5
326.77	9107.5
326.999	6025.5
327.228	4978.5
327.457	4766.5
327.686	4866.5
327.914	5122.5
328.143	6095.5
328.372	7296.5
328.6	7934.5
328.829	7098.5
329.058	5899.5
329.287	5150.5
329.515	4677.5
329.744	4342.5
329.972	4064.5
330.201	3877.5
330.43	3740.5
330.658	3634.5
330.887	3600.5
331.115	3503.5
331.344	3483.5
331.572	3488.5
331.801	3547.5
332.03	3523.5
332.258	3553.5
332.486	3764.5
332.715	4346.5
332.943	5320.5
333.172	6607.5
333.4	6568.5
333.629	5023.5
333.857	4558.5
334.085	4553.5
334.314	4785.5
334.542	5205.5
334.771	6149.5
334.999	7509.5
335.227	9464.5
335.455	10738.5
335.684	9591.5
335.912	7827.5
336.14	6570.5
336.369	5798.5
336.597	5286.5
336.825	4867.5
337.053	4574.5
337.281	4326.5
337.51	4007.5
337.738	3840.5
337.966	3704.5
338.194	3608.5
338.422	3459.5
338.65	3365.5
338.878	3308.5
339.106	3243.5
339.334	3296.5
339.562	3191.5
339.79	3130.5
340.018	3088.5
340.246	3014.5
340.474	3065.5
340.702	3091.5
340.93	3062.5
341.158	3003.5
341.386	3087.5
341.614	2992.5
341.842	2953.5
342.07	2890.5
342.298	2779.5
342.526	2792.5
342.754	2741.5
342.981	2722.5
343.209	2686.5
343.437	2789.5
343.665	2798.5
343.893	2796.5
344.12	2852.5
344.348	2795.5
344.576	2726.5
344.804	2727.5
345.031	2656.5
345.259	2658.5
345.487	2587.5
345.714	2578.5
345.942	2589.5
346.17	2558.5
346.397	2575.5
346.625	2507.5
346.853	2490.5
347.08	2515.5
347.308	2541.5
347.535	2540.5
347.763	2435.5
347.99	2525.5
348.218	2504.5
348.445	2443.5
348.673	2442.5
348.9	2440.5
349.128	2505.5
349.355	2443.5
349.583	2491.5
349.81	2440.5
350.037	2378.5
350.265	2415.5
350.492	2405.5
350.72	2405.5
350.947	2417.5
351.174	2418.5
351.402	2434.5
351.629	2427.5
351.856	2380.5
352.083	2388.5
352.311	2399.5
352.538	2395.5
352.765	2376.5
352.992	2343.5
353.22	2370.5
353.447	2319.5
353.674	2387.5
353.901	2423.5
354.128	2404.5
354.355	2371.5
354.583	2393.5
354.81	2413.5
355.037	2466.5
355.264	2422.5
355.491	2437.5
355.718	2437.5
355.945	2435.5
356.172	2477.5
356.399	2469.5
356.626	2483.5
356.853	2500.5
357.08	2544.5
357.307	2557.5
357.534	2568.5
357.761	2614.5
357.988	2570.5
358.215	2570.5
358.441	2581.5
358.668	2511.5
358.895	2596.5
359.122	2526.5
359.349	2554.5
359.576	2576.5
359.802	2558.5
360.029	2559.5
360.256	2545.5
360.483	2583.5
360.709	2563.5
360.936	2580.5
361.163	2580.5
361.39	2564.5
361.616	2583.5
361.843	2617.5
362.07	2568.5
362.296	2621.5
362.523	2587.5
362.749	2566.5
362.976	2575.5
363.203	2542.5
363.429	2557.5
363.656	2562.5
363.882	2589.5
364.109	2542.5
364.335	2563.5
364.562	2501.5
364.788	2552.5
365.015	2592.5
365.241	2642.5
365.468	2784.5
365.694	2966.5
365.92	2867.5
366.147	2668.5
366.373	2628.5
366.599	2606.5
366.826	2595.5
367.052	2608.5
367.278	2645.5
367.505	2636.5
367.731	2668.5
367.957	2644.5
368.184	2655.5
368.41	2672.5
368.636	2714.5
368.862	2651.5
369.089	2652.5
369.315	2686.5
369.541	2650.5
369.767	2636.5
369.993	2644.5
370.219	2636.5
370.445	2692.5
370.672	2702.5
370.898	2644.5
371.124	2718.5
371.35	2704.5
371.576	2770.5
371.802	2760.5
372.028	2734.5
372.254	2764.5
372.48	2727.5
372.706	2784.5
372.932	2795.5
373.158	2768.5
373.384	2814.5
373.61	2779.5
373.835	2842.5
374.061	2760.5
374.287	2838.5
374.513	2884.5
374.739	2900.5
374.965	2907.5
375.191	2845.5
375.416	2947.5
375.642	2875.5
375.868	2910.5
376.094	2831.5
376.319	2804.5
376.545	2820.5
376.771	2750.5
376.997	2723.5
377.222	2778.5
377.448	2738.5
377.674	2755.5
377.899	2793.5
378.125	2764.5
378.35	2706.5
378.576	2735.5
378.802	2728.5
379.027	2810.5
379.253	2916.5
379.478	3099.5
379.704	3604.5
379.929	5160.5
380.155	7935.5
380.38	8542.5
380.606	5257.5
380.831	3699.5
381.057	3277.5
381.282	2977.5
381.507	2852.5
381.733	2847.5
381.958	2751.5
382.184	2738.5
382.409	2730.5
382.634	2706.5
382.86	2694.5
383.085	2691.5
383.31	2714.5
383.535	2736.5
383.761	2690.5
383.986	2714.5
384.211	2737.5
384.436	2762.5
384.662	2735.5
384.887	2799.5
385.112	2742.5
385.337	2810.5
385.562	2772.5
385.787	2778.5
386.013	2782.5
386.238	2791.5
386.463	2728.5
386.688	2799.5
386.913	2750.5
387.138	2764.5
387.363	2791.5
387.588	2767.5
387.813	2753.5
388.038	2730.5
388.263	2810.5
388.488	2790.5
388.713	2771.5
388.938	2806.5
389.163	2756.5
389.387	2766.5
389.612	2770.5
389.837	2721.5
390.062	2801.5
390.287	2829.5
390.512	2829.5
390.736	2901.5
390.961	2928.5
391.186	2876.5
391.411	2930.5
391.636	2944.5
391.86	2940.5
392.085	2904.5
392.31	2924.5
392.534	2845.5
392.759	2851.5
392.984	2844.5
393.208	2847.5
393.433	2870.5
393.658	2808.5
393.882	2798.5
394.107	2815.5
394.331	2823.5
394.556	2814.5
394.78	2884.5
395.005	2858.5
395.229	2827.5
395.454	2911.5
395.678	2941.5
395.903	2896.5
396.127	2828.5
396.352	2851.5
396.576	2866.5
396.801	2846.5
397.025	2855.5
397.249	2884.5
397.474	2922.5
397.698	2894.5
397.922	2989.5
398.147	2956.5
398.371	3015.5
398.595	3011.5
398.82	3148.5
399.044	3164.5
399.268	3314.5
399.492	3570.5
399.717	3686.5
399.941	3682.5
400.165	3464.5
400.389	3362.5
400.613	3243.5
400.837	3191.5
401.062	3160.5
401.286	3088.5
401.51	3039.5
401.734	3009.5
401.958	3034.5
402.182	3078.5
402.406	3035.5
402.63	3060.5
402.854	3140.5
403.078	3094.5
403.302	3131.5
403.526	3124.5
403.75	3165.5
403.974	3174.5
404.198	3125.5
404.422	3187.5
404.645	3190.5
404.869	3125.5
405.093	3189.5
405.317	3147.5
405.541	3254.5
405.765	3267.5
405.988	3300.5
406.212	3295.5
406.436	3266.5
406.66	3297.5
406.883	3295.5
407.107	3374.5
407.331	3468.5
407.555	3543.5
407.778	3445.5
408.002	3420.5
408.226	3401.5
408.449	3392.5
408.673	3291.5
408.896	3254.5
409.12	3200.5
409.344	3276.5
409.567	3247.5
409.791	3249.5
410.014	3183.5
410.238	3139.5
410.461	3214.5
410.685	3132.5
410.908	3122.5
411.132	3075.5
411.355	3046.5
411.578	3092.5
411.802	3099.5
412.025	3051.5
412.249	3072.5
412.472	3038.5
412.695	3023.5
412.919	3038.5
413.142	3006.5
413.365	3012.5
413.589	3040.5
413.812	2992.5
414.035	2982.5
414.258	2995.5
414.482	3028.5
414.705	3007.5
414.928	3040.5
415.151	3067.5
415.374	2983.5
415.597	2923.5
415.821	2910.5
416.044	2816.5
416.267	2880.5
416.49	2899.5
416.713	2890.5
416.936	2910.5
417.159	2828.5
417.382	2808.5
417.605	2848.5
417.828	2872.5
418.051	2935.5
418.274	2900.5
418.497	2874.5
418.72	3019.5
418.943	2942.5
419.166	3039.5
419.389	3188.5
419.611	3194.5
419.834	3090.5
420.057	2973.5
420.28	2927.5
420.503	2899.5
420.726	2881.5
420.948	2861.5
421.171	2882.5
421.394	2902.5
421.617	2863.5
421.839	2926.5
422.062	2983.5
422.285	2907.5
422.507	2855.5
422.73	2952.5
422.953	2984.5
423.175	2998.5
423.398	2912.5
423.621	2885.5
423.843	2923.5
424.066	2951.5
424.288	2875.5
424.511	2871.5
424.733	2866.5
424.956	2840.5
425.178	2854.5
425.401	2878.5
425.623	2882.5
425.846	2779.5
426.068	2816.5
426.291	2781.5
426.513	2760.5
426.735	2739.5
426.958	2734.5
427.18	2705.5
427.402	2734.5
427.625	2698.5
427.847	2704.5
428.069	2661.5
428.292	2740.5
428.514	2675.5
428.736	2679.5
428.958	2723.5
429.181	2679.5
429.403	2594.5
429.625	2638.5
429.847	2667.5
430.069	2770.5
430.292	2835.5
430.514	2873.5
430.736	2869.5
430.958	2749.5
431.18	2639.5
431.402	2649.5
431.624	2576.5
431.846	2591.5
432.068	2626.5
432.29	2643.5
432.512	2562.5
432.734	2622.5
432.956	2589.5
433.178	2638.5
433.4	2673.5
433.622	2654.5
433.844	2724.5
434.066	2659.5
434.287	2634.5
434.509	2702.5
434.731	2753.5
434.953	2749.5
435.175	2801.5
435.397	2786.5
435.618	2680.5
435.84	2701.5
436.062	2640.5
436.284	2618.5
436.505	2596.5
436.727	2643.5
436.949	2639.5
437.17	2609.5
437.392	2602.5
437.614	2560.5
437.835	2538.5
438.057	2556.5
438.278	2586.5
438.5	2577.5
438.721	2627.5
438.943	2708.5
439.165	2741.5
439.386	2744.5
439.608	2704.5
439.829	2740.5
440.05	2804.5
440.272	2892.5
440.493	2772.5
440.715	2721.5
440.936	2701.5
441.158	2781.5
441.379	2795.5
441.6	2882.5
441.822	2929.5
442.043	3122.5
442.264	3182.5
442.486	2990.5
442.707	2880.5
442.928	2835.5
443.149	2824.5
443.371	2838.5
443.592	2835.5
443.813	2849.5
444.034	2851.5
444.255	2884.5
444.476	2936.5
444.698	3035.5
444.919	3033.5
445.14	3092.5
445.361	2946.5
445.582	2892.5
445.803	2846.5
446.024	2799.5
446.245	2811.5
446.466	2812.5
446.687	2733.5
446.908	2796.5
447.129	2718.5
447.35	2634.5
447.571	2648.5
447.792	2599.5
448.013	2631.5
448.234	2580.5
448.455	2593.5
448.675	2687.5
448.896	2720.5
449.117	2786.5
449.338	3016.5
449.559	3184.5
449.779	2827.5
450	2630.5
450.221	2590.5
450.442	2577.5
450.662	2540.5
450.883	2518.5
451.104	2570.5
451.324	2556.5
451.545	2531.5
451.766	2595.5
451.986	2614.5
452.207	2785.5
452.428	3611.5
452.648	5429.5
452.869	4640.5
453.089	3202.5
453.31	2988.5
453.53	2971.5
453.751	3016.5
453.971	3219.5
454.192	3148.5
454.412	2734.5
454.633	2589.5
454.853	2527.5
455.073	2488.5
455.294	2476.5
455.514	2433.5
455.734	2471.5
455.955	2410.5
456.175	2403.5
456.395	2414.5
456.616	2410.5
456.836	2546.5
457.056	2498.5
457.276	2474.5
457.497	2599.5
457.717	2672.5
457.937	2553.5
458.157	2544.5
458.377	2590.5
458.598	2561.5
458.818	2603.5
459.038	2637.5
459.258	2606.5
459.478	2703.5
459.698	2710.5
459.918	2693.5
460.138	2740.5
460.358	2837.5
460.578	2814.5
460.798	2863.5
461.018	2890.5
461.238	2881.5
461.458	2901.5
461.678	2890.5
461.898	2944.5
462.118	2998.5
462.338	3076.5
462.558	3047.5
462.777	3144.5
462.997	3269.5
463.217	3374.5
463.437	3462.5
463.657	3564.5
463.876	3549.5
464.096	3370.5
464.316	3204.5
464.536	3140.5
464.755	3077.5
464.975	2956.5
465.195	2916.5
465.414	2864.5
465.634	2751.5
465.854	2742.5
466.073	2752.5
466.293	2679.5
466.512	2675.5
466.732	2695.5
466.951	2832.5
467.171	2970.5
467.391	2916.5
467.61	2714.5
467.829	2623.5
468.049	2648.5
468.268	2567.5
468.488	2589.5
468.707	2574.5
468.927	2599.5
469.146	2513.5
469.365	2632.5
469.585	2650.5
469.804	2754.5
470.023	2723.5
470.243	2769.5
470.462	2837.5
470.681	3024.5
470.901	3320.5
471.12	3767.5
471.339	3838.5
471.558	3241.5
471.777	2889.5
471.997	2786.5
472.216	2667.5
472.435	2680.5
472.654	2639.5
472.873	2610.5
473.092	2638.5
473.311	2657.5
473.53	2658.5
473.749	2691.5
473.968	2797.5
474.187	2616.5
474.406	2593.5
474.625	2648.5
474.844	2586.5
475.063	2657.5
475.282	2671.5
475.501	2654.5
475.72	2658.5
475.939	2701.5
476.158	2751.5
476.377	2800.5
476.596	2738.5
476.814	2740.5
477.033	2746.5
477.252	2802.5
477.471	2788.5
477.69	2853.5
477.908	2940.5
478.127	2966.5
478.346	2933.5
478.564	3026.5
478.783	3013.5
479.002	3076.5
479.22	3099.5
479.439	3095.5
479.658	3104.5
479.876	3120.5
480.095	3175.5
480.313	3269.5
480.532	3225.5
480.751	3247.5
480.969	3200.5
481.188	3181.5
481.406	3118.5
481.624	3130.5
481.843	3218.5
482.061	3215.5
482.28	3173.5
482.498	3183.5
482.717	3215.5
482.935	3236.5
483.153	3244.5
483.372	3257.5
483.59	3274.5
483.808	3309.5
484.027	3409.5
484.245	3592.5
484.463	4102.5
484.681	4537.5
484.9	4160.5
485.118	3862.5
485.336	3751.5
485.554	3812.5
485.772	4053.5
485.99	4631.5
486.209	4907.5
486.427	4114.5
486.645	3706.5
486.863	3566.5
487.081	3488.5
487.299	3444.5
487.517	3382.5
487.735	3423.5
487.953	3430.5
488.171	3378.5
488.389	3314.5
488.607	3290.5
488.825	3301.5
489.043	3234.5
489.261	3222.5
489.479	3268.5
489.696	3277.5
489.914	3320.5
490.132	3243.5
490.35	3356.5
490.568	3353.5
490.786	3347.5
491.003	3389.5
491.221	3397.5
491.439	3403.5
491.657	3426.5
491.874	3478.5
492.092	3380.5
492.31	3462.5
492.527	3452.5
492.745	3450.5
492.963	3469.5
493.18	3397.5
493.398	3380.5
493.615	3411.5
493.833	3468.5
494.05	3427.5
494.268	3473.5
494.485	3510.5
494.703	3509.5
494.92	3483.5
495.138	3394.5
495.355	3460.5
495.573	3480.5
495.79	3482.5
496.008	3473.5
496.225	3483.5
496.442	3595.5
496.66	3703.5
496.877	3855.5
497.094	3852.5
497.312	3709.5
497.529	3756.5
497.746	3792.5
497.963	3844.5
498.181	3944.5
498.398	3990.5
498.615	4104.5
498.832	4286.5
499.049	4419.5
499.267	4844.5
499.484	5047.5
499.701	5070.5
499.918	5160.5
500.135	5514.5
500.352	5687.5
500.569	5827.5
500.786	5738.5
501.003	5578.5
501.22	5346.5
501.437	5078.5
501.654	4768.5
501.871	4550.5
502.088	4402.5
502.305	4299.5
502.522	4129.5
502.739	4033.5
502.956	3866.5
503.172	3840.5
503.389	3717.5
503.606	3635.5
503.823	3603.5
504.04	3628.5
504.256	3634.5
504.473	3614.5
504.69	3522.5
504.907	3469.5
505.123	3488.5
505.34	3395.5
505.557	3322.5
505.773	3295.5
505.99	3230.5
506.207	3195.5
506.423	3170.5
506.64	3176.5
506.856	3141.5
507.073	3077.5
507.289	3046.5
507.506	3026.5
507.722	2969.5
507.939	3022.5
508.155	2968.5
508.372	2957.5
508.588	2969.5
508.805	2966.5
509.021	2971.5
509.238	3010.5
509.454	3171.5
509.67	3395.5
509.887	3109.5
510.103	2995.5
510.319	2967.5
510.536	2939.5
510.752	2980.5
510.968	2930.5
511.184	2878.5
511.401	2890.5
511.617	2874.5
511.833	2838.5
512.049	2797.5
512.265	2890.5
512.481	2853.5
512.698	2838.5
512.914	2831.5
513.13	2797.5
513.346	2856.5
513.562	2876.5
513.778	2844.5
513.994	2878.5
514.21	2959.5
514.426	3130.5
514.642	3295.5
514.858	3018.5
515.074	2969.5
515.29	2922.5
515.506	2960.5
515.721	2899.5
515.937	2982.5
516.153	2932.5
516.369	3004.5
516.585	2967.5
516.801	3052.5
517.016	3067.5
517.232	3108.5
517.448	3176.5
517.664	3248.5
517.879	3232.5
518.095	3261.5
518.311	3215.5
518.527	3198.5
518.742	3203.5
518.958	3198.5
519.173	3247.5
519.389	3102.5
519.605	3002.5
519.82	2922.5
520.036	2955.5
520.251	2894.5
520.467	2864.5
520.682	2870.5
520.898	2805.5
521.113	2802.5
521.329	2799.5
521.544	2772.5
521.76	2831.5
521.975	2827.5
522.19	2790.5
522.406	2806.5
522.621	2772.5
522.836	2723.5
523.052	2786.5
523.267	2733.5
523.482	2704.5
523.698	2740.5
523.913	2707.5
524.128	2720.5
524.343	2694.5
524.559	2702.5
524.774	2720.5
524.989	2666.5
525.204	2710.5
525.419	2706.5
525.634	2714.5
525.849	2733.5
526.064	2682.5
526.28	2711.5
526.495	2694.5
526.71	2742.5
526.925	2751.5
527.14	2769.5
527.355	2764.5
527.57	2800.5
527.785	2775.5
527.999	2786.5
528.214	2787.5
528.429	2800.5
528.644	2824.5
528.859	2880.5
529.074	2946.5
529.289	2882.5
529.503	2970.5
529.718	2948.5
529.933	2874.5
530.148	2909.5
530.363	2859.5
530.577	2886.5
530.792	2914.5
531.007	2944.5
531.221	2963.5
531.436	3028.5
531.651	3019.5
531.865	3049.5
532.08	3088.5
532.295	3190.5
532.509	3436.5
532.724	3436.5
532.938	3459.5
533.153	3586.5
533.367	3820.5
533.582	4120.5
533.796	3997.5
534.011	3872.5
534.225	3656.5
534.44	3488.5
534.654	3428.5
534.868	3371.5
535.083	3336.5
535.297	3234.5
535.511	3150.5
535.726	3128.5
535.94	3125.5
536.154	3041.5
536.369	2962.5
536.583	2920.5
536.797	2926.5
537.011	2911.5
537.225	2858.5
537.44	2850.5
537.654	2812.5
537.868	2762.5
538.082	2748.5
538.296	2736.5
538.51	2708.5
538.724	2734.5
538.938	2736.5
539.153	2679.5
539.367	2695.5
539.581	2681.5
539.795	2637.5
540.009	2659.5
540.222	2633.5
540.436	2638.5
540.65	2642.5
540.864	2664.5
541.078	2673.5
541.292	2847.5
541.506	3378.5
541.72	3542.5
541.934	3043.5
542.147	2869.5
542.361	2749.5
542.575	2663.5
542.789	2606.5
543.002	2590.5
543.216	2538.5
543.43	2499.5
543.644	2531.5
543.857	2522.5
544.071	2520.5
544.285	2539.5
544.498	2558.5
544.712	2506.5
544.925	2566.5
545.139	2587.5
545.352	2547.5
545.566	2571.5
545.779	2540.5
545.993	2536.5
546.206	2606.5
546.42	2552.5
546.633	2565.5
546.847	2515.5
547.06	2545.5
547.274	2590.5
547.487	2555.5
547.7	2585.5
547.914	2580.5
548.127	2564.5
548.34	2556.5
548.554	2504.5
548.767	2570.5
548.98	2562.5
549.193	2615.5
549.407	2499.5
549.62	2555.5
549.833	2544.5
550.046	2574.5
550.259	2567.5
550.473	2514.5
550.686	2554.5
550.899	2583.5
551.112	2595.5
551.325	2558.5
551.538	2577.5
551.751	2556.5
551.964	2572.5
552.177	2610.5
552.39	2678.5
552.603	2684.5
552.816	2703.5
553.029	2765.5
553.242	2813.5
553.455	2800.5
553.667	2822.5
553.88	2878.5
554.093	2865.5
554.306	2880.5
554.519	2936.5
554.732	2919.5
554.944	2988.5
555.157	3106.5
555.37	3202.5
555.583	3307.5
555.795	3520.5
556.008	3746.5
556.221	4197.5
556.433	4545.5
556.646	4591.5
556.859	4346.5
557.071	4085.5
557.284	4006.5
557.496	3889.5
557.709	3844.5
557.921	3767.5
558.134	3761.5
558.346	3860.5
558.559	3975.5
558.771	4192.5
558.984	4562.5
559.196	4935.5
559.409	4664.5
559.621	4322.5
559.833	4050.5
560.046	3797.5
560.258	3559.5
560.47	3331.5
560.683	3291.5
560.895	3124.5
561.107	3048.5
561.32	2868.5
561.532	2884.5
561.744	2814.5
561.956	2791.5
562.168	2723.5
562.381	2699.5
562.593	2666.5
562.805	2667.5
563.017	2725.5
563.229	2768.5
563.441	3199.5
563.653	2671.5
563.865	2497.5
564.077	2419.5
564.289	2411.5
564.501	2387.5
564.713	2386.5
564.925	2412.5
565.137	2397.5
565.349	2370.5
565.561	2356.5
565.773	2366.5
565.985	2420.5
566.197	2454.5
566.408	2493.5
566.62	2506.5
566.832	2620.5
567.044	2618.5
567.255	2623.5
567.467	2636.5
567.679	2702.5
567.891	2849.5
568.102	3146.5
568.314	3631.5
568.526	3170.5
568.737	2742.5
568.949	2503.5
569.161	2323.5
569.372	2242.5
569.584	2199.5
569.795	2154.5
570.007	2143.5
570.218	2235.5
570.43	2275.5
570.641	2060.5
570.853	1966.5
571.064	1946.5
571.276	1962.5
571.487	1929.5
571.698	1926.5
571.91	1881.5
572.121	1896.5
572.333	1864.5
572.544	1866.5
572.755	2007.5
572.966	2316.5
573.178	2122.5
573.389	1900.5
573.6	1830.5
573.811	1804.5
574.023	1794.5
574.234	1725.5
574.445	1727.5
574.656	1721.5
574.867	1734.5
575.078	1734.5
575.289	1726.5
575.501	1747.5
575.712	1692.5
575.923	1718.5
576.134	1737.5
576.345	1698.5
576.556	1746.5
576.767	1701.5
576.978	1754.5
577.188	1722.5
577.399	1766.5
577.61	1757.5
577.821	1783.5
578.032	1776.5
578.243	1819.5
578.454	1883.5
578.665	1879.5
578.875	1919.5
579.086	1988.5
579.297	2108.5
579.508	2243.5
579.718	2441.5
579.929	2808.5
580.14	3423.5
580.35	3388.5
580.561	3059.5
580.772	2824.5
580.982	2523.5
581.193	2386.5
581.403	2225.5
581.614	2148.5
581.825	2051.5
582.035	1946.5
582.246	1882.5
582.456	1840.5
582.667	1796.5
582.877	1796.5
583.087	1727.5
583.298	1653.5
583.508	1647.5
583.719	1564.5
583.929	1567.5
584.139	1546.5
584.35	1480.5
584.56	1506.5
584.77	1468.5
584.981	1428.5
585.191	1427.5
585.401	1390.5
585.611	1390.5
585.821	1357.5
586.032	1360.5
586.242	1333.5
586.452	1318.5
586.662	1299.5
586.872	1326.5
587.082	1302.5
587.292	1306.5
587.502	1274.5
587.713	1280.5
587.923	1276.5
588.133	1249.5
588.343	1234.5
588.553	1232.5
588.762	1253.5
588.972	1206.5
589.182	1265.5
589.392	1240.5
589.602	1212.5
589.812	1198.5
590.022	1199.5
590.232	1192.5
590.441	1198.5
590.651	1192.5
590.861	1192.5
591.071	1161.5
591.281	1156.5
591.49	1168.5
591.7	1182.5
591.91	1185.5
592.119	1190.5
592.329	1199.5
592.539	1188.5
592.748	1215.5
592.958	1209.5
593.167	1229.5
593.377	1234.5
593.587	1234.5
593.796	1232.5
594.006	1234.5
594.215	1247.5
594.424	1214.5
594.634	1190.5
594.843	1168.5
595.053	1206.5
595.262	1171.5
595.472	1136.5
595.681	1075.5
595.89	1092.5
596.1	1079.5
596.309	1095.5
596.518	1048.5
596.727	1040.5
596.937	1017.5
597.146	1022.5
597.355	1017.5
597.564	1012.5
597.774	1002.5
597.983	969.5
598.192	992.5
598.401	996.5
598.61	976.5
598.819	1005.5
599.028	973.5
599.237	962.5
599.446	968.5
599.655	994.5
599.864	950.5
600.073	933.5
600.282	948.5
600.491	939.5
600.7	951.5
600.909	950.5
601.118	922.5
601.327	948.5
601.536	934.5
601.745	975.5
601.953	1080.5
602.162	1207.5
602.371	1055.5
602.58	981.5
602.789	960.5
602.997	935.5
603.206	929.5
603.415	935.5
603.623	917.5
603.832	891.5
604.041	920.5
604.249	920.5
604.458	892.5
604.666	895.5
604.875	894.5
605.084	880.5
605.292	884.5
605.501	892.5
605.709	926.5
605.918	912.5
606.126	935.5
606.334	924.5
606.543	923.5
606.751	983.5
606.96	1108.5
607.168	1228.5
607.376	1033.5
607.585	973.5
607.793	950.5
608.001	894.5
608.21	923.5
608.418	856.5
608.626	855.5
608.834	901.5
609.043	854.5
609.251	865.5
609.459	837.5
609.667	840.5
609.875	853.5
610.083	832.5
610.291	873.5
610.499	806.5
610.707	828.5
610.916	815.5
611.124	835.5
611.332	806.5
611.54	814.5
611.748	800.5
611.955	807.5
612.163	814.5
612.371	829.5
612.579	814.5
612.787	808.5
612.995	786.5
613.203	800.5
613.411	785.5
613.618	801.5
613.826	784.5
614.034	765.5
614.242	774.5
614.449	800.5
614.657	818.5
614.865	803.5
615.072	805.5
615.28	821.5
615.488	780.5
615.695	792.5
615.903	789.5
616.111	796.5
616.318	783.5
616.526	769.5
616.733	793.5
616.941	797.5
617.148	810.5
617.356	767.5
617.563	764.5
617.771	794.5
617.978	716.5
618.185	749.5
618.393	742.5
618.6	778.5
618.807	741.5
619.015	770.5
619.222	756.5
619.429	707.5
619.637	720.5
619.844	727.5
620.051	725.5
620.258	724.5
620.466	703.5
620.673	722.5
620.88	666.5
621.087	700.5
621.294	688.5
621.501	703.5
621.708	687.5
621.915	711.5
622.122	685.5
622.329	698.5
622.536	700.5
622.743	703.5
622.95	701.5
623.157	673.5
623.364	690.5
623.571	703.5
623.778	688.5
623.985	686.5
624.192	665.5
624.399	660.5
624.606	671.5
624.812	676.5
625.019	648.5
625.226	662.5
625.433	677.5
625.639	653.5
625.846	654.5
626.053	631.5
626.259	654.5
626.466	659.5
626.673	625.5
626.879	614.5
627.086	629.5
627.293	640.5
627.499	620.5
627.706	643.5
627.912	627.5
628.119	626.5
628.325	644.5
628.532	645.5
628.738	638.5
628.945	615.5
629.151	631.5
629.357	628.5
629.564	602.5
629.77	602.5
629.976	602.5
630.183	576.5
630.389	597.5
630.595	620.5
630.802	602.5
631.008	572.5
631.214	590.5
631.42	612.5
631.627	574.5
631.833	574.5
632.039	607.5
632.245	580.5
632.451	594.5
632.657	599.5
632.863	552.5
633.069	538.5
633.275	588.5
633.481	568.5
633.688	559.5
633.893	616.5
634.099	605.5
634.305	587.5
634.511	589.5
634.717	604.5
634.923	589.5
635.129	687.5
635.335	791.5
635.541	686.5
635.747	638.5
635.952	609.5
636.158	609.5
636.364	588.5
636.57	602.5
636.775	587.5
636.981	580.5
637.187	585.5
637.392	572.5
637.598	594.5
637.804	579.5
638.009	609.5
638.215	592.5
638.421	596.5
638.626	589.5
638.832	603.5
639.037	572.5
639.243	597.5
639.448	594.5
639.654	591.5
639.859	592.5
640.065	599.5
640.27	627.5
640.475	591.5
640.681	627.5
640.886	620.5
641.091	612.5
641.297	631.5
641.502	630.5
641.707	647.5
641.913	658.5
642.118	632.5
642.323	656.5
642.528	674.5
642.733	691.5
642.939	705.5
643.144	730.5
643.349	766.5
643.554	786.5
643.759	815.5
643.964	850.5
644.169	908.5
644.374	977.5
644.579	1066.5
644.784	1157.5
644.989	1318.5
645.194	1570.5
645.399	1982.5
645.604	2161.5
645.809	1557.5
646.014	1159.5
646.219	948.5
646.423	847.5
646.628	793.5
646.833	721.5
647.038	705.5
647.243	656.5
647.447	606.5
647.652	622.5
647.857	588.5
648.062	579.5
648.266	596.5
648.471	578.5
648.676	572.5
648.88	563.5
649.085	547.5
649.289	526.5
649.494	538.5
649.698	521.5
649.903	502.5
650.107	490.5
650.312	470.5
650.516	460.5
650.721	470.5
650.925	448.5
651.13	463.5
651.334	448.5
651.539	434.5
651.743	447.5
651.947	407.5
652.152	423.5
652.356	431.5
652.56	445.5
652.764	500.5
652.969	444.5
653.173	419.5
653.377	404.5
653.581	402.5
653.785	359.5
653.99	361.5
654.194	351.5
654.398	352.5
654.602	348.5
654.806	343.5
655.01	355.5
655.214	338.5
655.418	338.5
655.622	341.5
655.826	351.5
656.03	354.5
656.234	391.5
656.438	376.5
656.642	387.5
656.846	387.5
657.049	357.5
657.253	322.5
657.457	316.5
657.661	305.5
657.865	254.5
658.068	252.5
658.272	236.5
658.476	238.5
658.68	206.5
658.883	211.5
659.087	190.5
659.291	181.5
659.494	191.5
659.698	184.5
659.901	176.5
660.105	172.5
660.309	167.5
660.512	166.5
660.716	157.5
660.919	155.5
661.123	132.5
661.326	139.5
661.53	131.5
661.733	129.5
661.936	118.5
662.14	116.5
662.343	114.5
662.546	115.5
662.75	117.5
662.953	110.5
663.156	98.5
663.36	93.5
663.563	99.5
663.766	85.5
663.969	86.5
664.173	80.5
664.376	92.5
664.579	93.5
664.782	90.5
664.985	89.5
665.188	95.5
665.391	85.5
665.594	92.5
665.797	83.5
666	82.5
666.203	63.5
666.406	76.5
666.609	87.5
666.812	87.5
667.015	92.5
667.218	77.5
667.421	75.5
667.624	66.5
667.827	67.5
668.03	84.5
668.232	92.5
668.435	87.5
668.638	80.5
668.841	70.5
669.043	78.5
669.246	80.5
669.449	83.5
669.651	81.5
669.854	88.5
670.057	80.5
670.259	76.5
670.462	94.5
670.665	83.5
670.867	74.5
671.07	84.5
671.272	72.5
671.475	91.5
671.677	79.5
671.88	75.5
672.082	83.5
672.284	82.5
672.487	81.5
672.689	75.5
672.892	76.5
