Data from SnStandardFlinnAPT0064_LampEnergy10_LIBS07252019.E.O._I.C._HRD10591_15-21-36-494.txt Node
Date: Thu Jul 25 15:21:36 EDT 2019
User: cochatt
Spectrometer: HR+D1059
Trigger mode: 1
Integration Time (sec): 1.000000E-1
Scans to average: 1
Electric dark correction enabled: true
Nonlinearity correction enabled: false
Boxcar width: 0
XAxis mode: Wavelengths
Number of Pixels in Spectrum: 2048
>>>>>Begin Spectral Data<<<<<
223.165	-19.31
223.4	-19.31
223.635	-19.31
223.869	-13.31
224.104	-7.31
224.338	-13.31
224.573	-19.31
224.808	-13.31
225.042	6.69
225.277	-7.31
225.511	0.69
225.746	3.69
225.98	2.69
226.215	21.69
226.449	15.69
226.683	19.69
226.918	14.69
227.152	7.69
227.387	45.69
227.621	39.69
227.856	40.69
228.09	40.69
228.324	58.69
228.559	61.69
228.793	132.69
229.027	326.69
229.262	335.69
229.496	302.69
229.73	297.69
229.964	302.69
230.199	300.69
230.433	320.69
230.667	321.69
230.901	330.69
231.136	325.69
231.37	359.69
231.604	392.69
231.838	431.69
232.072	517.69
232.306	555.69
232.541	486.69
232.775	419.69
233.009	415.69
233.243	411.69
233.477	461.69
233.711	514.69
233.945	565.69
234.179	511.69
234.413	461.69
234.647	435.69
234.881	485.69
235.115	498.69
235.349	617.69
235.583	763.69
235.817	999.69
236.051	955.69
236.285	680.69
236.519	530.69
236.753	519.69
236.987	521.69
237.221	533.69
237.455	518.69
237.689	452.69
237.922	470.69
238.156	494.69
238.39	504.69
238.624	503.69
238.858	492.69
239.091	486.69
239.325	494.69
239.559	490.69
239.793	496.69
240.027	528.69
240.26	551.69
240.494	550.69
240.728	595.69
240.961	632.69
241.195	642.69
241.429	697.69
241.662	709.69
241.896	775.69
242.13	914.69
242.363	1251.69
242.597	1573.69
242.83	1522.69
243.064	1505.69
243.298	1777.69
243.531	1461.69
243.765	962.69
243.998	765.69
244.232	714.69
244.465	669.69
244.699	658.69
244.932	656.69
245.166	647.69
245.399	672.69
245.633	685.69
245.866	691.69
246.099	673.69
246.333	646.69
246.566	641.69
246.8	648.69
247.033	651.69
247.266	639.69
247.5	669.69
247.733	699.69
247.966	721.69
248.2	773.69
248.433	875.69
248.666	1006.69
248.899	934.69
249.133	837.69
249.366	884.69
249.599	1004.69
249.832	1085.69
250.066	1073.69
250.299	893.69
250.532	797.69
250.765	745.69
250.998	749.69
251.231	755.69
251.465	728.69
251.698	735.69
251.931	781.69
252.164	756.69
252.397	794.69
252.63	783.69
252.863	839.69
253.096	791.69
253.329	802.69
253.562	795.69
253.795	779.69
254.028	807.69
254.261	819.69
254.494	912.69
254.727	1039.69
254.96	1227.69
255.193	1207.69
255.426	956.69
255.659	884.69
255.892	892.69
256.124	900.69
256.357	889.69
256.59	932.69
256.823	976.69
257.056	1113.69
257.289	1358.69
257.521	1473.69
257.754	1195.69
257.987	1000.69
258.22	915.69
258.452	942.69
258.685	949.69
258.918	931.69
259.151	997.69
259.383	1111.69
259.616	1213.69
259.849	1262.69
260.081	1115.69
260.314	988.69
260.547	978.69
260.779	946.69
261.012	950.69
261.244	986.69
261.477	992.69
261.71	994.69
261.942	1017.69
262.175	1030.69
262.407	1075.69
262.64	1116.69
262.872	1131.69
263.105	1147.69
263.337	1234.69
263.57	1244.69
263.802	1313.69
264.035	1318.69
264.267	1351.69
264.499	1393.69
264.732	1491.69
264.964	1475.69
265.197	1472.69
265.429	1452.69
265.661	1526.69
265.894	1578.69
266.126	1815.69
266.358	2017.69
266.591	1916.69
266.823	1667.69
267.055	1491.69
267.287	1420.69
267.52	1345.69
267.752	1317.69
267.984	1253.69
268.216	1246.69
268.448	1265.69
268.681	1258.69
268.913	1235.69
269.145	1248.69
269.377	1233.69
269.609	1252.69
269.841	1299.69
270.073	1397.69
270.306	1609.69
270.538	2148.69
270.77	3121.69
271.002	3860.69
271.234	2751.69
271.466	1879.69
271.698	1526.69
271.93	1403.69
272.162	1323.69
272.394	1296.69
272.626	1255.69
272.858	1255.69
273.09	1235.69
273.322	1229.69
273.553	1222.69
273.785	1231.69
274.017	1208.69
274.249	1229.69
274.481	1213.69
274.713	1195.69
274.945	1260.69
275.176	1230.69
275.408	1269.69
275.64	1259.69
275.872	1229.69
276.104	1274.69
276.335	1268.69
276.567	1301.69
276.799	1267.69
277.031	1283.69
277.262	1343.69
277.494	1429.69
277.726	1571.69
277.957	1842.69
278.189	2104.69
278.421	1972.69
278.652	1736.69
278.884	1677.69
279.115	1506.69
279.347	1441.69
279.579	1403.69
279.81	1387.69
280.042	1365.69
280.273	1409.69
280.505	1443.69
280.736	1503.69
280.968	1573.69
281.199	1789.69
281.431	2035.69
281.662	2135.69
281.894	1825.69
282.125	1652.69
282.356	1631.69
282.588	1653.69
282.819	1715.69
283.051	1812.69
283.282	2006.69
283.513	2491.69
283.745	3560.69
283.976	5564.69
284.207	7828.69
284.439	7195.69
284.67	4485.69
284.901	3666.69
285.132	3685.69
285.364	3517.69
285.595	2691.69
285.826	2435.69
286.057	2855.69
286.288	3829.69
286.52	5137.69
286.751	4790.69
286.982	3045.69
287.213	2283.69
287.444	1990.69
287.675	1877.69
287.906	1773.69
288.138	1755.69
288.369	1714.69
288.6	1721.69
288.831	1683.69
289.062	1717.69
289.293	1711.69
289.524	1715.69
289.755	1695.69
289.986	1703.69
290.217	1694.69
290.448	1737.69
290.679	1725.69
290.91	1779.69
291.141	1859.69
291.371	2029.69
291.602	2121.69
291.833	1916.69
292.064	1729.69
292.295	1709.69
292.526	1683.69
292.757	1638.69
292.987	1630.69
293.218	1630.69
293.449	1650.69
293.68	1630.69
293.91	1575.69
294.141	1603.69
294.372	1581.69
294.603	1617.69
294.833	1589.69
295.064	1600.69
295.295	1584.69
295.525	1572.69
295.756	1565.69
295.987	1544.69
296.217	1609.69
296.448	1604.69
296.679	1576.69
296.909	1595.69
297.14	1617.69
297.37	1644.69
297.601	1652.69
297.831	1629.69
298.062	1640.69
298.292	1653.69
298.523	1674.69
298.753	1740.69
298.984	1671.69
299.214	1733.69
299.445	1763.69
299.675	1796.69
299.905	1865.69
300.136	1915.69
300.366	2155.69
300.597	2743.69
300.827	3791.69
301.057	5116.69
301.288	5085.69
301.518	3353.69
301.748	2624.69
301.979	2371.69
302.209	2293.69
302.439	2318.69
302.669	2470.69
302.9	2944.69
303.13	4068.69
303.36	6064.69
303.59	7949.69
303.82	6961.69
304.051	4223.69
304.281	3035.69
304.511	2523.69
304.741	2365.69
304.971	2253.69
305.201	2083.69
305.431	2033.69
305.661	1986.69
305.891	1941.69
306.121	1893.69
306.352	1873.69
306.582	1874.69
306.812	1868.69
307.042	1889.69
307.272	1844.69
307.502	1842.69
307.731	1828.69
307.961	1839.69
308.191	1800.69
308.421	1858.69
308.651	1837.69
308.881	1837.69
309.111	1831.69
309.341	1801.69
309.571	1870.69
309.8	1868.69
310.03	1878.69
310.26	1854.69
310.49	1829.69
310.72	1929.69
310.949	1881.69
311.179	1918.69
311.409	1943.69
311.639	1965.69
311.868	1980.69
312.098	1947.69
312.328	1997.69
312.557	1981.69
312.787	1963.69
313.017	2038.69
313.246	2000.69
313.476	2043.69
313.706	2121.69
313.935	2238.69
314.165	2384.69
314.394	2435.69
314.624	2355.69
314.853	2190.69
315.083	2158.69
315.312	2197.69
315.542	2202.69
315.771	2210.69
316.001	2267.69
316.23	2342.69
316.46	2463.69
316.689	2669.69
316.919	3199.69
317.148	4501.69
317.377	6931.69
317.607	10122.69
317.836	10545.69
318.065	6517.69
318.295	4273.69
318.524	3434.69
318.753	2971.69
318.983	2696.69
319.212	2611.69
319.441	2532.69
319.67	2467.69
319.9	2409.69
320.129	2365.69
320.358	2395.69
320.587	2366.69
320.816	2394.69
321.046	2410.69
321.275	2387.69
321.504	2369.69
321.733	2433.69
321.962	2515.69
322.191	2532.69
322.42	2539.69
322.649	2498.69
322.878	2510.69
323.108	2479.69
323.337	2541.69
323.566	2610.69
323.795	2667.69
324.024	2739.69
324.253	2740.69
324.482	2842.69
324.71	3064.69
324.939	3205.69
325.168	3275.69
325.397	3418.69
325.626	3995.69
325.855	5584.69
326.084	8495.69
326.313	12373.69
326.542	13139.69
326.77	8961.69
326.999	5981.69
327.228	4969.69
327.457	4731.69
327.686	4781.69
327.914	5202.69
328.143	5943.69
328.372	7107.69
328.6	7793.69
328.829	7018.69
329.058	5878.69
329.287	5115.69
329.515	4706.69
329.744	4382.69
329.972	4081.69
330.201	3940.69
330.43	3800.69
330.658	3686.69
330.887	3613.69
331.115	3514.69
331.344	3517.69
331.572	3528.69
331.801	3528.69
332.03	3547.69
332.258	3610.69
332.486	3803.69
332.715	4326.69
332.943	5314.69
333.172	6599.69
333.4	6467.69
333.629	4945.69
333.857	4553.69
334.085	4544.69
334.314	4793.69
334.542	5158.69
334.771	6056.69
334.999	7499.69
335.227	9353.69
335.455	10417.69
335.684	9364.69
335.912	7782.69
336.14	6555.69
336.369	5789.69
336.597	5341.69
336.825	4883.69
337.053	4589.69
337.281	4328.69
337.51	4065.69
337.738	3914.69
337.966	3756.69
338.194	3641.69
338.422	3531.69
338.65	3469.69
338.878	3402.69
339.106	3335.69
339.334	3261.69
339.562	3187.69
339.79	3090.69
340.018	3093.69
340.246	3087.69
340.474	3028.69
340.702	3077.69
340.93	3055.69
341.158	3069.69
341.386	3028.69
341.614	3036.69
341.842	2947.69
342.07	2875.69
342.298	2829.69
342.526	2840.69
342.754	2770.69
342.981	2749.69
343.209	2791.69
343.437	2774.69
343.665	2883.69
343.893	2854.69
344.12	2868.69
344.348	2795.69
344.576	2788.69
344.804	2727.69
345.031	2671.69
345.259	2691.69
345.487	2601.69
345.714	2603.69
345.942	2583.69
346.17	2550.69
346.397	2547.69
346.625	2623.69
346.853	2515.69
347.08	2534.69
347.308	2533.69
347.535	2583.69
347.763	2551.69
347.99	2506.69
348.218	2471.69
348.445	2481.69
348.673	2499.69
348.9	2508.69
349.128	2432.69
349.355	2464.69
349.583	2490.69
349.81	2473.69
350.037	2462.69
350.265	2449.69
350.492	2441.69
350.72	2399.69
350.947	2449.69
351.174	2461.69
351.402	2451.69
351.629	2467.69
351.856	2466.69
352.083	2445.69
352.311	2418.69
352.538	2429.69
352.765	2437.69
352.992	2410.69
353.22	2348.69
353.447	2407.69
353.674	2399.69
353.901	2437.69
354.128	2449.69
354.355	2444.69
354.583	2435.69
354.81	2395.69
355.037	2461.69
355.264	2489.69
355.491	2453.69
355.718	2474.69
355.945	2489.69
356.172	2463.69
356.399	2486.69
356.626	2525.69
356.853	2554.69
357.08	2524.69
357.307	2617.69
357.534	2605.69
357.761	2595.69
357.988	2616.69
358.215	2603.69
358.441	2627.69
358.668	2602.69
358.895	2584.69
359.122	2572.69
359.349	2613.69
359.576	2583.69
359.802	2554.69
360.029	2553.69
360.256	2579.69
360.483	2604.69
360.709	2597.69
360.936	2634.69
361.163	2597.69
361.39	2573.69
361.616	2586.69
361.843	2624.69
362.07	2627.69
362.296	2638.69
362.523	2612.69
362.749	2576.69
362.976	2590.69
363.203	2598.69
363.429	2529.69
363.656	2559.69
363.882	2540.69
364.109	2566.69
364.335	2579.69
364.562	2548.69
364.788	2559.69
365.015	2605.69
365.241	2684.69
365.468	2841.69
365.694	2941.69
365.92	2865.69
366.147	2664.69
366.373	2603.69
366.599	2624.69
366.826	2642.69
367.052	2677.69
367.278	2676.69
367.505	2677.69
367.731	2649.69
367.957	2655.69
368.184	2695.69
368.41	2750.69
368.636	2746.69
368.862	2686.69
369.089	2699.69
369.315	2699.69
369.541	2673.69
369.767	2670.69
369.993	2627.69
370.219	2659.69
370.445	2667.69
370.672	2780.69
370.898	2703.69
371.124	2755.69
371.35	2725.69
371.576	2784.69
371.802	2759.69
372.028	2790.69
372.254	2796.69
372.48	2843.69
372.706	2853.69
372.932	2813.69
373.158	2847.69
373.384	2847.69
373.61	2822.69
373.835	2845.69
374.061	2827.69
374.287	2933.69
374.513	2867.69
374.739	2946.69
374.965	2973.69
375.191	2957.69
375.416	2908.69
375.642	2908.69
375.868	2889.69
376.094	2823.69
376.319	2831.69
376.545	2792.69
376.771	2813.69
376.997	2826.69
377.222	2802.69
377.448	2777.69
377.674	2737.69
377.899	2788.69
378.125	2753.69
378.35	2765.69
378.576	2761.69
378.802	2778.69
379.027	2906.69
379.253	2926.69
379.478	3098.69
379.704	3586.69
379.929	5081.69
380.155	7729.69
380.38	8410.69
380.606	5205.69
380.831	3726.69
381.057	3260.69
381.282	3009.69
381.507	2882.69
381.733	2812.69
381.958	2785.69
382.184	2773.69
382.409	2743.69
382.634	2739.69
382.86	2705.69
383.085	2699.69
383.31	2762.69
383.535	2735.69
383.761	2709.69
383.986	2759.69
384.211	2788.69
384.436	2823.69
384.662	2795.69
384.887	2839.69
385.112	2806.69
385.337	2840.69
385.562	2774.69
385.787	2886.69
386.013	2796.69
386.238	2831.69
386.463	2810.69
386.688	2797.69
386.913	2785.69
387.138	2789.69
387.363	2819.69
387.588	2819.69
387.813	2771.69
388.038	2811.69
388.263	2803.69
388.488	2817.69
388.713	2868.69
388.938	2818.69
389.163	2793.69
389.387	2821.69
389.612	2758.69
389.837	2838.69
390.062	2759.69
390.287	2883.69
390.512	2804.69
390.736	2892.69
390.961	2924.69
391.186	2923.69
391.411	2926.69
391.636	2952.69
391.86	2970.69
392.085	2932.69
392.31	2902.69
392.534	2850.69
392.759	2886.69
392.984	2901.69
393.208	2913.69
393.433	2823.69
393.658	2886.69
393.882	2805.69
394.107	2809.69
394.331	2792.69
394.556	2857.69
394.78	2836.69
395.005	2861.69
395.229	2850.69
395.454	2929.69
395.678	2934.69
395.903	2934.69
396.127	2911.69
396.352	2893.69
396.576	2874.69
396.801	2837.69
397.025	2883.69
397.249	2894.69
397.474	2947.69
397.698	2945.69
397.922	3027.69
398.147	2980.69
398.371	3013.69
398.595	3014.69
398.82	3114.69
399.044	3238.69
399.268	3369.69
399.492	3571.69
399.717	3668.69
399.941	3678.69
400.165	3595.69
400.389	3438.69
400.613	3313.69
400.837	3177.69
401.062	3135.69
401.286	3125.69
401.51	3057.69
401.734	3050.69
401.958	3092.69
402.182	3114.69
402.406	3128.69
402.63	3072.69
402.854	3129.69
403.078	3152.69
403.302	3159.69
403.526	3244.69
403.75	3233.69
403.974	3219.69
404.198	3197.69
404.422	3219.69
404.645	3173.69
404.869	3177.69
405.093	3199.69
405.317	3177.69
405.541	3212.69
405.765	3246.69
405.988	3355.69
406.212	3336.69
406.436	3310.69
406.66	3368.69
406.883	3306.69
407.107	3413.69
407.331	3433.69
407.555	3547.69
407.778	3485.69
408.002	3446.69
408.226	3397.69
408.449	3427.69
408.673	3371.69
408.896	3314.69
409.12	3229.69
409.344	3285.69
409.567	3213.69
409.791	3213.69
410.014	3225.69
410.238	3241.69
410.461	3183.69
410.685	3144.69
410.908	3137.69
411.132	3133.69
411.355	3059.69
411.578	3122.69
411.802	3129.69
412.025	3080.69
412.249	3066.69
412.472	3097.69
412.695	3036.69
412.919	3031.69
413.142	3051.69
413.365	3023.69
413.589	3044.69
413.812	2995.69
414.035	3009.69
414.258	3032.69
414.482	3048.69
414.705	3048.69
414.928	3020.69
415.151	3020.69
415.374	3086.69
415.597	2980.69
415.821	2950.69
416.044	2934.69
416.267	2893.69
416.49	2907.69
416.713	2870.69
416.936	2926.69
417.159	2901.69
417.382	2861.69
417.605	2877.69
417.828	2831.69
418.051	2967.69
418.274	2939.69
418.497	2954.69
418.72	3017.69
418.943	2939.69
419.166	3109.69
419.389	3294.69
419.611	3182.69
419.834	3115.69
420.057	3037.69
420.28	2916.69
420.503	2869.69
420.726	2879.69
420.948	2843.69
421.171	2902.69
421.394	2925.69
421.617	2899.69
421.839	2941.69
422.062	2973.69
422.285	2878.69
422.507	2983.69
422.73	2958.69
422.953	3007.69
423.175	2977.69
423.398	2978.69
423.621	2914.69
423.843	2925.69
424.066	2914.69
424.288	2893.69
424.511	2948.69
424.733	2931.69
424.956	2872.69
425.178	2901.69
425.401	2865.69
425.623	2867.69
425.846	2783.69
426.068	2858.69
426.291	2822.69
426.513	2786.69
426.735	2736.69
426.958	2763.69
427.18	2716.69
427.402	2722.69
427.625	2778.69
427.847	2741.69
428.069	2689.69
428.292	2741.69
428.514	2693.69
428.736	2677.69
428.958	2717.69
429.181	2694.69
429.403	2625.69
429.625	2667.69
429.847	2659.69
430.069	2730.69
430.292	2850.69
430.514	2910.69
430.736	2871.69
430.958	2755.69
431.18	2687.69
431.402	2735.69
431.624	2653.69
431.846	2683.69
432.068	2659.69
432.29	2678.69
432.512	2651.69
432.734	2669.69
432.956	2633.69
433.178	2669.69
433.4	2667.69
433.622	2691.69
433.844	2676.69
434.066	2678.69
434.287	2655.69
434.509	2661.69
434.731	2774.69
434.953	2803.69
435.175	2794.69
435.397	2776.69
435.618	2708.69
435.84	2683.69
436.062	2631.69
436.284	2675.69
436.505	2654.69
436.727	2636.69
436.949	2648.69
437.17	2657.69
437.392	2601.69
437.614	2612.69
437.835	2532.69
438.057	2558.69
438.278	2547.69
438.5	2639.69
438.721	2665.69
438.943	2738.69
439.165	2754.69
439.386	2732.69
439.608	2754.69
439.829	2758.69
440.05	2846.69
440.272	2891.69
440.493	2723.69
440.715	2707.69
440.936	2753.69
441.158	2801.69
441.379	2823.69
441.6	2914.69
441.822	2977.69
442.043	3101.69
442.264	3216.69
442.486	2974.69
442.707	2858.69
442.928	2859.69
443.149	2843.69
443.371	2856.69
443.592	2903.69
443.813	2842.69
444.034	2867.69
444.255	2951.69
444.476	2945.69
444.698	3015.69
444.919	3004.69
445.14	3169.69
445.361	3021.69
445.582	2931.69
445.803	2825.69
446.024	2818.69
446.245	2879.69
446.466	2795.69
446.687	2759.69
446.908	2807.69
447.129	2691.69
447.35	2725.69
447.571	2717.69
447.792	2665.69
448.013	2634.69
448.234	2613.69
448.455	2574.69
448.675	2667.69
448.896	2756.69
449.117	2803.69
449.338	3008.69
449.559	3132.69
449.779	2837.69
450	2633.69
450.221	2593.69
450.442	2601.69
450.662	2558.69
450.883	2581.69
451.104	2553.69
451.324	2567.69
451.545	2546.69
451.766	2553.69
451.986	2592.69
452.207	2838.69
452.428	3595.69
452.648	5365.69
452.869	4510.69
453.089	3173.69
453.31	3037.69
453.53	2956.69
453.751	3040.69
453.971	3149.69
454.192	3101.69
454.412	2733.69
454.633	2596.69
454.853	2491.69
455.073	2450.69
455.294	2451.69
455.514	2454.69
455.734	2471.69
455.955	2450.69
456.175	2411.69
456.395	2431.69
456.616	2477.69
456.836	2522.69
457.056	2522.69
457.276	2525.69
457.497	2683.69
457.717	2642.69
457.937	2561.69
458.157	2622.69
458.377	2593.69
458.598	2618.69
458.818	2615.69
459.038	2629.69
459.258	2719.69
459.478	2686.69
459.698	2706.69
459.918	2744.69
460.138	2789.69
460.358	2832.69
460.578	2859.69
460.798	2857.69
461.018	2870.69
461.238	2905.69
461.458	2919.69
461.678	2965.69
461.898	3025.69
462.118	3006.69
462.338	3118.69
462.558	3096.69
462.777	3167.69
462.997	3270.69
463.217	3450.69
463.437	3512.69
463.657	3539.69
463.876	3563.69
464.096	3426.69
464.316	3263.69
464.536	3187.69
464.755	3111.69
464.975	3061.69
465.195	2897.69
465.414	2889.69
465.634	2801.69
465.854	2757.69
466.073	2686.69
466.293	2668.69
466.512	2684.69
466.732	2703.69
466.951	2894.69
467.171	3000.69
467.391	2986.69
467.61	2724.69
467.829	2613.69
468.049	2605.69
468.268	2596.69
468.488	2586.69
468.707	2586.69
468.927	2591.69
469.146	2563.69
469.365	2638.69
469.585	2655.69
469.804	2734.69
470.023	2797.69
470.243	2784.69
470.462	2890.69
470.681	3062.69
470.901	3335.69
471.12	3762.69
471.339	3654.69
471.558	3147.69
471.777	2972.69
471.997	2792.69
472.216	2711.69
472.435	2678.69
472.654	2659.69
472.873	2625.69
473.092	2609.69
473.311	2684.69
473.53	2650.69
473.749	2728.69
473.968	2848.69
474.187	2654.69
474.406	2638.69
474.625	2661.69
474.844	2619.69
475.063	2613.69
475.282	2674.69
475.501	2665.69
475.72	2691.69
475.939	2688.69
476.158	2786.69
476.377	2797.69
476.596	2740.69
476.814	2785.69
477.033	2800.69
477.252	2831.69
477.471	2857.69
477.69	2958.69
477.908	2988.69
478.127	2987.69
478.346	3005.69
478.564	3045.69
478.783	3094.69
479.002	3042.69
479.22	3108.69
479.439	3167.69
479.658	3114.69
479.876	3157.69
480.095	3178.69
480.313	3243.69
480.532	3279.69
480.751	3255.69
480.969	3249.69
481.188	3212.69
481.406	3201.69
481.624	3134.69
481.843	3211.69
482.061	3177.69
482.28	3202.69
482.498	3182.69
482.717	3226.69
482.935	3209.69
483.153	3262.69
483.372	3289.69
483.59	3373.69
483.808	3360.69
484.027	3447.69
484.245	3676.69
484.463	4056.69
484.681	4412.69
484.9	4122.69
485.118	3876.69
485.336	3816.69
485.554	3863.69
485.772	4006.69
485.99	4520.69
486.209	4813.69
486.427	4174.69
486.645	3702.69
486.863	3542.69
487.081	3519.69
487.299	3386.69
487.517	3366.69
487.735	3427.69
487.953	3419.69
488.171	3373.69
488.389	3391.69
488.607	3342.69
488.825	3297.69
489.043	3211.69
489.261	3278.69
489.479	3230.69
489.696	3285.69
489.914	3238.69
490.132	3300.69
490.35	3349.69
490.568	3319.69
490.786	3348.69
491.003	3410.69
491.221	3382.69
491.439	3458.69
491.657	3419.69
491.874	3487.69
492.092	3496.69
492.31	3455.69
492.527	3422.69
492.745	3418.69
492.963	3443.69
493.18	3389.69
493.398	3426.69
493.615	3491.69
493.833	3451.69
494.05	3452.69
494.268	3481.69
494.485	3535.69
494.703	3436.69
494.92	3418.69
495.138	3461.69
495.355	3445.69
495.573	3486.69
495.79	3519.69
496.008	3545.69
496.225	3542.69
496.442	3647.69
496.66	3727.69
496.877	3877.69
497.094	3845.69
497.312	3742.69
497.529	3798.69
497.746	3826.69
497.963	3816.69
498.181	3958.69
498.398	4006.69
498.615	4099.69
498.832	4336.69
499.049	4488.69
499.267	4817.69
499.484	5096.69
499.701	5109.69
499.918	5225.69
500.135	5514.69
500.352	5745.69
500.569	5790.69
500.786	5820.69
501.003	5583.69
501.22	5396.69
501.437	5079.69
501.654	4819.69
501.871	4661.69
502.088	4456.69
502.305	4243.69
502.522	4171.69
502.739	4115.69
502.956	3890.69
503.172	3790.69
503.389	3806.69
503.606	3745.69
503.823	3686.69
504.04	3623.69
504.256	3637.69
504.473	3662.69
504.69	3661.69
504.907	3535.69
505.123	3495.69
505.34	3422.69
505.557	3318.69
505.773	3332.69
505.99	3281.69
506.207	3159.69
506.423	3197.69
506.64	3101.69
506.856	3070.69
507.073	3098.69
507.289	3081.69
507.506	3063.69
507.722	3033.69
507.939	3068.69
508.155	3050.69
508.372	3053.69
508.588	3005.69
508.805	3015.69
509.021	2996.69
509.238	3011.69
509.454	3203.69
509.67	3366.69
509.887	3097.69
510.103	3029.69
510.319	3041.69
510.536	2954.69
510.752	2922.69
510.968	2967.69
511.184	2898.69
511.401	2899.69
511.617	2859.69
511.833	2901.69
512.049	2887.69
512.265	2877.69
512.481	2867.69
512.698	2868.69
512.914	2899.69
513.13	2813.69
513.346	2883.69
513.562	2862.69
513.778	2903.69
513.994	2942.69
514.21	2973.69
514.426	3176.69
514.642	3305.69
514.858	3065.69
515.074	2949.69
515.29	2951.69
515.506	2942.69
515.721	2887.69
515.937	2938.69
516.153	2916.69
516.369	3007.69
516.585	3059.69
516.801	3087.69
517.016	3154.69
517.232	3216.69
517.448	3241.69
517.664	3277.69
517.879	3301.69
518.095	3281.69
518.311	3335.69
518.527	3187.69
518.742	3158.69
518.958	3267.69
519.173	3291.69
519.389	3195.69
519.605	2991.69
519.82	2958.69
520.036	2954.69
520.251	2905.69
520.467	2866.69
520.682	2802.69
520.898	2844.69
521.113	2819.69
521.329	2837.69
521.544	2815.69
521.76	2844.69
521.975	2837.69
522.19	2775.69
522.406	2803.69
522.621	2790.69
522.836	2756.69
523.052	2763.69
523.267	2739.69
523.482	2739.69
523.698	2783.69
523.913	2717.69
524.128	2762.69
524.343	2701.69
524.559	2744.69
524.774	2742.69
524.989	2708.69
525.204	2779.69
525.419	2717.69
525.634	2743.69
525.849	2688.69
526.064	2701.69
526.28	2767.69
526.495	2703.69
526.71	2827.69
526.925	2755.69
527.14	2741.69
527.355	2727.69
527.57	2792.69
527.785	2786.69
527.999	2812.69
528.214	2828.69
528.429	2834.69
528.644	2831.69
528.859	2869.69
529.074	2947.69
529.289	2925.69
529.503	2939.69
529.718	2957.69
529.933	2951.69
530.148	2909.69
530.363	2932.69
530.577	2917.69
530.792	2939.69
531.007	2995.69
531.221	3007.69
531.436	2953.69
531.651	3050.69
531.865	3069.69
532.08	3102.69
532.295	3218.69
532.509	3435.69
532.724	3422.69
532.938	3507.69
533.153	3595.69
533.367	3835.69
533.582	4109.69
533.796	3965.69
534.011	3780.69
534.225	3651.69
534.44	3479.69
534.654	3459.69
534.868	3385.69
535.083	3305.69
535.297	3298.69
535.511	3176.69
535.726	3167.69
535.94	3131.69
536.154	3017.69
536.369	3049.69
536.583	2939.69
536.797	2987.69
537.011	2887.69
537.225	2891.69
537.44	2814.69
537.654	2833.69
537.868	2785.69
538.082	2766.69
538.296	2794.69
538.51	2730.69
538.724	2727.69
538.938	2747.69
539.153	2673.69
539.367	2712.69
539.581	2655.69
539.795	2689.69
540.009	2613.69
540.222	2644.69
540.436	2668.69
540.65	2658.69
540.864	2673.69
541.078	2726.69
541.292	2829.69
541.506	3301.69
541.72	3503.69
541.934	3065.69
542.147	2858.69
542.361	2779.69
542.575	2691.69
542.789	2651.69
543.002	2581.69
543.216	2614.69
543.43	2568.69
543.644	2532.69
543.857	2537.69
544.071	2569.69
544.285	2600.69
544.498	2571.69
544.712	2507.69
544.925	2583.69
545.139	2579.69
545.352	2534.69
545.566	2522.69
545.779	2573.69
545.993	2575.69
546.206	2612.69
546.42	2583.69
546.633	2571.69
546.847	2562.69
547.06	2549.69
547.274	2579.69
547.487	2576.69
547.7	2579.69
547.914	2562.69
548.127	2559.69
548.34	2580.69
548.554	2580.69
548.767	2545.69
548.98	2563.69
549.193	2567.69
549.407	2562.69
549.62	2592.69
549.833	2561.69
550.046	2539.69
550.259	2583.69
550.473	2529.69
550.686	2587.69
550.899	2580.69
551.112	2551.69
551.325	2581.69
551.538	2625.69
551.751	2553.69
551.964	2615.69
552.177	2607.69
552.39	2643.69
552.603	2695.69
552.816	2754.69
553.029	2773.69
553.242	2811.69
553.455	2820.69
553.667	2851.69
553.88	2861.69
554.093	2858.69
554.306	2947.69
554.519	2894.69
554.732	3017.69
554.944	3042.69
555.157	3084.69
555.37	3184.69
555.583	3238.69
555.795	3423.69
556.008	3717.69
556.221	4219.69
556.433	4506.69
556.646	4475.69
556.859	4233.69
557.071	4085.69
557.284	3950.69
557.496	3845.69
557.709	3777.69
557.921	3712.69
558.134	3710.69
558.346	3791.69
558.559	3916.69
558.771	4156.69
558.984	4595.69
559.196	4879.69
559.409	4651.69
559.621	4288.69
559.833	4033.69
560.046	3755.69
560.258	3580.69
560.47	3372.69
560.683	3241.69
560.895	3157.69
561.107	3033.69
561.32	2994.69
561.532	2860.69
561.744	2780.69
561.956	2781.69
562.168	2701.69
562.381	2681.69
562.593	2651.69
562.805	2721.69
563.017	2738.69
563.229	2802.69
563.441	3189.69
563.653	2694.69
563.865	2453.69
564.077	2491.69
564.289	2440.69
564.501	2465.69
564.713	2356.69
564.925	2401.69
565.137	2383.69
565.349	2378.69
565.561	2382.69
565.773	2381.69
565.985	2446.69
566.197	2481.69
566.408	2503.69
566.62	2604.69
566.832	2625.69
567.044	2592.69
567.255	2637.69
567.467	2681.69
567.679	2765.69
567.891	2897.69
568.102	3151.69
568.314	3554.69
568.526	3125.69
568.737	2763.69
568.949	2521.69
569.161	2386.69
569.372	2302.69
569.584	2192.69
569.795	2195.69
570.007	2136.69
570.218	2244.69
570.43	2279.69
570.641	2088.69
570.853	2007.69
571.064	2003.69
571.276	2012.69
571.487	1985.69
571.698	1925.69
571.91	1867.69
572.121	1878.69
572.333	1897.69
572.544	1892.69
572.755	1989.69
572.966	2333.69
573.178	2108.69
573.389	1922.69
573.6	1891.69
573.811	1822.69
574.023	1772.69
574.234	1755.69
574.445	1769.69
574.656	1747.69
574.867	1780.69
575.078	1736.69
575.289	1765.69
575.501	1709.69
575.712	1697.69
575.923	1699.69
576.134	1733.69
576.345	1715.69
576.556	1718.69
576.767	1747.69
576.978	1705.69
577.188	1723.69
577.399	1744.69
577.61	1770.69
577.821	1757.69
578.032	1789.69
578.243	1834.69
578.454	1868.69
578.665	1914.69
578.875	1957.69
579.086	2018.69
579.297	2135.69
579.508	2242.69
579.718	2462.69
579.929	2763.69
580.14	3293.69
580.35	3357.69
580.561	3084.69
580.772	2752.69
580.982	2526.69
581.193	2382.69
581.403	2250.69
581.614	2100.69
581.825	2039.69
582.035	1979.69
582.246	1878.69
582.456	1850.69
582.667	1822.69
582.877	1797.69
583.087	1773.69
583.298	1674.69
583.508	1611.69
583.719	1578.69
583.929	1578.69
584.139	1578.69
584.35	1524.69
584.56	1516.69
584.77	1465.69
584.981	1417.69
585.191	1448.69
585.401	1423.69
585.611	1406.69
585.821	1394.69
586.032	1375.69
586.242	1391.69
586.452	1345.69
586.662	1344.69
586.872	1344.69
587.082	1329.69
587.292	1278.69
587.502	1310.69
587.713	1253.69
587.923	1243.69
588.133	1257.69
588.343	1250.69
588.553	1237.69
588.762	1248.69
588.972	1238.69
589.182	1252.69
589.392	1197.69
589.602	1206.69
589.812	1217.69
590.022	1208.69
590.232	1193.69
590.441	1199.69
590.651	1186.69
590.861	1185.69
591.071	1192.69
591.281	1203.69
591.49	1185.69
591.7	1233.69
591.91	1197.69
592.119	1214.69
592.329	1190.69
592.539	1219.69
592.748	1218.69
592.958	1240.69
593.167	1227.69
593.377	1293.69
593.587	1249.69
593.796	1254.69
594.006	1237.69
594.215	1237.69
594.424	1219.69
594.634	1242.69
594.843	1179.69
595.053	1168.69
595.262	1174.69
595.472	1168.69
595.681	1140.69
595.89	1122.69
596.1	1112.69
596.309	1077.69
596.518	1093.69
596.727	1065.69
596.937	1039.69
597.146	1068.69
597.355	1054.69
597.564	1028.69
597.774	1030.69
597.983	990.69
598.192	991.69
598.401	993.69
598.61	1006.69
598.819	1009.69
599.028	977.69
599.237	968.69
599.446	964.69
599.655	967.69
599.864	972.69
600.073	937.69
600.282	918.69
600.491	942.69
600.7	966.69
600.909	972.69
601.118	961.69
601.327	957.69
601.536	991.69
601.745	973.69
601.953	1036.69
602.162	1171.69
602.371	1058.69
602.58	978.69
602.789	944.69
602.997	966.69
603.206	955.69
603.415	935.69
603.623	923.69
603.832	943.69
604.041	927.69
604.249	914.69
604.458	906.69
604.666	903.69
604.875	875.69
605.084	901.69
605.292	901.69
605.501	905.69
605.709	924.69
605.918	911.69
606.126	883.69
606.334	935.69
606.543	917.69
606.751	1009.69
606.96	1098.69
607.168	1218.69
607.376	1067.69
607.585	986.69
607.793	934.69
608.001	918.69
608.21	868.69
608.418	864.69
608.626	877.69
608.834	860.69
609.043	869.69
609.251	847.69
609.459	856.69
609.667	859.69
609.875	837.69
610.083	869.69
610.291	860.69
610.499	841.69
610.707	844.69
610.916	812.69
611.124	820.69
611.332	821.69
611.54	834.69
611.748	825.69
611.955	810.69
612.163	805.69
612.371	817.69
612.579	807.69
612.787	806.69
612.995	814.69
613.203	802.69
613.411	780.69
613.618	792.69
613.826	827.69
614.034	839.69
614.242	801.69
614.449	809.69
614.657	806.69
614.865	789.69
615.072	811.69
615.28	822.69
615.488	814.69
615.695	817.69
615.903	788.69
616.111	789.69
616.318	794.69
616.526	803.69
616.733	790.69
616.941	781.69
617.148	784.69
617.356	795.69
617.563	795.69
617.771	757.69
617.978	796.69
618.185	755.69
618.393	751.69
618.6	769.69
618.807	788.69
619.015	742.69
619.222	773.69
619.429	746.69
619.637	759.69
619.844	733.69
620.051	753.69
620.258	733.69
620.466	722.69
620.673	715.69
620.88	681.69
621.087	724.69
621.294	716.69
621.501	677.69
621.708	716.69
621.915	711.69
622.122	720.69
622.329	707.69
622.536	715.69
622.743	721.69
622.95	707.69
623.157	703.69
623.364	702.69
623.571	690.69
623.778	681.69
623.985	675.69
624.192	701.69
624.399	700.69
624.606	683.69
624.812	675.69
625.019	659.69
625.226	670.69
625.433	651.69
625.639	671.69
625.846	641.69
626.053	655.69
626.259	646.69
626.466	647.69
626.673	639.69
626.879	633.69
627.086	641.69
627.293	638.69
627.499	627.69
627.706	643.69
627.912	648.69
628.119	663.69
628.325	635.69
628.532	671.69
628.738	629.69
628.945	619.69
629.151	641.69
629.357	629.69
629.564	627.69
629.77	623.69
629.976	630.69
630.183	604.69
630.389	620.69
630.595	618.69
630.802	591.69
631.008	589.69
631.214	595.69
631.42	604.69
631.627	575.69
631.833	599.69
632.039	586.69
632.245	595.69
632.451	574.69
632.657	579.69
632.863	569.69
633.069	591.69
633.275	587.69
633.481	590.69
633.688	588.69
633.893	588.69
634.099	578.69
634.305	591.69
634.511	602.69
634.717	611.69
634.923	618.69
635.129	677.69
635.335	762.69
635.541	685.69
635.747	661.69
635.952	616.69
636.158	605.69
636.364	608.69
636.57	573.69
636.775	584.69
636.981	609.69
637.187	597.69
637.392	586.69
637.598	602.69
637.804	572.69
638.009	587.69
638.215	578.69
638.421	587.69
638.626	585.69
638.832	586.69
639.037	571.69
639.243	602.69
639.448	596.69
639.654	600.69
639.859	609.69
640.065	618.69
640.27	631.69
640.475	631.69
640.681	609.69
640.886	610.69
641.091	647.69
641.297	636.69
641.502	653.69
641.707	630.69
641.913	631.69
642.118	641.69
642.323	665.69
642.528	679.69
642.733	702.69
642.939	715.69
643.144	746.69
643.349	760.69
643.554	793.69
643.759	822.69
643.964	851.69
644.169	899.69
644.374	973.69
644.579	1070.69
644.784	1141.69
644.989	1311.69
645.194	1588.69
645.399	1889.69
645.604	2038.69
645.809	1519.69
646.014	1155.69
646.219	956.69
646.423	891.69
646.628	779.69
646.833	723.69
647.038	649.69
647.243	663.69
647.447	628.69
647.652	618.69
647.857	583.69
648.062	594.69
648.266	590.69
648.471	574.69
648.676	552.69
648.88	542.69
649.085	515.69
649.289	529.69
649.494	531.69
649.698	521.69
649.903	489.69
650.107	473.69
650.312	461.69
650.516	493.69
650.721	463.69
650.925	452.69
651.13	430.69
651.334	441.69
651.539	426.69
651.743	438.69
651.947	433.69
652.152	435.69
652.356	421.69
652.56	467.69
652.764	492.69
652.969	457.69
653.173	404.69
653.377	400.69
653.581	385.69
653.785	391.69
653.99	380.69
654.194	381.69
654.398	378.69
654.602	356.69
654.806	357.69
655.01	358.69
655.214	357.69
655.418	354.69
655.622	363.69
655.826	371.69
656.03	383.69
656.234	392.69
656.438	394.69
656.642	366.69
656.846	364.69
657.049	362.69
657.253	341.69
657.457	330.69
657.661	315.69
657.865	258.69
658.068	272.69
658.272	250.69
658.476	232.69
658.68	239.69
658.883	221.69
659.087	199.69
659.291	197.69
659.494	189.69
659.698	186.69
659.901	185.69
660.105	187.69
660.309	171.69
660.512	169.69
660.716	160.69
660.919	165.69
661.123	148.69
661.326	138.69
661.53	144.69
661.733	138.69
661.936	131.69
662.14	126.69
662.343	125.69
662.546	116.69
662.75	118.69
662.953	110.69
663.156	105.69
663.36	97.69
663.563	100.69
663.766	105.69
663.969	95.69
664.173	102.69
664.376	79.69
664.579	104.69
664.782	93.69
664.985	90.69
665.188	76.69
665.391	94.69
665.594	86.69
665.797	79.69
666	90.69
666.203	86.69
666.406	93.69
666.609	98.69
666.812	77.69
667.015	89.69
667.218	95.69
667.421	90.69
667.624	91.69
667.827	88.69
668.03	86.69
668.232	87.69
668.435	89.69
668.638	83.69
668.841	83.69
669.043	91.69
669.246	93.69
669.449	91.69
669.651	91.69
669.854	91.69
670.057	93.69
670.259	91.69
670.462	80.69
670.665	81.69
670.867	92.69
671.07	93.69
671.272	99.69
671.475	96.69
671.677	93.69
671.88	89.69
672.082	94.69
672.284	88.69
672.487	83.69
672.689	83.69
672.892	95.69
