Data from SnStandardFlinnAPT0064_LampEnergy10_LIBS07252019.E.O._I.C._HRD10591_15-19-56-493.txt Node
Date: Thu Jul 25 15:19:56 EDT 2019
User: cochatt
Spectrometer: HR+D1059
Trigger mode: 1
Integration Time (sec): 1.000000E-1
Scans to average: 1
Electric dark correction enabled: true
Nonlinearity correction enabled: false
Boxcar width: 0
XAxis mode: Wavelengths
Number of Pixels in Spectrum: 2048
>>>>>Begin Spectral Data<<<<<
223.165	-24.94
223.4	-24.94
223.635	-24.94
223.869	-11.94
224.104	-13.94
224.338	-18.94
224.573	-26.94
224.808	-19.94
225.042	-5.94
225.277	-2.94
225.511	12.06
225.746	5.06
225.98	4.06
226.215	6.06
226.449	9.06
226.683	23.06
226.918	37.06
227.152	29.06
227.387	35.06
227.621	39.06
227.856	35.06
228.09	54.06
228.324	53.06
228.559	69.06
228.793	126.06
229.027	324.06
229.262	337.06
229.496	333.06
229.73	313.06
229.964	314.06
230.199	331.06
230.433	301.06
230.667	323.06
230.901	316.06
231.136	345.06
231.37	390.06
231.604	414.06
231.838	472.06
232.072	530.06
232.306	596.06
232.541	514.06
232.775	447.06
233.009	416.06
233.243	438.06
233.477	480.06
233.711	535.06
233.945	615.06
234.179	539.06
234.413	477.06
234.647	481.06
234.881	466.06
235.115	543.06
235.349	648.06
235.583	835.06
235.817	1059.06
236.051	1038.06
236.285	666.06
236.519	555.06
236.753	537.06
236.987	525.06
237.221	558.06
237.455	540.06
237.689	466.06
237.922	482.06
238.156	483.06
238.39	497.06
238.624	518.06
238.858	504.06
239.091	496.06
239.325	499.06
239.559	520.06
239.793	520.06
240.027	536.06
240.26	557.06
240.494	580.06
240.728	604.06
240.961	649.06
241.195	691.06
241.429	720.06
241.662	748.06
241.896	836.06
242.13	1029.06
242.363	1369.06
242.597	1714.06
242.83	1642.06
243.064	1632.06
243.298	1913.06
243.531	1606.06
243.765	1003.06
243.998	836.06
244.232	694.06
244.465	694.06
244.699	682.06
244.932	674.06
245.166	664.06
245.399	677.06
245.633	711.06
245.866	677.06
246.099	697.06
246.333	696.06
246.566	686.06
246.8	666.06
247.033	664.06
247.266	657.06
247.5	672.06
247.733	690.06
247.966	710.06
248.2	798.06
248.433	909.06
248.666	1068.06
248.899	980.06
249.133	891.06
249.366	909.06
249.599	995.06
249.832	1144.06
250.066	1156.06
250.299	893.06
250.532	812.06
250.765	782.06
250.998	758.06
251.231	768.06
251.465	747.06
251.698	767.06
251.931	767.06
252.164	786.06
252.397	752.06
252.63	805.06
252.863	823.06
253.096	797.06
253.329	801.06
253.562	790.06
253.795	828.06
254.028	818.06
254.261	851.06
254.494	925.06
254.727	1042.06
254.96	1323.06
255.193	1277.06
255.426	987.06
255.659	932.06
255.892	870.06
256.124	894.06
256.357	908.06
256.59	946.06
256.823	1022.06
257.056	1188.06
257.289	1412.06
257.521	1588.06
257.754	1264.06
257.987	1004.06
258.22	936.06
258.452	956.06
258.685	978.06
258.918	978.06
259.151	1027.06
259.383	1115.06
259.616	1259.06
259.849	1313.06
260.081	1123.06
260.314	1020.06
260.547	1018.06
260.779	968.06
261.012	972.06
261.244	974.06
261.477	1000.06
261.71	1002.06
261.942	997.06
262.175	1022.06
262.407	1080.06
262.64	1076.06
262.872	1099.06
263.105	1156.06
263.337	1212.06
263.57	1278.06
263.802	1287.06
264.035	1293.06
264.267	1370.06
264.499	1431.06
264.732	1404.06
264.964	1441.06
265.197	1430.06
265.429	1466.06
265.661	1476.06
265.894	1591.06
266.126	1770.06
266.358	1977.06
266.591	1953.06
266.823	1611.06
267.055	1458.06
267.287	1402.06
267.52	1325.06
267.752	1281.06
267.984	1256.06
268.216	1266.06
268.448	1251.06
268.681	1241.06
268.913	1240.06
269.145	1257.06
269.377	1251.06
269.609	1268.06
269.841	1316.06
270.073	1430.06
270.306	1665.06
270.538	2251.06
270.77	3424.06
271.002	4154.06
271.234	2976.06
271.466	1980.06
271.698	1602.06
271.93	1443.06
272.162	1356.06
272.394	1325.06
272.626	1281.06
272.858	1244.06
273.09	1240.06
273.322	1243.06
273.553	1218.06
273.785	1212.06
274.017	1221.06
274.249	1221.06
274.481	1230.06
274.713	1233.06
274.945	1225.06
275.176	1255.06
275.408	1243.06
275.64	1235.06
275.872	1262.06
276.104	1266.06
276.335	1292.06
276.567	1329.06
276.799	1309.06
277.031	1352.06
277.262	1374.06
277.494	1444.06
277.726	1602.06
277.957	1913.06
278.189	2214.06
278.421	2066.06
278.652	1797.06
278.884	1700.06
279.115	1534.06
279.347	1489.06
279.579	1424.06
279.81	1416.06
280.042	1449.06
280.273	1478.06
280.505	1496.06
280.736	1526.06
280.968	1596.06
281.199	1826.06
281.431	2087.06
281.662	2158.06
281.894	1806.06
282.125	1680.06
282.356	1702.06
282.588	1685.06
282.819	1811.06
283.051	1844.06
283.282	2095.06
283.513	2606.06
283.745	3770.06
283.976	5992.06
284.207	8440.06
284.439	7744.06
284.67	4827.06
284.901	3966.06
285.132	3927.06
285.364	3789.06
285.595	2880.06
285.826	2529.06
286.057	2965.06
286.288	4052.06
286.52	5528.06
286.751	5150.06
286.982	3234.06
287.213	2389.06
287.444	2038.06
287.675	1936.06
287.906	1870.06
288.138	1763.06
288.369	1728.06
288.6	1714.06
288.831	1697.06
289.062	1722.06
289.293	1715.06
289.524	1708.06
289.755	1782.06
289.986	1756.06
290.217	1738.06
290.448	1763.06
290.679	1781.06
290.91	1849.06
291.141	1907.06
291.371	2080.06
291.602	2219.06
291.833	1968.06
292.064	1796.06
292.295	1680.06
292.526	1663.06
292.757	1654.06
292.987	1674.06
293.218	1605.06
293.449	1657.06
293.68	1636.06
293.91	1611.06
294.141	1612.06
294.372	1580.06
294.603	1602.06
294.833	1573.06
295.064	1609.06
295.295	1581.06
295.525	1587.06
295.756	1598.06
295.987	1584.06
296.217	1595.06
296.448	1610.06
296.679	1589.06
296.909	1596.06
297.14	1623.06
297.37	1665.06
297.601	1656.06
297.831	1676.06
298.062	1660.06
298.292	1673.06
298.523	1726.06
298.753	1719.06
298.984	1759.06
299.214	1769.06
299.445	1773.06
299.675	1799.06
299.905	1844.06
300.136	1958.06
300.366	2221.06
300.597	2891.06
300.827	4000.06
301.057	5544.06
301.288	5548.06
301.518	3553.06
301.748	2712.06
301.979	2422.06
302.209	2357.06
302.439	2391.06
302.669	2555.06
302.9	3083.06
303.13	4321.06
303.36	6568.06
303.59	8676.06
303.82	7600.06
304.051	4442.06
304.281	3247.06
304.511	2626.06
304.741	2432.06
304.971	2283.06
305.201	2185.06
305.431	2081.06
305.661	2029.06
305.891	1968.06
306.121	1916.06
306.352	1910.06
306.582	1885.06
306.812	1866.06
307.042	1852.06
307.272	1893.06
307.502	1834.06
307.731	1792.06
307.961	1809.06
308.191	1821.06
308.421	1861.06
308.651	1802.06
308.881	1819.06
309.111	1838.06
309.341	1814.06
309.571	1880.06
309.8	1868.06
310.03	1875.06
310.26	1906.06
310.49	1897.06
310.72	1904.06
310.949	1860.06
311.179	1900.06
311.409	1932.06
311.639	1925.06
311.868	1973.06
312.098	1969.06
312.328	1977.06
312.557	1990.06
312.787	1976.06
313.017	2037.06
313.246	2015.06
313.476	2071.06
313.706	2116.06
313.935	2229.06
314.165	2432.06
314.394	2520.06
314.624	2394.06
314.853	2226.06
315.083	2216.06
315.312	2222.06
315.542	2264.06
315.771	2253.06
316.001	2315.06
316.23	2396.06
316.46	2428.06
316.689	2772.06
316.919	3373.06
317.148	4814.06
317.377	7485.06
317.607	10934.06
317.836	11389.06
318.065	7056.06
318.295	4504.06
318.524	3662.06
318.753	3156.06
318.983	2857.06
319.212	2700.06
319.441	2545.06
319.67	2528.06
319.9	2479.06
320.129	2436.06
320.358	2398.06
320.587	2438.06
320.816	2396.06
321.046	2413.06
321.275	2373.06
321.504	2417.06
321.733	2463.06
321.962	2570.06
322.191	2572.06
322.42	2570.06
322.649	2556.06
322.878	2553.06
323.108	2549.06
323.337	2579.06
323.566	2601.06
323.795	2660.06
324.024	2678.06
324.253	2808.06
324.482	2962.06
324.71	3099.06
324.939	3334.06
325.168	3334.06
325.397	3525.06
325.626	4200.06
325.855	5850.06
326.084	9199.06
326.313	13232.06
326.542	13897.06
326.77	9669.06
326.999	6328.06
327.228	5235.06
327.457	4984.06
327.686	5072.06
327.914	5417.06
328.143	6282.06
328.372	7414.06
328.6	8239.06
328.829	7324.06
329.058	6116.06
329.287	5242.06
329.515	4804.06
329.744	4384.06
329.972	4211.06
330.201	3992.06
330.43	3856.06
330.658	3650.06
330.887	3557.06
331.115	3565.06
331.344	3556.06
331.572	3508.06
331.801	3560.06
332.03	3614.06
332.258	3635.06
332.486	3856.06
332.715	4421.06
332.943	5504.06
333.172	6903.06
333.4	6796.06
333.629	5160.06
333.857	4657.06
334.085	4636.06
334.314	4832.06
334.542	5300.06
334.771	6267.06
334.999	7850.06
335.227	9696.06
335.455	10890.06
335.684	9876.06
335.912	8009.06
336.14	6750.06
336.369	5925.06
336.597	5445.06
336.825	4951.06
337.053	4661.06
337.281	4380.06
337.51	4139.06
337.738	3945.06
337.966	3773.06
338.194	3638.06
338.422	3552.06
338.65	3425.06
338.878	3379.06
339.106	3270.06
339.334	3226.06
339.562	3186.06
339.79	3105.06
340.018	3074.06
340.246	3111.06
340.474	3037.06
340.702	3028.06
340.93	3082.06
341.158	3062.06
341.386	3005.06
341.614	3029.06
341.842	2955.06
342.07	2894.06
342.298	2855.06
342.526	2818.06
342.754	2750.06
342.981	2734.06
343.209	2722.06
343.437	2765.06
343.665	2840.06
343.893	2856.06
344.12	2854.06
344.348	2814.06
344.576	2745.06
344.804	2736.06
345.031	2666.06
345.259	2648.06
345.487	2609.06
345.714	2596.06
345.942	2574.06
346.17	2583.06
346.397	2582.06
346.625	2570.06
346.853	2561.06
347.08	2548.06
347.308	2480.06
347.535	2552.06
347.763	2580.06
347.99	2461.06
348.218	2447.06
348.445	2490.06
348.673	2482.06
348.9	2507.06
349.128	2458.06
349.355	2459.06
349.583	2495.06
349.81	2456.06
350.037	2377.06
350.265	2414.06
350.492	2378.06
350.72	2419.06
350.947	2368.06
351.174	2430.06
351.402	2434.06
351.629	2434.06
351.856	2411.06
352.083	2436.06
352.311	2442.06
352.538	2375.06
352.765	2417.06
352.992	2442.06
353.22	2441.06
353.447	2418.06
353.674	2405.06
353.901	2421.06
354.128	2432.06
354.355	2390.06
354.583	2392.06
354.81	2438.06
355.037	2422.06
355.264	2442.06
355.491	2443.06
355.718	2474.06
355.945	2487.06
356.172	2470.06
356.399	2514.06
356.626	2532.06
356.853	2567.06
357.08	2506.06
357.307	2551.06
357.534	2576.06
357.761	2633.06
357.988	2636.06
358.215	2598.06
358.441	2612.06
358.668	2566.06
358.895	2570.06
359.122	2541.06
359.349	2583.06
359.576	2540.06
359.802	2562.06
360.029	2541.06
360.256	2574.06
360.483	2602.06
360.709	2556.06
360.936	2600.06
361.163	2541.06
361.39	2559.06
361.616	2550.06
361.843	2599.06
362.07	2556.06
362.296	2592.06
362.523	2582.06
362.749	2620.06
362.976	2541.06
363.203	2534.06
363.429	2585.06
363.656	2584.06
363.882	2528.06
364.109	2549.06
364.335	2540.06
364.562	2562.06
364.788	2585.06
365.015	2589.06
365.241	2701.06
365.468	2803.06
365.694	3011.06
365.92	2890.06
366.147	2621.06
366.373	2638.06
366.599	2590.06
366.826	2659.06
367.052	2582.06
367.278	2624.06
367.505	2638.06
367.731	2611.06
367.957	2612.06
368.184	2666.06
368.41	2698.06
368.636	2658.06
368.862	2708.06
369.089	2711.06
369.315	2660.06
369.541	2672.06
369.767	2669.06
369.993	2621.06
370.219	2660.06
370.445	2652.06
370.672	2681.06
370.898	2676.06
371.124	2617.06
371.35	2747.06
371.576	2762.06
371.802	2720.06
372.028	2754.06
372.254	2779.06
372.48	2759.06
372.706	2765.06
372.932	2846.06
373.158	2838.06
373.384	2834.06
373.61	2780.06
373.835	2787.06
374.061	2807.06
374.287	2814.06
374.513	2846.06
374.739	2889.06
374.965	2956.06
375.191	2962.06
375.416	2923.06
375.642	2897.06
375.868	2829.06
376.094	2813.06
376.319	2773.06
376.545	2772.06
376.771	2750.06
376.997	2762.06
377.222	2737.06
377.448	2752.06
377.674	2712.06
377.899	2726.06
378.125	2710.06
378.35	2718.06
378.576	2773.06
378.802	2798.06
379.027	2816.06
379.253	2891.06
379.478	3084.06
379.704	3694.06
379.929	5343.06
380.155	8266.06
380.38	9074.06
380.606	5552.06
380.831	3839.06
381.057	3310.06
381.282	3039.06
381.507	2859.06
381.733	2852.06
381.958	2806.06
382.184	2791.06
382.409	2718.06
382.634	2693.06
382.86	2702.06
383.085	2699.06
383.31	2742.06
383.535	2740.06
383.761	2687.06
383.986	2728.06
384.211	2720.06
384.436	2774.06
384.662	2833.06
384.887	2767.06
385.112	2779.06
385.337	2813.06
385.562	2788.06
385.787	2779.06
386.013	2770.06
386.238	2820.06
386.463	2792.06
386.688	2803.06
386.913	2742.06
387.138	2759.06
387.363	2774.06
387.588	2726.06
387.813	2766.06
388.038	2739.06
388.263	2768.06
388.488	2789.06
388.713	2793.06
388.938	2755.06
389.163	2773.06
389.387	2766.06
389.612	2753.06
389.837	2795.06
390.062	2825.06
390.287	2828.06
390.512	2821.06
390.736	2859.06
390.961	2910.06
391.186	2866.06
391.411	2922.06
391.636	2843.06
391.86	2900.06
392.085	2930.06
392.31	2919.06
392.534	2829.06
392.759	2832.06
392.984	2856.06
393.208	2851.06
393.433	2835.06
393.658	2852.06
393.882	2805.06
394.107	2784.06
394.331	2829.06
394.556	2830.06
394.78	2834.06
395.005	2868.06
395.229	2822.06
395.454	2891.06
395.678	2890.06
395.903	2820.06
396.127	2882.06
396.352	2893.06
396.576	2846.06
396.801	2879.06
397.025	2916.06
397.249	2878.06
397.474	2920.06
397.698	2908.06
397.922	2932.06
398.147	2936.06
398.371	2947.06
398.595	3083.06
398.82	3092.06
399.044	3267.06
399.268	3352.06
399.492	3516.06
399.717	3640.06
399.941	3646.06
400.165	3498.06
400.389	3394.06
400.613	3245.06
400.837	3179.06
401.062	3096.06
401.286	3019.06
401.51	3101.06
401.734	3036.06
401.958	3012.06
402.182	3026.06
402.406	3051.06
402.63	3113.06
402.854	3096.06
403.078	3052.06
403.302	3150.06
403.526	3198.06
403.75	3118.06
403.974	3227.06
404.198	3173.06
404.422	3192.06
404.645	3178.06
404.869	3208.06
405.093	3203.06
405.317	3148.06
405.541	3218.06
405.765	3218.06
405.988	3303.06
406.212	3288.06
406.436	3240.06
406.66	3288.06
406.883	3289.06
407.107	3419.06
407.331	3438.06
407.555	3502.06
407.778	3434.06
408.002	3386.06
408.226	3454.06
408.449	3420.06
408.673	3295.06
408.896	3304.06
409.12	3260.06
409.344	3253.06
409.567	3186.06
409.791	3196.06
410.014	3169.06
410.238	3120.06
410.461	3148.06
410.685	3150.06
410.908	3082.06
411.132	3132.06
411.355	3028.06
411.578	3101.06
411.802	3004.06
412.025	3024.06
412.249	3079.06
412.472	3086.06
412.695	2990.06
412.919	2966.06
413.142	3021.06
413.365	2962.06
413.589	3005.06
413.812	2969.06
414.035	2984.06
414.258	2960.06
414.482	3003.06
414.705	3074.06
414.928	2945.06
415.151	3013.06
415.374	2988.06
415.597	2932.06
415.821	2921.06
416.044	2881.06
416.267	2909.06
416.49	2882.06
416.713	2866.06
416.936	2891.06
417.159	2844.06
417.382	2791.06
417.605	2822.06
417.828	2854.06
418.051	2916.06
418.274	2908.06
418.497	2933.06
418.72	2935.06
418.943	2940.06
419.166	3059.06
419.389	3273.06
419.611	3184.06
419.834	3066.06
420.057	3028.06
420.28	2976.06
420.503	2861.06
420.726	2873.06
420.948	2845.06
421.171	2870.06
421.394	2870.06
421.617	2848.06
421.839	2899.06
422.062	2914.06
422.285	2862.06
422.507	2924.06
422.73	2928.06
422.953	2984.06
423.175	3009.06
423.398	2995.06
423.621	2873.06
423.843	2901.06
424.066	2902.06
424.288	2849.06
424.511	2885.06
424.733	2853.06
424.956	2899.06
425.178	2858.06
425.401	2843.06
425.623	2856.06
425.846	2790.06
426.068	2755.06
426.291	2776.06
426.513	2712.06
426.735	2748.06
426.958	2787.06
427.18	2709.06
427.402	2751.06
427.625	2760.06
427.847	2715.06
428.069	2651.06
428.292	2699.06
428.514	2704.06
428.736	2680.06
428.958	2662.06
429.181	2612.06
429.403	2658.06
429.625	2591.06
429.847	2674.06
430.069	2710.06
430.292	2822.06
430.514	2894.06
430.736	2865.06
430.958	2707.06
431.18	2620.06
431.402	2687.06
431.624	2652.06
431.846	2642.06
432.068	2656.06
432.29	2630.06
432.512	2567.06
432.734	2645.06
432.956	2664.06
433.178	2696.06
433.4	2640.06
433.622	2651.06
433.844	2650.06
434.066	2673.06
434.287	2656.06
434.509	2712.06
434.731	2702.06
434.953	2816.06
435.175	2760.06
435.397	2740.06
435.618	2674.06
435.84	2638.06
436.062	2634.06
436.284	2670.06
436.505	2630.06
436.727	2652.06
436.949	2598.06
437.17	2620.06
437.392	2581.06
437.614	2588.06
437.835	2470.06
438.057	2558.06
438.278	2537.06
438.5	2591.06
438.721	2645.06
438.943	2701.06
439.165	2742.06
439.386	2744.06
439.608	2777.06
439.829	2750.06
440.05	2876.06
440.272	2890.06
440.493	2757.06
440.715	2735.06
440.936	2753.06
441.158	2760.06
441.379	2752.06
441.6	2934.06
441.822	2986.06
442.043	3141.06
442.264	3250.06
442.486	3032.06
442.707	2848.06
442.928	2832.06
443.149	2828.06
443.371	2816.06
443.592	2806.06
443.813	2895.06
444.034	2850.06
444.255	2885.06
444.476	2956.06
444.698	3000.06
444.919	3029.06
445.14	3081.06
445.361	3030.06
445.582	2930.06
445.803	2830.06
446.024	2785.06
446.245	2820.06
446.466	2774.06
446.687	2774.06
446.908	2733.06
447.129	2704.06
447.35	2618.06
447.571	2644.06
447.792	2575.06
448.013	2634.06
448.234	2624.06
448.455	2645.06
448.675	2663.06
448.896	2701.06
449.117	2834.06
449.338	3062.06
449.559	3199.06
449.779	2813.06
450	2654.06
450.221	2613.06
450.442	2560.06
450.662	2568.06
450.883	2567.06
451.104	2553.06
451.324	2565.06
451.545	2572.06
451.766	2648.06
451.986	2644.06
452.207	2860.06
452.428	3675.06
452.648	5703.06
452.869	4749.06
453.089	3248.06
453.31	2999.06
453.53	3043.06
453.751	3100.06
453.971	3305.06
454.192	3220.06
454.412	2769.06
454.633	2594.06
454.853	2553.06
455.073	2455.06
455.294	2469.06
455.514	2483.06
455.734	2434.06
455.955	2388.06
456.175	2440.06
456.395	2443.06
456.616	2464.06
456.836	2462.06
457.056	2513.06
457.276	2488.06
457.497	2654.06
457.717	2672.06
457.937	2590.06
458.157	2600.06
458.377	2560.06
458.598	2611.06
458.818	2672.06
459.038	2628.06
459.258	2634.06
459.478	2676.06
459.698	2694.06
459.918	2697.06
460.138	2752.06
460.358	2830.06
460.578	2812.06
460.798	2890.06
461.018	2881.06
461.238	2874.06
461.458	2924.06
461.678	2904.06
461.898	2983.06
462.118	3016.06
462.338	3043.06
462.558	3087.06
462.777	3156.06
462.997	3239.06
463.217	3411.06
463.437	3567.06
463.657	3606.06
463.876	3586.06
464.096	3435.06
464.316	3226.06
464.536	3215.06
464.755	3086.06
464.975	3041.06
465.195	2900.06
465.414	2860.06
465.634	2792.06
465.854	2816.06
466.073	2697.06
466.293	2711.06
466.512	2674.06
466.732	2696.06
466.951	2850.06
467.171	3056.06
467.391	2998.06
467.61	2750.06
467.829	2664.06
468.049	2628.06
468.268	2599.06
468.488	2594.06
468.707	2572.06
468.927	2607.06
469.146	2614.06
469.365	2632.06
469.585	2607.06
469.804	2712.06
470.023	2790.06
470.243	2824.06
470.462	2940.06
470.681	3049.06
470.901	3358.06
471.12	3872.06
471.339	3874.06
471.558	3253.06
471.777	2998.06
471.997	2785.06
472.216	2726.06
472.435	2683.06
472.654	2639.06
472.873	2639.06
473.092	2626.06
473.311	2641.06
473.53	2654.06
473.749	2709.06
473.968	2820.06
474.187	2695.06
474.406	2625.06
474.625	2612.06
474.844	2610.06
475.063	2647.06
475.282	2588.06
475.501	2650.06
475.72	2668.06
475.939	2673.06
476.158	2773.06
476.377	2792.06
476.596	2755.06
476.814	2776.06
477.033	2748.06
477.252	2797.06
477.471	2866.06
477.69	2905.06
477.908	2910.06
478.127	2958.06
478.346	2966.06
478.564	3093.06
478.783	3015.06
479.002	3155.06
479.22	3068.06
479.439	3222.06
479.658	3143.06
479.876	3146.06
480.095	3147.06
480.313	3213.06
480.532	3296.06
480.751	3285.06
480.969	3194.06
481.188	3168.06
481.406	3156.06
481.624	3172.06
481.843	3175.06
482.061	3228.06
482.28	3184.06
482.498	3172.06
482.717	3223.06
482.935	3219.06
483.153	3213.06
483.372	3319.06
483.59	3387.06
483.808	3466.06
484.027	3467.06
484.245	3673.06
484.463	4154.06
484.681	4609.06
484.9	4228.06
485.118	3925.06
485.336	3810.06
485.554	3816.06
485.772	4127.06
485.99	4701.06
486.209	4975.06
486.427	4172.06
486.645	3722.06
486.863	3639.06
487.081	3526.06
487.299	3400.06
487.517	3455.06
487.735	3409.06
487.953	3360.06
488.171	3367.06
488.389	3320.06
488.607	3333.06
488.825	3286.06
489.043	3278.06
489.261	3216.06
489.479	3230.06
489.696	3235.06
489.914	3275.06
490.132	3281.06
490.35	3312.06
490.568	3330.06
490.786	3388.06
491.003	3386.06
491.221	3436.06
491.439	3446.06
491.657	3431.06
491.874	3419.06
492.092	3394.06
492.31	3491.06
492.527	3467.06
492.745	3437.06
492.963	3444.06
493.18	3431.06
493.398	3429.06
493.615	3391.06
493.833	3405.06
494.05	3428.06
494.268	3427.06
494.485	3424.06
494.703	3460.06
494.92	3427.06
495.138	3437.06
495.355	3465.06
495.573	3424.06
495.79	3462.06
496.008	3522.06
496.225	3549.06
496.442	3634.06
496.66	3744.06
496.877	4015.06
497.094	3906.06
497.312	3715.06
497.529	3718.06
497.746	3749.06
497.963	3828.06
498.181	3963.06
498.398	3978.06
498.615	4146.06
498.832	4220.06
499.049	4460.06
499.267	4822.06
499.484	5142.06
499.701	5138.06
499.918	5175.06
500.135	5453.06
500.352	5676.06
500.569	5710.06
500.786	5726.06
501.003	5587.06
501.22	5302.06
501.437	5020.06
501.654	4732.06
501.871	4567.06
502.088	4386.06
502.305	4222.06
502.522	4125.06
502.739	4010.06
502.956	3901.06
503.172	3784.06
503.389	3736.06
503.606	3626.06
503.823	3583.06
504.04	3608.06
504.256	3572.06
504.473	3580.06
504.69	3580.06
504.907	3531.06
505.123	3479.06
505.34	3396.06
505.557	3288.06
505.773	3287.06
505.99	3256.06
506.207	3132.06
506.423	3141.06
506.64	3106.06
506.856	3068.06
507.073	3054.06
507.289	3117.06
507.506	3037.06
507.722	3025.06
507.939	3032.06
508.155	3021.06
508.372	2964.06
508.588	3010.06
508.805	2981.06
509.021	2978.06
509.238	3011.06
509.454	3240.06
509.67	3411.06
509.887	3206.06
510.103	3053.06
510.319	2950.06
510.536	2954.06
510.752	2886.06
510.968	2948.06
511.184	2844.06
511.401	2880.06
511.617	2795.06
511.833	2860.06
512.049	2879.06
512.265	2836.06
512.481	2831.06
512.698	2824.06
512.914	2864.06
513.13	2830.06
513.346	2885.06
513.562	2834.06
513.778	2849.06
513.994	2952.06
514.21	2936.06
514.426	3227.06
514.642	3262.06
514.858	3005.06
515.074	2967.06
515.29	2934.06
515.506	2954.06
515.721	2918.06
515.937	2912.06
516.153	2970.06
516.369	3004.06
516.585	2971.06
516.801	3059.06
517.016	3072.06
517.232	3144.06
517.448	3215.06
517.664	3264.06
517.879	3216.06
518.095	3225.06
518.311	3222.06
518.527	3205.06
518.742	3188.06
518.958	3236.06
519.173	3321.06
519.389	3128.06
519.605	3010.06
519.82	2980.06
520.036	2974.06
520.251	2841.06
520.467	2886.06
520.682	2826.06
520.898	2815.06
521.113	2784.06
521.329	2723.06
521.544	2770.06
521.76	2846.06
521.975	2807.06
522.19	2828.06
522.406	2758.06
522.621	2770.06
522.836	2785.06
523.052	2756.06
523.267	2721.06
523.482	2742.06
523.698	2729.06
523.913	2762.06
524.128	2732.06
524.343	2738.06
524.559	2678.06
524.774	2724.06
524.989	2741.06
525.204	2688.06
525.419	2722.06
525.634	2733.06
525.849	2734.06
526.064	2721.06
526.28	2745.06
526.495	2727.06
526.71	2683.06
526.925	2722.06
527.14	2728.06
527.355	2741.06
527.57	2760.06
527.785	2765.06
527.999	2784.06
528.214	2800.06
528.429	2770.06
528.644	2857.06
528.859	2872.06
529.074	2878.06
529.289	2942.06
529.503	2944.06
529.718	2955.06
529.933	2946.06
530.148	2894.06
530.363	2940.06
530.577	2952.06
530.792	2964.06
531.007	2948.06
531.221	2970.06
531.436	2997.06
531.651	3080.06
531.865	3120.06
532.08	3181.06
532.295	3224.06
532.509	3503.06
532.724	3480.06
532.938	3559.06
533.153	3610.06
533.367	3953.06
533.582	4147.06
533.796	4032.06
534.011	3902.06
534.225	3705.06
534.44	3571.06
534.654	3525.06
534.868	3472.06
535.083	3345.06
535.297	3306.06
535.511	3228.06
535.726	3218.06
535.94	3196.06
536.154	3093.06
536.369	3019.06
536.583	3028.06
536.797	3015.06
537.011	2937.06
537.225	2870.06
537.44	2839.06
537.654	2848.06
537.868	2823.06
538.082	2779.06
538.296	2773.06
538.51	2728.06
538.724	2780.06
538.938	2764.06
539.153	2701.06
539.367	2692.06
539.581	2722.06
539.795	2669.06
540.009	2690.06
540.222	2666.06
540.436	2631.06
540.65	2650.06
540.864	2672.06
541.078	2754.06
541.292	2924.06
541.506	3421.06
541.72	3573.06
541.934	3109.06
542.147	2932.06
542.361	2827.06
542.575	2675.06
542.789	2625.06
543.002	2544.06
543.216	2586.06
543.43	2542.06
543.644	2574.06
543.857	2575.06
544.071	2579.06
544.285	2565.06
544.498	2571.06
544.712	2549.06
544.925	2572.06
545.139	2644.06
545.352	2517.06
545.566	2530.06
545.779	2566.06
545.993	2574.06
546.206	2542.06
546.42	2563.06
546.633	2578.06
546.847	2578.06
547.06	2537.06
547.274	2564.06
547.487	2546.06
547.7	2577.06
547.914	2559.06
548.127	2593.06
548.34	2601.06
548.554	2581.06
548.767	2549.06
548.98	2555.06
549.193	2570.06
549.407	2594.06
549.62	2556.06
549.833	2658.06
550.046	2574.06
550.259	2617.06
550.473	2561.06
550.686	2560.06
550.899	2579.06
551.112	2546.06
551.325	2626.06
551.538	2557.06
551.751	2607.06
551.964	2552.06
552.177	2648.06
552.39	2662.06
552.603	2761.06
552.816	2752.06
553.029	2790.06
553.242	2841.06
553.455	2868.06
553.667	2873.06
553.88	2939.06
554.093	2876.06
554.306	2998.06
554.519	2988.06
554.732	2985.06
554.944	3039.06
555.157	3102.06
555.37	3206.06
555.583	3392.06
555.795	3535.06
556.008	3864.06
556.221	4324.06
556.433	4628.06
556.646	4677.06
556.859	4453.06
557.071	4233.06
557.284	4154.06
557.496	3998.06
557.709	3891.06
557.921	3845.06
558.134	3873.06
558.346	3910.06
558.559	4100.06
558.771	4348.06
558.984	4718.06
559.196	5147.06
559.409	4840.06
559.621	4484.06
559.833	4186.06
560.046	3996.06
560.258	3695.06
560.47	3523.06
560.683	3385.06
560.895	3200.06
561.107	3144.06
561.32	3023.06
561.532	2912.06
561.744	2876.06
561.956	2791.06
562.168	2784.06
562.381	2752.06
562.593	2742.06
562.805	2763.06
563.017	2751.06
563.229	2829.06
563.441	3358.06
563.653	2754.06
563.865	2605.06
564.077	2451.06
564.289	2467.06
564.501	2488.06
564.713	2471.06
564.925	2422.06
565.137	2360.06
565.349	2357.06
565.561	2370.06
565.773	2441.06
565.985	2435.06
566.197	2480.06
566.408	2544.06
566.62	2557.06
566.832	2596.06
567.044	2621.06
567.255	2657.06
567.467	2704.06
567.679	2743.06
567.891	2903.06
568.102	3168.06
568.314	3726.06
568.526	3228.06
568.737	2785.06
568.949	2538.06
569.161	2402.06
569.372	2258.06
569.584	2200.06
569.795	2186.06
570.007	2151.06
570.218	2237.06
570.43	2337.06
570.641	2166.06
570.853	2057.06
571.064	1994.06
571.276	1986.06
571.487	1948.06
571.698	1932.06
571.91	1916.06
572.121	1862.06
572.333	1877.06
572.544	1885.06
572.755	2069.06
572.966	2384.06
573.178	2168.06
573.389	1960.06
573.6	1869.06
573.811	1808.06
574.023	1812.06
574.234	1814.06
574.445	1717.06
574.656	1712.06
574.867	1727.06
575.078	1791.06
575.289	1753.06
575.501	1740.06
575.712	1716.06
575.923	1706.06
576.134	1728.06
576.345	1778.06
576.556	1753.06
576.767	1738.06
576.978	1762.06
577.188	1770.06
577.399	1771.06
577.61	1758.06
577.821	1795.06
578.032	1788.06
578.243	1849.06
578.454	1917.06
578.665	1957.06
578.875	1977.06
579.086	2050.06
579.297	2159.06
579.508	2310.06
579.718	2496.06
579.929	2907.06
580.14	3390.06
580.35	3528.06
580.561	3224.06
580.772	2858.06
580.982	2668.06
581.193	2473.06
581.403	2320.06
581.614	2231.06
581.825	2113.06
582.035	2013.06
582.246	1925.06
582.456	1885.06
582.667	1877.06
582.877	1802.06
583.087	1766.06
583.298	1701.06
583.508	1645.06
583.719	1584.06
583.929	1598.06
584.139	1544.06
584.35	1526.06
584.56	1481.06
584.77	1452.06
584.981	1460.06
585.191	1464.06
585.401	1437.06
585.611	1399.06
585.821	1396.06
586.032	1369.06
586.242	1366.06
586.452	1329.06
586.662	1326.06
586.872	1341.06
587.082	1347.06
587.292	1296.06
587.502	1282.06
587.713	1282.06
587.923	1244.06
588.133	1271.06
588.343	1251.06
588.553	1259.06
588.762	1213.06
588.972	1212.06
589.182	1243.06
589.392	1246.06
589.602	1195.06
589.812	1236.06
590.022	1238.06
590.232	1198.06
590.441	1166.06
590.651	1193.06
590.861	1192.06
591.071	1214.06
591.281	1175.06
591.49	1212.06
591.7	1200.06
591.91	1194.06
592.119	1148.06
592.329	1187.06
592.539	1192.06
592.748	1220.06
592.958	1224.06
593.167	1212.06
593.377	1249.06
593.587	1233.06
593.796	1244.06
594.006	1212.06
594.215	1227.06
594.424	1229.06
594.634	1196.06
594.843	1188.06
595.053	1193.06
595.262	1181.06
595.472	1125.06
595.681	1119.06
595.89	1128.06
596.1	1084.06
596.309	1083.06
596.518	1099.06
596.727	1081.06
596.937	1030.06
597.146	1072.06
597.355	1046.06
597.564	1028.06
597.774	980.06
597.983	992.06
598.192	987.06
598.401	989.06
598.61	1006.06
598.819	994.06
599.028	981.06
599.237	973.06
599.446	948.06
599.655	980.06
599.864	957.06
600.073	947.06
600.282	950.06
600.491	947.06
600.7	937.06
600.909	993.06
601.118	950.06
601.327	975.06
601.536	942.06
601.745	981.06
601.953	1054.06
602.162	1196.06
602.371	1107.06
602.58	992.06
602.789	970.06
602.997	971.06
603.206	920.06
603.415	929.06
603.623	901.06
603.832	929.06
604.041	935.06
604.249	919.06
604.458	893.06
604.666	924.06
604.875	899.06
605.084	909.06
605.292	922.06
605.501	904.06
605.709	924.06
605.918	921.06
606.126	927.06
606.334	908.06
606.543	909.06
606.751	1017.06
606.96	1139.06
607.168	1253.06
607.376	1058.06
607.585	986.06
607.793	947.06
608.001	930.06
608.21	916.06
608.418	896.06
608.626	904.06
608.834	866.06
609.043	893.06
609.251	888.06
609.459	850.06
609.667	866.06
609.875	861.06
610.083	869.06
610.291	834.06
610.499	840.06
610.707	824.06
610.916	823.06
611.124	827.06
611.332	834.06
611.54	836.06
611.748	820.06
611.955	824.06
612.163	807.06
612.371	836.06
612.579	833.06
612.787	797.06
612.995	815.06
613.203	812.06
613.411	778.06
613.618	813.06
613.826	797.06
614.034	796.06
614.242	777.06
614.449	818.06
614.657	784.06
614.865	810.06
615.072	813.06
615.28	814.06
615.488	826.06
615.695	820.06
615.903	782.06
616.111	788.06
616.318	788.06
616.526	790.06
616.733	785.06
616.941	774.06
617.148	765.06
617.356	793.06
617.563	800.06
617.771	785.06
617.978	790.06
618.185	788.06
618.393	740.06
618.6	777.06
618.807	748.06
619.015	753.06
619.222	771.06
619.429	765.06
619.637	737.06
619.844	726.06
620.051	736.06
620.258	710.06
620.466	712.06
620.673	717.06
620.88	708.06
621.087	688.06
621.294	702.06
621.501	713.06
621.708	681.06
621.915	685.06
622.122	712.06
622.329	730.06
622.536	684.06
622.743	692.06
622.95	700.06
623.157	705.06
623.364	696.06
623.571	681.06
623.778	698.06
623.985	697.06
624.192	691.06
624.399	682.06
624.606	693.06
624.812	672.06
625.019	674.06
625.226	664.06
625.433	665.06
625.639	673.06
625.846	660.06
626.053	637.06
626.259	645.06
626.466	631.06
626.673	622.06
626.879	640.06
627.086	637.06
627.293	619.06
627.499	660.06
627.706	650.06
627.912	648.06
628.119	645.06
628.325	680.06
628.532	644.06
628.738	629.06
628.945	648.06
629.151	633.06
629.357	636.06
629.564	598.06
629.77	630.06
629.976	623.06
630.183	602.06
630.389	606.06
630.595	620.06
630.802	621.06
631.008	603.06
631.214	613.06
631.42	618.06
631.627	591.06
631.833	571.06
632.039	587.06
632.245	588.06
632.451	604.06
632.657	579.06
632.863	585.06
633.069	601.06
633.275	585.06
633.481	588.06
633.688	583.06
633.893	583.06
634.099	562.06
634.305	573.06
634.511	590.06
634.717	585.06
634.923	620.06
635.129	687.06
635.335	779.06
635.541	686.06
635.747	646.06
635.952	617.06
636.158	605.06
636.364	592.06
636.57	595.06
636.775	593.06
636.981	582.06
637.187	594.06
637.392	570.06
637.598	610.06
637.804	584.06
638.009	592.06
638.215	600.06
638.421	594.06
638.626	604.06
638.832	610.06
639.037	609.06
639.243	605.06
639.448	610.06
639.654	635.06
639.859	614.06
640.065	610.06
640.27	621.06
640.475	628.06
640.681	605.06
640.886	621.06
641.091	640.06
641.297	652.06
641.502	637.06
641.707	644.06
641.913	650.06
642.118	697.06
642.323	700.06
642.528	692.06
642.733	722.06
642.939	766.06
643.144	758.06
643.349	783.06
643.554	816.06
643.759	854.06
643.964	880.06
644.169	942.06
644.374	986.06
644.579	1071.06
644.784	1236.06
644.989	1392.06
645.194	1628.06
645.399	2052.06
645.604	2108.06
645.809	1591.06
646.014	1225.06
646.219	1013.06
646.423	894.06
646.628	816.06
646.833	747.06
647.038	722.06
647.243	673.06
647.447	630.06
647.652	618.06
647.857	616.06
648.062	580.06
648.266	569.06
648.471	572.06
648.676	603.06
648.88	533.06
649.085	537.06
649.289	521.06
649.494	506.06
649.698	507.06
649.903	491.06
650.107	505.06
650.312	489.06
650.516	461.06
650.721	479.06
650.925	469.06
651.13	470.06
651.334	453.06
651.539	439.06
651.743	458.06
651.947	422.06
652.152	439.06
652.356	436.06
652.56	452.06
652.764	501.06
652.969	454.06
653.173	430.06
653.377	405.06
653.581	419.06
653.785	398.06
653.99	374.06
654.194	385.06
654.398	365.06
654.602	360.06
654.806	372.06
655.01	348.06
655.214	360.06
655.418	354.06
655.622	361.06
655.826	357.06
656.03	364.06
656.234	377.06
656.438	386.06
656.642	386.06
656.846	362.06
657.049	357.06
657.253	321.06
657.457	315.06
657.661	297.06
657.865	271.06
658.068	267.06
658.272	258.06
658.476	242.06
658.68	228.06
658.883	222.06
659.087	220.06
659.291	211.06
659.494	184.06
659.698	192.06
659.901	192.06
660.105	163.06
660.309	166.06
660.512	158.06
660.716	156.06
660.919	142.06
661.123	150.06
661.326	146.06
661.53	142.06
661.733	128.06
661.936	130.06
662.14	135.06
662.343	103.06
662.546	113.06
662.75	112.06
662.953	112.06
663.156	105.06
663.36	92.06
663.563	106.06
663.766	97.06
663.969	93.06
664.173	105.06
664.376	86.06
664.579	96.06
664.782	103.06
664.985	93.06
665.188	84.06
665.391	82.06
665.594	77.06
665.797	107.06
666	100.06
666.203	96.06
666.406	92.06
666.609	96.06
666.812	95.06
667.015	81.06
667.218	79.06
667.421	99.06
667.624	82.06
667.827	82.06
668.03	77.06
668.232	81.06
668.435	98.06
668.638	87.06
668.841	93.06
669.043	89.06
669.246	91.06
669.449	83.06
669.651	78.06
669.854	86.06
670.057	88.06
670.259	96.06
670.462	98.06
670.665	95.06
670.867	84.06
671.07	80.06
671.272	94.06
671.475	93.06
671.677	88.06
671.88	90.06
672.082	91.06
672.284	80.06
672.487	73.06
672.689	83.06
672.892	83.06
