Data from SnStandardFlinnAPT0064_LampEnergy5.5_LIBS07252019.E.O._I.C._HRD10591_15-15-24-491.txt Node
Date: Thu Jul 25 15:15:24 EDT 2019
User: cochatt
Spectrometer: HR+D1059
Trigger mode: 1
Integration Time (sec): 1.000000E-1
Scans to average: 1
Electric dark correction enabled: true
Nonlinearity correction enabled: false
Boxcar width: 0
XAxis mode: Wavelengths
Number of Pixels in Spectrum: 2048
>>>>>Begin Spectral Data<<<<<
223.165	-25.5
223.4	-25.5
223.635	-25.5
223.869	-12.5
224.104	-14.5
224.338	-9.5
224.573	-17.5
224.808	-23.5
225.042	2.5
225.277	-11.5
225.511	-15.5
225.746	-11.5
225.98	19.5
226.215	11.5
226.449	24.5
226.683	26.5
226.918	26.5
227.152	30.5
227.387	36.5
227.621	47.5
227.856	54.5
228.09	48.5
228.324	45.5
228.559	55.5
228.793	89.5
229.027	147.5
229.262	151.5
229.496	141.5
229.73	154.5
229.964	161.5
230.199	147.5
230.433	159.5
230.667	162.5
230.901	169.5
231.136	168.5
231.37	177.5
231.604	190.5
231.838	193.5
232.072	241.5
232.306	234.5
232.541	214.5
232.775	195.5
233.009	195.5
233.243	207.5
233.477	203.5
233.711	244.5
233.945	239.5
234.179	234.5
234.413	214.5
234.647	195.5
234.881	211.5
235.115	235.5
235.349	276.5
235.583	308.5
235.817	373.5
236.051	371.5
236.285	285.5
236.519	226.5
236.753	209.5
236.987	225.5
237.221	240.5
237.455	225.5
237.689	226.5
237.922	220.5
238.156	205.5
238.39	225.5
238.624	221.5
238.858	212.5
239.091	220.5
239.325	229.5
239.559	231.5
239.793	230.5
240.027	233.5
240.26	255.5
240.494	246.5
240.728	267.5
240.961	276.5
241.195	283.5
241.429	281.5
241.662	282.5
241.896	330.5
242.13	359.5
242.363	466.5
242.597	563.5
242.83	576.5
243.064	580.5
243.298	658.5
243.531	549.5
243.765	370.5
243.998	322.5
244.232	298.5
244.465	280.5
244.699	285.5
244.932	305.5
245.166	279.5
245.399	283.5
245.633	299.5
245.866	305.5
246.099	293.5
246.333	304.5
246.566	297.5
246.8	288.5
247.033	288.5
247.266	292.5
247.5	291.5
247.733	280.5
247.966	299.5
248.2	334.5
248.433	367.5
248.666	393.5
248.899	371.5
249.133	343.5
249.366	367.5
249.599	395.5
249.832	406.5
250.066	420.5
250.299	381.5
250.532	343.5
250.765	322.5
250.998	326.5
251.231	317.5
251.465	341.5
251.698	327.5
251.931	334.5
252.164	346.5
252.397	343.5
252.63	354.5
252.863	341.5
253.096	359.5
253.329	343.5
253.562	343.5
253.795	316.5
254.028	323.5
254.261	364.5
254.494	378.5
254.727	413.5
254.96	468.5
255.193	481.5
255.426	415.5
255.659	377.5
255.892	377.5
256.124	372.5
256.357	380.5
256.59	400.5
256.823	395.5
257.056	451.5
257.289	501.5
257.521	525.5
257.754	442.5
257.987	417.5
258.22	385.5
258.452	388.5
258.685	405.5
258.918	418.5
259.151	417.5
259.383	466.5
259.616	476.5
259.849	467.5
260.081	434.5
260.314	410.5
260.547	399.5
260.779	423.5
261.012	432.5
261.244	431.5
261.477	426.5
261.71	417.5
261.942	445.5
262.175	450.5
262.407	457.5
262.64	460.5
262.872	495.5
263.105	493.5
263.337	524.5
263.57	538.5
263.802	566.5
264.035	557.5
264.267	592.5
264.499	609.5
264.732	604.5
264.964	637.5
265.197	611.5
265.429	620.5
265.661	625.5
265.894	645.5
266.126	707.5
266.358	752.5
266.591	759.5
266.823	665.5
267.055	610.5
267.287	593.5
267.52	574.5
267.752	567.5
267.984	554.5
268.216	549.5
268.448	553.5
268.681	538.5
268.913	548.5
269.145	538.5
269.377	517.5
269.609	523.5
269.841	549.5
270.073	582.5
270.306	641.5
270.538	795.5
270.77	1135.5
271.002	1363.5
271.234	994.5
271.466	729.5
271.698	637.5
271.93	581.5
272.162	573.5
272.394	541.5
272.626	549.5
272.858	521.5
273.09	514.5
273.322	539.5
273.553	530.5
273.785	469.5
274.017	519.5
274.249	522.5
274.481	524.5
274.713	523.5
274.945	514.5
275.176	526.5
275.408	540.5
275.64	509.5
275.872	523.5
276.104	542.5
276.335	537.5
276.567	517.5
276.799	535.5
277.031	561.5
277.262	565.5
277.494	578.5
277.726	605.5
277.957	684.5
278.189	752.5
278.421	706.5
278.652	668.5
278.884	637.5
279.115	623.5
279.347	578.5
279.579	593.5
279.81	576.5
280.042	581.5
280.273	580.5
280.505	588.5
280.736	598.5
280.968	636.5
281.199	668.5
281.431	738.5
281.662	754.5
281.894	683.5
282.125	640.5
282.356	671.5
282.588	661.5
282.819	666.5
283.051	703.5
283.282	791.5
283.513	917.5
283.745	1272.5
283.976	1975.5
284.207	2754.5
284.439	2469.5
284.67	1561.5
284.901	1304.5
285.132	1233.5
285.364	1209.5
285.595	1010.5
285.826	907.5
286.057	1028.5
286.288	1366.5
286.52	1773.5
286.751	1636.5
286.982	1089.5
287.213	859.5
287.444	785.5
287.675	739.5
287.906	737.5
288.138	716.5
288.369	695.5
288.6	684.5
288.831	698.5
289.062	707.5
289.293	723.5
289.524	710.5
289.755	698.5
289.986	732.5
290.217	717.5
290.448	716.5
290.679	733.5
290.91	735.5
291.141	752.5
291.371	760.5
291.602	766.5
291.833	729.5
292.064	695.5
292.295	692.5
292.526	682.5
292.757	679.5
292.987	656.5
293.218	655.5
293.449	669.5
293.68	652.5
293.91	648.5
294.141	644.5
294.372	651.5
294.603	659.5
294.833	648.5
295.064	658.5
295.295	654.5
295.525	633.5
295.756	652.5
295.987	637.5
296.217	668.5
296.448	667.5
296.679	636.5
296.909	661.5
297.14	661.5
297.37	661.5
297.601	669.5
297.831	659.5
298.062	665.5
298.292	683.5
298.523	707.5
298.753	721.5
298.984	745.5
299.214	704.5
299.445	709.5
299.675	712.5
299.905	735.5
300.136	774.5
300.366	856.5
300.597	1001.5
300.827	1327.5
301.057	1720.5
301.288	1735.5
301.518	1201.5
301.748	947.5
301.979	901.5
302.209	891.5
302.439	895.5
302.669	927.5
302.9	1075.5
303.13	1427.5
303.36	2001.5
303.59	2631.5
303.82	2308.5
304.051	1459.5
304.281	1099.5
304.511	951.5
304.741	874.5
304.971	872.5
305.201	834.5
305.431	817.5
305.661	778.5
305.891	785.5
306.121	733.5
306.352	769.5
306.582	770.5
306.812	776.5
307.042	779.5
307.272	758.5
307.502	760.5
307.731	771.5
307.961	755.5
308.191	767.5
308.421	727.5
308.651	741.5
308.881	770.5
309.111	769.5
309.341	744.5
309.571	787.5
309.8	796.5
310.03	771.5
310.26	797.5
310.49	787.5
310.72	791.5
310.949	762.5
311.179	775.5
311.409	787.5
311.639	799.5
311.868	782.5
312.098	822.5
312.328	818.5
312.557	813.5
312.787	819.5
313.017	820.5
313.246	825.5
313.476	805.5
313.706	851.5
313.935	860.5
314.165	887.5
314.394	927.5
314.624	908.5
314.853	876.5
315.083	845.5
315.312	887.5
315.542	880.5
315.771	872.5
316.001	899.5
316.23	910.5
316.46	937.5
316.689	1033.5
316.919	1180.5
317.148	1625.5
317.377	2405.5
317.607	3410.5
317.836	3573.5
318.065	2190.5
318.295	1514.5
318.524	1241.5
318.753	1109.5
318.983	1037.5
319.212	995.5
319.441	973.5
319.67	967.5
319.9	936.5
320.129	959.5
320.358	911.5
320.587	947.5
320.816	946.5
321.046	948.5
321.275	930.5
321.504	982.5
321.733	967.5
321.962	988.5
322.191	1008.5
322.42	973.5
322.649	1003.5
322.878	993.5
323.108	1007.5
323.337	1013.5
323.566	1020.5
323.795	1030.5
324.024	1075.5
324.253	1107.5
324.482	1122.5
324.71	1145.5
324.939	1211.5
325.168	1230.5
325.397	1282.5
325.626	1481.5
325.855	1981.5
326.084	2970.5
326.313	4297.5
326.542	4557.5
326.77	3012.5
326.999	2058.5
327.228	1786.5
327.457	1704.5
327.686	1702.5
327.914	1851.5
328.143	2105.5
328.372	2375.5
328.6	2540.5
328.829	2401.5
329.058	2143.5
329.287	1869.5
329.515	1763.5
329.744	1674.5
329.972	1556.5
330.201	1500.5
330.43	1477.5
330.658	1435.5
330.887	1392.5
331.115	1379.5
331.344	1409.5
331.572	1367.5
331.801	1391.5
332.03	1375.5
332.258	1411.5
332.486	1444.5
332.715	1592.5
332.943	1871.5
333.172	2246.5
333.4	2238.5
333.629	1801.5
333.857	1717.5
334.085	1740.5
334.314	1830.5
334.542	1966.5
334.771	2222.5
334.999	2603.5
335.227	3127.5
335.455	3406.5
335.684	3267.5
335.912	2805.5
336.14	2435.5
336.369	2173.5
336.597	2001.5
336.825	1901.5
337.053	1769.5
337.281	1716.5
337.51	1583.5
337.738	1533.5
337.966	1468.5
338.194	1444.5
338.422	1354.5
338.65	1365.5
338.878	1338.5
339.106	1310.5
339.334	1260.5
339.562	1268.5
339.79	1273.5
340.018	1222.5
340.246	1236.5
340.474	1224.5
340.702	1217.5
340.93	1234.5
341.158	1209.5
341.386	1204.5
341.614	1208.5
341.842	1183.5
342.07	1190.5
342.298	1143.5
342.526	1149.5
342.754	1118.5
342.981	1105.5
343.209	1115.5
343.437	1143.5
343.665	1133.5
343.893	1167.5
344.12	1183.5
344.348	1146.5
344.576	1130.5
344.804	1110.5
345.031	1098.5
345.259	1075.5
345.487	1065.5
345.714	1090.5
345.942	1054.5
346.17	1063.5
346.397	1032.5
346.625	1051.5
346.853	1031.5
347.08	1009.5
347.308	1012.5
347.535	1029.5
347.763	1037.5
347.99	1042.5
348.218	1025.5
348.445	1018.5
348.673	1023.5
348.9	1025.5
349.128	1044.5
349.355	1030.5
349.583	1019.5
349.81	1027.5
350.037	988.5
350.265	1007.5
350.492	1048.5
350.72	993.5
350.947	1001.5
351.174	1008.5
351.402	995.5
351.629	986.5
351.856	983.5
352.083	996.5
352.311	956.5
352.538	1041.5
352.765	1002.5
352.992	991.5
353.22	964.5
353.447	988.5
353.674	993.5
353.901	982.5
354.128	1011.5
354.355	987.5
354.583	995.5
354.81	1010.5
355.037	1006.5
355.264	1004.5
355.491	1031.5
355.718	1003.5
355.945	1027.5
356.172	1004.5
356.399	1009.5
356.626	999.5
356.853	1043.5
357.08	1035.5
357.307	1030.5
357.534	1048.5
357.761	1038.5
357.988	1044.5
358.215	1045.5
358.441	1040.5
358.668	1046.5
358.895	1032.5
359.122	1027.5
359.349	1090.5
359.576	1081.5
359.802	1051.5
360.029	1043.5
360.256	1050.5
360.483	1075.5
360.709	1052.5
360.936	1079.5
361.163	1073.5
361.39	1057.5
361.616	1075.5
361.843	1059.5
362.07	1057.5
362.296	1066.5
362.523	1062.5
362.749	1068.5
362.976	1067.5
363.203	1055.5
363.429	1083.5
363.656	1058.5
363.882	1067.5
364.109	1047.5
364.335	1055.5
364.562	1063.5
364.788	1033.5
365.015	1097.5
365.241	1101.5
365.468	1094.5
365.694	1146.5
365.92	1151.5
366.147	1067.5
366.373	1067.5
366.599	1066.5
366.826	1103.5
367.052	1054.5
367.278	1078.5
367.505	1079.5
367.731	1091.5
367.957	1089.5
368.184	1107.5
368.41	1118.5
368.636	1114.5
368.862	1087.5
369.089	1115.5
369.315	1109.5
369.541	1123.5
369.767	1082.5
369.993	1112.5
370.219	1100.5
370.445	1128.5
370.672	1128.5
370.898	1110.5
371.124	1136.5
371.35	1146.5
371.576	1132.5
371.802	1108.5
372.028	1143.5
372.254	1153.5
372.48	1158.5
372.706	1198.5
372.932	1138.5
373.158	1155.5
373.384	1163.5
373.61	1169.5
373.835	1156.5
374.061	1141.5
374.287	1177.5
374.513	1190.5
374.739	1179.5
374.965	1220.5
375.191	1180.5
375.416	1194.5
375.642	1177.5
375.868	1171.5
376.094	1181.5
376.319	1193.5
376.545	1131.5
376.771	1146.5
376.997	1132.5
377.222	1149.5
377.448	1150.5
377.674	1120.5
377.899	1112.5
378.125	1132.5
378.35	1149.5
378.576	1135.5
378.802	1134.5
379.027	1154.5
379.253	1183.5
379.478	1197.5
379.704	1383.5
379.929	1852.5
380.155	2579.5
380.38	2773.5
380.606	1829.5
380.831	1427.5
381.057	1290.5
381.282	1191.5
381.507	1171.5
381.733	1161.5
381.958	1145.5
382.184	1123.5
382.409	1132.5
382.634	1127.5
382.86	1139.5
383.085	1114.5
383.31	1130.5
383.535	1104.5
383.761	1150.5
383.986	1131.5
384.211	1126.5
384.436	1168.5
384.662	1165.5
384.887	1179.5
385.112	1172.5
385.337	1171.5
385.562	1131.5
385.787	1157.5
386.013	1179.5
386.238	1181.5
386.463	1168.5
386.688	1169.5
386.913	1179.5
387.138	1151.5
387.363	1168.5
387.588	1163.5
387.813	1162.5
388.038	1152.5
388.263	1158.5
388.488	1162.5
388.713	1174.5
388.938	1179.5
389.163	1172.5
389.387	1157.5
389.612	1159.5
389.837	1156.5
390.062	1175.5
390.287	1180.5
390.512	1183.5
390.736	1175.5
390.961	1240.5
391.186	1223.5
391.411	1194.5
391.636	1217.5
391.86	1245.5
392.085	1228.5
392.31	1219.5
392.534	1220.5
392.759	1212.5
392.984	1169.5
393.208	1180.5
393.433	1191.5
393.658	1157.5
393.882	1167.5
394.107	1190.5
394.331	1180.5
394.556	1196.5
394.78	1204.5
395.005	1193.5
395.229	1185.5
395.454	1193.5
395.678	1237.5
395.903	1233.5
396.127	1246.5
396.352	1194.5
396.576	1210.5
396.801	1233.5
397.025	1223.5
397.249	1210.5
397.474	1235.5
397.698	1215.5
397.922	1237.5
398.147	1243.5
398.371	1272.5
398.595	1299.5
398.82	1321.5
399.044	1356.5
399.268	1407.5
399.492	1518.5
399.717	1545.5
399.941	1552.5
400.165	1529.5
400.389	1414.5
400.613	1368.5
400.837	1343.5
401.062	1332.5
401.286	1311.5
401.51	1282.5
401.734	1284.5
401.958	1304.5
402.182	1304.5
402.406	1284.5
402.63	1303.5
402.854	1317.5
403.078	1317.5
403.302	1342.5
403.526	1352.5
403.75	1363.5
403.974	1366.5
404.198	1335.5
404.422	1364.5
404.645	1333.5
404.869	1371.5
405.093	1356.5
405.317	1352.5
405.541	1377.5
405.765	1375.5
405.988	1364.5
406.212	1402.5
406.436	1361.5
406.66	1381.5
406.883	1383.5
407.107	1427.5
407.331	1433.5
407.555	1467.5
407.778	1435.5
408.002	1481.5
408.226	1445.5
408.449	1427.5
408.673	1404.5
408.896	1344.5
409.12	1361.5
409.344	1315.5
409.567	1335.5
409.791	1359.5
410.014	1345.5
410.238	1356.5
410.461	1354.5
410.685	1304.5
410.908	1317.5
411.132	1337.5
411.355	1259.5
411.578	1283.5
411.802	1288.5
412.025	1334.5
412.249	1328.5
412.472	1274.5
412.695	1248.5
412.919	1269.5
413.142	1287.5
413.365	1252.5
413.589	1269.5
413.812	1250.5
414.035	1243.5
414.258	1285.5
414.482	1256.5
414.705	1266.5
414.928	1267.5
415.151	1225.5
415.374	1242.5
415.597	1242.5
415.821	1227.5
416.044	1217.5
416.267	1240.5
416.49	1221.5
416.713	1222.5
416.936	1272.5
417.159	1226.5
417.382	1194.5
417.605	1221.5
417.828	1232.5
418.051	1242.5
418.274	1274.5
418.497	1235.5
418.72	1292.5
418.943	1230.5
419.166	1291.5
419.389	1355.5
419.611	1348.5
419.834	1325.5
420.057	1315.5
420.28	1250.5
420.503	1260.5
420.726	1228.5
420.948	1220.5
421.171	1212.5
421.394	1235.5
421.617	1265.5
421.839	1231.5
422.062	1251.5
422.285	1242.5
422.507	1249.5
422.73	1229.5
422.953	1234.5
423.175	1297.5
423.398	1257.5
423.621	1236.5
423.843	1248.5
424.066	1277.5
424.288	1237.5
424.511	1236.5
424.733	1242.5
424.956	1228.5
425.178	1221.5
425.401	1223.5
425.623	1202.5
425.846	1202.5
426.068	1217.5
426.291	1161.5
426.513	1143.5
426.735	1162.5
426.958	1179.5
427.18	1187.5
427.402	1173.5
427.625	1191.5
427.847	1115.5
428.069	1139.5
428.292	1169.5
428.514	1160.5
428.736	1135.5
428.958	1165.5
429.181	1088.5
429.403	1121.5
429.625	1122.5
429.847	1162.5
430.069	1112.5
430.292	1171.5
430.514	1185.5
430.736	1205.5
430.958	1183.5
431.18	1147.5
431.402	1132.5
431.624	1116.5
431.846	1114.5
432.068	1115.5
432.29	1124.5
432.512	1103.5
432.734	1143.5
432.956	1140.5
433.178	1144.5
433.4	1157.5
433.622	1147.5
433.844	1161.5
434.066	1123.5
434.287	1137.5
434.509	1155.5
434.731	1146.5
434.953	1180.5
435.175	1151.5
435.397	1201.5
435.618	1123.5
435.84	1109.5
436.062	1132.5
436.284	1111.5
436.505	1113.5
436.727	1128.5
436.949	1119.5
437.17	1152.5
437.392	1128.5
437.614	1123.5
437.835	1056.5
438.057	1089.5
438.278	1087.5
438.5	1090.5
438.721	1105.5
438.943	1137.5
439.165	1179.5
439.386	1156.5
439.608	1178.5
439.829	1164.5
440.05	1184.5
440.272	1183.5
440.493	1170.5
440.715	1168.5
440.936	1160.5
441.158	1178.5
441.379	1226.5
441.6	1250.5
441.822	1242.5
442.043	1288.5
442.264	1315.5
442.486	1257.5
442.707	1207.5
442.928	1225.5
443.149	1213.5
443.371	1184.5
443.592	1220.5
443.813	1241.5
444.034	1225.5
444.255	1240.5
444.476	1266.5
444.698	1281.5
444.919	1318.5
445.14	1386.5
445.361	1304.5
445.582	1284.5
445.803	1229.5
446.024	1225.5
446.245	1212.5
446.466	1179.5
446.687	1165.5
446.908	1190.5
447.129	1181.5
447.35	1151.5
447.571	1169.5
447.792	1131.5
448.013	1145.5
448.234	1087.5
448.455	1089.5
448.675	1140.5
448.896	1165.5
449.117	1155.5
449.338	1228.5
449.559	1287.5
449.779	1171.5
450	1131.5
450.221	1089.5
450.442	1076.5
450.662	1085.5
450.883	1079.5
451.104	1116.5
451.324	1078.5
451.545	1096.5
451.766	1072.5
451.986	1105.5
452.207	1163.5
452.428	1327.5
452.648	1779.5
452.869	1535.5
453.089	1179.5
453.31	1184.5
453.53	1153.5
453.751	1176.5
453.971	1269.5
454.192	1223.5
454.412	1086.5
454.633	1090.5
454.853	1052.5
455.073	1034.5
455.294	1049.5
455.514	1055.5
455.734	1023.5
455.955	1025.5
456.175	1047.5
456.395	1024.5
456.616	1024.5
456.836	1025.5
457.056	1043.5
457.276	1082.5
457.497	1133.5
457.717	1091.5
457.937	1086.5
458.157	1090.5
458.377	1094.5
458.598	1097.5
458.818	1122.5
459.038	1138.5
459.258	1113.5
459.478	1131.5
459.698	1132.5
459.918	1152.5
460.138	1192.5
460.358	1216.5
460.578	1209.5
460.798	1221.5
461.018	1243.5
461.238	1225.5
461.458	1244.5
461.678	1250.5
461.898	1261.5
462.118	1257.5
462.338	1312.5
462.558	1284.5
462.777	1308.5
462.997	1376.5
463.217	1444.5
463.437	1463.5
463.657	1435.5
463.876	1456.5
464.096	1387.5
464.316	1347.5
464.536	1347.5
464.755	1319.5
464.975	1308.5
465.195	1247.5
465.414	1205.5
465.634	1202.5
465.854	1162.5
466.073	1144.5
466.293	1155.5
466.512	1131.5
466.732	1129.5
466.951	1215.5
467.171	1228.5
467.391	1224.5
467.61	1158.5
467.829	1151.5
468.049	1107.5
468.268	1108.5
468.488	1113.5
468.707	1125.5
468.927	1098.5
469.146	1111.5
469.365	1137.5
469.585	1137.5
469.804	1162.5
470.023	1169.5
470.243	1217.5
470.462	1203.5
470.681	1223.5
470.901	1355.5
471.12	1480.5
471.339	1535.5
471.558	1312.5
471.777	1193.5
471.997	1161.5
472.216	1137.5
472.435	1139.5
472.654	1098.5
472.873	1129.5
473.092	1114.5
473.311	1105.5
473.53	1107.5
473.749	1120.5
473.968	1165.5
474.187	1117.5
474.406	1119.5
474.625	1120.5
474.844	1117.5
475.063	1145.5
475.282	1117.5
475.501	1125.5
475.72	1144.5
475.939	1147.5
476.158	1159.5
476.377	1167.5
476.596	1203.5
476.814	1136.5
477.033	1168.5
477.252	1190.5
477.471	1214.5
477.69	1217.5
477.908	1242.5
478.127	1266.5
478.346	1278.5
478.564	1290.5
478.783	1287.5
479.002	1327.5
479.22	1333.5
479.439	1341.5
479.658	1311.5
479.876	1305.5
480.095	1357.5
480.313	1375.5
480.532	1349.5
480.751	1371.5
480.969	1339.5
481.188	1313.5
481.406	1343.5
481.624	1286.5
481.843	1320.5
482.061	1330.5
482.28	1323.5
482.498	1319.5
482.717	1328.5
482.935	1330.5
483.153	1381.5
483.372	1386.5
483.59	1381.5
483.808	1396.5
484.027	1428.5
484.245	1527.5
484.463	1601.5
484.681	1776.5
484.9	1657.5
485.118	1565.5
485.336	1548.5
485.554	1528.5
485.772	1591.5
485.99	1751.5
486.209	1901.5
486.427	1647.5
486.645	1492.5
486.863	1486.5
487.081	1428.5
487.299	1452.5
487.517	1437.5
487.735	1478.5
487.953	1463.5
488.171	1431.5
488.389	1470.5
488.607	1456.5
488.825	1399.5
489.043	1363.5
489.261	1376.5
489.479	1359.5
489.696	1370.5
489.914	1373.5
490.132	1393.5
490.35	1402.5
490.568	1384.5
490.786	1459.5
491.003	1467.5
491.221	1448.5
491.439	1446.5
491.657	1451.5
491.874	1465.5
492.092	1542.5
492.31	1517.5
492.527	1480.5
492.745	1512.5
492.963	1480.5
493.18	1490.5
493.398	1484.5
493.615	1457.5
493.833	1479.5
494.05	1457.5
494.268	1495.5
494.485	1486.5
494.703	1474.5
494.92	1503.5
495.138	1457.5
495.355	1449.5
495.573	1478.5
495.79	1505.5
496.008	1503.5
496.225	1485.5
496.442	1533.5
496.66	1511.5
496.877	1604.5
497.094	1591.5
497.312	1559.5
497.529	1605.5
497.746	1605.5
497.963	1602.5
498.181	1638.5
498.398	1672.5
498.615	1740.5
498.832	1810.5
499.049	1877.5
499.267	1984.5
499.484	2113.5
499.701	2151.5
499.918	2198.5
500.135	2398.5
500.352	2520.5
500.569	2563.5
500.786	2548.5
501.003	2405.5
501.22	2252.5
501.437	2153.5
501.654	2025.5
501.871	1956.5
502.088	1873.5
502.305	1880.5
502.522	1748.5
502.739	1726.5
502.956	1674.5
503.172	1606.5
503.389	1613.5
503.606	1557.5
503.823	1516.5
504.04	1514.5
504.256	1536.5
504.473	1515.5
504.69	1539.5
504.907	1488.5
505.123	1497.5
505.34	1403.5
505.557	1411.5
505.773	1365.5
505.99	1351.5
506.207	1314.5
506.423	1320.5
506.64	1332.5
506.856	1312.5
507.073	1300.5
507.289	1305.5
507.506	1276.5
507.722	1272.5
507.939	1282.5
508.155	1271.5
508.372	1284.5
508.588	1239.5
508.805	1261.5
509.021	1256.5
509.238	1286.5
509.454	1319.5
509.67	1354.5
509.887	1317.5
510.103	1254.5
510.319	1238.5
510.536	1278.5
510.752	1194.5
510.968	1217.5
511.184	1212.5
511.401	1189.5
511.617	1196.5
511.833	1192.5
512.049	1195.5
512.265	1192.5
512.481	1179.5
512.698	1173.5
512.914	1213.5
513.13	1189.5
513.346	1186.5
513.562	1197.5
513.778	1195.5
513.994	1213.5
514.21	1239.5
514.426	1284.5
514.642	1306.5
514.858	1219.5
515.074	1211.5
515.29	1214.5
515.506	1235.5
515.721	1232.5
515.937	1204.5
516.153	1211.5
516.369	1243.5
516.585	1264.5
516.801	1251.5
517.016	1293.5
517.232	1308.5
517.448	1298.5
517.664	1369.5
517.879	1339.5
518.095	1332.5
518.311	1352.5
518.527	1320.5
518.742	1311.5
518.958	1321.5
519.173	1335.5
519.389	1314.5
519.605	1273.5
519.82	1233.5
520.036	1246.5
520.251	1194.5
520.467	1221.5
520.682	1193.5
520.898	1175.5
521.113	1166.5
521.329	1171.5
521.544	1173.5
521.76	1185.5
521.975	1199.5
522.19	1195.5
522.406	1158.5
522.621	1162.5
522.836	1152.5
523.052	1186.5
523.267	1169.5
523.482	1133.5
523.698	1145.5
523.913	1163.5
524.128	1155.5
524.343	1170.5
524.559	1139.5
524.774	1156.5
524.989	1169.5
525.204	1177.5
525.419	1146.5
525.634	1159.5
525.849	1168.5
526.064	1157.5
526.28	1149.5
526.495	1189.5
526.71	1152.5
526.925	1158.5
527.14	1156.5
527.355	1177.5
527.57	1141.5
527.785	1180.5
527.999	1202.5
528.214	1146.5
528.429	1177.5
528.644	1208.5
528.859	1224.5
529.074	1227.5
529.289	1251.5
529.503	1227.5
529.718	1241.5
529.933	1219.5
530.148	1194.5
530.363	1209.5
530.577	1205.5
530.792	1197.5
531.007	1215.5
531.221	1236.5
531.436	1248.5
531.651	1228.5
531.865	1236.5
532.08	1282.5
532.295	1307.5
532.509	1366.5
532.724	1355.5
532.938	1350.5
533.153	1377.5
533.367	1451.5
533.582	1495.5
533.796	1486.5
534.011	1488.5
534.225	1397.5
534.44	1416.5
534.654	1388.5
534.868	1379.5
535.083	1310.5
535.297	1316.5
535.511	1312.5
535.726	1291.5
535.94	1252.5
536.154	1241.5
536.369	1242.5
536.583	1205.5
536.797	1206.5
537.011	1213.5
537.225	1154.5
537.44	1188.5
537.654	1168.5
537.868	1162.5
538.082	1210.5
538.296	1141.5
538.51	1128.5
538.724	1168.5
538.938	1143.5
539.153	1129.5
539.367	1144.5
539.581	1116.5
539.795	1107.5
540.009	1109.5
540.222	1087.5
540.436	1099.5
540.65	1084.5
540.864	1122.5
541.078	1159.5
541.292	1230.5
541.506	1395.5
541.72	1459.5
541.934	1287.5
542.147	1265.5
542.361	1171.5
542.575	1161.5
542.789	1124.5
543.002	1115.5
543.216	1069.5
543.43	1061.5
543.644	1085.5
543.857	1077.5
544.071	1133.5
544.285	1115.5
544.498	1097.5
544.712	1107.5
544.925	1131.5
545.139	1129.5
545.352	1122.5
545.566	1125.5
545.779	1136.5
545.993	1151.5
546.206	1132.5
546.42	1133.5
546.633	1133.5
546.847	1133.5
547.06	1156.5
547.274	1117.5
547.487	1151.5
547.7	1129.5
547.914	1095.5
548.127	1128.5
548.34	1132.5
548.554	1143.5
548.767	1116.5
548.98	1116.5
549.193	1152.5
549.407	1107.5
549.62	1132.5
549.833	1125.5
550.046	1138.5
550.259	1147.5
550.473	1114.5
550.686	1128.5
550.899	1128.5
551.112	1121.5
551.325	1123.5
551.538	1123.5
551.751	1100.5
551.964	1079.5
552.177	1132.5
552.39	1151.5
552.603	1177.5
552.816	1211.5
553.029	1187.5
553.242	1236.5
553.455	1213.5
553.667	1249.5
553.88	1167.5
554.093	1250.5
554.306	1242.5
554.519	1254.5
554.732	1268.5
554.944	1263.5
555.157	1263.5
555.37	1340.5
555.583	1372.5
555.795	1393.5
556.008	1459.5
556.221	1521.5
556.433	1608.5
556.646	1553.5
556.859	1586.5
557.071	1537.5
557.284	1550.5
557.496	1492.5
557.709	1519.5
557.921	1464.5
558.134	1475.5
558.346	1489.5
558.559	1523.5
558.771	1595.5
558.984	1656.5
559.196	1742.5
559.409	1693.5
559.621	1638.5
559.833	1580.5
560.046	1471.5
560.258	1433.5
560.47	1379.5
560.683	1336.5
560.895	1291.5
561.107	1280.5
561.32	1240.5
561.532	1201.5
561.744	1230.5
561.956	1162.5
562.168	1130.5
562.381	1142.5
562.593	1120.5
562.805	1136.5
563.017	1141.5
563.229	1118.5
563.441	1228.5
563.653	1124.5
563.865	1067.5
564.077	1020.5
564.289	1034.5
564.501	1043.5
564.713	1063.5
564.925	1042.5
565.137	1055.5
565.349	1043.5
565.561	1049.5
565.773	1053.5
565.985	1047.5
566.197	1037.5
566.408	1106.5
566.62	1137.5
566.832	1128.5
567.044	1163.5
567.255	1149.5
567.467	1149.5
567.679	1181.5
567.891	1249.5
568.102	1356.5
568.314	1499.5
568.526	1306.5
568.737	1151.5
568.949	1044.5
569.161	1005.5
569.372	991.5
569.584	947.5
569.795	923.5
570.007	913.5
570.218	917.5
570.43	946.5
570.641	904.5
570.853	883.5
571.064	864.5
571.276	872.5
571.487	878.5
571.698	831.5
571.91	857.5
572.121	818.5
572.333	808.5
572.544	835.5
572.755	867.5
572.966	947.5
573.178	892.5
573.389	817.5
573.6	791.5
573.811	793.5
574.023	779.5
574.234	728.5
574.445	756.5
574.656	773.5
574.867	759.5
575.078	749.5
575.289	747.5
575.501	727.5
575.712	778.5
575.923	733.5
576.134	744.5
576.345	761.5
576.556	767.5
576.767	739.5
576.978	749.5
577.188	751.5
577.399	759.5
577.61	745.5
577.821	765.5
578.032	756.5
578.243	778.5
578.454	792.5
578.665	792.5
578.875	804.5
579.086	845.5
579.297	857.5
579.508	929.5
579.718	953.5
579.929	1059.5
580.14	1144.5
580.35	1153.5
580.561	1097.5
580.772	1055.5
580.982	993.5
581.193	969.5
581.403	929.5
581.614	892.5
581.825	839.5
582.035	828.5
582.246	794.5
582.456	787.5
582.667	785.5
582.877	747.5
583.087	737.5
583.298	702.5
583.508	697.5
583.719	689.5
583.929	675.5
584.139	685.5
584.35	639.5
584.56	651.5
584.77	658.5
584.981	627.5
585.191	636.5
585.401	635.5
585.611	629.5
585.821	643.5
586.032	614.5
586.242	599.5
586.452	613.5
586.662	615.5
586.872	600.5
587.082	576.5
587.292	581.5
587.502	566.5
587.713	567.5
587.923	571.5
588.133	575.5
588.343	566.5
588.553	567.5
588.762	546.5
588.972	549.5
589.182	567.5
589.392	558.5
589.602	543.5
589.812	547.5
590.022	558.5
590.232	548.5
590.441	545.5
590.651	552.5
590.861	547.5
591.071	546.5
591.281	537.5
591.49	530.5
591.7	548.5
591.91	536.5
592.119	524.5
592.329	555.5
592.539	569.5
592.748	561.5
592.958	587.5
593.167	596.5
593.377	565.5
593.587	587.5
593.796	567.5
594.006	556.5
594.215	565.5
594.424	568.5
594.634	565.5
594.843	538.5
595.053	566.5
595.262	552.5
595.472	538.5
595.681	507.5
595.89	508.5
596.1	489.5
596.309	502.5
596.518	474.5
596.727	491.5
596.937	479.5
597.146	489.5
597.355	475.5
597.564	452.5
597.774	475.5
597.983	454.5
598.192	474.5
598.401	461.5
598.61	447.5
598.819	471.5
599.028	451.5
599.237	457.5
599.446	452.5
599.655	437.5
599.864	444.5
600.073	449.5
600.282	444.5
600.491	452.5
600.7	454.5
600.909	454.5
601.118	456.5
601.327	440.5
601.536	417.5
601.745	451.5
601.953	499.5
602.162	551.5
602.371	467.5
602.58	471.5
602.789	469.5
602.997	456.5
603.206	456.5
603.415	440.5
603.623	442.5
603.832	435.5
604.041	469.5
604.249	424.5
604.458	431.5
604.666	396.5
604.875	420.5
605.084	429.5
605.292	439.5
605.501	412.5
605.709	437.5
605.918	424.5
606.126	431.5
606.334	428.5
606.543	439.5
606.751	467.5
606.96	517.5
607.168	564.5
607.376	476.5
607.585	451.5
607.793	432.5
608.001	441.5
608.21	419.5
608.418	413.5
608.626	400.5
608.834	409.5
609.043	407.5
609.251	407.5
609.459	417.5
609.667	413.5
609.875	410.5
610.083	406.5
610.291	397.5
610.499	411.5
610.707	415.5
610.916	409.5
611.124	410.5
611.332	371.5
611.54	392.5
611.748	396.5
611.955	403.5
612.163	423.5
612.371	402.5
612.579	403.5
612.787	414.5
612.995	392.5
613.203	407.5
613.411	393.5
613.618	370.5
613.826	404.5
614.034	386.5
614.242	402.5
614.449	381.5
614.657	396.5
614.865	385.5
615.072	403.5
615.28	404.5
615.488	398.5
615.695	417.5
615.903	377.5
616.111	387.5
616.318	408.5
616.526	407.5
616.733	391.5
616.941	379.5
617.148	393.5
617.356	386.5
617.563	397.5
617.771	387.5
617.978	377.5
618.185	375.5
618.393	381.5
618.6	368.5
618.807	387.5
619.015	383.5
619.222	382.5
619.429	381.5
619.637	382.5
619.844	367.5
620.051	356.5
620.258	354.5
620.466	365.5
620.673	356.5
620.88	340.5
621.087	340.5
621.294	368.5
621.501	353.5
621.708	348.5
621.915	370.5
622.122	367.5
622.329	349.5
622.536	354.5
622.743	351.5
622.95	356.5
623.157	327.5
623.364	346.5
623.571	340.5
623.778	340.5
623.985	339.5
624.192	335.5
624.399	353.5
624.606	351.5
624.812	334.5
625.019	346.5
625.226	327.5
625.433	329.5
625.639	315.5
625.846	319.5
626.053	325.5
626.259	327.5
626.466	323.5
626.673	329.5
626.879	310.5
627.086	338.5
627.293	308.5
627.499	304.5
627.706	333.5
627.912	342.5
628.119	333.5
628.325	340.5
628.532	317.5
628.738	310.5
628.945	336.5
629.151	325.5
629.357	312.5
629.564	289.5
629.77	310.5
629.976	307.5
630.183	330.5
630.389	333.5
630.595	308.5
630.802	316.5
631.008	295.5
631.214	300.5
631.42	310.5
631.627	313.5
631.833	296.5
632.039	307.5
632.245	300.5
632.451	298.5
632.657	313.5
632.863	301.5
633.069	308.5
633.275	309.5
633.481	307.5
633.688	309.5
633.893	305.5
634.099	298.5
634.305	292.5
634.511	306.5
634.717	290.5
634.923	303.5
635.129	321.5
635.335	366.5
635.541	346.5
635.747	332.5
635.952	310.5
636.158	311.5
636.364	296.5
636.57	301.5
636.775	301.5
636.981	294.5
637.187	304.5
637.392	291.5
637.598	307.5
637.804	313.5
638.009	293.5
638.215	303.5
638.421	290.5
638.626	300.5
638.832	305.5
639.037	307.5
639.243	288.5
639.448	305.5
639.654	297.5
639.859	308.5
640.065	319.5
640.27	311.5
640.475	309.5
640.681	320.5
640.886	315.5
641.091	311.5
641.297	317.5
641.502	321.5
641.707	321.5
641.913	311.5
642.118	321.5
642.323	323.5
642.528	333.5
642.733	344.5
642.939	339.5
643.144	351.5
643.349	352.5
643.554	380.5
643.759	383.5
643.964	395.5
644.169	413.5
644.374	425.5
644.579	467.5
644.784	508.5
644.989	539.5
645.194	608.5
645.399	671.5
645.604	683.5
645.809	531.5
646.014	471.5
646.219	433.5
646.423	386.5
646.628	358.5
646.833	361.5
647.038	338.5
647.243	326.5
647.447	312.5
647.652	313.5
647.857	299.5
648.062	284.5
648.266	275.5
648.471	293.5
648.676	296.5
648.88	286.5
649.085	274.5
649.289	279.5
649.494	287.5
649.698	268.5
649.903	274.5
650.107	267.5
650.312	261.5
650.516	255.5
650.721	263.5
650.925	236.5
651.13	247.5
651.334	227.5
651.539	244.5
651.743	239.5
651.947	227.5
652.152	240.5
652.356	216.5
652.56	236.5
652.764	284.5
652.969	249.5
653.173	218.5
653.377	233.5
653.581	221.5
653.785	210.5
653.99	219.5
654.194	239.5
654.398	214.5
654.602	210.5
654.806	205.5
655.01	212.5
655.214	216.5
655.418	205.5
655.622	218.5
655.826	205.5
656.03	234.5
656.234	211.5
656.438	233.5
656.642	230.5
656.846	233.5
657.049	196.5
657.253	186.5
657.457	192.5
657.661	195.5
657.865	173.5
658.068	168.5
658.272	168.5
658.476	162.5
658.68	149.5
658.883	159.5
659.087	150.5
659.291	124.5
659.494	124.5
659.698	126.5
659.901	127.5
660.105	125.5
660.309	126.5
660.512	113.5
660.716	122.5
660.919	112.5
661.123	113.5
661.326	100.5
661.53	108.5
661.733	93.5
661.936	103.5
662.14	99.5
662.343	88.5
662.546	91.5
662.75	92.5
662.953	89.5
663.156	79.5
663.36	92.5
663.563	79.5
663.766	93.5
663.969	91.5
664.173	84.5
664.376	95.5
664.579	93.5
664.782	84.5
664.985	86.5
665.188	91.5
665.391	86.5
665.594	85.5
665.797	75.5
666	85.5
666.203	71.5
666.406	87.5
666.609	75.5
666.812	85.5
667.015	81.5
667.218	82.5
667.421	84.5
667.624	76.5
667.827	85.5
668.03	81.5
668.232	80.5
668.435	83.5
668.638	89.5
668.841	81.5
669.043	89.5
669.246	88.5
669.449	77.5
669.651	76.5
669.854	78.5
670.057	98.5
670.259	90.5
670.462	89.5
670.665	91.5
670.867	72.5
671.07	83.5
671.272	85.5
671.475	81.5
671.677	86.5
671.88	73.5
672.082	74.5
672.284	89.5
672.487	100.5
672.689	100.5
672.892	85.5
