Data from SnStandardFlinnAPT0064_LampEnergy5.5_LIBS07252019.E.O._I.C._HRD10591_15-15-51-493.txt Node
Date: Thu Jul 25 15:15:51 EDT 2019
User: cochatt
Spectrometer: HR+D1059
Trigger mode: 1
Integration Time (sec): 1.000000E-1
Scans to average: 1
Electric dark correction enabled: true
Nonlinearity correction enabled: false
Boxcar width: 0
XAxis mode: Wavelengths
Number of Pixels in Spectrum: 2048
>>>>>Begin Spectral Data<<<<<
223.165	-15.06
223.4	-15.06
223.635	-15.06
223.869	-24.06
224.104	-17.06
224.338	-21.06
224.573	-10.06
224.808	-17.06
225.042	-16.06
225.277	8.94
225.511	-13.06
225.746	4.94
225.98	11.94
226.215	7.94
226.449	14.94
226.683	18.94
226.918	24.94
227.152	40.94
227.387	34.94
227.621	44.94
227.856	35.94
228.09	47.94
228.324	55.94
228.559	46.94
228.793	77.94
229.027	162.94
229.262	169.94
229.496	157.94
229.73	156.94
229.964	165.94
230.199	166.94
230.433	150.94
230.667	167.94
230.901	174.94
231.136	172.94
231.37	182.94
231.604	179.94
231.838	203.94
232.072	235.94
232.306	239.94
232.541	203.94
232.775	198.94
233.009	188.94
233.243	204.94
233.477	198.94
233.711	252.94
233.945	243.94
234.179	220.94
234.413	232.94
234.647	204.94
234.881	224.94
235.115	248.94
235.349	259.94
235.583	322.94
235.817	399.94
236.051	390.94
236.285	272.94
236.519	241.94
236.753	226.94
236.987	221.94
237.221	268.94
237.455	244.94
237.689	232.94
237.922	201.94
238.156	202.94
238.39	221.94
238.624	224.94
238.858	213.94
239.091	236.94
239.325	228.94
239.559	234.94
239.793	231.94
240.027	243.94
240.26	260.94
240.494	254.94
240.728	237.94
240.961	272.94
241.195	272.94
241.429	300.94
241.662	286.94
241.896	334.94
242.13	371.94
242.363	446.94
242.597	596.94
242.83	564.94
243.064	565.94
243.298	663.94
243.531	566.94
243.765	386.94
243.998	312.94
244.232	312.94
244.465	294.94
244.699	280.94
244.932	287.94
245.166	279.94
245.399	293.94
245.633	296.94
245.866	295.94
246.099	298.94
246.333	291.94
246.566	285.94
246.8	265.94
247.033	282.94
247.266	298.94
247.5	291.94
247.733	305.94
247.966	308.94
248.2	310.94
248.433	366.94
248.666	392.94
248.899	370.94
249.133	339.94
249.366	372.94
249.599	381.94
249.832	411.94
250.066	397.94
250.299	358.94
250.532	328.94
250.765	307.94
250.998	338.94
251.231	330.94
251.465	346.94
251.698	321.94
251.931	323.94
252.164	325.94
252.397	325.94
252.63	318.94
252.863	327.94
253.096	323.94
253.329	331.94
253.562	335.94
253.795	330.94
254.028	363.94
254.261	355.94
254.494	396.94
254.727	426.94
254.96	473.94
255.193	442.94
255.426	395.94
255.659	344.94
255.892	369.94
256.124	365.94
256.357	357.94
256.59	383.94
256.823	381.94
257.056	445.94
257.289	507.94
257.521	541.94
257.754	457.94
257.987	401.94
258.22	390.94
258.452	394.94
258.685	383.94
258.918	394.94
259.151	417.94
259.383	443.94
259.616	461.94
259.849	496.94
260.081	439.94
260.314	421.94
260.547	405.94
260.779	399.94
261.012	405.94
261.244	432.94
261.477	416.94
261.71	428.94
261.942	446.94
262.175	435.94
262.407	433.94
262.64	441.94
262.872	476.94
263.105	475.94
263.337	497.94
263.57	534.94
263.802	558.94
264.035	553.94
264.267	563.94
264.499	598.94
264.732	606.94
264.964	587.94
265.197	589.94
265.429	615.94
265.661	616.94
265.894	648.94
266.126	726.94
266.358	768.94
266.591	750.94
266.823	648.94
267.055	598.94
267.287	610.94
267.52	570.94
267.752	566.94
267.984	549.94
268.216	529.94
268.448	527.94
268.681	525.94
268.913	530.94
269.145	536.94
269.377	512.94
269.609	524.94
269.841	541.94
270.073	574.94
270.306	640.94
270.538	830.94
270.77	1164.94
271.002	1359.94
271.234	996.94
271.466	705.94
271.698	600.94
271.93	557.94
272.162	543.94
272.394	541.94
272.626	531.94
272.858	542.94
273.09	499.94
273.322	512.94
273.553	520.94
273.785	483.94
274.017	501.94
274.249	502.94
274.481	509.94
274.713	500.94
274.945	488.94
275.176	532.94
275.408	524.94
275.64	523.94
275.872	504.94
276.104	515.94
276.335	521.94
276.567	518.94
276.799	537.94
277.031	543.94
277.262	558.94
277.494	543.94
277.726	621.94
277.957	677.94
278.189	767.94
278.421	730.94
278.652	656.94
278.884	639.94
279.115	589.94
279.347	568.94
279.579	553.94
279.81	576.94
280.042	568.94
280.273	571.94
280.505	592.94
280.736	594.94
280.968	626.94
281.199	705.94
281.431	739.94
281.662	729.94
281.894	670.94
282.125	651.94
282.356	633.94
282.588	652.94
282.819	664.94
283.051	690.94
283.282	730.94
283.513	905.94
283.745	1292.94
283.976	2003.94
284.207	2820.94
284.439	2500.94
284.67	1567.94
284.901	1284.94
285.132	1275.94
285.364	1193.94
285.595	967.94
285.826	907.94
286.057	1047.94
286.288	1364.94
286.52	1799.94
286.751	1643.94
286.982	1106.94
287.213	868.94
287.444	773.94
287.675	709.94
287.906	693.94
288.138	710.94
288.369	677.94
288.6	673.94
288.831	707.94
289.062	655.94
289.293	704.94
289.524	689.94
289.755	714.94
289.986	676.94
290.217	675.94
290.448	680.94
290.679	671.94
290.91	710.94
291.141	708.94
291.371	739.94
291.602	774.94
291.833	731.94
292.064	686.94
292.295	682.94
292.526	670.94
292.757	667.94
292.987	680.94
293.218	660.94
293.449	670.94
293.68	662.94
293.91	631.94
294.141	660.94
294.372	644.94
294.603	665.94
294.833	667.94
295.064	655.94
295.295	664.94
295.525	646.94
295.756	629.94
295.987	640.94
296.217	663.94
296.448	645.94
296.679	621.94
296.909	646.94
297.14	644.94
297.37	635.94
297.601	675.94
297.831	662.94
298.062	658.94
298.292	666.94
298.523	651.94
298.753	674.94
298.984	695.94
299.214	698.94
299.445	704.94
299.675	706.94
299.905	726.94
300.136	734.94
300.366	801.94
300.597	1022.94
300.827	1338.94
301.057	1803.94
301.288	1752.94
301.518	1200.94
301.748	946.94
301.979	906.94
302.209	902.94
302.439	859.94
302.669	914.94
302.9	1064.94
303.13	1432.94
303.36	2066.94
303.59	2699.94
303.82	2336.94
304.051	1434.94
304.281	1060.94
304.511	936.94
304.741	869.94
304.971	828.94
305.201	834.94
305.431	807.94
305.661	772.94
305.891	756.94
306.121	763.94
306.352	749.94
306.582	766.94
306.812	770.94
307.042	764.94
307.272	762.94
307.502	741.94
307.731	756.94
307.961	744.94
308.191	743.94
308.421	721.94
308.651	731.94
308.881	709.94
309.111	736.94
309.341	756.94
309.571	776.94
309.8	760.94
310.03	744.94
310.26	754.94
310.49	760.94
310.72	770.94
310.949	761.94
311.179	782.94
311.409	790.94
311.639	819.94
311.868	800.94
312.098	785.94
312.328	800.94
312.557	770.94
312.787	806.94
313.017	783.94
313.246	812.94
313.476	830.94
313.706	822.94
313.935	858.94
314.165	898.94
314.394	898.94
314.624	891.94
314.853	854.94
315.083	875.94
315.312	870.94
315.542	852.94
315.771	891.94
316.001	874.94
316.23	924.94
316.46	934.94
316.689	1022.94
316.919	1192.94
317.148	1655.94
317.377	2464.94
317.607	3588.94
317.836	3699.94
318.065	2220.94
318.295	1471.94
318.524	1231.94
318.753	1087.94
318.983	1049.94
319.212	960.94
319.441	943.94
319.67	947.94
319.9	936.94
320.129	937.94
320.358	936.94
320.587	909.94
320.816	928.94
321.046	962.94
321.275	938.94
321.504	930.94
321.733	938.94
321.962	991.94
322.191	974.94
322.42	965.94
322.649	992.94
322.878	976.94
323.108	966.94
323.337	1017.94
323.566	1017.94
323.795	1013.94
324.024	1036.94
324.253	1056.94
324.482	1086.94
324.71	1150.94
324.939	1194.94
325.168	1236.94
325.397	1259.94
325.626	1476.94
325.855	1978.94
326.084	2967.94
326.313	4425.94
326.542	4640.94
326.77	3026.94
326.999	2078.94
327.228	1716.94
327.457	1670.94
327.686	1711.94
327.914	1798.94
328.143	2049.94
328.372	2354.94
328.6	2542.94
328.829	2368.94
329.058	2074.94
329.287	1872.94
329.515	1757.94
329.744	1626.94
329.972	1564.94
330.201	1479.94
330.43	1423.94
330.658	1392.94
330.887	1382.94
331.115	1341.94
331.344	1360.94
331.572	1339.94
331.801	1331.94
332.03	1368.94
332.258	1336.94
332.486	1403.94
332.715	1530.94
332.943	1867.94
333.172	2246.94
333.4	2225.94
333.629	1796.94
333.857	1684.94
334.085	1640.94
334.314	1770.94
334.542	1868.94
334.771	2126.94
334.999	2557.94
335.227	3082.94
335.455	3369.94
335.684	3151.94
335.912	2729.94
336.14	2390.94
336.369	2137.94
336.597	1942.94
336.825	1835.94
337.053	1743.94
337.281	1635.94
337.51	1545.94
337.738	1479.94
337.966	1434.94
338.194	1384.94
338.422	1366.94
338.65	1345.94
338.878	1326.94
339.106	1302.94
339.334	1254.94
339.562	1251.94
339.79	1212.94
340.018	1226.94
340.246	1204.94
340.474	1204.94
340.702	1223.94
340.93	1205.94
341.158	1212.94
341.386	1216.94
341.614	1166.94
341.842	1162.94
342.07	1154.94
342.298	1116.94
342.526	1092.94
342.754	1082.94
342.981	1078.94
343.209	1110.94
343.437	1095.94
343.665	1098.94
343.893	1128.94
344.12	1135.94
344.348	1138.94
344.576	1100.94
344.804	1084.94
345.031	1050.94
345.259	1046.94
345.487	1049.94
345.714	1026.94
345.942	1045.94
346.17	1024.94
346.397	1039.94
346.625	999.94
346.853	1006.94
347.08	991.94
347.308	1015.94
347.535	1006.94
347.763	1020.94
347.99	1032.94
348.218	1011.94
348.445	999.94
348.673	972.94
348.9	997.94
349.128	1012.94
349.355	994.94
349.583	1003.94
349.81	994.94
350.037	981.94
350.265	972.94
350.492	982.94
350.72	961.94
350.947	994.94
351.174	980.94
351.402	988.94
351.629	992.94
351.856	968.94
352.083	964.94
352.311	972.94
352.538	963.94
352.765	992.94
352.992	981.94
353.22	952.94
353.447	940.94
353.674	985.94
353.901	995.94
354.128	955.94
354.355	956.94
354.583	960.94
354.81	967.94
355.037	996.94
355.264	1000.94
355.491	987.94
355.718	1002.94
355.945	980.94
356.172	967.94
356.399	1000.94
356.626	1012.94
356.853	1030.94
357.08	1002.94
357.307	1010.94
357.534	1014.94
357.761	1054.94
357.988	1045.94
358.215	1028.94
358.441	1012.94
358.668	1053.94
358.895	1012.94
359.122	1020.94
359.349	1032.94
359.576	1026.94
359.802	1000.94
360.029	1019.94
360.256	1032.94
360.483	1023.94
360.709	1044.94
360.936	1040.94
361.163	1046.94
361.39	1038.94
361.616	1030.94
361.843	1035.94
362.07	1043.94
362.296	1080.94
362.523	1045.94
362.749	1057.94
362.976	1021.94
363.203	1030.94
363.429	1027.94
363.656	1048.94
363.882	1015.94
364.109	1046.94
364.335	1006.94
364.562	1030.94
364.788	998.94
365.015	1055.94
365.241	1074.94
365.468	1100.94
365.694	1114.94
365.92	1109.94
366.147	1062.94
366.373	1060.94
366.599	1069.94
366.826	1047.94
367.052	1037.94
367.278	1062.94
367.505	1069.94
367.731	1076.94
367.957	1067.94
368.184	1076.94
368.41	1032.94
368.636	1080.94
368.862	1101.94
369.089	1050.94
369.315	1071.94
369.541	1082.94
369.767	1075.94
369.993	1103.94
370.219	1065.94
370.445	1104.94
370.672	1114.94
370.898	1086.94
371.124	1092.94
371.35	1111.94
371.576	1111.94
371.802	1132.94
372.028	1127.94
372.254	1142.94
372.48	1126.94
372.706	1152.94
372.932	1145.94
373.158	1136.94
373.384	1137.94
373.61	1102.94
373.835	1143.94
374.061	1113.94
374.287	1174.94
374.513	1150.94
374.739	1184.94
374.965	1179.94
375.191	1187.94
375.416	1175.94
375.642	1161.94
375.868	1158.94
376.094	1125.94
376.319	1134.94
376.545	1119.94
376.771	1151.94
376.997	1125.94
377.222	1127.94
377.448	1146.94
377.674	1101.94
377.899	1120.94
378.125	1133.94
378.35	1105.94
378.576	1135.94
378.802	1107.94
379.027	1172.94
379.253	1192.94
379.478	1190.94
379.704	1360.94
379.929	1833.94
380.155	2619.94
380.38	2832.94
380.606	1818.94
380.831	1396.94
381.057	1278.94
381.282	1165.94
381.507	1146.94
381.733	1143.94
381.958	1128.94
382.184	1121.94
382.409	1108.94
382.634	1080.94
382.86	1102.94
383.085	1101.94
383.31	1119.94
383.535	1100.94
383.761	1088.94
383.986	1104.94
384.211	1144.94
384.436	1128.94
384.662	1146.94
384.887	1135.94
385.112	1120.94
385.337	1142.94
385.562	1141.94
385.787	1176.94
386.013	1162.94
386.238	1149.94
386.463	1164.94
386.688	1136.94
386.913	1140.94
387.138	1134.94
387.363	1142.94
387.588	1148.94
387.813	1153.94
388.038	1126.94
388.263	1164.94
388.488	1133.94
388.713	1116.94
388.938	1151.94
389.163	1152.94
389.387	1157.94
389.612	1140.94
389.837	1134.94
390.062	1168.94
390.287	1127.94
390.512	1151.94
390.736	1174.94
390.961	1173.94
391.186	1208.94
391.411	1187.94
391.636	1192.94
391.86	1220.94
392.085	1197.94
392.31	1206.94
392.534	1148.94
392.759	1166.94
392.984	1138.94
393.208	1176.94
393.433	1158.94
393.658	1151.94
393.882	1171.94
394.107	1149.94
394.331	1191.94
394.556	1173.94
394.78	1167.94
395.005	1174.94
395.229	1190.94
395.454	1202.94
395.678	1190.94
395.903	1189.94
396.127	1202.94
396.352	1184.94
396.576	1206.94
396.801	1170.94
397.025	1202.94
397.249	1173.94
397.474	1212.94
397.698	1206.94
397.922	1238.94
398.147	1233.94
398.371	1257.94
398.595	1269.94
398.82	1290.94
399.044	1339.94
399.268	1382.94
399.492	1478.94
399.717	1535.94
399.941	1462.94
400.165	1475.94
400.389	1424.94
400.613	1386.94
400.837	1324.94
401.062	1321.94
401.286	1314.94
401.51	1278.94
401.734	1256.94
401.958	1280.94
402.182	1275.94
402.406	1297.94
402.63	1268.94
402.854	1284.94
403.078	1288.94
403.302	1317.94
403.526	1314.94
403.75	1289.94
403.974	1357.94
404.198	1305.94
404.422	1346.94
404.645	1339.94
404.869	1292.94
405.093	1321.94
405.317	1339.94
405.541	1342.94
405.765	1330.94
405.988	1331.94
406.212	1309.94
406.436	1356.94
406.66	1357.94
406.883	1342.94
407.107	1384.94
407.331	1400.94
407.555	1420.94
407.778	1406.94
408.002	1388.94
408.226	1388.94
408.449	1386.94
408.673	1346.94
408.896	1341.94
409.12	1332.94
409.344	1348.94
409.567	1342.94
409.791	1314.94
410.014	1284.94
410.238	1304.94
410.461	1294.94
410.685	1304.94
410.908	1286.94
411.132	1295.94
411.355	1274.94
411.578	1289.94
411.802	1284.94
412.025	1286.94
412.249	1331.94
412.472	1281.94
412.695	1259.94
412.919	1241.94
413.142	1259.94
413.365	1259.94
413.589	1243.94
413.812	1246.94
414.035	1229.94
414.258	1229.94
414.482	1219.94
414.705	1267.94
414.928	1228.94
415.151	1224.94
415.374	1239.94
415.597	1198.94
415.821	1212.94
416.044	1189.94
416.267	1199.94
416.49	1204.94
416.713	1191.94
416.936	1218.94
417.159	1223.94
417.382	1199.94
417.605	1196.94
417.828	1175.94
418.051	1194.94
418.274	1221.94
418.497	1183.94
418.72	1232.94
418.943	1228.94
419.166	1270.94
419.389	1317.94
419.611	1325.94
419.834	1287.94
420.057	1227.94
420.28	1238.94
420.503	1191.94
420.726	1210.94
420.948	1224.94
421.171	1211.94
421.394	1195.94
421.617	1225.94
421.839	1231.94
422.062	1214.94
422.285	1186.94
422.507	1239.94
422.73	1233.94
422.953	1244.94
423.175	1284.94
423.398	1247.94
423.621	1191.94
423.843	1211.94
424.066	1227.94
424.288	1210.94
424.511	1195.94
424.733	1239.94
424.956	1188.94
425.178	1198.94
425.401	1193.94
425.623	1197.94
425.846	1169.94
426.068	1218.94
426.291	1192.94
426.513	1152.94
426.735	1128.94
426.958	1178.94
427.18	1126.94
427.402	1143.94
427.625	1131.94
427.847	1116.94
428.069	1122.94
428.292	1133.94
428.514	1116.94
428.736	1158.94
428.958	1119.94
429.181	1100.94
429.403	1121.94
429.625	1087.94
429.847	1143.94
430.069	1144.94
430.292	1164.94
430.514	1194.94
430.736	1190.94
430.958	1147.94
431.18	1131.94
431.402	1096.94
431.624	1084.94
431.846	1097.94
432.068	1078.94
432.29	1103.94
432.512	1071.94
432.734	1107.94
432.956	1115.94
433.178	1108.94
433.4	1151.94
433.622	1123.94
433.844	1126.94
434.066	1140.94
434.287	1115.94
434.509	1094.94
434.731	1147.94
434.953	1131.94
435.175	1148.94
435.397	1167.94
435.618	1134.94
435.84	1101.94
436.062	1115.94
436.284	1086.94
436.505	1104.94
436.727	1126.94
436.949	1132.94
437.17	1134.94
437.392	1097.94
437.614	1106.94
437.835	1052.94
438.057	1072.94
438.278	1062.94
438.5	1070.94
438.721	1074.94
438.943	1076.94
439.165	1135.94
439.386	1144.94
439.608	1140.94
439.829	1129.94
440.05	1190.94
440.272	1194.94
440.493	1172.94
440.715	1149.94
440.936	1150.94
441.158	1155.94
441.379	1187.94
441.6	1206.94
441.822	1240.94
442.043	1264.94
442.264	1298.94
442.486	1241.94
442.707	1216.94
442.928	1210.94
443.149	1193.94
443.371	1204.94
443.592	1208.94
443.813	1217.94
444.034	1206.94
444.255	1242.94
444.476	1262.94
444.698	1307.94
444.919	1312.94
445.14	1355.94
445.361	1262.94
445.582	1232.94
445.803	1186.94
446.024	1163.94
446.245	1201.94
446.466	1207.94
446.687	1195.94
446.908	1162.94
447.129	1142.94
447.35	1112.94
447.571	1106.94
447.792	1107.94
448.013	1110.94
448.234	1108.94
448.455	1080.94
448.675	1148.94
448.896	1132.94
449.117	1146.94
449.338	1228.94
449.559	1280.94
449.779	1135.94
450	1082.94
450.221	1092.94
450.442	1075.94
450.662	1022.94
450.883	1052.94
451.104	1054.94
451.324	1072.94
451.545	1022.94
451.766	1046.94
451.986	1082.94
452.207	1126.94
452.428	1307.94
452.648	1744.94
452.869	1526.94
453.089	1187.94
453.31	1157.94
453.53	1198.94
453.751	1191.94
453.971	1242.94
454.192	1234.94
454.412	1076.94
454.633	1049.94
454.853	1046.94
455.073	1022.94
455.294	1012.94
455.514	987.94
455.734	1014.94
455.955	1000.94
456.175	1004.94
456.395	1009.94
456.616	1007.94
456.836	1022.94
457.056	1070.94
457.276	1029.94
457.497	1058.94
457.717	1091.94
457.937	1067.94
458.157	1078.94
458.377	1094.94
458.598	1063.94
458.818	1080.94
459.038	1104.94
459.258	1083.94
459.478	1091.94
459.698	1069.94
459.918	1128.94
460.138	1156.94
460.358	1158.94
460.578	1156.94
460.798	1191.94
461.018	1174.94
461.238	1220.94
461.458	1210.94
461.678	1208.94
461.898	1242.94
462.118	1251.94
462.338	1276.94
462.558	1295.94
462.777	1299.94
462.997	1356.94
463.217	1396.94
463.437	1422.94
463.657	1414.94
463.876	1409.94
464.096	1325.94
464.316	1289.94
464.536	1281.94
464.755	1270.94
464.975	1252.94
465.195	1213.94
465.414	1199.94
465.634	1128.94
465.854	1143.94
466.073	1124.94
466.293	1112.94
466.512	1107.94
466.732	1119.94
466.951	1179.94
467.171	1261.94
467.391	1250.94
467.61	1138.94
467.829	1122.94
468.049	1121.94
468.268	1096.94
468.488	1088.94
468.707	1111.94
468.927	1118.94
469.146	1095.94
469.365	1115.94
469.585	1076.94
469.804	1112.94
470.023	1138.94
470.243	1160.94
470.462	1211.94
470.681	1210.94
470.901	1315.94
471.12	1466.94
471.339	1514.94
471.558	1269.94
471.777	1170.94
471.997	1141.94
472.216	1112.94
472.435	1115.94
472.654	1079.94
472.873	1076.94
473.092	1064.94
473.311	1092.94
473.53	1116.94
473.749	1123.94
473.968	1139.94
474.187	1124.94
474.406	1084.94
474.625	1086.94
474.844	1112.94
475.063	1104.94
475.282	1106.94
475.501	1112.94
475.72	1126.94
475.939	1119.94
476.158	1162.94
476.377	1156.94
476.596	1157.94
476.814	1140.94
477.033	1150.94
477.252	1120.94
477.471	1183.94
477.69	1215.94
477.908	1240.94
478.127	1259.94
478.346	1230.94
478.564	1259.94
478.783	1286.94
479.002	1319.94
479.22	1268.94
479.439	1323.94
479.658	1328.94
479.876	1293.94
480.095	1311.94
480.313	1337.94
480.532	1355.94
480.751	1340.94
480.969	1347.94
481.188	1318.94
481.406	1276.94
481.624	1279.94
481.843	1276.94
482.061	1286.94
482.28	1300.94
482.498	1266.94
482.717	1320.94
482.935	1324.94
483.153	1334.94
483.372	1334.94
483.59	1378.94
483.808	1360.94
484.027	1379.94
484.245	1408.94
484.463	1595.94
484.681	1734.94
484.9	1595.94
485.118	1547.94
485.336	1487.94
485.554	1487.94
485.772	1545.94
485.99	1775.94
486.209	1883.94
486.427	1615.94
486.645	1490.94
486.863	1463.94
487.081	1385.94
487.299	1394.94
487.517	1367.94
487.735	1414.94
487.953	1394.94
488.171	1440.94
488.389	1399.94
488.607	1422.94
488.825	1356.94
489.043	1359.94
489.261	1324.94
489.479	1353.94
489.696	1352.94
489.914	1359.94
490.132	1354.94
490.35	1371.94
490.568	1398.94
490.786	1442.94
491.003	1429.94
491.221	1460.94
491.439	1465.94
491.657	1456.94
491.874	1432.94
492.092	1475.94
492.31	1470.94
492.527	1470.94
492.745	1461.94
492.963	1462.94
493.18	1448.94
493.398	1454.94
493.615	1458.94
493.833	1450.94
494.05	1446.94
494.268	1474.94
494.485	1452.94
494.703	1459.94
494.92	1407.94
495.138	1434.94
495.355	1454.94
495.573	1414.94
495.79	1433.94
496.008	1451.94
496.225	1480.94
496.442	1468.94
496.66	1500.94
496.877	1587.94
497.094	1563.94
497.312	1511.94
497.529	1559.94
497.746	1583.94
497.963	1587.94
498.181	1612.94
498.398	1630.94
498.615	1708.94
498.832	1755.94
499.049	1820.94
499.267	1940.94
499.484	2074.94
499.701	2103.94
499.918	2216.94
500.135	2285.94
500.352	2397.94
500.569	2434.94
500.786	2434.94
501.003	2360.94
501.22	2212.94
501.437	2114.94
501.654	1996.94
501.871	1905.94
502.088	1823.94
502.305	1741.94
502.522	1696.94
502.739	1657.94
502.956	1616.94
503.172	1556.94
503.389	1541.94
503.606	1510.94
503.823	1494.94
504.04	1472.94
504.256	1480.94
504.473	1467.94
504.69	1492.94
504.907	1482.94
505.123	1425.94
505.34	1388.94
505.557	1367.94
505.773	1350.94
505.99	1336.94
506.207	1316.94
506.423	1295.94
506.64	1330.94
506.856	1288.94
507.073	1270.94
507.289	1280.94
507.506	1248.94
507.722	1255.94
507.939	1213.94
508.155	1266.94
508.372	1221.94
508.588	1210.94
508.805	1229.94
509.021	1246.94
509.238	1245.94
509.454	1286.94
509.67	1346.94
509.887	1258.94
510.103	1244.94
510.319	1238.94
510.536	1211.94
510.752	1220.94
510.968	1200.94
511.184	1179.94
511.401	1190.94
511.617	1180.94
511.833	1183.94
512.049	1158.94
512.265	1184.94
512.481	1126.94
512.698	1147.94
512.914	1190.94
513.13	1172.94
513.346	1181.94
513.562	1192.94
513.778	1184.94
513.994	1218.94
514.21	1187.94
514.426	1266.94
514.642	1339.94
514.858	1259.94
515.074	1203.94
515.29	1183.94
515.506	1193.94
515.721	1215.94
515.937	1206.94
516.153	1224.94
516.369	1202.94
516.585	1254.94
516.801	1249.94
517.016	1294.94
517.232	1317.94
517.448	1273.94
517.664	1314.94
517.879	1349.94
518.095	1322.94
518.311	1311.94
518.527	1290.94
518.742	1287.94
518.958	1272.94
519.173	1331.94
519.389	1283.94
519.605	1250.94
519.82	1227.94
520.036	1218.94
520.251	1203.94
520.467	1192.94
520.682	1148.94
520.898	1166.94
521.113	1170.94
521.329	1150.94
521.544	1121.94
521.76	1148.94
521.975	1124.94
522.19	1150.94
522.406	1168.94
522.621	1138.94
522.836	1135.94
523.052	1142.94
523.267	1167.94
523.482	1142.94
523.698	1134.94
523.913	1103.94
524.128	1142.94
524.343	1135.94
524.559	1114.94
524.774	1151.94
524.989	1135.94
525.204	1114.94
525.419	1152.94
525.634	1133.94
525.849	1151.94
526.064	1095.94
526.28	1132.94
526.495	1133.94
526.71	1101.94
526.925	1138.94
527.14	1116.94
527.355	1117.94
527.57	1132.94
527.785	1126.94
527.999	1121.94
528.214	1186.94
528.429	1159.94
528.644	1152.94
528.859	1204.94
529.074	1201.94
529.289	1261.94
529.503	1233.94
529.718	1227.94
529.933	1179.94
530.148	1196.94
530.363	1189.94
530.577	1210.94
530.792	1190.94
531.007	1188.94
531.221	1172.94
531.436	1195.94
531.651	1235.94
531.865	1208.94
532.08	1245.94
532.295	1239.94
532.509	1310.94
532.724	1327.94
532.938	1330.94
533.153	1374.94
533.367	1417.94
533.582	1458.94
533.796	1462.94
534.011	1439.94
534.225	1382.94
534.44	1331.94
534.654	1350.94
534.868	1348.94
535.083	1287.94
535.297	1301.94
535.511	1230.94
535.726	1263.94
535.94	1266.94
536.154	1220.94
536.369	1202.94
536.583	1188.94
536.797	1163.94
537.011	1159.94
537.225	1154.94
537.44	1144.94
537.654	1174.94
537.868	1151.94
538.082	1106.94
538.296	1136.94
538.51	1134.94
538.724	1123.94
538.938	1133.94
539.153	1156.94
539.367	1138.94
539.581	1085.94
539.795	1079.94
540.009	1070.94
540.222	1062.94
540.436	1090.94
540.65	1106.94
540.864	1085.94
541.078	1138.94
541.292	1204.94
541.506	1373.94
541.72	1404.94
541.934	1282.94
542.147	1242.94
542.361	1182.94
542.575	1133.94
542.789	1088.94
543.002	1086.94
543.216	1085.94
543.43	1063.94
543.644	1039.94
543.857	1075.94
544.071	1075.94
544.285	1105.94
544.498	1125.94
544.712	1093.94
544.925	1132.94
545.139	1116.94
545.352	1125.94
545.566	1082.94
545.779	1119.94
545.993	1104.94
546.206	1140.94
546.42	1100.94
546.633	1126.94
546.847	1115.94
547.06	1116.94
547.274	1131.94
547.487	1096.94
547.7	1124.94
547.914	1107.94
548.127	1106.94
548.34	1120.94
548.554	1106.94
548.767	1103.94
548.98	1118.94
549.193	1100.94
549.407	1074.94
549.62	1102.94
549.833	1128.94
550.046	1146.94
550.259	1135.94
550.473	1072.94
550.686	1131.94
550.899	1113.94
551.112	1088.94
551.325	1082.94
551.538	1090.94
551.751	1075.94
551.964	1091.94
552.177	1097.94
552.39	1091.94
552.603	1150.94
552.816	1153.94
553.029	1195.94
553.242	1203.94
553.455	1191.94
553.667	1186.94
553.88	1228.94
554.093	1212.94
554.306	1207.94
554.519	1218.94
554.732	1214.94
554.944	1241.94
555.157	1228.94
555.37	1272.94
555.583	1332.94
555.795	1352.94
556.008	1407.94
556.221	1490.94
556.433	1613.94
556.646	1593.94
556.859	1529.94
557.071	1528.94
557.284	1495.94
557.496	1458.94
557.709	1442.94
557.921	1425.94
558.134	1463.94
558.346	1466.94
558.559	1474.94
558.771	1527.94
558.984	1647.94
559.196	1687.94
559.409	1662.94
559.621	1591.94
559.833	1471.94
560.046	1465.94
560.258	1412.94
560.47	1368.94
560.683	1306.94
560.895	1246.94
561.107	1257.94
561.32	1196.94
561.532	1217.94
561.744	1145.94
561.956	1135.94
562.168	1135.94
562.381	1088.94
562.593	1094.94
562.805	1099.94
563.017	1109.94
563.229	1126.94
563.441	1214.94
563.653	1082.94
563.865	1036.94
564.077	1023.94
564.289	991.94
564.501	1010.94
564.713	1007.94
564.925	1018.94
565.137	1004.94
565.349	1002.94
565.561	1030.94
565.773	1038.94
565.985	1064.94
566.197	1072.94
566.408	1070.94
566.62	1082.94
566.832	1106.94
567.044	1100.94
567.255	1134.94
567.467	1141.94
567.679	1150.94
567.891	1178.94
568.102	1304.94
568.314	1474.94
568.526	1278.94
568.737	1123.94
568.949	1043.94
569.161	987.94
569.372	947.94
569.584	931.94
569.795	895.94
570.007	898.94
570.218	905.94
570.43	934.94
570.641	859.94
570.853	869.94
571.064	860.94
571.276	844.94
571.487	834.94
571.698	818.94
571.91	800.94
572.121	790.94
572.333	815.94
572.544	826.94
572.755	838.94
572.966	960.94
573.178	886.94
573.389	767.94
573.6	763.94
573.811	782.94
574.023	727.94
574.234	752.94
574.445	757.94
574.656	770.94
574.867	752.94
575.078	741.94
575.289	733.94
575.501	748.94
575.712	700.94
575.923	719.94
576.134	728.94
576.345	743.94
576.556	744.94
576.767	730.94
576.978	757.94
577.188	757.94
577.399	745.94
577.61	757.94
577.821	735.94
578.032	756.94
578.243	777.94
578.454	751.94
578.665	770.94
578.875	783.94
579.086	803.94
579.297	858.94
579.508	862.94
579.718	936.94
579.929	1031.94
580.14	1126.94
580.35	1165.94
580.561	1129.94
580.772	1066.94
580.982	980.94
581.193	938.94
581.403	895.94
581.614	874.94
581.825	853.94
582.035	799.94
582.246	789.94
582.456	776.94
582.667	764.94
582.877	725.94
583.087	725.94
583.298	714.94
583.508	690.94
583.719	658.94
583.929	684.94
584.139	662.94
584.35	620.94
584.56	627.94
584.77	643.94
584.981	644.94
585.191	614.94
585.401	612.94
585.611	597.94
585.821	598.94
586.032	584.94
586.242	601.94
586.452	600.94
586.662	575.94
586.872	574.94
587.082	593.94
587.292	590.94
587.502	586.94
587.713	579.94
587.923	562.94
588.133	559.94
588.343	570.94
588.553	555.94
588.762	558.94
588.972	548.94
589.182	554.94
589.392	550.94
589.602	538.94
589.812	535.94
590.022	526.94
590.232	532.94
590.441	526.94
590.651	512.94
590.861	529.94
591.071	551.94
591.281	538.94
591.49	539.94
591.7	511.94
591.91	556.94
592.119	545.94
592.329	538.94
592.539	530.94
592.748	569.94
592.958	553.94
593.167	548.94
593.377	553.94
593.587	573.94
593.796	553.94
594.006	543.94
594.215	566.94
594.424	550.94
594.634	533.94
594.843	541.94
595.053	534.94
595.262	535.94
595.472	515.94
595.681	516.94
595.89	515.94
596.1	483.94
596.309	509.94
596.518	503.94
596.727	500.94
596.937	486.94
597.146	483.94
597.355	475.94
597.564	459.94
597.774	471.94
597.983	443.94
598.192	473.94
598.401	450.94
598.61	454.94
598.819	451.94
599.028	445.94
599.237	450.94
599.446	447.94
599.655	439.94
599.864	457.94
600.073	442.94
600.282	438.94
600.491	446.94
600.7	444.94
600.909	447.94
601.118	444.94
601.327	447.94
601.536	446.94
601.745	464.94
601.953	478.94
602.162	546.94
602.371	481.94
602.58	446.94
602.789	439.94
602.997	436.94
603.206	444.94
603.415	432.94
603.623	448.94
603.832	439.94
604.041	443.94
604.249	444.94
604.458	430.94
604.666	406.94
604.875	402.94
605.084	407.94
605.292	424.94
605.501	420.94
605.709	421.94
605.918	422.94
606.126	432.94
606.334	437.94
606.543	429.94
606.751	461.94
606.96	493.94
607.168	567.94
607.376	489.94
607.585	457.94
607.793	414.94
608.001	439.94
608.21	422.94
608.418	409.94
608.626	411.94
608.834	411.94
609.043	404.94
609.251	418.94
609.459	400.94
609.667	418.94
609.875	416.94
610.083	423.94
610.291	420.94
610.499	404.94
610.707	409.94
610.916	400.94
611.124	405.94
611.332	412.94
611.54	393.94
611.748	423.94
611.955	398.94
612.163	379.94
612.371	379.94
612.579	396.94
612.787	385.94
612.995	398.94
613.203	394.94
613.411	374.94
613.618	370.94
613.826	379.94
614.034	384.94
614.242	378.94
614.449	379.94
614.657	379.94
614.865	411.94
615.072	389.94
615.28	401.94
615.488	380.94
615.695	376.94
615.903	375.94
616.111	390.94
616.318	384.94
616.526	395.94
616.733	390.94
616.941	377.94
617.148	392.94
617.356	374.94
617.563	374.94
617.771	381.94
617.978	380.94
618.185	391.94
618.393	376.94
618.6	370.94
618.807	378.94
619.015	376.94
619.222	379.94
619.429	373.94
619.637	344.94
619.844	365.94
620.051	358.94
620.258	351.94
620.466	368.94
620.673	349.94
620.88	345.94
621.087	357.94
621.294	354.94
621.501	332.94
621.708	345.94
621.915	357.94
622.122	359.94
622.329	349.94
622.536	366.94
622.743	353.94
622.95	345.94
623.157	346.94
623.364	350.94
623.571	333.94
623.778	369.94
623.985	355.94
624.192	363.94
624.399	344.94
624.606	345.94
624.812	351.94
625.019	329.94
625.226	328.94
625.433	335.94
625.639	334.94
625.846	330.94
626.053	312.94
626.259	324.94
626.466	311.94
626.673	338.94
626.879	311.94
627.086	318.94
627.293	341.94
627.499	343.94
627.706	332.94
627.912	328.94
628.119	328.94
628.325	323.94
628.532	317.94
628.738	323.94
628.945	315.94
629.151	311.94
629.357	319.94
629.564	290.94
629.77	286.94
629.976	300.94
630.183	297.94
630.389	309.94
630.595	312.94
630.802	307.94
631.008	311.94
631.214	313.94
631.42	301.94
631.627	318.94
631.833	296.94
632.039	289.94
632.245	298.94
632.451	296.94
632.657	306.94
632.863	292.94
633.069	314.94
633.275	310.94
633.481	292.94
633.688	309.94
633.893	317.94
634.099	304.94
634.305	306.94
634.511	289.94
634.717	300.94
634.923	308.94
635.129	340.94
635.335	372.94
635.541	336.94
635.747	317.94
635.952	314.94
636.158	306.94
636.364	293.94
636.57	312.94
636.775	295.94
636.981	298.94
637.187	307.94
637.392	303.94
637.598	292.94
637.804	290.94
638.009	298.94
638.215	300.94
638.421	295.94
638.626	293.94
638.832	301.94
639.037	303.94
639.243	315.94
639.448	296.94
639.654	299.94
639.859	303.94
640.065	299.94
640.27	316.94
640.475	320.94
640.681	317.94
640.886	325.94
641.091	317.94
641.297	315.94
641.502	320.94
641.707	322.94
641.913	309.94
642.118	323.94
642.323	329.94
642.528	339.94
642.733	330.94
642.939	322.94
643.144	335.94
643.349	340.94
643.554	362.94
643.759	371.94
643.964	384.94
644.169	420.94
644.374	436.94
644.579	450.94
644.784	473.94
644.989	537.94
645.194	579.94
645.399	689.94
645.604	718.94
645.809	558.94
646.014	480.94
646.219	416.94
646.423	366.94
646.628	357.94
646.833	336.94
647.038	309.94
647.243	312.94
647.447	310.94
647.652	306.94
647.857	289.94
648.062	302.94
648.266	285.94
648.471	294.94
648.676	272.94
648.88	282.94
649.085	292.94
649.289	266.94
649.494	262.94
649.698	282.94
649.903	277.94
650.107	251.94
650.312	266.94
650.516	239.94
650.721	235.94
650.925	246.94
651.13	232.94
651.334	231.94
651.539	224.94
651.743	234.94
651.947	235.94
652.152	232.94
652.356	240.94
652.56	246.94
652.764	239.94
652.969	227.94
653.173	229.94
653.377	217.94
653.581	207.94
653.785	220.94
653.99	212.94
654.194	207.94
654.398	203.94
654.602	207.94
654.806	196.94
655.01	195.94
655.214	207.94
655.418	212.94
655.622	216.94
655.826	218.94
656.03	212.94
656.234	220.94
656.438	243.94
656.642	228.94
656.846	225.94
657.049	203.94
657.253	212.94
657.457	181.94
657.661	185.94
657.865	179.94
658.068	149.94
658.272	160.94
658.476	157.94
658.68	158.94
658.883	156.94
659.087	132.94
659.291	134.94
659.494	125.94
659.698	130.94
659.901	124.94
660.105	126.94
660.309	120.94
660.512	104.94
660.716	110.94
660.919	108.94
661.123	130.94
661.326	132.94
661.53	109.94
661.733	98.94
661.936	105.94
662.14	101.94
662.343	92.94
662.546	100.94
662.75	98.94
662.953	101.94
663.156	94.94
663.36	74.94
663.563	84.94
663.766	83.94
663.969	85.94
664.173	93.94
664.376	94.94
664.579	79.94
664.782	82.94
664.985	95.94
665.188	92.94
665.391	94.94
665.594	85.94
665.797	83.94
666	79.94
666.203	86.94
666.406	79.94
666.609	93.94
666.812	77.94
667.015	90.94
667.218	98.94
667.421	100.94
667.624	79.94
667.827	68.94
668.03	71.94
668.232	59.94
668.435	89.94
668.638	91.94
668.841	85.94
669.043	84.94
669.246	82.94
669.449	86.94
669.651	89.94
669.854	88.94
670.057	91.94
670.259	85.94
670.462	80.94
670.665	84.94
670.867	101.94
671.07	75.94
671.272	82.94
671.475	91.94
671.677	78.94
671.88	92.94
672.082	102.94
672.284	87.94
672.487	82.94
672.689	95.94
672.892	84.94
