Data from SnStandardFlinnAPT0064_QswitchEnergy10_LIBS07252019.E.O._I.C._HRD10591_15-27-31-974.txt Node
Date: Thu Jul 25 15:27:31 EDT 2019
User: cochatt
Spectrometer: HR+D1059
Trigger mode: 1
Integration Time (sec): 1.000000E-1
Scans to average: 1
Electric dark correction enabled: true
Nonlinearity correction enabled: false
Boxcar width: 0
XAxis mode: Wavelengths
Number of Pixels in Spectrum: 2048
>>>>>Begin Spectral Data<<<<<
223.165	-14.31
223.4	-14.31
223.635	-14.31
223.869	-27.31
224.104	-27.31
224.338	-8.31
224.573	-15.31
224.808	-9.31
225.042	-10.31
225.277	4.69
225.511	4.69
225.746	0.69
225.98	11.69
226.215	7.69
226.449	6.69
226.683	18.69
226.918	27.69
227.152	29.69
227.387	38.69
227.621	41.69
227.856	26.69
228.09	40.69
228.324	63.69
228.559	67.69
228.793	59.69
229.027	74.69
229.262	61.69
229.496	61.69
229.73	76.69
229.964	74.69
230.199	60.69
230.433	65.69
230.667	88.69
230.901	82.69
231.136	88.69
231.37	88.69
231.604	77.69
231.838	110.69
232.072	99.69
232.306	120.69
232.541	82.69
232.775	88.69
233.009	87.69
233.243	77.69
233.477	88.69
233.711	97.69
233.945	108.69
234.179	96.69
234.413	73.69
234.647	83.69
234.881	85.69
235.115	86.69
235.349	94.69
235.583	114.69
235.817	123.69
236.051	126.69
236.285	95.69
236.519	56.69
236.753	73.69
236.987	84.69
237.221	82.69
237.455	65.69
237.689	84.69
237.922	79.69
238.156	78.69
238.39	81.69
238.624	91.69
238.858	81.69
239.091	88.69
239.325	83.69
239.559	83.69
239.793	72.69
240.027	77.69
240.26	81.69
240.494	79.69
240.728	82.69
240.961	90.69
241.195	92.69
241.429	96.69
241.662	88.69
241.896	95.69
242.13	106.69
242.363	147.69
242.597	166.69
242.83	145.69
243.064	136.69
243.298	180.69
243.531	167.69
243.765	109.69
243.998	87.69
244.232	92.69
244.465	67.69
244.699	89.69
244.932	90.69
245.166	86.69
245.399	85.69
245.633	90.69
245.866	89.69
246.099	90.69
246.333	90.69
246.566	78.69
246.8	80.69
247.033	82.69
247.266	74.69
247.5	87.69
247.733	78.69
247.966	84.69
248.2	95.69
248.433	108.69
248.666	118.69
248.899	130.69
249.133	85.69
249.366	97.69
249.599	113.69
249.832	111.69
250.066	146.69
250.299	90.69
250.532	72.69
250.765	81.69
250.998	81.69
251.231	89.69
251.465	85.69
251.698	76.69
251.931	71.69
252.164	66.69
252.397	80.69
252.63	96.69
252.863	80.69
253.096	91.69
253.329	98.69
253.562	100.69
253.795	91.69
254.028	92.69
254.261	79.69
254.494	84.69
254.727	119.69
254.96	163.69
255.193	147.69
255.426	93.69
255.659	90.69
255.892	101.69
256.124	90.69
256.357	89.69
256.59	97.69
256.823	95.69
257.056	107.69
257.289	128.69
257.521	176.69
257.754	127.69
257.987	79.69
258.22	89.69
258.452	96.69
258.685	91.69
258.918	84.69
259.151	94.69
259.383	104.69
259.616	137.69
259.849	144.69
260.081	114.69
260.314	86.69
260.547	85.69
260.779	80.69
261.012	69.69
261.244	82.69
261.477	91.69
261.71	82.69
261.942	80.69
262.175	90.69
262.407	80.69
262.64	80.69
262.872	78.69
263.105	84.69
263.337	89.69
263.57	88.69
263.802	99.69
264.035	87.69
264.267	71.69
264.499	90.69
264.732	79.69
264.964	76.69
265.197	102.69
265.429	95.69
265.661	84.69
265.894	94.69
266.126	108.69
266.358	150.69
266.591	152.69
266.823	106.69
267.055	80.69
267.287	104.69
267.52	91.69
267.752	96.69
267.984	89.69
268.216	81.69
268.448	90.69
268.681	90.69
268.913	72.69
269.145	79.69
269.377	84.69
269.609	95.69
269.841	82.69
270.073	97.69
270.306	120.69
270.538	188.69
270.77	306.69
271.002	369.69
271.234	198.69
271.466	110.69
271.698	90.69
271.93	99.69
272.162	95.69
272.394	85.69
272.626	65.69
272.858	95.69
273.09	89.69
273.322	99.69
273.553	90.69
273.785	82.69
274.017	79.69
274.249	87.69
274.481	94.69
274.713	101.69
274.945	96.69
275.176	85.69
275.408	87.69
275.64	86.69
275.872	84.69
276.104	95.69
276.335	100.69
276.567	110.69
276.799	85.69
277.031	99.69
277.262	94.69
277.494	107.69
277.726	120.69
277.957	182.69
278.189	235.69
278.421	223.69
278.652	193.69
278.884	171.69
279.115	146.69
279.347	118.69
279.579	90.69
279.81	92.69
280.042	108.69
280.273	86.69
280.505	103.69
280.736	96.69
280.968	114.69
281.199	166.69
281.431	225.69
281.662	243.69
281.894	143.69
282.125	109.69
282.356	114.69
282.588	100.69
282.819	118.69
283.051	133.69
283.282	121.69
283.513	187.69
283.745	314.69
283.976	542.69
284.207	791.69
284.439	593.69
284.67	267.69
284.901	249.69
285.132	305.69
285.364	366.69
285.595	221.69
285.826	184.69
286.057	249.69
286.288	397.69
286.52	591.69
286.751	470.69
286.982	194.69
287.213	119.69
287.444	114.69
287.675	104.69
287.906	87.69
288.138	104.69
288.369	112.69
288.6	112.69
288.831	91.69
289.062	89.69
289.293	85.69
289.524	94.69
289.755	95.69
289.986	101.69
290.217	99.69
290.448	90.69
290.679	112.69
290.91	118.69
291.141	159.69
291.371	206.69
291.602	246.69
291.833	172.69
292.064	119.69
292.295	98.69
292.526	104.69
292.757	83.69
292.987	90.69
293.218	91.69
293.449	89.69
293.68	100.69
293.91	101.69
294.141	105.69
294.372	115.69
294.603	79.69
294.833	86.69
295.064	76.69
295.295	80.69
295.525	82.69
295.756	100.69
295.987	89.69
296.217	101.69
296.448	104.69
296.679	104.69
296.909	91.69
297.14	104.69
297.37	113.69
297.601	90.69
297.831	115.69
298.062	107.69
298.292	103.69
298.523	94.69
298.753	102.69
298.984	100.69
299.214	92.69
299.445	112.69
299.675	101.69
299.905	112.69
300.136	134.69
300.366	164.69
300.597	274.69
300.827	459.69
301.057	666.69
301.288	593.69
301.518	248.69
301.748	148.69
301.979	116.69
302.209	119.69
302.439	142.69
302.669	167.69
302.9	254.69
303.13	482.69
303.36	859.69
303.59	1154.69
303.82	824.69
304.051	297.69
304.281	155.69
304.511	115.69
304.741	112.69
304.971	106.69
305.201	118.69
305.431	99.69
305.661	92.69
305.891	113.69
306.121	100.69
306.352	108.69
306.582	106.69
306.812	100.69
307.042	119.69
307.272	104.69
307.502	102.69
307.731	108.69
307.961	111.69
308.191	100.69
308.421	111.69
308.651	100.69
308.881	93.69
309.111	86.69
309.341	102.69
309.571	103.69
309.8	107.69
310.03	103.69
310.26	107.69
310.49	103.69
310.72	102.69
310.949	103.69
311.179	99.69
311.409	104.69
311.639	101.69
311.868	122.69
312.098	105.69
312.328	118.69
312.557	118.69
312.787	115.69
313.017	118.69
313.246	119.69
313.476	138.69
313.706	121.69
313.935	152.69
314.165	178.69
314.394	205.69
314.624	183.69
314.853	126.69
315.083	115.69
315.312	121.69
315.542	129.69
315.771	129.69
316.001	135.69
316.23	144.69
316.46	138.69
316.689	170.69
316.919	258.69
317.148	465.69
317.377	881.69
317.607	1416.69
317.836	1320.69
318.065	489.69
318.295	206.69
318.524	152.69
318.753	140.69
318.983	130.69
319.212	126.69
319.441	110.69
319.67	108.69
319.9	100.69
320.129	117.69
320.358	128.69
320.587	119.69
320.816	117.69
321.046	136.69
321.275	124.69
321.504	124.69
321.733	145.69
321.962	138.69
322.191	151.69
322.42	140.69
322.649	124.69
322.878	123.69
323.108	122.69
323.337	122.69
323.566	119.69
323.795	120.69
324.024	135.69
324.253	147.69
324.482	174.69
324.71	215.69
324.939	270.69
325.168	226.69
325.397	195.69
325.626	234.69
325.855	460.69
326.084	891.69
326.313	1533.69
326.542	1486.69
326.77	613.69
326.999	248.69
327.228	194.69
327.457	220.69
327.686	191.69
327.914	146.69
328.143	134.69
328.372	133.69
328.6	131.69
328.829	112.69
329.058	118.69
329.287	109.69
329.515	131.69
329.744	108.69
329.972	114.69
330.201	115.69
330.43	133.69
330.658	121.69
330.887	118.69
331.115	101.69
331.344	121.69
331.572	107.69
331.801	115.69
332.03	110.69
332.258	116.69
332.486	180.69
332.715	275.69
332.943	468.69
333.172	746.69
333.4	634.69
333.629	245.69
333.857	151.69
334.085	123.69
334.314	126.69
334.542	112.69
334.771	117.69
334.999	121.69
335.227	120.69
335.455	128.69
335.684	127.69
335.912	121.69
336.14	124.69
336.369	106.69
336.597	103.69
336.825	105.69
337.053	112.69
337.281	105.69
337.51	108.69
337.738	119.69
337.966	104.69
338.194	109.69
338.422	107.69
338.65	117.69
338.878	130.69
339.106	113.69
339.334	117.69
339.562	107.69
339.79	104.69
340.018	87.69
340.246	103.69
340.474	116.69
340.702	118.69
340.93	112.69
341.158	111.69
341.386	118.69
341.614	135.69
341.842	99.69
342.07	104.69
342.298	121.69
342.526	88.69
342.754	115.69
342.981	104.69
343.209	93.69
343.437	97.69
343.665	101.69
343.893	114.69
344.12	111.69
344.348	116.69
344.576	101.69
344.804	110.69
345.031	114.69
345.259	109.69
345.487	113.69
345.714	112.69
345.942	111.69
346.17	111.69
346.397	106.69
346.625	98.69
346.853	110.69
347.08	112.69
347.308	99.69
347.535	110.69
347.763	102.69
347.99	115.69
348.218	102.69
348.445	103.69
348.673	128.69
348.9	102.69
349.128	127.69
349.355	114.69
349.583	117.69
349.81	107.69
350.037	98.69
350.265	103.69
350.492	104.69
350.72	117.69
350.947	122.69
351.174	107.69
351.402	116.69
351.629	112.69
351.856	102.69
352.083	110.69
352.311	114.69
352.538	126.69
352.765	110.69
352.992	101.69
353.22	109.69
353.447	106.69
353.674	96.69
353.901	119.69
354.128	110.69
354.355	81.69
354.583	104.69
354.81	108.69
355.037	93.69
355.264	107.69
355.491	97.69
355.718	97.69
355.945	107.69
356.172	107.69
356.399	98.69
356.626	102.69
356.853	97.69
357.08	113.69
357.307	118.69
357.534	116.69
357.761	106.69
357.988	115.69
358.215	101.69
358.441	113.69
358.668	98.69
358.895	102.69
359.122	123.69
359.349	114.69
359.576	113.69
359.802	107.69
360.029	106.69
360.256	115.69
360.483	117.69
360.709	126.69
360.936	100.69
361.163	110.69
361.39	127.69
361.616	111.69
361.843	114.69
362.07	111.69
362.296	106.69
362.523	89.69
362.749	111.69
362.976	97.69
363.203	123.69
363.429	98.69
363.656	99.69
363.882	104.69
364.109	103.69
364.335	109.69
364.562	104.69
364.788	104.69
365.015	118.69
365.241	135.69
365.468	176.69
365.694	228.69
365.92	191.69
366.147	111.69
366.373	101.69
366.599	114.69
366.826	104.69
367.052	109.69
367.278	92.69
367.505	92.69
367.731	102.69
367.957	101.69
368.184	106.69
368.41	125.69
368.636	110.69
368.862	108.69
369.089	114.69
369.315	92.69
369.541	110.69
369.767	113.69
369.993	103.69
370.219	104.69
370.445	108.69
370.672	111.69
370.898	112.69
371.124	112.69
371.35	122.69
371.576	106.69
371.802	105.69
372.028	105.69
372.254	105.69
372.48	114.69
372.706	106.69
372.932	115.69
373.158	116.69
373.384	101.69
373.61	129.69
373.835	100.69
374.061	103.69
374.287	115.69
374.513	112.69
374.739	111.69
374.965	100.69
375.191	116.69
375.416	110.69
375.642	115.69
375.868	114.69
376.094	110.69
376.319	94.69
376.545	99.69
376.771	112.69
376.997	106.69
377.222	116.69
377.448	108.69
377.674	99.69
377.899	103.69
378.125	111.69
378.35	130.69
378.576	119.69
378.802	125.69
379.027	126.69
379.253	122.69
379.478	176.69
379.704	298.69
379.929	755.69
380.155	1548.69
380.38	1542.69
380.606	489.69
380.831	186.69
381.057	145.69
381.282	128.69
381.507	120.69
381.733	123.69
381.958	110.69
382.184	106.69
382.409	112.69
382.634	102.69
382.86	110.69
383.085	114.69
383.31	97.69
383.535	100.69
383.761	94.69
383.986	92.69
384.211	103.69
384.436	120.69
384.662	94.69
384.887	104.69
385.112	104.69
385.337	100.69
385.562	107.69
385.787	97.69
386.013	114.69
386.238	92.69
386.463	103.69
386.688	101.69
386.913	108.69
387.138	100.69
387.363	97.69
387.588	98.69
387.813	102.69
388.038	105.69
388.263	106.69
388.488	106.69
388.713	107.69
388.938	96.69
389.163	103.69
389.387	101.69
389.612	87.69
389.837	94.69
390.062	95.69
390.287	95.69
390.512	91.69
390.736	106.69
390.961	94.69
391.186	99.69
391.411	82.69
391.636	91.69
391.86	90.69
392.085	97.69
392.31	99.69
392.534	83.69
392.759	111.69
392.984	99.69
393.208	106.69
393.433	127.69
393.658	118.69
393.882	92.69
394.107	92.69
394.331	91.69
394.556	90.69
394.78	102.69
395.005	103.69
395.229	94.69
395.454	90.69
395.678	102.69
395.903	86.69
396.127	111.69
396.352	116.69
396.576	97.69
396.801	110.69
397.025	111.69
397.249	120.69
397.474	101.69
397.698	122.69
397.922	97.69
398.147	98.69
398.371	95.69
398.595	89.69
398.82	95.69
399.044	104.69
399.268	91.69
399.492	106.69
399.717	110.69
399.941	111.69
400.165	110.69
400.389	112.69
400.613	106.69
400.837	102.69
401.062	116.69
401.286	89.69
401.51	86.69
401.734	106.69
401.958	107.69
402.182	91.69
402.406	100.69
402.63	79.69
402.854	79.69
403.078	94.69
403.302	95.69
403.526	97.69
403.75	89.69
403.974	92.69
404.198	89.69
404.422	90.69
404.645	98.69
404.869	89.69
405.093	107.69
405.317	98.69
405.541	97.69
405.765	128.69
405.988	134.69
406.212	108.69
406.436	91.69
406.66	100.69
406.883	87.69
407.107	92.69
407.331	93.69
407.555	95.69
407.778	106.69
408.002	91.69
408.226	88.69
408.449	96.69
408.673	87.69
408.896	105.69
409.12	95.69
409.344	103.69
409.567	97.69
409.791	105.69
410.014	101.69
410.238	92.69
410.461	88.69
410.685	102.69
410.908	99.69
411.132	90.69
411.355	107.69
411.578	88.69
411.802	85.69
412.025	103.69
412.249	100.69
412.472	96.69
412.695	94.69
412.919	89.69
413.142	86.69
413.365	88.69
413.589	99.69
413.812	102.69
414.035	94.69
414.258	95.69
414.482	85.69
414.705	113.69
414.928	112.69
415.151	106.69
415.374	103.69
415.597	104.69
415.821	100.69
416.044	90.69
416.267	85.69
416.49	103.69
416.713	101.69
416.936	104.69
417.159	91.69
417.382	94.69
417.605	104.69
417.828	97.69
418.051	95.69
418.274	105.69
418.497	107.69
418.72	99.69
418.943	104.69
419.166	101.69
419.389	100.69
419.611	103.69
419.834	98.69
420.057	103.69
420.28	102.69
420.503	97.69
420.726	100.69
420.948	97.69
421.171	105.69
421.394	80.69
421.617	83.69
421.839	108.69
422.062	104.69
422.285	97.69
422.507	111.69
422.73	107.69
422.953	126.69
423.175	109.69
423.398	98.69
423.621	100.69
423.843	97.69
424.066	80.69
424.288	93.69
424.511	90.69
424.733	91.69
424.956	111.69
425.178	96.69
425.401	91.69
425.623	108.69
425.846	87.69
426.068	102.69
426.291	91.69
426.513	91.69
426.735	84.69
426.958	89.69
427.18	96.69
427.402	100.69
427.625	94.69
427.847	94.69
428.069	105.69
428.292	98.69
428.514	96.69
428.736	95.69
428.958	104.69
429.181	97.69
429.403	84.69
429.625	97.69
429.847	99.69
430.069	104.69
430.292	103.69
430.514	102.69
430.736	95.69
430.958	106.69
431.18	95.69
431.402	97.69
431.624	94.69
431.846	99.69
432.068	99.69
432.29	102.69
432.512	102.69
432.734	79.69
432.956	76.69
433.178	103.69
433.4	97.69
433.622	102.69
433.844	95.69
434.066	99.69
434.287	89.69
434.509	102.69
434.731	76.69
434.953	80.69
435.175	90.69
435.397	92.69
435.618	87.69
435.84	89.69
436.062	93.69
436.284	91.69
436.505	98.69
436.727	92.69
436.949	89.69
437.17	93.69
437.392	91.69
437.614	86.69
437.835	84.69
438.057	94.69
438.278	100.69
438.5	95.69
438.721	90.69
438.943	109.69
439.165	110.69
439.386	105.69
439.608	95.69
439.829	96.69
440.05	107.69
440.272	121.69
440.493	104.69
440.715	92.69
440.936	87.69
441.158	88.69
441.379	99.69
441.6	99.69
441.822	93.69
442.043	114.69
442.264	126.69
442.486	104.69
442.707	93.69
442.928	98.69
443.149	103.69
443.371	106.69
443.592	101.69
443.813	111.69
444.034	94.69
444.255	101.69
444.476	85.69
444.698	102.69
444.919	88.69
445.14	176.69
445.361	140.69
445.582	91.69
445.803	99.69
446.024	107.69
446.245	92.69
446.466	99.69
446.687	102.69
446.908	103.69
447.129	96.69
447.35	101.69
447.571	94.69
447.792	90.69
448.013	103.69
448.234	80.69
448.455	91.69
448.675	95.69
448.896	102.69
449.117	114.69
449.338	124.69
449.559	141.69
449.779	119.69
450	95.69
450.221	112.69
450.442	105.69
450.662	97.69
450.883	102.69
451.104	116.69
451.324	99.69
451.545	99.69
451.766	115.69
451.986	136.69
452.207	183.69
452.428	494.69
452.648	1223.69
452.869	702.69
453.089	186.69
453.31	120.69
453.53	118.69
453.751	125.69
453.971	158.69
454.192	147.69
454.412	107.69
454.633	99.69
454.853	84.69
455.073	94.69
455.294	98.69
455.514	112.69
455.734	77.69
455.955	106.69
456.175	92.69
456.395	108.69
456.616	98.69
456.836	118.69
457.056	96.69
457.276	99.69
457.497	111.69
457.717	122.69
457.937	92.69
458.157	96.69
458.377	79.69
458.598	91.69
458.818	93.69
459.038	98.69
459.258	91.69
459.478	85.69
459.698	92.69
459.918	87.69
460.138	96.69
460.358	89.69
460.578	101.69
460.798	81.69
461.018	99.69
461.238	81.69
461.458	102.69
461.678	86.69
461.898	105.69
462.118	93.69
462.338	106.69
462.558	95.69
462.777	100.69
462.997	95.69
463.217	92.69
463.437	126.69
463.657	160.69
463.876	183.69
464.096	107.69
464.316	92.69
464.536	101.69
464.755	105.69
464.975	102.69
465.195	79.69
465.414	87.69
465.634	82.69
465.854	89.69
466.073	84.69
466.293	92.69
466.512	93.69
466.732	85.69
466.951	98.69
467.171	143.69
467.391	150.69
467.61	106.69
467.829	99.69
468.049	77.69
468.268	92.69
468.488	89.69
468.707	94.69
468.927	92.69
469.146	80.69
469.365	108.69
469.585	115.69
469.804	106.69
470.023	105.69
470.243	116.69
470.462	92.69
470.681	106.69
470.901	116.69
471.12	174.69
471.339	199.69
471.558	144.69
471.777	120.69
471.997	110.69
472.216	98.69
472.435	90.69
472.654	100.69
472.873	80.69
473.092	103.69
473.311	83.69
473.53	96.69
473.749	101.69
473.968	94.69
474.187	97.69
474.406	85.69
474.625	102.69
474.844	99.69
475.063	90.69
475.282	95.69
475.501	110.69
475.72	86.69
475.939	94.69
476.158	112.69
476.377	130.69
476.596	112.69
476.814	98.69
477.033	99.69
477.252	95.69
477.471	95.69
477.69	110.69
477.908	88.69
478.127	111.69
478.346	110.69
478.564	99.69
478.783	94.69
479.002	80.69
479.22	98.69
479.439	101.69
479.658	84.69
479.876	87.69
480.095	92.69
480.313	91.69
480.532	88.69
480.751	99.69
480.969	93.69
481.188	87.69
481.406	102.69
481.624	102.69
481.843	106.69
482.061	132.69
482.28	112.69
482.498	94.69
482.717	79.69
482.935	75.69
483.153	108.69
483.372	100.69
483.59	111.69
483.808	112.69
484.027	107.69
484.245	123.69
484.463	191.69
484.681	232.69
484.9	148.69
485.118	108.69
485.336	100.69
485.554	107.69
485.772	125.69
485.99	166.69
486.209	262.69
486.427	170.69
486.645	118.69
486.863	107.69
487.081	98.69
487.299	97.69
487.517	110.69
487.735	90.69
487.953	98.69
488.171	109.69
488.389	96.69
488.607	110.69
488.825	90.69
489.043	93.69
489.261	102.69
489.479	112.69
489.696	101.69
489.914	106.69
490.132	87.69
490.35	103.69
490.568	105.69
490.786	99.69
491.003	95.69
491.221	113.69
491.439	108.69
491.657	118.69
491.874	94.69
492.092	101.69
492.31	95.69
492.527	91.69
492.745	91.69
492.963	104.69
493.18	118.69
493.398	106.69
493.615	106.69
493.833	108.69
494.05	105.69
494.268	105.69
494.485	95.69
494.703	107.69
494.92	110.69
495.138	104.69
495.355	115.69
495.573	108.69
495.79	92.69
496.008	95.69
496.225	96.69
496.442	99.69
496.66	128.69
496.877	160.69
497.094	160.69
497.312	112.69
497.529	103.69
497.746	105.69
497.963	100.69
498.181	101.69
498.398	97.69
498.615	82.69
498.832	90.69
499.049	105.69
499.267	140.69
499.484	166.69
499.701	100.69
499.918	115.69
500.135	95.69
500.352	103.69
500.569	93.69
500.786	99.69
501.003	93.69
501.22	86.69
501.437	104.69
501.654	102.69
501.871	100.69
502.088	97.69
502.305	87.69
502.522	112.69
502.739	98.69
502.956	97.69
503.172	96.69
503.389	96.69
503.606	105.69
503.823	108.69
504.04	94.69
504.256	99.69
504.473	115.69
504.69	95.69
504.907	107.69
505.123	119.69
505.34	100.69
505.557	99.69
505.773	113.69
505.99	102.69
506.207	93.69
506.423	101.69
506.64	104.69
506.856	99.69
507.073	112.69
507.289	94.69
507.506	92.69
507.722	100.69
507.939	88.69
508.155	92.69
508.372	100.69
508.588	99.69
508.805	97.69
509.021	95.69
509.238	104.69
509.454	121.69
509.67	162.69
509.887	110.69
510.103	95.69
510.319	95.69
510.536	104.69
510.752	124.69
510.968	105.69
511.184	104.69
511.401	94.69
511.617	94.69
511.833	88.69
512.049	88.69
512.265	100.69
512.481	90.69
512.698	93.69
512.914	92.69
513.13	112.69
513.346	100.69
513.562	94.69
513.778	94.69
513.994	93.69
514.21	115.69
514.426	138.69
514.642	178.69
514.858	120.69
515.074	107.69
515.29	90.69
515.506	90.69
515.721	102.69
515.937	101.69
516.153	95.69
516.369	101.69
516.585	102.69
516.801	90.69
517.016	99.69
517.232	95.69
517.448	103.69
517.664	108.69
517.879	111.69
518.095	110.69
518.311	107.69
518.527	108.69
518.742	99.69
518.958	124.69
519.173	152.69
519.389	123.69
519.605	94.69
519.82	95.69
520.036	108.69
520.251	97.69
520.467	96.69
520.682	88.69
520.898	95.69
521.113	89.69
521.329	92.69
521.544	92.69
521.76	98.69
521.975	100.69
522.19	111.69
522.406	104.69
522.621	114.69
522.836	83.69
523.052	99.69
523.267	105.69
523.482	86.69
523.698	96.69
523.913	98.69
524.128	98.69
524.343	95.69
524.559	103.69
524.774	110.69
524.989	96.69
525.204	95.69
525.419	89.69
525.634	87.69
525.849	88.69
526.064	110.69
526.28	106.69
526.495	101.69
526.71	111.69
526.925	90.69
527.14	96.69
527.355	75.69
527.57	100.69
527.785	96.69
527.999	100.69
528.214	91.69
528.429	99.69
528.644	92.69
528.859	84.69
529.074	91.69
529.289	95.69
529.503	114.69
529.718	96.69
529.933	97.69
530.148	104.69
530.363	102.69
530.577	100.69
530.792	93.69
531.007	91.69
531.221	92.69
531.436	107.69
531.651	95.69
531.865	83.69
532.08	102.69
532.295	100.69
532.509	123.69
532.724	115.69
532.938	106.69
533.153	100.69
533.367	98.69
533.582	86.69
533.796	88.69
534.011	97.69
534.225	92.69
534.44	99.69
534.654	103.69
534.868	92.69
535.083	105.69
535.297	108.69
535.511	103.69
535.726	89.69
535.94	92.69
536.154	82.69
536.369	90.69
536.583	97.69
536.797	110.69
537.011	114.69
537.225	98.69
537.44	106.69
537.654	87.69
537.868	89.69
538.082	104.69
538.296	91.69
538.51	92.69
538.724	108.69
538.938	84.69
539.153	92.69
539.367	100.69
539.581	107.69
539.795	90.69
540.009	94.69
540.222	100.69
540.436	99.69
540.65	101.69
540.864	102.69
541.078	116.69
541.292	124.69
541.506	211.69
541.72	200.69
541.934	115.69
542.147	114.69
542.361	101.69
542.575	103.69
542.789	75.69
543.002	92.69
543.216	97.69
543.43	95.69
543.644	114.69
543.857	100.69
544.071	100.69
544.285	89.69
544.498	100.69
544.712	102.69
544.925	88.69
545.139	94.69
545.352	111.69
545.566	124.69
545.779	93.69
545.993	107.69
546.206	100.69
546.42	102.69
546.633	105.69
546.847	106.69
547.06	108.69
547.274	96.69
547.487	115.69
547.7	86.69
547.914	116.69
548.127	103.69
548.34	106.69
548.554	88.69
548.767	97.69
548.98	92.69
549.193	109.69
549.407	96.69
549.62	86.69
549.833	98.69
550.046	98.69
550.259	102.69
550.473	96.69
550.686	92.69
550.899	92.69
551.112	112.69
551.325	101.69
551.538	80.69
551.751	97.69
551.964	93.69
552.177	94.69
552.39	95.69
552.603	115.69
552.816	119.69
553.029	94.69
553.242	96.69
553.455	89.69
553.667	99.69
553.88	104.69
554.093	87.69
554.306	102.69
554.519	103.69
554.732	106.69
554.944	107.69
555.157	87.69
555.37	83.69
555.583	91.69
555.795	102.69
556.008	116.69
556.221	145.69
556.433	124.69
556.646	97.69
556.859	100.69
557.071	115.69
557.284	123.69
557.496	106.69
557.709	110.69
557.921	107.69
558.134	91.69
558.346	98.69
558.559	100.69
558.771	108.69
558.984	97.69
559.196	102.69
559.409	100.69
559.621	104.69
559.833	85.69
560.046	102.69
560.258	96.69
560.47	98.69
560.683	103.69
560.895	101.69
561.107	103.69
561.32	104.69
561.532	87.69
561.744	97.69
561.956	86.69
562.168	91.69
562.381	99.69
562.593	99.69
562.805	138.69
563.017	159.69
563.229	235.69
563.441	522.69
563.653	192.69
563.865	110.69
564.077	98.69
564.289	91.69
564.501	104.69
564.713	104.69
564.925	107.69
565.137	96.69
565.349	105.69
565.561	96.69
565.773	103.69
565.985	96.69
566.197	88.69
566.408	95.69
566.62	101.69
566.832	110.69
567.044	92.69
567.255	102.69
567.467	94.69
567.679	111.69
567.891	111.69
568.102	169.69
568.314	230.69
568.526	136.69
568.737	116.69
568.949	98.69
569.161	100.69
569.372	95.69
569.584	93.69
569.795	89.69
570.007	94.69
570.218	123.69
570.43	168.69
570.641	97.69
570.853	99.69
571.064	97.69
571.276	92.69
571.487	91.69
571.698	100.69
571.91	123.69
572.121	98.69
572.333	90.69
572.544	103.69
572.755	148.69
572.966	205.69
573.178	141.69
573.389	104.69
573.6	89.69
573.811	77.69
574.023	89.69
574.234	106.69
574.445	101.69
574.656	95.69
574.867	91.69
575.078	104.69
575.289	101.69
575.501	88.69
575.712	98.69
575.923	113.69
576.134	81.69
576.345	97.69
576.556	76.69
576.767	93.69
576.978	104.69
577.188	90.69
577.399	83.69
577.61	74.69
577.821	87.69
578.032	94.69
578.243	105.69
578.454	81.69
578.665	105.69
578.875	90.69
579.086	92.69
579.297	100.69
579.508	85.69
579.718	93.69
579.929	80.69
580.14	98.69
580.35	88.69
580.561	92.69
580.772	83.69
580.982	91.69
581.193	86.69
581.403	91.69
581.614	84.69
581.825	77.69
582.035	105.69
582.246	82.69
582.456	87.69
582.667	103.69
582.877	113.69
583.087	130.69
583.298	96.69
583.508	94.69
583.719	100.69
583.929	107.69
584.139	87.69
584.35	90.69
584.56	94.69
584.77	101.69
584.981	86.69
585.191	97.69
585.401	89.69
585.611	92.69
585.821	95.69
586.032	103.69
586.242	90.69
586.452	89.69
586.662	92.69
586.872	89.69
587.082	84.69
587.292	89.69
587.502	96.69
587.713	88.69
587.923	93.69
588.133	84.69
588.343	74.69
588.553	90.69
588.762	101.69
588.972	94.69
589.182	110.69
589.392	95.69
589.602	95.69
589.812	97.69
590.022	89.69
590.232	97.69
590.441	82.69
590.651	85.69
590.861	88.69
591.071	79.69
591.281	103.69
591.49	100.69
591.7	107.69
591.91	93.69
592.119	96.69
592.329	96.69
592.539	90.69
592.748	99.69
592.958	71.69
593.167	81.69
593.377	94.69
593.587	87.69
593.796	87.69
594.006	97.69
594.215	95.69
594.424	85.69
594.634	90.69
594.843	98.69
595.053	100.69
595.262	89.69
595.472	86.69
595.681	90.69
595.89	100.69
596.1	86.69
596.309	78.69
596.518	91.69
596.727	84.69
596.937	96.69
597.146	84.69
597.355	99.69
597.564	88.69
597.774	86.69
597.983	84.69
598.192	82.69
598.401	90.69
598.61	83.69
598.819	96.69
599.028	88.69
599.237	88.69
599.446	94.69
599.655	95.69
599.864	84.69
600.073	80.69
600.282	95.69
600.491	77.69
600.7	75.69
600.909	82.69
601.118	82.69
601.327	89.69
601.536	82.69
601.745	100.69
601.953	116.69
602.162	155.69
602.371	116.69
602.58	85.69
602.789	84.69
602.997	98.69
603.206	98.69
603.415	89.69
603.623	95.69
603.832	95.69
604.041	103.69
604.249	100.69
604.458	87.69
604.666	98.69
604.875	107.69
605.084	99.69
605.292	98.69
605.501	90.69
605.709	88.69
605.918	99.69
606.126	96.69
606.334	105.69
606.543	95.69
606.751	130.69
606.96	171.69
607.168	162.69
607.376	120.69
607.585	91.69
607.793	110.69
608.001	99.69
608.21	100.69
608.418	86.69
608.626	74.69
608.834	89.69
609.043	90.69
609.251	98.69
609.459	91.69
609.667	98.69
609.875	85.69
610.083	94.69
610.291	93.69
610.499	92.69
610.707	76.69
610.916	87.69
611.124	86.69
611.332	74.69
611.54	94.69
611.748	85.69
611.955	90.69
612.163	94.69
612.371	106.69
612.579	84.69
612.787	80.69
612.995	88.69
613.203	99.69
613.411	89.69
613.618	83.69
613.826	90.69
614.034	89.69
614.242	100.69
614.449	92.69
614.657	99.69
614.865	100.69
615.072	91.69
615.28	114.69
615.488	107.69
615.695	101.69
615.903	83.69
616.111	99.69
616.318	94.69
616.526	93.69
616.733	97.69
616.941	83.69
617.148	96.69
617.356	90.69
617.563	91.69
617.771	90.69
617.978	91.69
618.185	109.69
618.393	94.69
618.6	97.69
618.807	90.69
619.015	99.69
619.222	83.69
619.429	97.69
619.637	74.69
619.844	87.69
620.051	94.69
620.258	84.69
620.466	103.69
620.673	82.69
620.88	86.69
621.087	90.69
621.294	88.69
621.501	95.69
621.708	86.69
621.915	87.69
622.122	82.69
622.329	95.69
622.536	87.69
622.743	90.69
622.95	88.69
623.157	96.69
623.364	89.69
623.571	90.69
623.778	78.69
623.985	96.69
624.192	102.69
624.399	97.69
624.606	104.69
624.812	93.69
625.019	90.69
625.226	83.69
625.433	102.69
625.639	76.69
625.846	86.69
626.053	81.69
626.259	80.69
626.466	85.69
626.673	91.69
626.879	85.69
627.086	99.69
627.293	97.69
627.499	100.69
627.706	78.69
627.912	77.69
628.119	96.69
628.325	83.69
628.532	95.69
628.738	102.69
628.945	87.69
629.151	89.69
629.357	85.69
629.564	80.69
629.77	100.69
629.976	97.69
630.183	99.69
630.389	91.69
630.595	83.69
630.802	92.69
631.008	111.69
631.214	79.69
631.42	85.69
631.627	87.69
631.833	104.69
632.039	87.69
632.245	87.69
632.451	97.69
632.657	81.69
632.863	83.69
633.069	83.69
633.275	88.69
633.481	98.69
633.688	91.69
633.893	87.69
634.099	84.69
634.305	102.69
634.511	91.69
634.717	90.69
634.923	99.69
635.129	119.69
635.335	120.69
635.541	106.69
635.747	96.69
635.952	87.69
636.158	91.69
636.364	88.69
636.57	97.69
636.775	97.69
636.981	83.69
637.187	78.69
637.392	77.69
637.598	84.69
637.804	100.69
638.009	91.69
638.215	94.69
638.421	92.69
638.626	83.69
638.832	89.69
639.037	81.69
639.243	87.69
639.448	92.69
639.654	76.69
639.859	83.69
640.065	72.69
640.27	90.69
640.475	95.69
640.681	89.69
640.886	86.69
641.091	101.69
641.297	86.69
641.502	74.69
641.707	103.69
641.913	100.69
642.118	78.69
642.323	99.69
642.528	76.69
642.733	83.69
642.939	79.69
643.144	70.69
643.349	92.69
643.554	91.69
643.759	79.69
643.964	86.69
644.169	83.69
644.374	81.69
644.579	94.69
644.784	90.69
644.989	85.69
645.194	100.69
645.399	81.69
645.604	96.69
645.809	96.69
646.014	80.69
646.219	77.69
646.423	76.69
646.628	94.69
646.833	97.69
647.038	95.69
647.243	88.69
647.447	77.69
647.652	84.69
647.857	84.69
648.062	95.69
648.266	87.69
648.471	91.69
648.676	89.69
648.88	84.69
649.085	85.69
649.289	98.69
649.494	93.69
649.698	97.69
649.903	76.69
650.107	97.69
650.312	80.69
650.516	86.69
650.721	90.69
650.925	99.69
651.13	90.69
651.334	84.69
651.539	84.69
651.743	91.69
651.947	91.69
652.152	98.69
652.356	99.69
652.56	88.69
652.764	110.69
652.969	98.69
653.173	98.69
653.377	86.69
653.581	80.69
653.785	94.69
653.99	83.69
654.194	82.69
654.398	82.69
654.602	85.69
654.806	93.69
655.01	90.69
655.214	69.69
655.418	85.69
655.622	81.69
655.826	83.69
656.03	90.69
656.234	81.69
656.438	81.69
656.642	84.69
656.846	88.69
657.049	77.69
657.253	75.69
657.457	94.69
657.661	77.69
657.865	97.69
658.068	96.69
658.272	81.69
658.476	74.69
658.68	90.69
658.883	88.69
659.087	89.69
659.291	70.69
659.494	92.69
659.698	100.69
659.901	87.69
660.105	84.69
660.309	80.69
660.512	89.69
660.716	92.69
660.919	78.69
661.123	89.69
661.326	91.69
661.53	84.69
661.733	95.69
661.936	101.69
662.14	91.69
662.343	88.69
662.546	82.69
662.75	85.69
662.953	84.69
663.156	84.69
663.36	86.69
663.563	80.69
663.766	86.69
663.969	74.69
664.173	81.69
664.376	88.69
664.579	68.69
664.782	86.69
664.985	98.69
665.188	71.69
665.391	74.69
665.594	80.69
665.797	90.69
666	54.69
666.203	83.69
666.406	87.69
666.609	80.69
666.812	89.69
667.015	89.69
667.218	69.69
667.421	84.69
667.624	81.69
667.827	88.69
668.03	88.69
668.232	102.69
668.435	91.69
668.638	88.69
668.841	78.69
669.043	93.69
669.246	76.69
669.449	84.69
669.651	67.69
669.854	85.69
670.057	79.69
670.259	74.69
670.462	84.69
670.665	83.69
670.867	90.69
671.07	92.69
671.272	97.69
671.475	89.69
671.677	90.69
671.88	95.69
672.082	81.69
672.284	76.69
672.487	82.69
672.689	77.69
672.892	95.69
