Data from SnStandardFlinnAPT0064_LampEnergy5.5_LIBS07252019.E.O._I.C._HRD10591_15-16-12-491.txt Node
Date: Thu Jul 25 15:16:12 EDT 2019
User: cochatt
Spectrometer: HR+D1059
Trigger mode: 1
Integration Time (sec): 1.000000E-1
Scans to average: 1
Electric dark correction enabled: true
Nonlinearity correction enabled: false
Boxcar width: 0
XAxis mode: Wavelengths
Number of Pixels in Spectrum: 2048
>>>>>Begin Spectral Data<<<<<
223.165	-22.44
223.4	-22.44
223.635	-22.44
223.869	-17.44
224.104	-26.44
224.338	4.56
224.573	-9.44
224.808	-19.44
225.042	-20.44
225.277	-7.44
225.511	-9.44
225.746	21.56
225.98	7.56
226.215	10.56
226.449	12.56
226.683	24.56
226.918	28.56
227.152	22.56
227.387	49.56
227.621	37.56
227.856	56.56
228.09	58.56
228.324	58.56
228.559	46.56
228.793	87.56
229.027	162.56
229.262	159.56
229.496	164.56
229.73	150.56
229.964	180.56
230.199	167.56
230.433	160.56
230.667	163.56
230.901	176.56
231.136	161.56
231.37	185.56
231.604	209.56
231.838	226.56
232.072	223.56
232.306	254.56
232.541	232.56
232.775	215.56
233.009	224.56
233.243	213.56
233.477	200.56
233.711	264.56
233.945	255.56
234.179	242.56
234.413	221.56
234.647	224.56
234.881	222.56
235.115	268.56
235.349	285.56
235.583	362.56
235.817	423.56
236.051	426.56
236.285	279.56
236.519	240.56
236.753	262.56
236.987	229.56
237.221	262.56
237.455	239.56
237.689	230.56
237.922	239.56
238.156	235.56
238.39	214.56
238.624	225.56
238.858	232.56
239.091	237.56
239.325	236.56
239.559	245.56
239.793	246.56
240.027	249.56
240.26	260.56
240.494	269.56
240.728	272.56
240.961	264.56
241.195	281.56
241.429	312.56
241.662	304.56
241.896	343.56
242.13	398.56
242.363	502.56
242.597	650.56
242.83	614.56
243.064	624.56
243.298	742.56
243.531	608.56
243.765	413.56
243.998	348.56
244.232	319.56
244.465	318.56
244.699	299.56
244.932	296.56
245.166	311.56
245.399	327.56
245.633	299.56
245.866	295.56
246.099	294.56
246.333	313.56
246.566	293.56
246.8	301.56
247.033	306.56
247.266	312.56
247.5	316.56
247.733	320.56
247.966	328.56
248.2	343.56
248.433	371.56
248.666	403.56
248.899	409.56
249.133	375.56
249.366	378.56
249.599	398.56
249.832	446.56
250.066	445.56
250.299	369.56
250.532	353.56
250.765	347.56
250.998	352.56
251.231	353.56
251.465	339.56
251.698	340.56
251.931	326.56
252.164	350.56
252.397	361.56
252.63	359.56
252.863	343.56
253.096	354.56
253.329	358.56
253.562	355.56
253.795	368.56
254.028	377.56
254.261	377.56
254.494	398.56
254.727	451.56
254.96	526.56
255.193	480.56
255.426	408.56
255.659	406.56
255.892	397.56
256.124	375.56
256.357	376.56
256.59	411.56
256.823	436.56
257.056	465.56
257.289	564.56
257.521	578.56
257.754	487.56
257.987	428.56
258.22	411.56
258.452	401.56
258.685	397.56
258.918	436.56
259.151	444.56
259.383	460.56
259.616	494.56
259.849	522.56
260.081	462.56
260.314	447.56
260.547	432.56
260.779	432.56
261.012	427.56
261.244	443.56
261.477	440.56
261.71	446.56
261.942	454.56
262.175	445.56
262.407	474.56
262.64	473.56
262.872	487.56
263.105	516.56
263.337	554.56
263.57	546.56
263.802	583.56
264.035	578.56
264.267	589.56
264.499	609.56
264.732	633.56
264.964	634.56
265.197	630.56
265.429	633.56
265.661	628.56
265.894	700.56
266.126	770.56
266.358	809.56
266.591	807.56
266.823	683.56
267.055	638.56
267.287	610.56
267.52	575.56
267.752	572.56
267.984	572.56
268.216	575.56
268.448	566.56
268.681	561.56
268.913	545.56
269.145	542.56
269.377	537.56
269.609	545.56
269.841	556.56
270.073	586.56
270.306	670.56
270.538	896.56
270.77	1268.56
271.002	1542.56
271.234	1093.56
271.466	730.56
271.698	622.56
271.93	606.56
272.162	582.56
272.394	568.56
272.626	562.56
272.858	558.56
273.09	534.56
273.322	541.56
273.553	537.56
273.785	550.56
274.017	550.56
274.249	536.56
274.481	538.56
274.713	526.56
274.945	542.56
275.176	530.56
275.408	537.56
275.64	563.56
275.872	545.56
276.104	550.56
276.335	550.56
276.567	549.56
276.799	554.56
277.031	571.56
277.262	583.56
277.494	604.56
277.726	635.56
277.957	724.56
278.189	799.56
278.421	762.56
278.652	687.56
278.884	676.56
279.115	618.56
279.347	613.56
279.579	584.56
279.81	609.56
280.042	585.56
280.273	596.56
280.505	644.56
280.736	656.56
280.968	652.56
281.199	726.56
281.431	764.56
281.662	794.56
281.894	731.56
282.125	676.56
282.356	674.56
282.588	686.56
282.819	702.56
283.051	750.56
283.282	829.56
283.513	991.56
283.745	1385.56
283.976	2209.56
284.207	3091.56
284.439	2768.56
284.67	1681.56
284.901	1363.56
285.132	1366.56
285.364	1280.56
285.595	1049.56
285.826	960.56
286.057	1126.56
286.288	1492.56
286.52	1978.56
286.751	1832.56
286.982	1187.56
287.213	888.56
287.444	807.56
287.675	787.56
287.906	734.56
288.138	718.56
288.369	698.56
288.6	706.56
288.831	718.56
289.062	718.56
289.293	700.56
289.524	700.56
289.755	748.56
289.986	702.56
290.217	717.56
290.448	729.56
290.679	738.56
290.91	727.56
291.141	776.56
291.371	800.56
291.602	816.56
291.833	787.56
292.064	709.56
292.295	697.56
292.526	680.56
292.757	692.56
292.987	673.56
293.218	660.56
293.449	684.56
293.68	694.56
293.91	662.56
294.141	669.56
294.372	670.56
294.603	674.56
294.833	689.56
295.064	704.56
295.295	662.56
295.525	652.56
295.756	663.56
295.987	669.56
296.217	683.56
296.448	679.56
296.679	671.56
296.909	665.56
297.14	687.56
297.37	702.56
297.601	718.56
297.831	694.56
298.062	699.56
298.292	704.56
298.523	727.56
298.753	710.56
298.984	722.56
299.214	729.56
299.445	744.56
299.675	734.56
299.905	760.56
300.136	792.56
300.366	918.56
300.597	1113.56
300.827	1475.56
301.057	1992.56
301.288	1975.56
301.518	1281.56
301.748	995.56
301.979	952.56
302.209	914.56
302.439	952.56
302.669	946.56
302.9	1136.56
303.13	1520.56
303.36	2252.56
303.59	2986.56
303.82	2638.56
304.051	1560.56
304.281	1141.56
304.511	982.56
304.741	911.56
304.971	895.56
305.201	836.56
305.431	802.56
305.661	801.56
305.891	772.56
306.121	760.56
306.352	775.56
306.582	769.56
306.812	780.56
307.042	790.56
307.272	780.56
307.502	765.56
307.731	774.56
307.961	780.56
308.191	742.56
308.421	785.56
308.651	774.56
308.881	776.56
309.111	760.56
309.341	791.56
309.571	756.56
309.8	798.56
310.03	777.56
310.26	803.56
310.49	769.56
310.72	792.56
310.949	790.56
311.179	801.56
311.409	786.56
311.639	811.56
311.868	824.56
312.098	810.56
312.328	830.56
312.557	874.56
312.787	824.56
313.017	847.56
313.246	835.56
313.476	854.56
313.706	873.56
313.935	879.56
314.165	928.56
314.394	953.56
314.624	954.56
314.853	930.56
315.083	896.56
315.312	902.56
315.542	900.56
315.771	917.56
316.001	929.56
316.23	948.56
316.46	999.56
316.689	1050.56
316.919	1262.56
317.148	1779.56
317.377	2726.56
317.607	3988.56
317.836	4066.56
318.065	2422.56
318.295	1600.56
318.524	1315.56
318.753	1162.56
318.983	1103.56
319.212	1036.56
319.441	1024.56
319.67	982.56
319.9	970.56
320.129	975.56
320.358	981.56
320.587	973.56
320.816	955.56
321.046	989.56
321.275	951.56
321.504	976.56
321.733	1016.56
321.962	1029.56
322.191	1008.56
322.42	978.56
322.649	995.56
322.878	1037.56
323.108	1018.56
323.337	1046.56
323.566	1054.56
323.795	1088.56
324.024	1059.56
324.253	1083.56
324.482	1135.56
324.71	1189.56
324.939	1233.56
325.168	1276.56
325.397	1325.56
325.626	1544.56
325.855	2185.56
326.084	3268.56
326.313	4840.56
326.542	5144.56
326.77	3284.56
326.999	2180.56
327.228	1874.56
327.457	1795.56
327.686	1817.56
327.914	1899.56
328.143	2138.56
328.372	2472.56
328.6	2677.56
328.829	2456.56
329.058	2168.56
329.287	1916.56
329.515	1841.56
329.744	1668.56
329.972	1577.56
330.201	1552.56
330.43	1482.56
330.658	1447.56
330.887	1409.56
331.115	1381.56
331.344	1410.56
331.572	1414.56
331.801	1383.56
332.03	1428.56
332.258	1414.56
332.486	1480.56
332.715	1669.56
332.943	1986.56
333.172	2433.56
333.4	2366.56
333.629	1935.56
333.857	1742.56
334.085	1754.56
334.314	1829.56
334.542	1932.56
334.771	2219.56
334.999	2687.56
335.227	3240.56
335.455	3519.56
335.684	3300.56
335.912	2864.56
336.14	2506.56
336.369	2174.56
336.597	2045.56
336.825	1938.56
337.053	1802.56
337.281	1664.56
337.51	1628.56
337.738	1540.56
337.966	1513.56
338.194	1473.56
338.422	1400.56
338.65	1397.56
338.878	1341.56
339.106	1333.56
339.334	1288.56
339.562	1296.56
339.79	1223.56
340.018	1248.56
340.246	1248.56
340.474	1243.56
340.702	1259.56
340.93	1240.56
341.158	1258.56
341.386	1224.56
341.614	1182.56
341.842	1206.56
342.07	1187.56
342.298	1174.56
342.526	1156.56
342.754	1140.56
342.981	1161.56
343.209	1128.56
343.437	1149.56
343.665	1170.56
343.893	1227.56
344.12	1199.56
344.348	1191.56
344.576	1154.56
344.804	1105.56
345.031	1120.56
345.259	1098.56
345.487	1083.56
345.714	1064.56
345.942	1102.56
346.17	1072.56
346.397	1098.56
346.625	1067.56
346.853	1041.56
347.08	1064.56
347.308	1067.56
347.535	1085.56
347.763	1062.56
347.99	1048.56
348.218	1047.56
348.445	1040.56
348.673	1049.56
348.9	1054.56
349.128	1057.56
349.355	1024.56
349.583	1013.56
349.81	1018.56
350.037	1010.56
350.265	1006.56
350.492	993.56
350.72	1012.56
350.947	1015.56
351.174	1026.56
351.402	1033.56
351.629	1012.56
351.856	1044.56
352.083	1012.56
352.311	1000.56
352.538	1009.56
352.765	1025.56
352.992	1002.56
353.22	1026.56
353.447	992.56
353.674	991.56
353.901	1023.56
354.128	996.56
354.355	993.56
354.583	1007.56
354.81	1010.56
355.037	1033.56
355.264	1016.56
355.491	1010.56
355.718	1026.56
355.945	1014.56
356.172	1041.56
356.399	1033.56
356.626	1018.56
356.853	1019.56
357.08	1048.56
357.307	1084.56
357.534	1087.56
357.761	1065.56
357.988	1095.56
358.215	1068.56
358.441	1078.56
358.668	1055.56
358.895	1082.56
359.122	1064.56
359.349	1057.56
359.576	1053.56
359.802	1070.56
360.029	1089.56
360.256	1096.56
360.483	1100.56
360.709	1094.56
360.936	1087.56
361.163	1074.56
361.39	1093.56
361.616	1061.56
361.843	1098.56
362.07	1092.56
362.296	1093.56
362.523	1109.56
362.749	1081.56
362.976	1049.56
363.203	1074.56
363.429	1058.56
363.656	1063.56
363.882	1076.56
364.109	1078.56
364.335	1077.56
364.562	1051.56
364.788	1062.56
365.015	1090.56
365.241	1119.56
365.468	1151.56
365.694	1160.56
365.92	1120.56
366.147	1095.56
366.373	1095.56
366.599	1094.56
366.826	1088.56
367.052	1099.56
367.278	1127.56
367.505	1120.56
367.731	1134.56
367.957	1086.56
368.184	1117.56
368.41	1116.56
368.636	1113.56
368.862	1121.56
369.089	1117.56
369.315	1112.56
369.541	1117.56
369.767	1108.56
369.993	1133.56
370.219	1118.56
370.445	1147.56
370.672	1135.56
370.898	1146.56
371.124	1136.56
371.35	1143.56
371.576	1164.56
371.802	1192.56
372.028	1168.56
372.254	1182.56
372.48	1164.56
372.706	1201.56
372.932	1207.56
373.158	1180.56
373.384	1197.56
373.61	1167.56
373.835	1204.56
374.061	1218.56
374.287	1202.56
374.513	1209.56
374.739	1216.56
374.965	1231.56
375.191	1217.56
375.416	1217.56
375.642	1222.56
375.868	1217.56
376.094	1204.56
376.319	1199.56
376.545	1186.56
376.771	1178.56
376.997	1167.56
377.222	1147.56
377.448	1132.56
377.674	1188.56
377.899	1164.56
378.125	1149.56
378.35	1158.56
378.576	1172.56
378.802	1181.56
379.027	1197.56
379.253	1214.56
379.478	1254.56
379.704	1464.56
379.929	2024.56
380.155	2938.56
380.38	3112.56
380.606	1980.56
380.831	1457.56
381.057	1329.56
381.282	1236.56
381.507	1176.56
381.733	1168.56
381.958	1189.56
382.184	1181.56
382.409	1157.56
382.634	1150.56
382.86	1159.56
383.085	1154.56
383.31	1160.56
383.535	1140.56
383.761	1166.56
383.986	1165.56
384.211	1206.56
384.436	1196.56
384.662	1182.56
384.887	1176.56
385.112	1190.56
385.337	1200.56
385.562	1200.56
385.787	1191.56
386.013	1174.56
386.238	1219.56
386.463	1169.56
386.688	1207.56
386.913	1168.56
387.138	1194.56
387.363	1167.56
387.588	1185.56
387.813	1168.56
388.038	1205.56
388.263	1167.56
388.488	1181.56
388.713	1181.56
388.938	1185.56
389.163	1163.56
389.387	1188.56
389.612	1178.56
389.837	1179.56
390.062	1180.56
390.287	1174.56
390.512	1201.56
390.736	1226.56
390.961	1231.56
391.186	1237.56
391.411	1251.56
391.636	1234.56
391.86	1284.56
392.085	1256.56
392.31	1261.56
392.534	1214.56
392.759	1183.56
392.984	1218.56
393.208	1248.56
393.433	1234.56
393.658	1260.56
393.882	1214.56
394.107	1200.56
394.331	1194.56
394.556	1173.56
394.78	1214.56
395.005	1218.56
395.229	1208.56
395.454	1240.56
395.678	1228.56
395.903	1230.56
396.127	1243.56
396.352	1248.56
396.576	1237.56
396.801	1257.56
397.025	1273.56
397.249	1272.56
397.474	1282.56
397.698	1222.56
397.922	1266.56
398.147	1254.56
398.371	1304.56
398.595	1297.56
398.82	1296.56
399.044	1380.56
399.268	1421.56
399.492	1550.56
399.717	1577.56
399.941	1633.56
400.165	1504.56
400.389	1470.56
400.613	1402.56
400.837	1316.56
401.062	1350.56
401.286	1324.56
401.51	1299.56
401.734	1312.56
401.958	1307.56
402.182	1335.56
402.406	1286.56
402.63	1304.56
402.854	1305.56
403.078	1331.56
403.302	1340.56
403.526	1382.56
403.75	1380.56
403.974	1368.56
404.198	1361.56
404.422	1372.56
404.645	1368.56
404.869	1362.56
405.093	1362.56
405.317	1375.56
405.541	1397.56
405.765	1379.56
405.988	1405.56
406.212	1376.56
406.436	1368.56
406.66	1394.56
406.883	1387.56
407.107	1446.56
407.331	1422.56
407.555	1503.56
407.778	1481.56
408.002	1452.56
408.226	1428.56
408.449	1413.56
408.673	1416.56
408.896	1393.56
409.12	1355.56
409.344	1375.56
409.567	1335.56
409.791	1376.56
410.014	1382.56
410.238	1354.56
410.461	1316.56
410.685	1321.56
410.908	1326.56
411.132	1333.56
411.355	1294.56
411.578	1328.56
411.802	1305.56
412.025	1292.56
412.249	1330.56
412.472	1316.56
412.695	1298.56
412.919	1269.56
413.142	1286.56
413.365	1304.56
413.589	1275.56
413.812	1286.56
414.035	1311.56
414.258	1284.56
414.482	1277.56
414.705	1297.56
414.928	1322.56
415.151	1313.56
415.374	1270.56
415.597	1268.56
415.821	1224.56
416.044	1249.56
416.267	1271.56
416.49	1253.56
416.713	1250.56
416.936	1237.56
417.159	1245.56
417.382	1231.56
417.605	1225.56
417.828	1226.56
418.051	1275.56
418.274	1238.56
418.497	1262.56
418.72	1257.56
418.943	1265.56
419.166	1340.56
419.389	1352.56
419.611	1349.56
419.834	1318.56
420.057	1300.56
420.28	1291.56
420.503	1265.56
420.726	1246.56
420.948	1240.56
421.171	1232.56
421.394	1227.56
421.617	1266.56
421.839	1265.56
422.062	1272.56
422.285	1228.56
422.507	1261.56
422.73	1263.56
422.953	1294.56
423.175	1262.56
423.398	1290.56
423.621	1265.56
423.843	1263.56
424.066	1292.56
424.288	1244.56
424.511	1222.56
424.733	1222.56
424.956	1246.56
425.178	1239.56
425.401	1190.56
425.623	1252.56
425.846	1208.56
426.068	1222.56
426.291	1208.56
426.513	1181.56
426.735	1213.56
426.958	1211.56
427.18	1182.56
427.402	1208.56
427.625	1190.56
427.847	1175.56
428.069	1154.56
428.292	1213.56
428.514	1175.56
428.736	1174.56
428.958	1170.56
429.181	1159.56
429.403	1121.56
429.625	1176.56
429.847	1144.56
430.069	1176.56
430.292	1205.56
430.514	1247.56
430.736	1216.56
430.958	1160.56
431.18	1153.56
431.402	1154.56
431.624	1117.56
431.846	1125.56
432.068	1110.56
432.29	1152.56
432.512	1114.56
432.734	1166.56
432.956	1143.56
433.178	1179.56
433.4	1168.56
433.622	1180.56
433.844	1189.56
434.066	1168.56
434.287	1152.56
434.509	1126.56
434.731	1182.56
434.953	1165.56
435.175	1199.56
435.397	1196.56
435.618	1166.56
435.84	1146.56
436.062	1165.56
436.284	1155.56
436.505	1137.56
436.727	1137.56
436.949	1153.56
437.17	1167.56
437.392	1150.56
437.614	1104.56
437.835	1086.56
438.057	1097.56
438.278	1103.56
438.5	1137.56
438.721	1134.56
438.943	1180.56
439.165	1165.56
439.386	1195.56
439.608	1202.56
439.829	1188.56
440.05	1220.56
440.272	1208.56
440.493	1193.56
440.715	1176.56
440.936	1200.56
441.158	1218.56
441.379	1217.56
441.6	1242.56
441.822	1273.56
442.043	1304.56
442.264	1334.56
442.486	1278.56
442.707	1247.56
442.928	1232.56
443.149	1223.56
443.371	1231.56
443.592	1240.56
443.813	1247.56
444.034	1260.56
444.255	1264.56
444.476	1304.56
444.698	1281.56
444.919	1328.56
445.14	1378.56
445.361	1328.56
445.582	1289.56
445.803	1239.56
446.024	1224.56
446.245	1224.56
446.466	1249.56
446.687	1229.56
446.908	1195.56
447.129	1202.56
447.35	1178.56
447.571	1165.56
447.792	1136.56
448.013	1159.56
448.234	1140.56
448.455	1166.56
448.675	1161.56
448.896	1170.56
449.117	1160.56
449.338	1261.56
449.559	1319.56
449.779	1204.56
450	1151.56
450.221	1105.56
450.442	1112.56
450.662	1106.56
450.883	1106.56
451.104	1128.56
451.324	1097.56
451.545	1080.56
451.766	1094.56
451.986	1107.56
452.207	1168.56
452.428	1392.56
452.648	1930.56
452.869	1678.56
453.089	1286.56
453.31	1222.56
453.53	1202.56
453.751	1232.56
453.971	1301.56
454.192	1298.56
454.412	1127.56
454.633	1100.56
454.853	1071.56
455.073	1058.56
455.294	1055.56
455.514	1050.56
455.734	1035.56
455.955	1030.56
456.175	1039.56
456.395	1051.56
456.616	1028.56
456.836	1087.56
457.056	1092.56
457.276	1039.56
457.497	1153.56
457.717	1100.56
457.937	1090.56
458.157	1114.56
458.377	1118.56
458.598	1103.56
458.818	1146.56
459.038	1110.56
459.258	1101.56
459.478	1151.56
459.698	1164.56
459.918	1145.56
460.138	1160.56
460.358	1215.56
460.578	1224.56
460.798	1232.56
461.018	1234.56
461.238	1235.56
461.458	1244.56
461.678	1256.56
461.898	1261.56
462.118	1229.56
462.338	1270.56
462.558	1321.56
462.777	1354.56
462.997	1406.56
463.217	1456.56
463.437	1483.56
463.657	1478.56
463.876	1487.56
464.096	1418.56
464.316	1398.56
464.536	1390.56
464.755	1306.56
464.975	1276.56
465.195	1234.56
465.414	1226.56
465.634	1184.56
465.854	1172.56
466.073	1162.56
466.293	1190.56
466.512	1147.56
466.732	1161.56
466.951	1225.56
467.171	1284.56
467.391	1249.56
467.61	1177.56
467.829	1160.56
468.049	1119.56
468.268	1106.56
468.488	1124.56
468.707	1104.56
468.927	1156.56
469.146	1114.56
469.365	1148.56
469.585	1152.56
469.804	1153.56
470.023	1184.56
470.243	1201.56
470.462	1233.56
470.681	1313.56
470.901	1368.56
471.12	1553.56
471.339	1601.56
471.558	1317.56
471.777	1260.56
471.997	1152.56
472.216	1154.56
472.435	1144.56
472.654	1136.56
472.873	1118.56
473.092	1148.56
473.311	1127.56
473.53	1116.56
473.749	1163.56
473.968	1210.56
474.187	1134.56
474.406	1126.56
474.625	1131.56
474.844	1158.56
475.063	1148.56
475.282	1145.56
475.501	1137.56
475.72	1129.56
475.939	1148.56
476.158	1170.56
476.377	1190.56
476.596	1191.56
476.814	1200.56
477.033	1178.56
477.252	1187.56
477.471	1238.56
477.69	1250.56
477.908	1274.56
478.127	1305.56
478.346	1304.56
478.564	1299.56
478.783	1311.56
479.002	1348.56
479.22	1355.56
479.439	1375.56
479.658	1318.56
479.876	1313.56
480.095	1355.56
480.313	1362.56
480.532	1392.56
480.751	1349.56
480.969	1352.56
481.188	1338.56
481.406	1321.56
481.624	1307.56
481.843	1326.56
482.061	1344.56
482.28	1355.56
482.498	1346.56
482.717	1326.56
482.935	1360.56
483.153	1369.56
483.372	1402.56
483.59	1402.56
483.808	1432.56
484.027	1441.56
484.245	1503.56
484.463	1662.56
484.681	1840.56
484.9	1690.56
485.118	1591.56
485.336	1548.56
485.554	1584.56
485.772	1679.56
485.99	1884.56
486.209	1989.56
486.427	1676.56
486.645	1568.56
486.863	1514.56
487.081	1457.56
487.299	1418.56
487.517	1400.56
487.735	1434.56
487.953	1452.56
488.171	1445.56
488.389	1433.56
488.607	1415.56
488.825	1366.56
489.043	1360.56
489.261	1409.56
489.479	1403.56
489.696	1408.56
489.914	1357.56
490.132	1416.56
490.35	1430.56
490.568	1458.56
490.786	1439.56
491.003	1465.56
491.221	1484.56
491.439	1500.56
491.657	1492.56
491.874	1515.56
492.092	1532.56
492.31	1531.56
492.527	1551.56
492.745	1512.56
492.963	1537.56
493.18	1514.56
493.398	1486.56
493.615	1539.56
493.833	1517.56
494.05	1522.56
494.268	1494.56
494.485	1486.56
494.703	1489.56
494.92	1492.56
495.138	1487.56
495.355	1496.56
495.573	1488.56
495.79	1503.56
496.008	1519.56
496.225	1504.56
496.442	1550.56
496.66	1576.56
496.877	1610.56
497.094	1641.56
497.312	1592.56
497.529	1588.56
497.746	1606.56
497.963	1654.56
498.181	1644.56
498.398	1695.56
498.615	1754.56
498.832	1782.56
499.049	1876.56
499.267	1994.56
499.484	2160.56
499.701	2190.56
499.918	2251.56
500.135	2400.56
500.352	2494.56
500.569	2561.56
500.786	2509.56
501.003	2412.56
501.22	2307.56
501.437	2188.56
501.654	2052.56
501.871	2015.56
502.088	1916.56
502.305	1805.56
502.522	1754.56
502.739	1703.56
502.956	1652.56
503.172	1601.56
503.389	1592.56
503.606	1551.56
503.823	1512.56
504.04	1544.56
504.256	1571.56
504.473	1535.56
504.69	1546.56
504.907	1499.56
505.123	1510.56
505.34	1435.56
505.557	1424.56
505.773	1383.56
505.99	1378.56
506.207	1380.56
506.423	1321.56
506.64	1326.56
506.856	1319.56
507.073	1317.56
507.289	1342.56
507.506	1308.56
507.722	1297.56
507.939	1280.56
508.155	1256.56
508.372	1281.56
508.588	1260.56
508.805	1258.56
509.021	1282.56
509.238	1291.56
509.454	1320.56
509.67	1381.56
509.887	1328.56
510.103	1269.56
510.319	1266.56
510.536	1240.56
510.752	1223.56
510.968	1240.56
511.184	1233.56
511.401	1238.56
511.617	1216.56
511.833	1168.56
512.049	1204.56
512.265	1200.56
512.481	1218.56
512.698	1176.56
512.914	1233.56
513.13	1214.56
513.346	1214.56
513.562	1205.56
513.778	1229.56
513.994	1200.56
514.21	1259.56
514.426	1302.56
514.642	1338.56
514.858	1265.56
515.074	1271.56
515.29	1261.56
515.506	1223.56
515.721	1248.56
515.937	1241.56
516.153	1258.56
516.369	1257.56
516.585	1236.56
516.801	1288.56
517.016	1302.56
517.232	1328.56
517.448	1349.56
517.664	1384.56
517.879	1397.56
518.095	1364.56
518.311	1371.56
518.527	1336.56
518.742	1352.56
518.958	1341.56
519.173	1374.56
519.389	1325.56
519.605	1296.56
519.82	1263.56
520.036	1232.56
520.251	1233.56
520.467	1232.56
520.682	1228.56
520.898	1204.56
521.113	1233.56
521.329	1213.56
521.544	1206.56
521.76	1209.56
521.975	1205.56
522.19	1191.56
522.406	1193.56
522.621	1209.56
522.836	1167.56
523.052	1179.56
523.267	1161.56
523.482	1189.56
523.698	1189.56
523.913	1163.56
524.128	1174.56
524.343	1168.56
524.559	1158.56
524.774	1180.56
524.989	1180.56
525.204	1196.56
525.419	1189.56
525.634	1154.56
525.849	1182.56
526.064	1178.56
526.28	1163.56
526.495	1146.56
526.71	1174.56
526.925	1162.56
527.14	1137.56
527.355	1162.56
527.57	1182.56
527.785	1184.56
527.999	1173.56
528.214	1214.56
528.429	1190.56
528.644	1223.56
528.859	1229.56
529.074	1252.56
529.289	1258.56
529.503	1240.56
529.718	1248.56
529.933	1233.56
530.148	1238.56
530.363	1217.56
530.577	1218.56
530.792	1216.56
531.007	1231.56
531.221	1247.56
531.436	1272.56
531.651	1310.56
531.865	1277.56
532.08	1281.56
532.295	1355.56
532.509	1382.56
532.724	1377.56
532.938	1388.56
533.153	1408.56
533.367	1484.56
533.582	1539.56
533.796	1500.56
534.011	1509.56
534.225	1450.56
534.44	1394.56
534.654	1404.56
534.868	1423.56
535.083	1363.56
535.297	1317.56
535.511	1299.56
535.726	1320.56
535.94	1282.56
536.154	1251.56
536.369	1231.56
536.583	1213.56
536.797	1245.56
537.011	1228.56
537.225	1218.56
537.44	1207.56
537.654	1186.56
537.868	1156.56
538.082	1166.56
538.296	1178.56
538.51	1186.56
538.724	1174.56
538.938	1173.56
539.153	1157.56
539.367	1166.56
539.581	1125.56
539.795	1128.56
540.009	1160.56
540.222	1165.56
540.436	1141.56
540.65	1143.56
540.864	1128.56
541.078	1173.56
541.292	1228.56
541.506	1425.56
541.72	1480.56
541.934	1338.56
542.147	1264.56
542.361	1223.56
542.575	1170.56
542.789	1145.56
543.002	1125.56
543.216	1096.56
543.43	1080.56
543.644	1099.56
543.857	1110.56
544.071	1117.56
544.285	1139.56
544.498	1152.56
544.712	1141.56
544.925	1125.56
545.139	1131.56
545.352	1146.56
545.566	1132.56
545.779	1153.56
545.993	1132.56
546.206	1164.56
546.42	1119.56
546.633	1152.56
546.847	1148.56
547.06	1145.56
547.274	1144.56
547.487	1126.56
547.7	1157.56
547.914	1177.56
548.127	1113.56
548.34	1144.56
548.554	1151.56
548.767	1155.56
548.98	1160.56
549.193	1126.56
549.407	1139.56
549.62	1149.56
549.833	1156.56
550.046	1132.56
550.259	1160.56
550.473	1129.56
550.686	1123.56
550.899	1140.56
551.112	1102.56
551.325	1143.56
551.538	1123.56
551.751	1095.56
551.964	1121.56
552.177	1129.56
552.39	1170.56
552.603	1197.56
552.816	1207.56
553.029	1240.56
553.242	1207.56
553.455	1238.56
553.667	1251.56
553.88	1247.56
554.093	1240.56
554.306	1256.56
554.519	1254.56
554.732	1299.56
554.944	1300.56
555.157	1302.56
555.37	1288.56
555.583	1321.56
555.795	1424.56
556.008	1462.56
556.221	1594.56
556.433	1642.56
556.646	1628.56
556.859	1636.56
557.071	1616.56
557.284	1555.56
557.496	1539.56
557.709	1495.56
557.921	1503.56
558.134	1517.56
558.346	1548.56
558.559	1576.56
558.771	1634.56
558.984	1720.56
559.196	1784.56
559.409	1713.56
559.621	1629.56
559.833	1509.56
560.046	1484.56
560.258	1464.56
560.47	1410.56
560.683	1357.56
560.895	1301.56
561.107	1282.56
561.32	1229.56
561.532	1216.56
561.744	1234.56
561.956	1183.56
562.168	1178.56
562.381	1156.56
562.593	1147.56
562.805	1165.56
563.017	1129.56
563.229	1145.56
563.441	1240.56
563.653	1134.56
563.865	1065.56
564.077	1061.56
564.289	1051.56
564.501	1073.56
564.713	1036.56
564.925	1075.56
565.137	1032.56
565.349	1038.56
565.561	1033.56
565.773	1061.56
565.985	1073.56
566.197	1069.56
566.408	1096.56
566.62	1111.56
566.832	1133.56
567.044	1150.56
567.255	1184.56
567.467	1190.56
567.679	1210.56
567.891	1258.56
568.102	1382.56
568.314	1572.56
568.526	1320.56
568.737	1162.56
568.949	1089.56
569.161	1044.56
569.372	968.56
569.584	959.56
569.795	936.56
570.007	927.56
570.218	975.56
570.43	976.56
570.641	916.56
570.853	886.56
571.064	888.56
571.276	860.56
571.487	858.56
571.698	844.56
571.91	844.56
572.121	830.56
572.333	844.56
572.544	805.56
572.755	891.56
572.966	981.56
573.178	929.56
573.389	834.56
573.6	788.56
573.811	763.56
574.023	787.56
574.234	776.56
574.445	790.56
574.656	776.56
574.867	754.56
575.078	764.56
575.289	744.56
575.501	761.56
575.712	753.56
575.923	760.56
576.134	752.56
576.345	762.56
576.556	756.56
576.767	731.56
576.978	753.56
577.188	772.56
577.399	780.56
577.61	768.56
577.821	753.56
578.032	788.56
578.243	824.56
578.454	815.56
578.665	806.56
578.875	806.56
579.086	817.56
579.297	857.56
579.508	924.56
579.718	978.56
579.929	1090.56
580.14	1172.56
580.35	1192.56
580.561	1177.56
580.772	1071.56
580.982	1028.56
581.193	957.56
581.403	939.56
581.614	892.56
581.825	872.56
582.035	843.56
582.246	813.56
582.456	783.56
582.667	774.56
582.877	782.56
583.087	754.56
583.298	724.56
583.508	688.56
583.719	713.56
583.929	704.56
584.139	686.56
584.35	668.56
584.56	660.56
584.77	678.56
584.981	640.56
585.191	632.56
585.401	621.56
585.611	608.56
585.821	615.56
586.032	650.56
586.242	628.56
586.452	597.56
586.662	600.56
586.872	589.56
587.082	602.56
587.292	618.56
587.502	570.56
587.713	587.56
587.923	551.56
588.133	576.56
588.343	563.56
588.553	557.56
588.762	557.56
588.972	562.56
589.182	572.56
589.392	561.56
589.602	530.56
589.812	543.56
590.022	553.56
590.232	552.56
590.441	557.56
590.651	555.56
590.861	558.56
591.071	544.56
591.281	549.56
591.49	552.56
591.7	533.56
591.91	557.56
592.119	535.56
592.329	587.56
592.539	570.56
592.748	570.56
592.958	578.56
593.167	573.56
593.377	584.56
593.587	589.56
593.796	561.56
594.006	598.56
594.215	583.56
594.424	584.56
594.634	573.56
594.843	577.56
595.053	581.56
595.262	560.56
595.472	540.56
595.681	522.56
595.89	526.56
596.1	521.56
596.309	509.56
596.518	509.56
596.727	486.56
596.937	516.56
597.146	493.56
597.355	495.56
597.564	463.56
597.774	467.56
597.983	456.56
598.192	458.56
598.401	491.56
598.61	452.56
598.819	472.56
599.028	468.56
599.237	462.56
599.446	468.56
599.655	456.56
599.864	452.56
600.073	447.56
600.282	449.56
600.491	428.56
600.7	431.56
600.909	460.56
601.118	466.56
601.327	454.56
601.536	472.56
601.745	485.56
601.953	490.56
602.162	568.56
602.371	508.56
602.58	491.56
602.789	480.56
602.997	458.56
603.206	457.56
603.415	448.56
603.623	442.56
603.832	446.56
604.041	455.56
604.249	440.56
604.458	436.56
604.666	447.56
604.875	417.56
605.084	423.56
605.292	430.56
605.501	436.56
605.709	433.56
605.918	456.56
606.126	453.56
606.334	464.56
606.543	459.56
606.751	480.56
606.96	522.56
607.168	565.56
607.376	499.56
607.585	488.56
607.793	481.56
608.001	448.56
608.21	422.56
608.418	404.56
608.626	409.56
608.834	437.56
609.043	408.56
609.251	431.56
609.459	436.56
609.667	438.56
609.875	423.56
610.083	427.56
610.291	442.56
610.499	419.56
610.707	414.56
610.916	415.56
611.124	405.56
611.332	397.56
611.54	412.56
611.748	400.56
611.955	414.56
612.163	414.56
612.371	402.56
612.579	419.56
612.787	400.56
612.995	410.56
613.203	404.56
613.411	396.56
613.618	400.56
613.826	386.56
614.034	422.56
614.242	395.56
614.449	386.56
614.657	415.56
614.865	400.56
615.072	389.56
615.28	402.56
615.488	408.56
615.695	388.56
615.903	397.56
616.111	412.56
616.318	386.56
616.526	394.56
616.733	394.56
616.941	387.56
617.148	411.56
617.356	400.56
617.563	376.56
617.771	377.56
617.978	389.56
618.185	387.56
618.393	392.56
618.6	380.56
618.807	400.56
619.015	390.56
619.222	392.56
619.429	365.56
619.637	376.56
619.844	348.56
620.051	366.56
620.258	362.56
620.466	351.56
620.673	343.56
620.88	357.56
621.087	350.56
621.294	357.56
621.501	370.56
621.708	370.56
621.915	370.56
622.122	364.56
622.329	362.56
622.536	390.56
622.743	362.56
622.95	357.56
623.157	353.56
623.364	343.56
623.571	360.56
623.778	366.56
623.985	353.56
624.192	340.56
624.399	354.56
624.606	361.56
624.812	348.56
625.019	334.56
625.226	336.56
625.433	326.56
625.639	345.56
625.846	345.56
626.053	334.56
626.259	339.56
626.466	336.56
626.673	318.56
626.879	319.56
627.086	330.56
627.293	326.56
627.499	358.56
627.706	338.56
627.912	334.56
628.119	323.56
628.325	320.56
628.532	320.56
628.738	323.56
628.945	321.56
629.151	341.56
629.357	321.56
629.564	322.56
629.77	316.56
629.976	328.56
630.183	301.56
630.389	303.56
630.595	319.56
630.802	314.56
631.008	296.56
631.214	309.56
631.42	326.56
631.627	322.56
631.833	314.56
632.039	325.56
632.245	316.56
632.451	324.56
632.657	302.56
632.863	316.56
633.069	284.56
633.275	314.56
633.481	313.56
633.688	303.56
633.893	302.56
634.099	312.56
634.305	305.56
634.511	303.56
634.717	321.56
634.923	312.56
635.129	339.56
635.335	396.56
635.541	366.56
635.747	318.56
635.952	314.56
636.158	335.56
636.364	316.56
636.57	305.56
636.775	310.56
636.981	295.56
637.187	312.56
637.392	327.56
637.598	304.56
637.804	296.56
638.009	308.56
638.215	305.56
638.421	310.56
638.626	296.56
638.832	306.56
639.037	320.56
639.243	308.56
639.448	324.56
639.654	317.56
639.859	325.56
640.065	322.56
640.27	323.56
640.475	310.56
640.681	304.56
640.886	298.56
641.091	321.56
641.297	310.56
641.502	335.56
641.707	336.56
641.913	343.56
642.118	340.56
642.323	339.56
642.528	328.56
642.733	341.56
642.939	350.56
643.144	351.56
643.349	366.56
643.554	383.56
643.759	396.56
643.964	408.56
644.169	421.56
644.374	449.56
644.579	466.56
644.784	497.56
644.989	542.56
645.194	640.56
645.399	700.56
645.604	705.56
645.809	592.56
646.014	510.56
646.219	445.56
646.423	403.56
646.628	359.56
646.833	340.56
647.038	329.56
647.243	315.56
647.447	314.56
647.652	320.56
647.857	315.56
648.062	282.56
648.266	290.56
648.471	316.56
648.676	296.56
648.88	293.56
649.085	292.56
649.289	286.56
649.494	286.56
649.698	282.56
649.903	266.56
650.107	276.56
650.312	267.56
650.516	275.56
650.721	270.56
650.925	251.56
651.13	253.56
651.334	237.56
651.539	253.56
651.743	252.56
651.947	238.56
652.152	255.56
652.356	239.56
652.56	257.56
652.764	276.56
652.969	251.56
653.173	240.56
653.377	230.56
653.581	228.56
653.785	202.56
653.99	212.56
654.194	212.56
654.398	222.56
654.602	214.56
654.806	207.56
655.01	214.56
655.214	210.56
655.418	222.56
655.622	211.56
655.826	214.56
656.03	219.56
656.234	229.56
656.438	234.56
656.642	215.56
656.846	218.56
657.049	217.56
657.253	206.56
657.457	199.56
657.661	206.56
657.865	175.56
658.068	160.56
658.272	158.56
658.476	168.56
658.68	166.56
658.883	151.56
659.087	129.56
659.291	133.56
659.494	135.56
659.698	128.56
659.901	148.56
660.105	139.56
660.309	124.56
660.512	118.56
660.716	121.56
660.919	101.56
661.123	107.56
661.326	115.56
661.53	100.56
661.733	123.56
661.936	111.56
662.14	95.56
662.343	102.56
662.546	96.56
662.75	91.56
662.953	101.56
663.156	94.56
663.36	86.56
663.563	94.56
663.766	92.56
663.969	85.56
664.173	85.56
664.376	94.56
664.579	90.56
664.782	96.56
664.985	99.56
665.188	72.56
665.391	101.56
665.594	82.56
665.797	111.56
666	94.56
666.203	87.56
666.406	88.56
666.609	89.56
666.812	103.56
667.015	94.56
667.218	76.56
667.421	89.56
667.624	84.56
667.827	97.56
668.03	78.56
668.232	109.56
668.435	87.56
668.638	93.56
668.841	96.56
669.043	77.56
669.246	98.56
669.449	102.56
669.651	88.56
669.854	95.56
670.057	88.56
670.259	101.56
670.462	90.56
670.665	91.56
670.867	84.56
671.07	94.56
671.272	81.56
671.475	87.56
671.677	85.56
671.88	84.56
672.082	91.56
672.284	85.56
672.487	85.56
672.689	98.56
672.892	92.56
