Data from SnStandardFlinnAPT0064_LampEnergy10_LIBS07252019.E.O._I.C._HRD10591_15-20-19-493.txt Node
Date: Thu Jul 25 15:20:19 EDT 2019
User: cochatt
Spectrometer: HR+D1059
Trigger mode: 1
Integration Time (sec): 1.000000E-1
Scans to average: 1
Electric dark correction enabled: true
Nonlinearity correction enabled: false
Boxcar width: 0
XAxis mode: Wavelengths
Number of Pixels in Spectrum: 2048
>>>>>Begin Spectral Data<<<<<
223.165	0.69
223.4	0.69
223.635	0.69
223.869	-13.31
224.104	-23.31
224.338	-2.31
224.573	-9.31
224.808	-10.31
225.042	-8.31
225.277	-15.31
225.511	1.69
225.746	-20.31
225.98	13.69
226.215	11.69
226.449	8.69
226.683	17.69
226.918	21.69
227.152	26.69
227.387	30.69
227.621	44.69
227.856	51.69
228.09	54.69
228.324	44.69
228.559	71.69
228.793	134.69
229.027	319.69
229.262	346.69
229.496	293.69
229.73	291.69
229.964	314.69
230.199	303.69
230.433	317.69
230.667	319.69
230.901	317.69
231.136	333.69
231.37	361.69
231.604	387.69
231.838	446.69
232.072	527.69
232.306	567.69
232.541	486.69
232.775	453.69
233.009	427.69
233.243	429.69
233.477	459.69
233.711	504.69
233.945	588.69
234.179	500.69
234.413	463.69
234.647	468.69
234.881	477.69
235.115	528.69
235.349	607.69
235.583	744.69
235.817	1026.69
236.051	989.69
236.285	652.69
236.519	523.69
236.753	517.69
236.987	518.69
237.221	531.69
237.455	531.69
237.689	483.69
237.922	479.69
238.156	476.69
238.39	475.69
238.624	503.69
238.858	517.69
239.091	485.69
239.325	488.69
239.559	512.69
239.793	524.69
240.027	514.69
240.26	550.69
240.494	551.69
240.728	574.69
240.961	620.69
241.195	665.69
241.429	681.69
241.662	706.69
241.896	803.69
242.13	958.69
242.363	1285.69
242.597	1659.69
242.83	1563.69
243.064	1587.69
243.298	1868.69
243.531	1548.69
243.765	969.69
243.998	799.69
244.232	714.69
244.465	687.69
244.699	657.69
244.932	659.69
245.166	672.69
245.399	655.69
245.633	675.69
245.866	683.69
246.099	661.69
246.333	657.69
246.566	621.69
246.8	643.69
247.033	631.69
247.266	651.69
247.5	668.69
247.733	688.69
247.966	695.69
248.2	772.69
248.433	885.69
248.666	1036.69
248.899	979.69
249.133	853.69
249.366	861.69
249.599	969.69
249.832	1109.69
250.066	1092.69
250.299	897.69
250.532	802.69
250.765	754.69
250.998	754.69
251.231	757.69
251.465	743.69
251.698	727.69
251.931	728.69
252.164	751.69
252.397	770.69
252.63	792.69
252.863	798.69
253.096	762.69
253.329	785.69
253.562	778.69
253.795	758.69
254.028	797.69
254.261	855.69
254.494	872.69
254.727	1035.69
254.96	1267.69
255.193	1224.69
255.426	964.69
255.659	875.69
255.892	879.69
256.124	883.69
256.357	864.69
256.59	930.69
256.823	981.69
257.056	1145.69
257.289	1349.69
257.521	1507.69
257.754	1203.69
257.987	1007.69
258.22	951.69
258.452	955.69
258.685	932.69
258.918	964.69
259.151	994.69
259.383	1090.69
259.616	1218.69
259.849	1278.69
260.081	1096.69
260.314	984.69
260.547	969.69
260.779	938.69
261.012	952.69
261.244	968.69
261.477	970.69
261.71	983.69
261.942	993.69
262.175	1023.69
262.407	1029.69
262.64	1035.69
262.872	1075.69
263.105	1117.69
263.337	1207.69
263.57	1252.69
263.802	1260.69
264.035	1332.69
264.267	1360.69
264.499	1362.69
264.732	1412.69
264.964	1417.69
265.197	1368.69
265.429	1435.69
265.661	1455.69
265.894	1548.69
266.126	1736.69
266.358	1921.69
266.591	1900.69
266.823	1603.69
267.055	1434.69
267.287	1406.69
267.52	1318.69
267.752	1285.69
267.984	1282.69
268.216	1257.69
268.448	1267.69
268.681	1251.69
268.913	1203.69
269.145	1223.69
269.377	1243.69
269.609	1264.69
269.841	1310.69
270.073	1378.69
270.306	1607.69
270.538	2167.69
270.77	3264.69
271.002	3997.69
271.234	2843.69
271.466	1914.69
271.698	1564.69
271.93	1415.69
272.162	1315.69
272.394	1298.69
272.626	1260.69
272.858	1262.69
273.09	1250.69
273.322	1234.69
273.553	1211.69
273.785	1211.69
274.017	1208.69
274.249	1217.69
274.481	1219.69
274.713	1227.69
274.945	1189.69
275.176	1206.69
275.408	1233.69
275.64	1254.69
275.872	1247.69
276.104	1250.69
276.335	1279.69
276.567	1278.69
276.799	1271.69
277.031	1291.69
277.262	1317.69
277.494	1424.69
277.726	1551.69
277.957	1851.69
278.189	2117.69
278.421	1999.69
278.652	1773.69
278.884	1659.69
279.115	1491.69
279.347	1436.69
279.579	1410.69
279.81	1393.69
280.042	1381.69
280.273	1405.69
280.505	1470.69
280.736	1514.69
280.968	1607.69
281.199	1796.69
281.431	2092.69
281.662	2095.69
281.894	1796.69
282.125	1653.69
282.356	1640.69
282.588	1692.69
282.819	1717.69
283.051	1827.69
283.282	2002.69
283.513	2500.69
283.745	3677.69
283.976	5805.69
284.207	8163.69
284.439	7556.69
284.67	4695.69
284.901	3814.69
285.132	3825.69
285.364	3647.69
285.595	2721.69
285.826	2488.69
286.057	2857.69
286.288	3945.69
286.52	5353.69
286.751	4987.69
286.982	3094.69
287.213	2275.69
287.444	1961.69
287.675	1876.69
287.906	1768.69
288.138	1731.69
288.369	1706.69
288.6	1677.69
288.831	1681.69
289.062	1651.69
289.293	1672.69
289.524	1661.69
289.755	1662.69
289.986	1697.69
290.217	1728.69
290.448	1733.69
290.679	1747.69
290.91	1767.69
291.141	1859.69
291.371	2043.69
291.602	2183.69
291.833	1949.69
292.064	1728.69
292.295	1666.69
292.526	1636.69
292.757	1634.69
292.987	1597.69
293.218	1574.69
293.449	1604.69
293.68	1569.69
293.91	1556.69
294.141	1583.69
294.372	1559.69
294.603	1527.69
294.833	1539.69
295.064	1553.69
295.295	1587.69
295.525	1526.69
295.756	1578.69
295.987	1547.69
296.217	1553.69
296.448	1580.69
296.679	1594.69
296.909	1573.69
297.14	1600.69
297.37	1615.69
297.601	1625.69
297.831	1635.69
298.062	1653.69
298.292	1631.69
298.523	1685.69
298.753	1694.69
298.984	1659.69
299.214	1750.69
299.445	1769.69
299.675	1818.69
299.905	1825.69
300.136	1923.69
300.366	2159.69
300.597	2751.69
300.827	3902.69
301.057	5348.69
301.288	5301.69
301.518	3448.69
301.748	2625.69
301.979	2375.69
302.209	2316.69
302.439	2349.69
302.669	2484.69
302.9	2983.69
303.13	4202.69
303.36	6289.69
303.59	8280.69
303.82	7370.69
304.051	4375.69
304.281	3116.69
304.511	2624.69
304.741	2395.69
304.971	2216.69
305.201	2083.69
305.431	2030.69
305.661	1944.69
305.891	1911.69
306.121	1880.69
306.352	1879.69
306.582	1867.69
306.812	1818.69
307.042	1843.69
307.272	1841.69
307.502	1806.69
307.731	1801.69
307.961	1805.69
308.191	1816.69
308.421	1789.69
308.651	1783.69
308.881	1813.69
309.111	1808.69
309.341	1841.69
309.571	1843.69
309.8	1816.69
310.03	1874.69
310.26	1834.69
310.49	1861.69
310.72	1828.69
310.949	1854.69
311.179	1919.69
311.409	1865.69
311.639	1919.69
311.868	1908.69
312.098	1915.69
312.328	1953.69
312.557	1970.69
312.787	1963.69
313.017	1962.69
313.246	1951.69
313.476	1997.69
313.706	2036.69
313.935	2172.69
314.165	2346.69
314.394	2494.69
314.624	2388.69
314.853	2174.69
315.083	2183.69
315.312	2179.69
315.542	2181.69
315.771	2220.69
316.001	2222.69
316.23	2322.69
316.46	2454.69
316.689	2682.69
316.919	3260.69
317.148	4615.69
317.377	7218.69
317.607	10635.69
317.836	11141.69
318.065	6776.69
318.295	4351.69
318.524	3487.69
318.753	3035.69
318.983	2772.69
319.212	2592.69
319.441	2539.69
319.67	2463.69
319.9	2373.69
320.129	2360.69
320.358	2303.69
320.587	2334.69
320.816	2340.69
321.046	2383.69
321.275	2378.69
321.504	2380.69
321.733	2460.69
321.962	2449.69
322.191	2488.69
322.42	2473.69
322.649	2445.69
322.878	2489.69
323.108	2450.69
323.337	2509.69
323.566	2558.69
323.795	2607.69
324.024	2628.69
324.253	2716.69
324.482	2871.69
324.71	3047.69
324.939	3213.69
325.168	3253.69
325.397	3411.69
325.626	4064.69
325.855	5593.69
326.084	8915.69
326.313	12904.69
326.542	13592.69
326.77	9303.69
326.999	6101.69
327.228	5024.69
327.457	4788.69
327.686	4882.69
327.914	5162.69
328.143	6058.69
328.372	7299.69
328.6	7914.69
328.829	7026.69
329.058	5963.69
329.287	5087.69
329.515	4733.69
329.744	4288.69
329.972	4065.69
330.201	3839.69
330.43	3690.69
330.658	3573.69
330.887	3591.69
331.115	3496.69
331.344	3473.69
331.572	3445.69
331.801	3479.69
332.03	3556.69
332.258	3587.69
332.486	3796.69
332.715	4243.69
332.943	5359.69
333.172	6667.69
333.4	6643.69
333.629	5051.69
333.857	4478.69
334.085	4472.69
334.314	4754.69
334.542	5191.69
334.771	6109.69
334.999	7526.69
335.227	9479.69
335.455	10530.69
335.684	9503.69
335.912	7798.69
336.14	6498.69
336.369	5843.69
336.597	5248.69
336.825	4850.69
337.053	4492.69
337.281	4165.69
337.51	4005.69
337.738	3817.69
337.966	3688.69
338.194	3540.69
338.422	3439.69
338.65	3384.69
338.878	3276.69
339.106	3205.69
339.334	3191.69
339.562	3134.69
339.79	3052.69
340.018	3024.69
340.246	3078.69
340.474	3017.69
340.702	2953.69
340.93	2979.69
341.158	3020.69
341.386	3001.69
341.614	2930.69
341.842	2914.69
342.07	2833.69
342.298	2806.69
342.526	2767.69
342.754	2701.69
342.981	2705.69
343.209	2696.69
343.437	2732.69
343.665	2772.69
343.893	2805.69
344.12	2797.69
344.348	2705.69
344.576	2715.69
344.804	2704.69
345.031	2637.69
345.259	2600.69
345.487	2597.69
345.714	2556.69
345.942	2534.69
346.17	2517.69
346.397	2516.69
346.625	2517.69
346.853	2540.69
347.08	2490.69
347.308	2528.69
347.535	2530.69
347.763	2543.69
347.99	2462.69
348.218	2442.69
348.445	2464.69
348.673	2388.69
348.9	2427.69
349.128	2475.69
349.355	2406.69
349.583	2451.69
349.81	2423.69
350.037	2402.69
350.265	2381.69
350.492	2395.69
350.72	2394.69
350.947	2395.69
351.174	2417.69
351.402	2391.69
351.629	2374.69
351.856	2351.69
352.083	2361.69
352.311	2353.69
352.538	2377.69
352.765	2344.69
352.992	2348.69
353.22	2337.69
353.447	2348.69
353.674	2407.69
353.901	2370.69
354.128	2362.69
354.355	2384.69
354.583	2410.69
354.81	2407.69
355.037	2405.69
355.264	2402.69
355.491	2416.69
355.718	2439.69
355.945	2432.69
356.172	2435.69
356.399	2435.69
356.626	2477.69
356.853	2479.69
357.08	2494.69
357.307	2557.69
357.534	2545.69
357.761	2529.69
357.988	2575.69
358.215	2572.69
358.441	2547.69
358.668	2523.69
358.895	2540.69
359.122	2556.69
359.349	2499.69
359.576	2545.69
359.802	2543.69
360.029	2463.69
360.256	2498.69
360.483	2544.69
360.709	2531.69
360.936	2490.69
361.163	2513.69
361.39	2488.69
361.616	2579.69
361.843	2575.69
362.07	2538.69
362.296	2581.69
362.523	2565.69
362.749	2543.69
362.976	2512.69
363.203	2516.69
363.429	2528.69
363.656	2492.69
363.882	2501.69
364.109	2521.69
364.335	2545.69
364.562	2525.69
364.788	2510.69
365.015	2608.69
365.241	2615.69
365.468	2834.69
365.694	2923.69
365.92	2787.69
366.147	2622.69
366.373	2625.69
366.599	2610.69
366.826	2560.69
367.052	2593.69
367.278	2601.69
367.505	2654.69
367.731	2581.69
367.957	2599.69
368.184	2666.69
368.41	2626.69
368.636	2645.69
368.862	2607.69
369.089	2630.69
369.315	2662.69
369.541	2631.69
369.767	2619.69
369.993	2588.69
370.219	2596.69
370.445	2594.69
370.672	2689.69
370.898	2667.69
371.124	2663.69
371.35	2652.69
371.576	2727.69
371.802	2737.69
372.028	2710.69
372.254	2726.69
372.48	2702.69
372.706	2779.69
372.932	2780.69
373.158	2743.69
373.384	2790.69
373.61	2743.69
373.835	2823.69
374.061	2793.69
374.287	2801.69
374.513	2804.69
374.739	2889.69
374.965	2875.69
375.191	2853.69
375.416	2892.69
375.642	2808.69
375.868	2823.69
376.094	2764.69
376.319	2766.69
376.545	2729.69
376.771	2703.69
376.997	2707.69
377.222	2737.69
377.448	2707.69
377.674	2783.69
377.899	2746.69
378.125	2725.69
378.35	2723.69
378.576	2733.69
378.802	2725.69
379.027	2819.69
379.253	2885.69
379.478	3018.69
379.704	3634.69
379.929	5148.69
380.155	7988.69
380.38	8824.69
380.606	5320.69
380.831	3692.69
381.057	3220.69
381.282	2973.69
381.507	2859.69
381.733	2800.69
381.958	2748.69
382.184	2703.69
382.409	2732.69
382.634	2654.69
382.86	2656.69
383.085	2672.69
383.31	2687.69
383.535	2711.69
383.761	2674.69
383.986	2701.69
384.211	2758.69
384.436	2716.69
384.662	2733.69
384.887	2747.69
385.112	2699.69
385.337	2729.69
385.562	2776.69
385.787	2772.69
386.013	2781.69
386.238	2789.69
386.463	2771.69
386.688	2758.69
386.913	2715.69
387.138	2771.69
387.363	2799.69
387.588	2734.69
387.813	2764.69
388.038	2719.69
388.263	2684.69
388.488	2764.69
388.713	2753.69
388.938	2697.69
389.163	2761.69
389.387	2732.69
389.612	2745.69
389.837	2773.69
390.062	2753.69
390.287	2730.69
390.512	2779.69
390.736	2788.69
390.961	2836.69
391.186	2890.69
391.411	2889.69
391.636	2919.69
391.86	2905.69
392.085	2892.69
392.31	2850.69
392.534	2844.69
392.759	2859.69
392.984	2817.69
393.208	2836.69
393.433	2854.69
393.658	2803.69
393.882	2779.69
394.107	2761.69
394.331	2784.69
394.556	2783.69
394.78	2807.69
395.005	2845.69
395.229	2803.69
395.454	2881.69
395.678	2863.69
395.903	2872.69
396.127	2865.69
396.352	2865.69
396.576	2818.69
396.801	2847.69
397.025	2928.69
397.249	2869.69
397.474	2891.69
397.698	2897.69
397.922	2915.69
398.147	2932.69
398.371	2959.69
398.595	3018.69
398.82	3069.69
399.044	3209.69
399.268	3337.69
399.492	3531.69
399.717	3635.69
399.941	3623.69
400.165	3530.69
400.389	3385.69
400.613	3235.69
400.837	3155.69
401.062	3028.69
401.286	3077.69
401.51	2984.69
401.734	2993.69
401.958	3052.69
402.182	3031.69
402.406	3063.69
402.63	3047.69
402.854	3075.69
403.078	3053.69
403.302	3100.69
403.526	3121.69
403.75	3146.69
403.974	3153.69
404.198	3149.69
404.422	3100.69
404.645	3131.69
404.869	3136.69
405.093	3131.69
405.317	3130.69
405.541	3180.69
405.765	3197.69
405.988	3271.69
406.212	3236.69
406.436	3284.69
406.66	3337.69
406.883	3295.69
407.107	3323.69
407.331	3381.69
407.555	3405.69
407.778	3475.69
408.002	3355.69
408.226	3321.69
408.449	3367.69
408.673	3257.69
408.896	3265.69
409.12	3233.69
409.344	3234.69
409.567	3145.69
409.791	3191.69
410.014	3141.69
410.238	3192.69
410.461	3118.69
410.685	3074.69
410.908	3125.69
411.132	3080.69
411.355	3045.69
411.578	3012.69
411.802	3018.69
412.025	3007.69
412.249	3032.69
412.472	3013.69
412.695	2957.69
412.919	2970.69
413.142	2989.69
413.365	2988.69
413.589	2956.69
413.812	2948.69
414.035	2944.69
414.258	2978.69
414.482	3016.69
414.705	2995.69
414.928	3027.69
415.151	2998.69
415.374	2927.69
415.597	2879.69
415.821	2832.69
416.044	2863.69
416.267	2833.69
416.49	2898.69
416.713	2875.69
416.936	2863.69
417.159	2781.69
417.382	2823.69
417.605	2791.69
417.828	2848.69
418.051	2848.69
418.274	2872.69
418.497	2902.69
418.72	2906.69
418.943	2877.69
419.166	3027.69
419.389	3168.69
419.611	3166.69
419.834	3067.69
420.057	2967.69
420.28	2943.69
420.503	2861.69
420.726	2882.69
420.948	2799.69
421.171	2889.69
421.394	2849.69
421.617	2834.69
421.839	2897.69
422.062	2912.69
422.285	2797.69
422.507	2832.69
422.73	2957.69
422.953	2917.69
423.175	2971.69
423.398	2947.69
423.621	2872.69
423.843	2908.69
424.066	2895.69
424.288	2828.69
424.511	2824.69
424.733	2820.69
424.956	2828.69
425.178	2833.69
425.401	2805.69
425.623	2787.69
425.846	2757.69
426.068	2754.69
426.291	2716.69
426.513	2739.69
426.735	2675.69
426.958	2742.69
427.18	2665.69
427.402	2674.69
427.625	2730.69
427.847	2674.69
428.069	2660.69
428.292	2693.69
428.514	2655.69
428.736	2611.69
428.958	2695.69
429.181	2566.69
429.403	2577.69
429.625	2623.69
429.847	2653.69
430.069	2681.69
430.292	2818.69
430.514	2859.69
430.736	2812.69
430.958	2706.69
431.18	2593.69
431.402	2651.69
431.624	2578.69
431.846	2608.69
432.068	2572.69
432.29	2585.69
432.512	2511.69
432.734	2577.69
432.956	2585.69
433.178	2600.69
433.4	2599.69
433.622	2659.69
433.844	2690.69
434.066	2637.69
434.287	2617.69
434.509	2691.69
434.731	2690.69
434.953	2743.69
435.175	2745.69
435.397	2766.69
435.618	2648.69
435.84	2613.69
436.062	2635.69
436.284	2627.69
436.505	2653.69
436.727	2616.69
436.949	2603.69
437.17	2584.69
437.392	2563.69
437.614	2549.69
437.835	2525.69
438.057	2518.69
438.278	2534.69
438.5	2549.69
438.721	2551.69
438.943	2689.69
439.165	2688.69
439.386	2708.69
439.608	2703.69
439.829	2750.69
440.05	2831.69
440.272	2847.69
440.493	2712.69
440.715	2659.69
440.936	2715.69
441.158	2725.69
441.379	2801.69
441.6	2848.69
441.822	2925.69
442.043	3027.69
442.264	3168.69
442.486	2956.69
442.707	2853.69
442.928	2808.69
443.149	2821.69
443.371	2775.69
443.592	2764.69
443.813	2826.69
444.034	2861.69
444.255	2804.69
444.476	2933.69
444.698	2985.69
444.919	3006.69
445.14	3058.69
445.361	2910.69
445.582	2830.69
445.803	2770.69
446.024	2780.69
446.245	2782.69
446.466	2823.69
446.687	2741.69
446.908	2749.69
447.129	2683.69
447.35	2635.69
447.571	2615.69
447.792	2523.69
448.013	2578.69
448.234	2569.69
448.455	2579.69
448.675	2603.69
448.896	2713.69
449.117	2731.69
449.338	2998.69
449.559	3121.69
449.779	2806.69
450	2591.69
450.221	2538.69
450.442	2579.69
450.662	2533.69
450.883	2541.69
451.104	2593.69
451.324	2543.69
451.545	2535.69
451.766	2549.69
451.986	2579.69
452.207	2778.69
452.428	3594.69
452.648	5465.69
452.869	4563.69
453.089	3198.69
453.31	2990.69
453.53	2966.69
453.751	3001.69
453.971	3151.69
454.192	3093.69
454.412	2663.69
454.633	2515.69
454.853	2530.69
455.073	2423.69
455.294	2487.69
455.514	2387.69
455.734	2423.69
455.955	2359.69
456.175	2380.69
456.395	2413.69
456.616	2420.69
456.836	2462.69
457.056	2469.69
457.276	2505.69
457.497	2637.69
457.717	2629.69
457.937	2600.69
458.157	2581.69
458.377	2560.69
458.598	2571.69
458.818	2597.69
459.038	2567.69
459.258	2557.69
459.478	2619.69
459.698	2663.69
459.918	2684.69
460.138	2740.69
460.358	2804.69
460.578	2783.69
460.798	2770.69
461.018	2861.69
461.238	2836.69
461.458	2860.69
461.678	2929.69
461.898	2972.69
462.118	2960.69
462.338	3026.69
462.558	3103.69
462.777	3108.69
462.997	3214.69
463.217	3304.69
463.437	3474.69
463.657	3583.69
463.876	3547.69
464.096	3350.69
464.316	3213.69
464.536	3130.69
464.755	3107.69
464.975	2973.69
465.195	2869.69
465.414	2802.69
465.634	2703.69
465.854	2705.69
466.073	2692.69
466.293	2629.69
466.512	2612.69
466.732	2671.69
466.951	2763.69
467.171	2969.69
467.391	2899.69
467.61	2689.69
467.829	2585.69
468.049	2609.69
468.268	2596.69
468.488	2508.69
468.707	2532.69
468.927	2602.69
469.146	2573.69
469.365	2678.69
469.585	2597.69
469.804	2658.69
470.023	2738.69
470.243	2779.69
470.462	2837.69
470.681	3015.69
470.901	3313.69
471.12	3815.69
471.339	3802.69
471.558	3196.69
471.777	2906.69
471.997	2799.69
472.216	2695.69
472.435	2687.69
472.654	2557.69
472.873	2583.69
473.092	2604.69
473.311	2603.69
473.53	2601.69
473.749	2691.69
473.968	2788.69
474.187	2661.69
474.406	2593.69
474.625	2593.69
474.844	2604.69
475.063	2552.69
475.282	2602.69
475.501	2613.69
475.72	2641.69
475.939	2647.69
476.158	2742.69
476.377	2761.69
476.596	2720.69
476.814	2764.69
477.033	2728.69
477.252	2765.69
477.471	2822.69
477.69	2839.69
477.908	2877.69
478.127	2890.69
478.346	2945.69
478.564	2957.69
478.783	3025.69
479.002	3055.69
479.22	3077.69
479.439	3120.69
479.658	3103.69
479.876	3084.69
480.095	3104.69
480.313	3229.69
480.532	3196.69
480.751	3165.69
480.969	3131.69
481.188	3133.69
481.406	3160.69
481.624	3152.69
481.843	3149.69
482.061	3188.69
482.28	3174.69
482.498	3135.69
482.717	3127.69
482.935	3171.69
483.153	3222.69
483.372	3224.69
483.59	3294.69
483.808	3317.69
484.027	3401.69
484.245	3592.69
484.463	4105.69
484.681	4539.69
484.9	4157.69
485.118	3873.69
485.336	3686.69
485.554	3793.69
485.772	4103.69
485.99	4621.69
486.209	4967.69
486.427	4137.69
486.645	3690.69
486.863	3561.69
487.081	3472.69
487.299	3424.69
487.517	3379.69
487.735	3401.69
487.953	3384.69
488.171	3383.69
488.389	3329.69
488.607	3261.69
488.825	3304.69
489.043	3253.69
489.261	3169.69
489.479	3257.69
489.696	3241.69
489.914	3225.69
490.132	3251.69
490.35	3259.69
490.568	3257.69
490.786	3268.69
491.003	3346.69
491.221	3385.69
491.439	3429.69
491.657	3345.69
491.874	3379.69
492.092	3391.69
492.31	3436.69
492.527	3400.69
492.745	3417.69
492.963	3380.69
493.18	3366.69
493.398	3379.69
493.615	3397.69
493.833	3399.69
494.05	3395.69
494.268	3419.69
494.485	3426.69
494.703	3432.69
494.92	3426.69
495.138	3406.69
495.355	3372.69
495.573	3420.69
495.79	3430.69
496.008	3477.69
496.225	3477.69
496.442	3550.69
496.66	3647.69
496.877	3840.69
497.094	3796.69
497.312	3674.69
497.529	3704.69
497.746	3751.69
497.963	3788.69
498.181	3858.69
498.398	3973.69
498.615	4062.69
498.832	4196.69
499.049	4454.69
499.267	4755.69
499.484	5035.69
499.701	5044.69
499.918	5086.69
500.135	5428.69
500.352	5641.69
500.569	5713.69
500.786	5645.69
501.003	5489.69
501.22	5257.69
501.437	4952.69
501.654	4692.69
501.871	4550.69
502.088	4360.69
502.305	4188.69
502.522	4080.69
502.739	3985.69
502.956	3879.69
503.172	3813.69
503.389	3629.69
503.606	3607.69
503.823	3510.69
504.04	3487.69
504.256	3559.69
504.473	3522.69
504.69	3537.69
504.907	3495.69
505.123	3457.69
505.34	3327.69
505.557	3288.69
505.773	3257.69
505.99	3187.69
506.207	3149.69
506.423	3129.69
506.64	3031.69
506.856	2998.69
507.073	3063.69
507.289	3023.69
507.506	3002.69
507.722	3017.69
507.939	2989.69
508.155	2959.69
508.372	2949.69
508.588	2924.69
508.805	2869.69
509.021	2939.69
509.238	2988.69
509.454	3140.69
509.67	3363.69
509.887	3102.69
510.103	2996.69
510.319	2929.69
510.536	2914.69
510.752	2883.69
510.968	2864.69
511.184	2833.69
511.401	2872.69
511.617	2798.69
511.833	2858.69
512.049	2853.69
512.265	2802.69
512.481	2816.69
512.698	2770.69
512.914	2826.69
513.13	2799.69
513.346	2786.69
513.562	2786.69
513.778	2793.69
513.994	2892.69
514.21	2942.69
514.426	3142.69
514.642	3236.69
514.858	3023.69
515.074	2910.69
515.29	2929.69
515.506	2939.69
515.721	2932.69
515.937	2945.69
516.153	2927.69
516.369	2954.69
516.585	2951.69
516.801	3036.69
517.016	3047.69
517.232	3058.69
517.448	3119.69
517.664	3215.69
517.879	3241.69
518.095	3178.69
518.311	3157.69
518.527	3156.69
518.742	3131.69
518.958	3155.69
519.173	3265.69
519.389	3152.69
519.605	2938.69
519.82	2943.69
520.036	2965.69
520.251	2855.69
520.467	2897.69
520.682	2852.69
520.898	2802.69
521.113	2764.69
521.329	2804.69
521.544	2769.69
521.76	2769.69
521.975	2757.69
522.19	2732.69
522.406	2739.69
522.621	2701.69
522.836	2699.69
523.052	2730.69
523.267	2713.69
523.482	2717.69
523.698	2682.69
523.913	2664.69
524.128	2721.69
524.343	2700.69
524.559	2717.69
524.774	2708.69
524.989	2671.69
525.204	2705.69
525.419	2664.69
525.634	2695.69
525.849	2729.69
526.064	2690.69
526.28	2702.69
526.495	2685.69
526.71	2670.69
526.925	2702.69
527.14	2719.69
527.355	2701.69
527.57	2651.69
527.785	2760.69
527.999	2752.69
528.214	2808.69
528.429	2819.69
528.644	2775.69
528.859	2870.69
529.074	2849.69
529.289	2885.69
529.503	2887.69
529.718	2919.69
529.933	2855.69
530.148	2875.69
530.363	2864.69
530.577	2878.69
530.792	2912.69
531.007	2942.69
531.221	2963.69
531.436	2976.69
531.651	3024.69
531.865	3030.69
532.08	3100.69
532.295	3171.69
532.509	3380.69
532.724	3393.69
532.938	3492.69
533.153	3576.69
533.367	3798.69
533.582	4026.69
533.796	3902.69
534.011	3773.69
534.225	3687.69
534.44	3514.69
534.654	3417.69
534.868	3336.69
535.083	3259.69
535.297	3201.69
535.511	3157.69
535.726	3053.69
535.94	3075.69
536.154	3007.69
536.369	3034.69
536.583	2948.69
536.797	2940.69
537.011	2890.69
537.225	2841.69
537.44	2844.69
537.654	2785.69
537.868	2779.69
538.082	2771.69
538.296	2680.69
538.51	2684.69
538.724	2677.69
538.938	2707.69
539.153	2689.69
539.367	2703.69
539.581	2654.69
539.795	2595.69
540.009	2626.69
540.222	2575.69
540.436	2650.69
540.65	2600.69
540.864	2614.69
541.078	2666.69
541.292	2891.69
541.506	3377.69
541.72	3549.69
541.934	3017.69
542.147	2854.69
542.361	2771.69
542.575	2587.69
542.789	2605.69
543.002	2544.69
543.216	2513.69
543.43	2493.69
543.644	2517.69
543.857	2515.69
544.071	2519.69
544.285	2550.69
544.498	2567.69
544.712	2552.69
544.925	2498.69
545.139	2529.69
545.352	2519.69
545.566	2519.69
545.779	2478.69
545.993	2526.69
546.206	2580.69
546.42	2557.69
546.633	2553.69
546.847	2533.69
547.06	2513.69
547.274	2561.69
547.487	2584.69
547.7	2586.69
547.914	2536.69
548.127	2531.69
548.34	2495.69
548.554	2530.69
548.767	2536.69
548.98	2533.69
549.193	2571.69
549.407	2553.69
549.62	2509.69
549.833	2517.69
550.046	2573.69
550.259	2554.69
550.473	2511.69
550.686	2550.69
550.899	2533.69
551.112	2504.69
551.325	2512.69
551.538	2552.69
551.751	2561.69
551.964	2581.69
552.177	2588.69
552.39	2630.69
552.603	2701.69
552.816	2704.69
553.029	2713.69
553.242	2756.69
553.455	2772.69
553.667	2812.69
553.88	2833.69
554.093	2871.69
554.306	2853.69
554.519	2946.69
554.732	2937.69
554.944	2992.69
555.157	3085.69
555.37	3190.69
555.583	3284.69
555.795	3517.69
556.008	3763.69
556.221	4161.69
556.433	4557.69
556.646	4498.69
556.859	4324.69
557.071	4105.69
557.284	4051.69
557.496	3893.69
557.709	3782.69
557.921	3796.69
558.134	3745.69
558.346	3830.69
558.559	3939.69
558.771	4127.69
558.984	4573.69
559.196	4908.69
559.409	4681.69
559.621	4303.69
559.833	4054.69
560.046	3803.69
560.258	3574.69
560.47	3387.69
560.683	3250.69
560.895	3144.69
561.107	3027.69
561.32	2899.69
561.532	2887.69
561.744	2825.69
561.956	2769.69
562.168	2679.69
562.381	2709.69
562.593	2604.69
562.805	2699.69
563.017	2687.69
563.229	2765.69
563.441	3201.69
563.653	2663.69
563.865	2528.69
564.077	2431.69
564.289	2406.69
564.501	2367.69
564.713	2378.69
564.925	2354.69
565.137	2358.69
565.349	2306.69
565.561	2390.69
565.773	2361.69
565.985	2401.69
566.197	2425.69
566.408	2497.69
566.62	2535.69
566.832	2583.69
567.044	2552.69
567.255	2571.69
567.467	2634.69
567.679	2644.69
567.891	2795.69
568.102	3156.69
568.314	3639.69
568.526	3142.69
568.737	2711.69
568.949	2471.69
569.161	2331.69
569.372	2242.69
569.584	2226.69
569.795	2131.69
570.007	2121.69
570.218	2181.69
570.43	2242.69
570.641	2097.69
570.853	2010.69
571.064	2009.69
571.276	1963.69
571.487	1913.69
571.698	1873.69
571.91	1833.69
572.121	1864.69
572.333	1845.69
572.544	1896.69
572.755	1971.69
572.966	2370.69
573.178	2136.69
573.389	1928.69
573.6	1841.69
573.811	1803.69
574.023	1803.69
574.234	1740.69
574.445	1735.69
574.656	1697.69
574.867	1754.69
575.078	1690.69
575.289	1692.69
575.501	1713.69
575.712	1691.69
575.923	1713.69
576.134	1699.69
576.345	1696.69
576.556	1736.69
576.767	1715.69
576.978	1739.69
577.188	1763.69
577.399	1713.69
577.61	1708.69
577.821	1771.69
578.032	1813.69
578.243	1805.69
578.454	1835.69
578.665	1919.69
578.875	1921.69
579.086	2000.69
579.297	2103.69
579.508	2207.69
579.718	2442.69
579.929	2848.69
580.14	3289.69
580.35	3379.69
580.561	3107.69
580.772	2771.69
580.982	2548.69
581.193	2386.69
581.403	2258.69
581.614	2095.69
581.825	2055.69
582.035	1947.69
582.246	1901.69
582.456	1798.69
582.667	1781.69
582.877	1751.69
583.087	1718.69
583.298	1675.69
583.508	1628.69
583.719	1567.69
583.929	1579.69
584.139	1512.69
584.35	1487.69
584.56	1493.69
584.77	1413.69
584.981	1466.69
585.191	1426.69
585.401	1388.69
585.611	1387.69
585.821	1323.69
586.032	1338.69
586.242	1327.69
586.452	1333.69
586.662	1319.69
586.872	1307.69
587.082	1273.69
587.292	1235.69
587.502	1251.69
587.713	1256.69
587.923	1259.69
588.133	1254.69
588.343	1238.69
588.553	1242.69
588.762	1220.69
588.972	1208.69
589.182	1243.69
589.392	1227.69
589.602	1216.69
589.812	1185.69
590.022	1186.69
590.232	1185.69
590.441	1188.69
590.651	1167.69
590.861	1160.69
591.071	1169.69
591.281	1171.69
591.49	1170.69
591.7	1164.69
591.91	1157.69
592.119	1165.69
592.329	1187.69
592.539	1211.69
592.748	1212.69
592.958	1207.69
593.167	1213.69
593.377	1219.69
593.587	1232.69
593.796	1242.69
594.006	1217.69
594.215	1219.69
594.424	1179.69
594.634	1192.69
594.843	1193.69
595.053	1140.69
595.262	1151.69
595.472	1112.69
595.681	1092.69
595.89	1089.69
596.1	1063.69
596.309	1079.69
596.518	1102.69
596.727	1062.69
596.937	1034.69
597.146	1037.69
597.355	1054.69
597.564	1029.69
597.774	1033.69
597.983	980.69
598.192	979.69
598.401	968.69
598.61	964.69
598.819	964.69
599.028	968.69
599.237	923.69
599.446	970.69
599.655	962.69
599.864	961.69
600.073	956.69
600.282	947.69
600.491	944.69
600.7	924.69
600.909	949.69
601.118	934.69
601.327	967.69
601.536	945.69
601.745	975.69
601.953	1108.69
602.162	1204.69
602.371	1080.69
602.58	979.69
602.789	932.69
602.997	940.69
603.206	914.69
603.415	910.69
603.623	898.69
603.832	891.69
604.041	917.69
604.249	890.69
604.458	881.69
604.666	874.69
604.875	873.69
605.084	882.69
605.292	881.69
605.501	896.69
605.709	897.69
605.918	905.69
606.126	915.69
606.334	924.69
606.543	940.69
606.751	993.69
606.96	1109.69
607.168	1228.69
607.376	1052.69
607.585	1008.69
607.793	922.69
608.001	900.69
608.21	901.69
608.418	890.69
608.626	885.69
608.834	867.69
609.043	877.69
609.251	847.69
609.459	871.69
609.667	847.69
609.875	880.69
610.083	856.69
610.291	839.69
610.499	826.69
610.707	842.69
610.916	827.69
611.124	834.69
611.332	836.69
611.54	825.69
611.748	796.69
611.955	826.69
612.163	804.69
612.371	812.69
612.579	803.69
612.787	819.69
612.995	791.69
613.203	784.69
613.411	812.69
613.618	790.69
613.826	811.69
614.034	790.69
614.242	819.69
614.449	782.69
614.657	758.69
614.865	795.69
615.072	776.69
615.28	800.69
615.488	789.69
615.695	798.69
615.903	769.69
616.111	806.69
616.318	808.69
616.526	774.69
616.733	813.69
616.941	770.69
617.148	771.69
617.356	770.69
617.563	761.69
617.771	781.69
617.978	766.69
618.185	755.69
618.393	756.69
618.6	772.69
618.807	729.69
619.015	771.69
619.222	753.69
619.429	748.69
619.637	716.69
619.844	731.69
620.051	719.69
620.258	716.69
620.466	717.69
620.673	681.69
620.88	686.69
621.087	703.69
621.294	676.69
621.501	692.69
621.708	725.69
621.915	703.69
622.122	720.69
622.329	706.69
622.536	700.69
622.743	692.69
622.95	704.69
623.157	696.69
623.364	671.69
623.571	703.69
623.778	685.69
623.985	700.69
624.192	700.69
624.399	685.69
624.606	653.69
624.812	650.69
625.019	665.69
625.226	657.69
625.433	653.69
625.639	669.69
625.846	630.69
626.053	637.69
626.259	630.69
626.466	627.69
626.673	641.69
626.879	637.69
627.086	613.69
627.293	629.69
627.499	627.69
627.706	644.69
627.912	625.69
628.119	631.69
628.325	637.69
628.532	631.69
628.738	621.69
628.945	651.69
629.151	610.69
629.357	619.69
629.564	598.69
629.77	604.69
629.976	611.69
630.183	609.69
630.389	613.69
630.595	611.69
630.802	608.69
631.008	601.69
631.214	597.69
631.42	581.69
631.627	579.69
631.833	573.69
632.039	603.69
632.245	601.69
632.451	607.69
632.657	574.69
632.863	590.69
633.069	585.69
633.275	576.69
633.481	583.69
633.688	576.69
633.893	584.69
634.099	592.69
634.305	574.69
634.511	602.69
634.717	617.69
634.923	605.69
635.129	669.69
635.335	764.69
635.541	684.69
635.747	638.69
635.952	628.69
636.158	605.69
636.364	586.69
636.57	588.69
636.775	588.69
636.981	589.69
637.187	573.69
637.392	575.69
637.598	572.69
637.804	591.69
638.009	587.69
638.215	600.69
638.421	580.69
638.626	595.69
638.832	589.69
639.037	600.69
639.243	595.69
639.448	591.69
639.654	580.69
639.859	585.69
640.065	593.69
640.27	605.69
640.475	608.69
640.681	613.69
640.886	610.69
641.091	628.69
641.297	621.69
641.502	647.69
641.707	646.69
641.913	642.69
642.118	652.69
642.323	669.69
642.528	667.69
642.733	682.69
642.939	706.69
643.144	721.69
643.349	777.69
643.554	820.69
643.759	831.69
643.964	874.69
644.169	919.69
644.374	962.69
644.579	1065.69
644.784	1167.69
644.989	1317.69
645.194	1571.69
645.399	1911.69
645.604	2083.69
645.809	1518.69
646.014	1210.69
646.219	989.69
646.423	848.69
646.628	749.69
646.833	717.69
647.038	682.69
647.243	655.69
647.447	634.69
647.652	613.69
647.857	571.69
648.062	580.69
648.266	576.69
648.471	561.69
648.676	562.69
648.88	545.69
649.085	538.69
649.289	523.69
649.494	524.69
649.698	523.69
649.903	501.69
650.107	494.69
650.312	481.69
650.516	468.69
650.721	459.69
650.925	448.69
651.13	442.69
651.334	433.69
651.539	428.69
651.743	435.69
651.947	429.69
652.152	419.69
652.356	420.69
652.56	455.69
652.764	517.69
652.969	468.69
653.173	423.69
653.377	393.69
653.581	404.69
653.785	374.69
653.99	376.69
654.194	353.69
654.398	371.69
654.602	369.69
654.806	357.69
655.01	362.69
655.214	355.69
655.418	349.69
655.622	348.69
655.826	345.69
656.03	361.69
656.234	371.69
656.438	380.69
656.642	361.69
656.846	355.69
657.049	354.69
657.253	311.69
657.457	308.69
657.661	290.69
657.865	283.69
658.068	274.69
658.272	258.69
658.476	242.69
658.68	232.69
658.883	218.69
659.087	212.69
659.291	226.69
659.494	198.69
659.698	176.69
659.901	190.69
660.105	182.69
660.309	182.69
660.512	164.69
660.716	158.69
660.919	160.69
661.123	156.69
661.326	138.69
661.53	145.69
661.733	126.69
661.936	127.69
662.14	115.69
662.343	120.69
662.546	119.69
662.75	105.69
662.953	106.69
663.156	107.69
663.36	100.69
663.563	91.69
663.766	103.69
663.969	87.69
664.173	60.69
664.376	89.69
664.579	88.69
664.782	85.69
664.985	83.69
665.188	85.69
665.391	95.69
665.594	99.69
665.797	88.69
666	81.69
666.203	79.69
666.406	68.69
666.609	76.69
666.812	103.69
667.015	72.69
667.218	75.69
667.421	84.69
667.624	80.69
667.827	92.69
668.03	77.69
668.232	72.69
668.435	89.69
668.638	84.69
668.841	82.69
669.043	91.69
669.246	81.69
669.449	83.69
669.651	80.69
669.854	77.69
670.057	89.69
670.259	84.69
670.462	90.69
670.665	97.69
670.867	96.69
671.07	98.69
671.272	81.69
671.475	88.69
671.677	91.69
671.88	78.69
672.082	80.69
672.284	83.69
672.487	81.69
672.689	76.69
672.892	84.69
