Data from SnStandardFlinnAPT0064_QswitchEnergy10_LIBS07252019.E.O._I.C._HRD10591_15-28-31-974.txt Node
Date: Thu Jul 25 15:28:31 EDT 2019
User: cochatt
Spectrometer: HR+D1059
Trigger mode: 1
Integration Time (sec): 1.000000E-1
Scans to average: 1
Electric dark correction enabled: true
Nonlinearity correction enabled: false
Boxcar width: 0
XAxis mode: Wavelengths
Number of Pixels in Spectrum: 2048
>>>>>Begin Spectral Data<<<<<
223.165	-18.62
223.4	-18.62
223.635	-18.62
223.869	-15.62
224.104	-19.62
224.338	-20.62
224.573	-12.62
224.808	-10.62
225.042	-9.62
225.277	-7.62
225.511	0.38
225.746	8.38
225.98	4.38
226.215	19.38
226.449	2.38
226.683	22.38
226.918	20.38
227.152	37.38
227.387	35.38
227.621	34.38
227.856	35.38
228.09	40.38
228.324	46.38
228.559	55.38
228.793	69.38
229.027	69.38
229.262	64.38
229.496	74.38
229.73	65.38
229.964	90.38
230.199	72.38
230.433	85.38
230.667	70.38
230.901	89.38
231.136	83.38
231.37	89.38
231.604	99.38
231.838	106.38
232.072	112.38
232.306	126.38
232.541	106.38
232.775	80.38
233.009	84.38
233.243	90.38
233.477	91.38
233.711	96.38
233.945	112.38
234.179	112.38
234.413	93.38
234.647	80.38
234.881	100.38
235.115	96.38
235.349	97.38
235.583	112.38
235.817	135.38
236.051	150.38
236.285	95.38
236.519	85.38
236.753	79.38
236.987	80.38
237.221	83.38
237.455	66.38
237.689	82.38
237.922	81.38
238.156	84.38
238.39	98.38
238.624	88.38
238.858	98.38
239.091	85.38
239.325	74.38
239.559	72.38
239.793	83.38
240.027	91.38
240.26	74.38
240.494	79.38
240.728	84.38
240.961	72.38
241.195	103.38
241.429	102.38
241.662	86.38
241.896	91.38
242.13	108.38
242.363	133.38
242.597	177.38
242.83	151.38
243.064	143.38
243.298	179.38
243.531	168.38
243.765	104.38
243.998	91.38
244.232	97.38
244.465	101.38
244.699	92.38
244.932	74.38
245.166	65.38
245.399	81.38
245.633	92.38
245.866	93.38
246.099	81.38
246.333	78.38
246.566	86.38
246.8	81.38
247.033	77.38
247.266	73.38
247.5	90.38
247.733	98.38
247.966	86.38
248.2	88.38
248.433	124.38
248.666	134.38
248.899	122.38
249.133	83.38
249.366	98.38
249.599	105.38
249.832	131.38
250.066	150.38
250.299	91.38
250.532	91.38
250.765	86.38
250.998	73.38
251.231	70.38
251.465	73.38
251.698	75.38
251.931	99.38
252.164	96.38
252.397	85.38
252.63	98.38
252.863	100.38
253.096	80.38
253.329	102.38
253.562	108.38
253.795	100.38
254.028	88.38
254.261	91.38
254.494	94.38
254.727	124.38
254.96	162.38
255.193	126.38
255.426	98.38
255.659	87.38
255.892	118.38
256.124	110.38
256.357	105.38
256.59	117.38
256.823	95.38
257.056	138.38
257.289	159.38
257.521	193.38
257.754	135.38
257.987	104.38
258.22	89.38
258.452	91.38
258.685	100.38
258.918	81.38
259.151	109.38
259.383	111.38
259.616	145.38
259.849	162.38
260.081	114.38
260.314	95.38
260.547	86.38
260.779	94.38
261.012	92.38
261.244	79.38
261.477	97.38
261.71	79.38
261.942	92.38
262.175	95.38
262.407	86.38
262.64	87.38
262.872	84.38
263.105	95.38
263.337	75.38
263.57	80.38
263.802	96.38
264.035	83.38
264.267	88.38
264.499	95.38
264.732	75.38
264.964	85.38
265.197	92.38
265.429	98.38
265.661	95.38
265.894	109.38
266.126	137.38
266.358	189.38
266.591	160.38
266.823	124.38
267.055	103.38
267.287	86.38
267.52	86.38
267.752	76.38
267.984	82.38
268.216	86.38
268.448	83.38
268.681	85.38
268.913	88.38
269.145	98.38
269.377	94.38
269.609	105.38
269.841	105.38
270.073	114.38
270.306	140.38
270.538	210.38
270.77	352.38
271.002	434.38
271.234	235.38
271.466	120.38
271.698	111.38
271.93	98.38
272.162	96.38
272.394	104.38
272.626	85.38
272.858	99.38
273.09	89.38
273.322	88.38
273.553	85.38
273.785	85.38
274.017	72.38
274.249	85.38
274.481	106.38
274.713	95.38
274.945	97.38
275.176	91.38
275.408	99.38
275.64	89.38
275.872	93.38
276.104	94.38
276.335	103.38
276.567	107.38
276.799	91.38
277.031	94.38
277.262	87.38
277.494	112.38
277.726	147.38
277.957	216.38
278.189	325.38
278.421	284.38
278.652	243.38
278.884	220.38
279.115	147.38
279.347	110.38
279.579	120.38
279.81	106.38
280.042	100.38
280.273	84.38
280.505	104.38
280.736	112.38
280.968	139.38
281.199	208.38
281.431	274.38
281.662	294.38
281.894	175.38
282.125	124.38
282.356	112.38
282.588	109.38
282.819	110.38
283.051	126.38
283.282	162.38
283.513	216.38
283.745	358.38
283.976	630.38
284.207	914.38
284.439	692.38
284.67	302.38
284.901	303.38
285.132	406.38
285.364	460.38
285.595	234.38
285.826	198.38
286.057	308.38
286.288	497.38
286.52	719.38
286.751	571.38
286.982	222.38
287.213	152.38
287.444	126.38
287.675	113.38
287.906	96.38
288.138	97.38
288.369	94.38
288.6	95.38
288.831	94.38
289.062	97.38
289.293	106.38
289.524	103.38
289.755	93.38
289.986	116.38
290.217	104.38
290.448	106.38
290.679	103.38
290.91	141.38
291.141	188.38
291.371	307.38
291.602	344.38
291.833	224.38
292.064	119.38
292.295	96.38
292.526	102.38
292.757	101.38
292.987	101.38
293.218	97.38
293.449	102.38
293.68	90.38
293.91	95.38
294.141	80.38
294.372	99.38
294.603	92.38
294.833	91.38
295.064	96.38
295.295	100.38
295.525	92.38
295.756	103.38
295.987	86.38
296.217	92.38
296.448	94.38
296.679	89.38
296.909	97.38
297.14	106.38
297.37	98.38
297.601	98.38
297.831	104.38
298.062	95.38
298.292	110.38
298.523	99.38
298.753	103.38
298.984	110.38
299.214	119.38
299.445	120.38
299.675	104.38
299.905	134.38
300.136	153.38
300.366	185.38
300.597	317.38
300.827	515.38
301.057	807.38
301.288	721.38
301.518	304.38
301.748	155.38
301.979	150.38
302.209	140.38
302.439	168.38
302.669	180.38
302.9	319.38
303.13	593.38
303.36	1060.38
303.59	1447.38
303.82	1003.38
304.051	357.38
304.281	176.38
304.511	146.38
304.741	133.38
304.971	118.38
305.201	116.38
305.431	119.38
305.661	119.38
305.891	117.38
306.121	97.38
306.352	117.38
306.582	98.38
306.812	102.38
307.042	131.38
307.272	112.38
307.502	118.38
307.731	110.38
307.961	114.38
308.191	101.38
308.421	111.38
308.651	119.38
308.881	111.38
309.111	112.38
309.341	113.38
309.571	110.38
309.8	119.38
310.03	117.38
310.26	107.38
310.49	112.38
310.72	110.38
310.949	115.38
311.179	112.38
311.409	122.38
311.639	127.38
311.868	108.38
312.098	115.38
312.328	117.38
312.557	129.38
312.787	120.38
313.017	126.38
313.246	97.38
313.476	118.38
313.706	150.38
313.935	175.38
314.165	240.38
314.394	284.38
314.624	210.38
314.853	116.38
315.083	139.38
315.312	121.38
315.542	146.38
315.771	158.38
316.001	155.38
316.23	155.38
316.46	162.38
316.689	202.38
316.919	284.38
317.148	608.38
317.377	1088.38
317.607	1797.38
317.836	1641.38
318.065	628.38
318.295	265.38
318.524	170.38
318.753	155.38
318.983	135.38
319.212	129.38
319.441	136.38
319.67	126.38
319.9	129.38
320.129	134.38
320.358	137.38
320.587	140.38
320.816	122.38
321.046	114.38
321.275	135.38
321.504	136.38
321.733	150.38
321.962	192.38
322.191	201.38
322.42	152.38
322.649	148.38
322.878	138.38
323.108	135.38
323.337	136.38
323.566	150.38
323.795	138.38
324.024	142.38
324.253	152.38
324.482	181.38
324.71	237.38
324.939	324.38
325.168	270.38
325.397	222.38
325.626	287.38
325.855	589.38
326.084	1117.38
326.313	1904.38
326.542	1879.38
326.77	739.38
326.999	300.38
327.228	248.38
327.457	254.38
327.686	258.38
327.914	180.38
328.143	140.38
328.372	136.38
328.6	153.38
328.829	137.38
329.058	138.38
329.287	123.38
329.515	127.38
329.744	131.38
329.972	107.38
330.201	124.38
330.43	122.38
330.658	116.38
330.887	124.38
331.115	121.38
331.344	125.38
331.572	128.38
331.801	117.38
332.03	136.38
332.258	154.38
332.486	201.38
332.715	330.38
332.943	613.38
333.172	915.38
333.4	772.38
333.629	286.38
333.857	149.38
334.085	146.38
334.314	158.38
334.542	136.38
334.771	135.38
334.999	140.38
335.227	134.38
335.455	123.38
335.684	126.38
335.912	110.38
336.14	122.38
336.369	126.38
336.597	119.38
336.825	113.38
337.053	119.38
337.281	117.38
337.51	120.38
337.738	115.38
337.966	118.38
338.194	112.38
338.422	115.38
338.65	131.38
338.878	138.38
339.106	122.38
339.334	131.38
339.562	112.38
339.79	122.38
340.018	115.38
340.246	116.38
340.474	126.38
340.702	119.38
340.93	126.38
341.158	130.38
341.386	111.38
341.614	111.38
341.842	127.38
342.07	123.38
342.298	124.38
342.526	128.38
342.754	111.38
342.981	119.38
343.209	101.38
343.437	132.38
343.665	125.38
343.893	116.38
344.12	127.38
344.348	124.38
344.576	116.38
344.804	129.38
345.031	123.38
345.259	116.38
345.487	124.38
345.714	107.38
345.942	121.38
346.17	106.38
346.397	108.38
346.625	106.38
346.853	115.38
347.08	106.38
347.308	96.38
347.535	98.38
347.763	127.38
347.99	123.38
348.218	108.38
348.445	122.38
348.673	115.38
348.9	126.38
349.128	129.38
349.355	120.38
349.583	123.38
349.81	124.38
350.037	112.38
350.265	118.38
350.492	146.38
350.72	112.38
350.947	120.38
351.174	116.38
351.402	113.38
351.629	126.38
351.856	121.38
352.083	127.38
352.311	123.38
352.538	126.38
352.765	122.38
352.992	121.38
353.22	117.38
353.447	112.38
353.674	100.38
353.901	113.38
354.128	102.38
354.355	114.38
354.583	114.38
354.81	107.38
355.037	120.38
355.264	124.38
355.491	98.38
355.718	95.38
355.945	95.38
356.172	109.38
356.399	104.38
356.626	114.38
356.853	118.38
357.08	105.38
357.307	115.38
357.534	116.38
357.761	106.38
357.988	118.38
358.215	118.38
358.441	122.38
358.668	120.38
358.895	125.38
359.122	112.38
359.349	115.38
359.576	126.38
359.802	116.38
360.029	120.38
360.256	93.38
360.483	117.38
360.709	114.38
360.936	135.38
361.163	113.38
361.39	120.38
361.616	112.38
361.843	110.38
362.07	115.38
362.296	121.38
362.523	119.38
362.749	122.38
362.976	116.38
363.203	103.38
363.429	120.38
363.656	108.38
363.882	106.38
364.109	122.38
364.335	114.38
364.562	118.38
364.788	107.38
365.015	106.38
365.241	145.38
365.468	240.38
365.694	291.38
365.92	244.38
366.147	140.38
366.373	110.38
366.599	98.38
366.826	114.38
367.052	120.38
367.278	110.38
367.505	100.38
367.731	117.38
367.957	110.38
368.184	102.38
368.41	126.38
368.636	124.38
368.862	123.38
369.089	112.38
369.315	104.38
369.541	115.38
369.767	117.38
369.993	111.38
370.219	125.38
370.445	118.38
370.672	121.38
370.898	111.38
371.124	117.38
371.35	103.38
371.576	128.38
371.802	116.38
372.028	116.38
372.254	122.38
372.48	124.38
372.706	121.38
372.932	116.38
373.158	117.38
373.384	140.38
373.61	124.38
373.835	135.38
374.061	111.38
374.287	125.38
374.513	120.38
374.739	105.38
374.965	107.38
375.191	118.38
375.416	101.38
375.642	101.38
375.868	115.38
376.094	107.38
376.319	114.38
376.545	114.38
376.771	112.38
376.997	114.38
377.222	121.38
377.448	106.38
377.674	115.38
377.899	104.38
378.125	114.38
378.35	118.38
378.576	121.38
378.802	130.38
379.027	138.38
379.253	142.38
379.478	202.38
379.704	374.38
379.929	924.38
380.155	1940.38
380.38	2004.38
380.606	625.38
380.831	232.38
381.057	152.38
381.282	133.38
381.507	124.38
381.733	113.38
381.958	127.38
382.184	108.38
382.409	96.38
382.634	105.38
382.86	118.38
383.085	102.38
383.31	96.38
383.535	122.38
383.761	108.38
383.986	107.38
384.211	105.38
384.436	122.38
384.662	107.38
384.887	121.38
385.112	112.38
385.337	114.38
385.562	108.38
385.787	112.38
386.013	117.38
386.238	108.38
386.463	122.38
386.688	106.38
386.913	121.38
387.138	106.38
387.363	111.38
387.588	116.38
387.813	107.38
388.038	108.38
388.263	96.38
388.488	119.38
388.713	100.38
388.938	104.38
389.163	116.38
389.387	106.38
389.612	105.38
389.837	104.38
390.062	99.38
390.287	92.38
390.512	109.38
390.736	110.38
390.961	117.38
391.186	103.38
391.411	105.38
391.636	94.38
391.86	91.38
392.085	107.38
392.31	102.38
392.534	96.38
392.759	94.38
392.984	92.38
393.208	137.38
393.433	176.38
393.658	179.38
393.882	112.38
394.107	86.38
394.331	118.38
394.556	93.38
394.78	100.38
395.005	101.38
395.229	102.38
395.454	120.38
395.678	111.38
395.903	106.38
396.127	101.38
396.352	108.38
396.576	132.38
396.801	117.38
397.025	140.38
397.249	119.38
397.474	99.38
397.698	104.38
397.922	99.38
398.147	108.38
398.371	111.38
398.595	96.38
398.82	91.38
399.044	113.38
399.268	95.38
399.492	92.38
399.717	92.38
399.941	95.38
400.165	110.38
400.389	82.38
400.613	100.38
400.837	98.38
401.062	99.38
401.286	104.38
401.51	102.38
401.734	104.38
401.958	102.38
402.182	103.38
402.406	122.38
402.63	98.38
402.854	96.38
403.078	107.38
403.302	117.38
403.526	90.38
403.75	105.38
403.974	89.38
404.198	102.38
404.422	100.38
404.645	102.38
404.869	107.38
405.093	101.38
405.317	87.38
405.541	97.38
405.765	144.38
405.988	160.38
406.212	128.38
406.436	93.38
406.66	109.38
406.883	100.38
407.107	84.38
407.331	91.38
407.555	100.38
407.778	108.38
408.002	105.38
408.226	95.38
408.449	108.38
408.673	101.38
408.896	107.38
409.12	98.38
409.344	106.38
409.567	103.38
409.791	114.38
410.014	121.38
410.238	111.38
410.461	112.38
410.685	107.38
410.908	94.38
411.132	107.38
411.355	107.38
411.578	103.38
411.802	102.38
412.025	99.38
412.249	94.38
412.472	110.38
412.695	110.38
412.919	105.38
413.142	110.38
413.365	101.38
413.589	99.38
413.812	114.38
414.035	116.38
414.258	123.38
414.482	100.38
414.705	95.38
414.928	107.38
415.151	103.38
415.374	96.38
415.597	97.38
415.821	95.38
416.044	93.38
416.267	102.38
416.49	91.38
416.713	100.38
416.936	95.38
417.159	99.38
417.382	92.38
417.605	87.38
417.828	101.38
418.051	101.38
418.274	108.38
418.497	95.38
418.72	112.38
418.943	108.38
419.166	110.38
419.389	112.38
419.611	116.38
419.834	112.38
420.057	111.38
420.28	107.38
420.503	114.38
420.726	95.38
420.948	85.38
421.171	103.38
421.394	94.38
421.617	95.38
421.839	90.38
422.062	100.38
422.285	115.38
422.507	119.38
422.73	162.38
422.953	198.38
423.175	126.38
423.398	115.38
423.621	101.38
423.843	92.38
424.066	108.38
424.288	99.38
424.511	106.38
424.733	115.38
424.956	114.38
425.178	107.38
425.401	116.38
425.623	96.38
425.846	101.38
426.068	100.38
426.291	89.38
426.513	102.38
426.735	104.38
426.958	114.38
427.18	89.38
427.402	96.38
427.625	110.38
427.847	99.38
428.069	104.38
428.292	103.38
428.514	117.38
428.736	102.38
428.958	101.38
429.181	81.38
429.403	121.38
429.625	102.38
429.847	103.38
430.069	120.38
430.292	103.38
430.514	101.38
430.736	120.38
430.958	110.38
431.18	99.38
431.402	84.38
431.624	102.38
431.846	98.38
432.068	98.38
432.29	91.38
432.512	110.38
432.734	93.38
432.956	105.38
433.178	95.38
433.4	101.38
433.622	97.38
433.844	98.38
434.066	93.38
434.287	105.38
434.509	88.38
434.731	100.38
434.953	83.38
435.175	92.38
435.397	98.38
435.618	88.38
435.84	99.38
436.062	100.38
436.284	97.38
436.505	107.38
436.727	94.38
436.949	101.38
437.17	84.38
437.392	89.38
437.614	88.38
437.835	96.38
438.057	106.38
438.278	100.38
438.5	111.38
438.721	107.38
438.943	84.38
439.165	128.38
439.386	117.38
439.608	102.38
439.829	111.38
440.05	107.38
440.272	129.38
440.493	120.38
440.715	103.38
440.936	104.38
441.158	105.38
441.379	99.38
441.6	111.38
441.822	106.38
442.043	134.38
442.264	148.38
442.486	131.38
442.707	107.38
442.928	84.38
443.149	97.38
443.371	88.38
443.592	89.38
443.813	99.38
444.034	81.38
444.255	93.38
444.476	103.38
444.698	75.38
444.919	89.38
445.14	162.38
445.361	134.38
445.582	111.38
445.803	100.38
446.024	90.38
446.245	92.38
446.466	105.38
446.687	124.38
446.908	121.38
447.129	103.38
447.35	114.38
447.571	108.38
447.792	90.38
448.013	96.38
448.234	95.38
448.455	86.38
448.675	84.38
448.896	95.38
449.117	104.38
449.338	155.38
449.559	158.38
449.779	136.38
450	116.38
450.221	112.38
450.442	117.38
450.662	136.38
450.883	114.38
451.104	114.38
451.324	127.38
451.545	120.38
451.766	129.38
451.986	164.38
452.207	264.38
452.428	649.38
452.648	1688.38
452.869	946.38
453.089	238.38
453.31	144.38
453.53	136.38
453.751	152.38
453.971	176.38
454.192	177.38
454.412	126.38
454.633	112.38
454.853	102.38
455.073	91.38
455.294	107.38
455.514	104.38
455.734	98.38
455.955	94.38
456.175	92.38
456.395	99.38
456.616	111.38
456.836	102.38
457.056	103.38
457.276	90.38
457.497	108.38
457.717	129.38
457.937	104.38
458.157	94.38
458.377	98.38
458.598	109.38
458.818	92.38
459.038	98.38
459.258	104.38
459.478	109.38
459.698	90.38
459.918	92.38
460.138	91.38
460.358	77.38
460.578	90.38
460.798	99.38
461.018	95.38
461.238	100.38
461.458	106.38
461.678	99.38
461.898	96.38
462.118	108.38
462.338	94.38
462.558	102.38
462.777	91.38
462.997	103.38
463.217	111.38
463.437	139.38
463.657	188.38
463.876	196.38
464.096	147.38
464.316	101.38
464.536	98.38
464.755	102.38
464.975	98.38
465.195	101.38
465.414	97.38
465.634	84.38
465.854	102.38
466.073	94.38
466.293	108.38
466.512	104.38
466.732	116.38
466.951	116.38
467.171	153.38
467.391	161.38
467.61	100.38
467.829	108.38
468.049	104.38
468.268	122.38
468.488	100.38
468.707	105.38
468.927	92.38
469.146	100.38
469.365	103.38
469.585	86.38
469.804	89.38
470.023	101.38
470.243	102.38
470.462	107.38
470.681	128.38
470.901	138.38
471.12	212.38
471.339	239.38
471.558	136.38
471.777	105.38
471.997	116.38
472.216	108.38
472.435	105.38
472.654	114.38
472.873	105.38
473.092	95.38
473.311	122.38
473.53	94.38
473.749	101.38
473.968	111.38
474.187	91.38
474.406	96.38
474.625	97.38
474.844	90.38
475.063	88.38
475.282	90.38
475.501	88.38
475.72	110.38
475.939	86.38
476.158	103.38
476.377	120.38
476.596	99.38
476.814	106.38
477.033	113.38
477.252	102.38
477.471	90.38
477.69	115.38
477.908	112.38
478.127	105.38
478.346	106.38
478.564	100.38
478.783	91.38
479.002	105.38
479.22	105.38
479.439	102.38
479.658	105.38
479.876	103.38
480.095	99.38
480.313	98.38
480.532	88.38
480.751	110.38
480.969	102.38
481.188	99.38
481.406	104.38
481.624	103.38
481.843	129.38
482.061	113.38
482.28	104.38
482.498	118.38
482.717	88.38
482.935	107.38
483.153	114.38
483.372	114.38
483.59	103.38
483.808	100.38
484.027	105.38
484.245	120.38
484.463	193.38
484.681	267.38
484.9	164.38
485.118	130.38
485.336	115.38
485.554	129.38
485.772	134.38
485.99	207.38
486.209	281.38
486.427	188.38
486.645	124.38
486.863	106.38
487.081	104.38
487.299	104.38
487.517	100.38
487.735	106.38
487.953	98.38
488.171	105.38
488.389	104.38
488.607	84.38
488.825	103.38
489.043	91.38
489.261	105.38
489.479	103.38
489.696	97.38
489.914	95.38
490.132	94.38
490.35	99.38
490.568	104.38
490.786	102.38
491.003	107.38
491.221	115.38
491.439	133.38
491.657	102.38
491.874	114.38
492.092	109.38
492.31	103.38
492.527	110.38
492.745	107.38
492.963	104.38
493.18	116.38
493.398	106.38
493.615	112.38
493.833	105.38
494.05	99.38
494.268	108.38
494.485	105.38
494.703	115.38
494.92	103.38
495.138	99.38
495.355	114.38
495.573	113.38
495.79	108.38
496.008	110.38
496.225	100.38
496.442	128.38
496.66	138.38
496.877	179.38
497.094	163.38
497.312	109.38
497.529	112.38
497.746	111.38
497.963	110.38
498.181	115.38
498.398	105.38
498.615	112.38
498.832	107.38
499.049	105.38
499.267	140.38
499.484	186.38
499.701	138.38
499.918	102.38
500.135	102.38
500.352	120.38
500.569	107.38
500.786	113.38
501.003	96.38
501.22	88.38
501.437	109.38
501.654	112.38
501.871	91.38
502.088	108.38
502.305	107.38
502.522	104.38
502.739	104.38
502.956	94.38
503.172	106.38
503.389	113.38
503.606	120.38
503.823	107.38
504.04	109.38
504.256	97.38
504.473	91.38
504.69	101.38
504.907	110.38
505.123	112.38
505.34	103.38
505.557	103.38
505.773	110.38
505.99	118.38
506.207	111.38
506.423	115.38
506.64	115.38
506.856	89.38
507.073	102.38
507.289	92.38
507.506	113.38
507.722	100.38
507.939	95.38
508.155	108.38
508.372	99.38
508.588	90.38
508.805	108.38
509.021	102.38
509.238	98.38
509.454	142.38
509.67	175.38
509.887	130.38
510.103	120.38
510.319	102.38
510.536	106.38
510.752	124.38
510.968	116.38
511.184	110.38
511.401	109.38
511.617	106.38
511.833	93.38
512.049	89.38
512.265	107.38
512.481	94.38
512.698	100.38
512.914	95.38
513.13	93.38
513.346	98.38
513.562	101.38
513.778	99.38
513.994	93.38
514.21	117.38
514.426	161.38
514.642	207.38
514.858	135.38
515.074	132.38
515.29	116.38
515.506	97.38
515.721	87.38
515.937	107.38
516.153	91.38
516.369	107.38
516.585	84.38
516.801	100.38
517.016	94.38
517.232	88.38
517.448	113.38
517.664	116.38
517.879	100.38
518.095	101.38
518.311	86.38
518.527	118.38
518.742	99.38
518.958	120.38
519.173	170.38
519.389	126.38
519.605	110.38
519.82	106.38
520.036	97.38
520.251	103.38
520.467	102.38
520.682	113.38
520.898	94.38
521.113	94.38
521.329	99.38
521.544	114.38
521.76	112.38
521.975	119.38
522.19	118.38
522.406	101.38
522.621	104.38
522.836	99.38
523.052	105.38
523.267	97.38
523.482	97.38
523.698	112.38
523.913	111.38
524.128	100.38
524.343	114.38
524.559	95.38
524.774	97.38
524.989	114.38
525.204	96.38
525.419	88.38
525.634	113.38
525.849	105.38
526.064	102.38
526.28	96.38
526.495	91.38
526.71	98.38
526.925	99.38
527.14	98.38
527.355	100.38
527.57	100.38
527.785	98.38
527.999	104.38
528.214	98.38
528.429	107.38
528.644	103.38
528.859	97.38
529.074	105.38
529.289	95.38
529.503	101.38
529.718	97.38
529.933	102.38
530.148	81.38
530.363	97.38
530.577	107.38
530.792	106.38
531.007	93.38
531.221	89.38
531.436	105.38
531.651	114.38
531.865	106.38
532.08	104.38
532.295	123.38
532.509	166.38
532.724	136.38
532.938	117.38
533.153	100.38
533.367	110.38
533.582	103.38
533.796	103.38
534.011	106.38
534.225	88.38
534.44	88.38
534.654	96.38
534.868	102.38
535.083	82.38
535.297	91.38
535.511	99.38
535.726	97.38
535.94	99.38
536.154	104.38
536.369	105.38
536.583	88.38
536.797	105.38
537.011	96.38
537.225	102.38
537.44	100.38
537.654	103.38
537.868	111.38
538.082	83.38
538.296	98.38
538.51	104.38
538.724	106.38
538.938	105.38
539.153	96.38
539.367	91.38
539.581	102.38
539.795	110.38
540.009	107.38
540.222	102.38
540.436	104.38
540.65	109.38
540.864	104.38
541.078	115.38
541.292	143.38
541.506	222.38
541.72	214.38
541.934	140.38
542.147	93.38
542.361	100.38
542.575	105.38
542.789	110.38
543.002	107.38
543.216	100.38
543.43	93.38
543.644	109.38
543.857	96.38
544.071	91.38
544.285	105.38
544.498	103.38
544.712	110.38
544.925	88.38
545.139	116.38
545.352	105.38
545.566	99.38
545.779	110.38
545.993	100.38
546.206	96.38
546.42	97.38
546.633	94.38
546.847	106.38
547.06	106.38
547.274	96.38
547.487	100.38
547.7	106.38
547.914	106.38
548.127	115.38
548.34	122.38
548.554	91.38
548.767	95.38
548.98	92.38
549.193	104.38
549.407	102.38
549.62	106.38
549.833	105.38
550.046	92.38
550.259	111.38
550.473	114.38
550.686	102.38
550.899	104.38
551.112	116.38
551.325	88.38
551.538	105.38
551.751	103.38
551.964	88.38
552.177	115.38
552.39	103.38
552.603	90.38
552.816	104.38
553.029	104.38
553.242	96.38
553.455	116.38
553.667	111.38
553.88	105.38
554.093	119.38
554.306	97.38
554.519	102.38
554.732	104.38
554.944	106.38
555.157	97.38
555.37	107.38
555.583	104.38
555.795	112.38
556.008	120.38
556.221	167.38
556.433	140.38
556.646	115.38
556.859	114.38
557.071	113.38
557.284	134.38
557.496	124.38
557.709	102.38
557.921	112.38
558.134	120.38
558.346	110.38
558.559	107.38
558.771	102.38
558.984	104.38
559.196	103.38
559.409	95.38
559.621	100.38
559.833	108.38
560.046	116.38
560.258	100.38
560.47	97.38
560.683	118.38
560.895	106.38
561.107	114.38
561.32	103.38
561.532	94.38
561.744	89.38
561.956	105.38
562.168	112.38
562.381	99.38
562.593	108.38
562.805	149.38
563.017	196.38
563.229	316.38
563.441	721.38
563.653	231.38
563.865	118.38
564.077	106.38
564.289	104.38
564.501	108.38
564.713	102.38
564.925	106.38
565.137	100.38
565.349	104.38
565.561	95.38
565.773	98.38
565.985	91.38
566.197	104.38
566.408	95.38
566.62	115.38
566.832	92.38
567.044	114.38
567.255	98.38
567.467	99.38
567.679	108.38
567.891	135.38
568.102	190.38
568.314	276.38
568.526	165.38
568.737	122.38
568.949	98.38
569.161	105.38
569.372	81.38
569.584	105.38
569.795	97.38
570.007	117.38
570.218	148.38
570.43	171.38
570.641	125.38
570.853	97.38
571.064	91.38
571.276	86.38
571.487	96.38
571.698	99.38
571.91	84.38
572.121	108.38
572.333	123.38
572.544	106.38
572.755	159.38
572.966	214.38
573.178	144.38
573.389	119.38
573.6	102.38
573.811	89.38
574.023	106.38
574.234	106.38
574.445	86.38
574.656	88.38
574.867	87.38
575.078	83.38
575.289	94.38
575.501	99.38
575.712	95.38
575.923	90.38
576.134	93.38
576.345	86.38
576.556	95.38
576.767	80.38
576.978	83.38
577.188	102.38
577.399	91.38
577.61	95.38
577.821	87.38
578.032	108.38
578.243	108.38
578.454	106.38
578.665	99.38
578.875	87.38
579.086	82.38
579.297	86.38
579.508	90.38
579.718	89.38
579.929	85.38
580.14	97.38
580.35	97.38
580.561	110.38
580.772	100.38
580.982	102.38
581.193	94.38
581.403	97.38
581.614	89.38
581.825	112.38
582.035	98.38
582.246	92.38
582.456	101.38
582.667	108.38
582.877	134.38
583.087	118.38
583.298	85.38
583.508	89.38
583.719	104.38
583.929	108.38
584.139	100.38
584.35	104.38
584.56	93.38
584.77	86.38
584.981	99.38
585.191	100.38
585.401	80.38
585.611	90.38
585.821	95.38
586.032	90.38
586.242	93.38
586.452	95.38
586.662	107.38
586.872	75.38
587.082	97.38
587.292	77.38
587.502	103.38
587.713	102.38
587.923	91.38
588.133	98.38
588.343	87.38
588.553	97.38
588.762	92.38
588.972	109.38
589.182	122.38
589.392	117.38
589.602	112.38
589.812	115.38
590.022	104.38
590.232	110.38
590.441	92.38
590.651	85.38
590.861	90.38
591.071	88.38
591.281	99.38
591.49	89.38
591.7	89.38
591.91	99.38
592.119	90.38
592.329	107.38
592.539	98.38
592.748	100.38
592.958	113.38
593.167	88.38
593.377	80.38
593.587	103.38
593.796	92.38
594.006	91.38
594.215	90.38
594.424	86.38
594.634	96.38
594.843	107.38
595.053	95.38
595.262	97.38
595.472	107.38
595.681	90.38
595.89	79.38
596.1	80.38
596.309	88.38
596.518	78.38
596.727	93.38
596.937	89.38
597.146	112.38
597.355	104.38
597.564	107.38
597.774	96.38
597.983	88.38
598.192	89.38
598.401	100.38
598.61	102.38
598.819	89.38
599.028	93.38
599.237	89.38
599.446	101.38
599.655	97.38
599.864	96.38
600.073	88.38
600.282	92.38
600.491	104.38
600.7	91.38
600.909	100.38
601.118	105.38
601.327	104.38
601.536	105.38
601.745	110.38
601.953	132.38
602.162	167.38
602.371	116.38
602.58	113.38
602.789	97.38
602.997	90.38
603.206	92.38
603.415	103.38
603.623	89.38
603.832	102.38
604.041	108.38
604.249	80.38
604.458	98.38
604.666	97.38
604.875	96.38
605.084	95.38
605.292	99.38
605.501	96.38
605.709	94.38
605.918	108.38
606.126	114.38
606.334	104.38
606.543	120.38
606.751	143.38
606.96	187.38
607.168	191.38
607.376	137.38
607.585	110.38
607.793	101.38
608.001	91.38
608.21	84.38
608.418	88.38
608.626	87.38
608.834	90.38
609.043	97.38
609.251	96.38
609.459	103.38
609.667	107.38
609.875	92.38
610.083	98.38
610.291	95.38
610.499	94.38
610.707	105.38
610.916	88.38
611.124	86.38
611.332	90.38
611.54	89.38
611.748	102.38
611.955	97.38
612.163	99.38
612.371	91.38
612.579	104.38
612.787	91.38
612.995	94.38
613.203	83.38
613.411	86.38
613.618	82.38
613.826	102.38
614.034	102.38
614.242	98.38
614.449	106.38
614.657	91.38
614.865	112.38
615.072	120.38
615.28	118.38
615.488	96.38
615.695	107.38
615.903	113.38
616.111	100.38
616.318	104.38
616.526	104.38
616.733	98.38
616.941	95.38
617.148	95.38
617.356	94.38
617.563	96.38
617.771	94.38
617.978	101.38
618.185	96.38
618.393	101.38
618.6	83.38
618.807	112.38
619.015	101.38
619.222	88.38
619.429	90.38
619.637	106.38
619.844	99.38
620.051	87.38
620.258	84.38
620.466	88.38
620.673	100.38
620.88	89.38
621.087	99.38
621.294	89.38
621.501	82.38
621.708	78.38
621.915	98.38
622.122	91.38
622.329	78.38
622.536	87.38
622.743	93.38
622.95	85.38
623.157	88.38
623.364	100.38
623.571	100.38
623.778	97.38
623.985	98.38
624.192	85.38
624.399	89.38
624.606	96.38
624.812	102.38
625.019	101.38
625.226	96.38
625.433	88.38
625.639	77.38
625.846	100.38
626.053	94.38
626.259	92.38
626.466	88.38
626.673	73.38
626.879	89.38
627.086	89.38
627.293	98.38
627.499	81.38
627.706	90.38
627.912	101.38
628.119	83.38
628.325	99.38
628.532	104.38
628.738	91.38
628.945	93.38
629.151	98.38
629.357	94.38
629.564	99.38
629.77	107.38
629.976	92.38
630.183	84.38
630.389	88.38
630.595	83.38
630.802	94.38
631.008	88.38
631.214	86.38
631.42	99.38
631.627	95.38
631.833	81.38
632.039	102.38
632.245	95.38
632.451	87.38
632.657	86.38
632.863	90.38
633.069	89.38
633.275	95.38
633.481	84.38
633.688	91.38
633.893	91.38
634.099	81.38
634.305	75.38
634.511	101.38
634.717	90.38
634.923	104.38
635.129	133.38
635.335	146.38
635.541	103.38
635.747	111.38
635.952	103.38
636.158	83.38
636.364	91.38
636.57	85.38
636.775	90.38
636.981	90.38
637.187	86.38
637.392	84.38
637.598	105.38
637.804	75.38
638.009	90.38
638.215	88.38
638.421	84.38
638.626	86.38
638.832	92.38
639.037	111.38
639.243	87.38
639.448	86.38
639.654	103.38
639.859	92.38
640.065	80.38
640.27	87.38
640.475	86.38
640.681	78.38
640.886	81.38
641.091	80.38
641.297	90.38
641.502	88.38
641.707	97.38
641.913	98.38
642.118	83.38
642.323	91.38
642.528	96.38
642.733	98.38
642.939	71.38
643.144	81.38
643.349	88.38
643.554	85.38
643.759	88.38
643.964	100.38
644.169	96.38
644.374	82.38
644.579	98.38
644.784	88.38
644.989	80.38
645.194	90.38
645.399	106.38
645.604	105.38
645.809	104.38
646.014	92.38
646.219	94.38
646.423	100.38
646.628	82.38
646.833	82.38
647.038	89.38
647.243	103.38
647.447	91.38
647.652	76.38
647.857	87.38
648.062	80.38
648.266	86.38
648.471	78.38
648.676	92.38
648.88	79.38
649.085	96.38
649.289	96.38
649.494	85.38
649.698	95.38
649.903	99.38
650.107	94.38
650.312	85.38
650.516	69.38
650.721	85.38
650.925	80.38
651.13	86.38
651.334	79.38
651.539	87.38
651.743	83.38
651.947	83.38
652.152	86.38
652.356	97.38
652.56	96.38
652.764	111.38
652.969	87.38
653.173	101.38
653.377	93.38
653.581	99.38
653.785	86.38
653.99	92.38
654.194	77.38
654.398	76.38
654.602	92.38
654.806	68.38
655.01	92.38
655.214	96.38
655.418	80.38
655.622	83.38
655.826	102.38
656.03	87.38
656.234	84.38
656.438	90.38
656.642	90.38
656.846	91.38
657.049	74.38
657.253	90.38
657.457	88.38
657.661	81.38
657.865	84.38
658.068	88.38
658.272	74.38
658.476	102.38
658.68	73.38
658.883	83.38
659.087	84.38
659.291	88.38
659.494	81.38
659.698	79.38
659.901	83.38
660.105	87.38
660.309	81.38
660.512	84.38
660.716	92.38
660.919	90.38
661.123	83.38
661.326	83.38
661.53	56.38
661.733	67.38
661.936	87.38
662.14	84.38
662.343	78.38
662.546	81.38
662.75	67.38
662.953	82.38
663.156	80.38
663.36	76.38
663.563	81.38
663.766	83.38
663.969	88.38
664.173	82.38
664.376	81.38
664.579	75.38
664.782	98.38
664.985	79.38
665.188	72.38
665.391	84.38
665.594	82.38
665.797	80.38
666	83.38
666.203	80.38
666.406	81.38
666.609	81.38
666.812	86.38
667.015	83.38
667.218	87.38
667.421	82.38
667.624	86.38
667.827	71.38
668.03	78.38
668.232	98.38
668.435	95.38
668.638	85.38
668.841	86.38
669.043	97.38
669.246	84.38
669.449	89.38
669.651	78.38
669.854	71.38
670.057	83.38
670.259	94.38
670.462	83.38
670.665	80.38
670.867	85.38
671.07	76.38
671.272	75.38
671.475	89.38
671.677	84.38
671.88	91.38
672.082	89.38
672.284	101.38
672.487	85.38
672.689	79.38
672.892	97.38
