Data from SnStandardFlinnAPT0064_LampEnergy5.5_LIBS07252019.E.O._I.C._HRD10591_15-17-15-492.txt Node
Date: Thu Jul 25 15:17:15 EDT 2019
User: cochatt
Spectrometer: HR+D1059
Trigger mode: 1
Integration Time (sec): 1.000000E-1
Scans to average: 1
Electric dark correction enabled: true
Nonlinearity correction enabled: false
Boxcar width: 0
XAxis mode: Wavelengths
Number of Pixels in Spectrum: 2048
>>>>>Begin Spectral Data<<<<<
223.165	-6.94
223.4	-6.94
223.635	-6.94
223.869	-18.94
224.104	-10.94
224.338	-18.94
224.573	-2.94
224.808	-14.94
225.042	-10.94
225.277	-4.94
225.511	-13.94
225.746	2.06
225.98	18.06
226.215	5.06
226.449	22.06
226.683	5.06
226.918	28.06
227.152	23.06
227.387	38.06
227.621	35.06
227.856	41.06
228.09	27.06
228.324	72.06
228.559	60.06
228.793	86.06
229.027	164.06
229.262	161.06
229.496	170.06
229.73	167.06
229.964	162.06
230.199	160.06
230.433	152.06
230.667	167.06
230.901	151.06
231.136	168.06
231.37	177.06
231.604	197.06
231.838	209.06
232.072	244.06
232.306	251.06
232.541	227.06
232.775	218.06
233.009	207.06
233.243	207.06
233.477	228.06
233.711	275.06
233.945	268.06
234.179	263.06
234.413	226.06
234.647	213.06
234.881	223.06
235.115	244.06
235.349	279.06
235.583	363.06
235.817	462.06
236.051	439.06
236.285	313.06
236.519	253.06
236.753	237.06
236.987	240.06
237.221	246.06
237.455	243.06
237.689	224.06
237.922	227.06
238.156	228.06
238.39	218.06
238.624	235.06
238.858	217.06
239.091	224.06
239.325	230.06
239.559	223.06
239.793	240.06
240.027	261.06
240.26	233.06
240.494	275.06
240.728	277.06
240.961	263.06
241.195	296.06
241.429	291.06
241.662	319.06
241.896	363.06
242.13	406.06
242.363	527.06
242.597	664.06
242.83	648.06
243.064	658.06
243.298	785.06
243.531	657.06
243.765	419.06
243.998	331.06
244.232	303.06
244.465	312.06
244.699	310.06
244.932	312.06
245.166	293.06
245.399	285.06
245.633	311.06
245.866	311.06
246.099	322.06
246.333	305.06
246.566	293.06
246.8	292.06
247.033	273.06
247.266	288.06
247.5	311.06
247.733	317.06
247.966	313.06
248.2	340.06
248.433	370.06
248.666	424.06
248.899	409.06
249.133	358.06
249.366	371.06
249.599	411.06
249.832	462.06
250.066	473.06
250.299	393.06
250.532	366.06
250.765	333.06
250.998	356.06
251.231	336.06
251.465	331.06
251.698	342.06
251.931	346.06
252.164	337.06
252.397	341.06
252.63	361.06
252.863	365.06
253.096	369.06
253.329	351.06
253.562	363.06
253.795	369.06
254.028	374.06
254.261	383.06
254.494	397.06
254.727	456.06
254.96	533.06
255.193	528.06
255.426	425.06
255.659	388.06
255.892	375.06
256.124	393.06
256.357	382.06
256.59	395.06
256.823	430.06
257.056	479.06
257.289	559.06
257.521	611.06
257.754	513.06
257.987	437.06
258.22	406.06
258.452	395.06
258.685	423.06
258.918	427.06
259.151	437.06
259.383	459.06
259.616	510.06
259.849	547.06
260.081	482.06
260.314	443.06
260.547	431.06
260.779	441.06
261.012	416.06
261.244	437.06
261.477	442.06
261.71	441.06
261.942	449.06
262.175	457.06
262.407	465.06
262.64	473.06
262.872	509.06
263.105	509.06
263.337	554.06
263.57	567.06
263.802	567.06
264.035	586.06
264.267	619.06
264.499	613.06
264.732	648.06
264.964	649.06
265.197	621.06
265.429	651.06
265.661	634.06
265.894	676.06
266.126	759.06
266.358	826.06
266.591	797.06
266.823	691.06
267.055	620.06
267.287	622.06
267.52	599.06
267.752	575.06
267.984	575.06
268.216	570.06
268.448	574.06
268.681	553.06
268.913	559.06
269.145	561.06
269.377	549.06
269.609	553.06
269.841	571.06
270.073	603.06
270.306	722.06
270.538	932.06
270.77	1363.06
271.002	1627.06
271.234	1144.06
271.466	753.06
271.698	633.06
271.93	612.06
272.162	577.06
272.394	553.06
272.626	550.06
272.858	531.06
273.09	519.06
273.322	535.06
273.553	553.06
273.785	548.06
274.017	542.06
274.249	520.06
274.481	513.06
274.713	532.06
274.945	565.06
275.176	527.06
275.408	538.06
275.64	545.06
275.872	565.06
276.104	589.06
276.335	561.06
276.567	563.06
276.799	555.06
277.031	570.06
277.262	590.06
277.494	632.06
277.726	665.06
277.957	735.06
278.189	855.06
278.421	806.06
278.652	725.06
278.884	687.06
279.115	633.06
279.347	635.06
279.579	600.06
279.81	616.06
280.042	597.06
280.273	598.06
280.505	634.06
280.736	635.06
280.968	682.06
281.199	721.06
281.431	801.06
281.662	863.06
281.894	733.06
282.125	705.06
282.356	713.06
282.588	699.06
282.819	730.06
283.051	758.06
283.282	836.06
283.513	1040.06
283.745	1493.06
283.976	2421.06
284.207	3375.06
284.439	3032.06
284.67	1793.06
284.901	1461.06
285.132	1437.06
285.364	1410.06
285.595	1094.06
285.826	988.06
286.057	1167.06
286.288	1612.06
286.52	2162.06
286.751	2008.06
286.982	1227.06
287.213	914.06
287.444	817.06
287.675	767.06
287.906	762.06
288.138	721.06
288.369	713.06
288.6	733.06
288.831	727.06
289.062	729.06
289.293	719.06
289.524	715.06
289.755	717.06
289.986	713.06
290.217	721.06
290.448	743.06
290.679	744.06
290.91	767.06
291.141	783.06
291.371	822.06
291.602	866.06
291.833	797.06
292.064	753.06
292.295	704.06
292.526	702.06
292.757	697.06
292.987	680.06
293.218	679.06
293.449	684.06
293.68	689.06
293.91	685.06
294.141	694.06
294.372	702.06
294.603	678.06
294.833	700.06
295.064	678.06
295.295	683.06
295.525	654.06
295.756	671.06
295.987	677.06
296.217	672.06
296.448	663.06
296.679	668.06
296.909	657.06
297.14	687.06
297.37	698.06
297.601	696.06
297.831	704.06
298.062	709.06
298.292	691.06
298.523	731.06
298.753	732.06
298.984	737.06
299.214	755.06
299.445	738.06
299.675	742.06
299.905	741.06
300.136	793.06
300.366	899.06
300.597	1149.06
300.827	1560.06
301.057	2183.06
301.288	2133.06
301.518	1346.06
301.748	1039.06
301.979	975.06
302.209	926.06
302.439	945.06
302.669	975.06
302.9	1234.06
303.13	1717.06
303.36	2477.06
303.59	3332.06
303.82	2863.06
304.051	1611.06
304.281	1224.06
304.511	1023.06
304.741	973.06
304.971	867.06
305.201	845.06
305.431	827.06
305.661	854.06
305.891	818.06
306.121	803.06
306.352	802.06
306.582	787.06
306.812	799.06
307.042	763.06
307.272	760.06
307.502	781.06
307.731	786.06
307.961	789.06
308.191	806.06
308.421	762.06
308.651	756.06
308.881	753.06
309.111	790.06
309.341	780.06
309.571	797.06
309.8	798.06
310.03	786.06
310.26	799.06
310.49	803.06
310.72	821.06
310.949	794.06
311.179	814.06
311.409	829.06
311.639	808.06
311.868	851.06
312.098	847.06
312.328	860.06
312.557	842.06
312.787	855.06
313.017	868.06
313.246	856.06
313.476	829.06
313.706	905.06
313.935	914.06
314.165	977.06
314.394	1006.06
314.624	996.06
314.853	918.06
315.083	922.06
315.312	910.06
315.542	905.06
315.771	941.06
316.001	952.06
316.23	960.06
316.46	1012.06
316.689	1116.06
316.919	1344.06
317.148	1928.06
317.377	3007.06
317.607	4421.06
317.836	4514.06
318.065	2581.06
318.295	1657.06
318.524	1333.06
318.753	1159.06
318.983	1096.06
319.212	1027.06
319.441	1013.06
319.67	1015.06
319.9	979.06
320.129	986.06
320.358	988.06
320.587	996.06
320.816	981.06
321.046	994.06
321.275	997.06
321.504	999.06
321.733	1024.06
321.962	1043.06
322.191	1063.06
322.42	1060.06
322.649	1028.06
322.878	1039.06
323.108	1032.06
323.337	1069.06
323.566	1109.06
323.795	1126.06
324.024	1123.06
324.253	1134.06
324.482	1188.06
324.71	1250.06
324.939	1281.06
325.168	1321.06
325.397	1370.06
325.626	1630.06
325.855	2257.06
326.084	3580.06
326.313	5361.06
326.542	5762.06
326.77	3563.06
326.999	2267.06
327.228	1909.06
327.457	1833.06
327.686	1835.06
327.914	1943.06
328.143	2217.06
328.372	2532.06
328.6	2777.06
328.829	2526.06
329.058	2251.06
329.287	2019.06
329.515	1803.06
329.744	1719.06
329.972	1674.06
330.201	1535.06
330.43	1512.06
330.658	1453.06
330.887	1431.06
331.115	1426.06
331.344	1433.06
331.572	1394.06
331.801	1413.06
332.03	1451.06
332.258	1425.06
332.486	1501.06
332.715	1754.06
332.943	2121.06
333.172	2611.06
333.4	2564.06
333.629	1971.06
333.857	1793.06
334.085	1783.06
334.314	1846.06
334.542	2020.06
334.771	2333.06
334.999	2726.06
335.227	3307.06
335.455	3681.06
335.684	3416.06
335.912	2886.06
336.14	2482.06
336.369	2255.06
336.597	2097.06
336.825	1946.06
337.053	1810.06
337.281	1706.06
337.51	1655.06
337.738	1585.06
337.966	1511.06
338.194	1509.06
338.422	1418.06
338.65	1401.06
338.878	1363.06
339.106	1352.06
339.334	1356.06
339.562	1303.06
339.79	1269.06
340.018	1287.06
340.246	1279.06
340.474	1256.06
340.702	1250.06
340.93	1255.06
341.158	1274.06
341.386	1258.06
341.614	1249.06
341.842	1223.06
342.07	1241.06
342.298	1210.06
342.526	1169.06
342.754	1169.06
342.981	1147.06
343.209	1180.06
343.437	1181.06
343.665	1199.06
343.893	1182.06
344.12	1233.06
344.348	1166.06
344.576	1181.06
344.804	1146.06
345.031	1112.06
345.259	1100.06
345.487	1122.06
345.714	1117.06
345.942	1108.06
346.17	1089.06
346.397	1072.06
346.625	1074.06
346.853	1066.06
347.08	1075.06
347.308	1073.06
347.535	1066.06
347.763	1077.06
347.99	1041.06
348.218	1041.06
348.445	1084.06
348.673	1067.06
348.9	1058.06
349.128	1064.06
349.355	1060.06
349.583	1072.06
349.81	1048.06
350.037	1033.06
350.265	1027.06
350.492	1040.06
350.72	1040.06
350.947	1034.06
351.174	1041.06
351.402	1041.06
351.629	1023.06
351.856	1039.06
352.083	1027.06
352.311	1015.06
352.538	1045.06
352.765	1047.06
352.992	1042.06
353.22	1014.06
353.447	1033.06
353.674	1041.06
353.901	1026.06
354.128	1010.06
354.355	1021.06
354.583	1045.06
354.81	1032.06
355.037	1041.06
355.264	1034.06
355.491	1025.06
355.718	1023.06
355.945	1028.06
356.172	1054.06
356.399	1039.06
356.626	1043.06
356.853	1079.06
357.08	1091.06
357.307	1094.06
357.534	1059.06
357.761	1073.06
357.988	1077.06
358.215	1072.06
358.441	1073.06
358.668	1103.06
358.895	1122.06
359.122	1103.06
359.349	1080.06
359.576	1102.06
359.802	1097.06
360.029	1107.06
360.256	1085.06
360.483	1102.06
360.709	1082.06
360.936	1106.06
361.163	1075.06
361.39	1090.06
361.616	1099.06
361.843	1086.06
362.07	1089.06
362.296	1108.06
362.523	1091.06
362.749	1113.06
362.976	1087.06
363.203	1091.06
363.429	1087.06
363.656	1074.06
363.882	1050.06
364.109	1081.06
364.335	1062.06
364.562	1103.06
364.788	1073.06
365.015	1115.06
365.241	1124.06
365.468	1178.06
365.694	1217.06
365.92	1173.06
366.147	1131.06
366.373	1089.06
366.599	1129.06
366.826	1113.06
367.052	1121.06
367.278	1117.06
367.505	1116.06
367.731	1104.06
367.957	1131.06
368.184	1122.06
368.41	1161.06
368.636	1141.06
368.862	1126.06
369.089	1173.06
369.315	1122.06
369.541	1151.06
369.767	1145.06
369.993	1152.06
370.219	1131.06
370.445	1153.06
370.672	1166.06
370.898	1123.06
371.124	1143.06
371.35	1161.06
371.576	1169.06
371.802	1185.06
372.028	1152.06
372.254	1175.06
372.48	1201.06
372.706	1188.06
372.932	1184.06
373.158	1214.06
373.384	1215.06
373.61	1162.06
373.835	1205.06
374.061	1165.06
374.287	1223.06
374.513	1204.06
374.739	1221.06
374.965	1243.06
375.191	1236.06
375.416	1269.06
375.642	1202.06
375.868	1189.06
376.094	1205.06
376.319	1169.06
376.545	1197.06
376.771	1183.06
376.997	1186.06
377.222	1188.06
377.448	1169.06
377.674	1144.06
377.899	1186.06
378.125	1189.06
378.35	1177.06
378.576	1182.06
378.802	1186.06
379.027	1198.06
379.253	1226.06
379.478	1268.06
379.704	1494.06
379.929	2103.06
380.155	3237.06
380.38	3474.06
380.606	2153.06
380.831	1492.06
381.057	1317.06
381.282	1241.06
381.507	1234.06
381.733	1167.06
381.958	1177.06
382.184	1203.06
382.409	1158.06
382.634	1158.06
382.86	1160.06
383.085	1124.06
383.31	1151.06
383.535	1154.06
383.761	1130.06
383.986	1148.06
384.211	1198.06
384.436	1180.06
384.662	1189.06
384.887	1201.06
385.112	1203.06
385.337	1184.06
385.562	1181.06
385.787	1197.06
386.013	1183.06
386.238	1202.06
386.463	1190.06
386.688	1218.06
386.913	1210.06
387.138	1190.06
387.363	1263.06
387.588	1188.06
387.813	1216.06
388.038	1208.06
388.263	1198.06
388.488	1209.06
388.713	1189.06
388.938	1195.06
389.163	1186.06
389.387	1200.06
389.612	1199.06
389.837	1195.06
390.062	1177.06
390.287	1204.06
390.512	1193.06
390.736	1221.06
390.961	1231.06
391.186	1228.06
391.411	1238.06
391.636	1262.06
391.86	1244.06
392.085	1286.06
392.31	1261.06
392.534	1255.06
392.759	1244.06
392.984	1239.06
393.208	1249.06
393.433	1263.06
393.658	1238.06
393.882	1202.06
394.107	1221.06
394.331	1204.06
394.556	1173.06
394.78	1197.06
395.005	1247.06
395.229	1197.06
395.454	1239.06
395.678	1301.06
395.903	1244.06
396.127	1240.06
396.352	1224.06
396.576	1248.06
396.801	1264.06
397.025	1274.06
397.249	1245.06
397.474	1273.06
397.698	1279.06
397.922	1295.06
398.147	1279.06
398.371	1284.06
398.595	1322.06
398.82	1344.06
399.044	1385.06
399.268	1440.06
399.492	1577.06
399.717	1573.06
399.941	1598.06
400.165	1507.06
400.389	1461.06
400.613	1427.06
400.837	1407.06
401.062	1385.06
401.286	1331.06
401.51	1350.06
401.734	1333.06
401.958	1358.06
402.182	1327.06
402.406	1341.06
402.63	1335.06
402.854	1325.06
403.078	1337.06
403.302	1376.06
403.526	1350.06
403.75	1373.06
403.974	1401.06
404.198	1373.06
404.422	1373.06
404.645	1389.06
404.869	1384.06
405.093	1412.06
405.317	1396.06
405.541	1404.06
405.765	1386.06
405.988	1419.06
406.212	1416.06
406.436	1411.06
406.66	1419.06
406.883	1428.06
407.107	1476.06
407.331	1497.06
407.555	1501.06
407.778	1509.06
408.002	1491.06
408.226	1478.06
408.449	1479.06
408.673	1443.06
408.896	1445.06
409.12	1409.06
409.344	1402.06
409.567	1397.06
409.791	1367.06
410.014	1389.06
410.238	1386.06
410.461	1375.06
410.685	1347.06
410.908	1345.06
411.132	1326.06
411.355	1333.06
411.578	1332.06
411.802	1326.06
412.025	1297.06
412.249	1371.06
412.472	1346.06
412.695	1303.06
412.919	1297.06
413.142	1290.06
413.365	1300.06
413.589	1263.06
413.812	1301.06
414.035	1298.06
414.258	1316.06
414.482	1318.06
414.705	1352.06
414.928	1313.06
415.151	1302.06
415.374	1279.06
415.597	1289.06
415.821	1250.06
416.044	1246.06
416.267	1278.06
416.49	1283.06
416.713	1263.06
416.936	1265.06
417.159	1236.06
417.382	1240.06
417.605	1224.06
417.828	1235.06
418.051	1259.06
418.274	1278.06
418.497	1292.06
418.72	1278.06
418.943	1289.06
419.166	1337.06
419.389	1414.06
419.611	1407.06
419.834	1330.06
420.057	1297.06
420.28	1281.06
420.503	1266.06
420.726	1248.06
420.948	1290.06
421.171	1231.06
421.394	1287.06
421.617	1256.06
421.839	1263.06
422.062	1289.06
422.285	1255.06
422.507	1284.06
422.73	1287.06
422.953	1289.06
423.175	1318.06
423.398	1319.06
423.621	1286.06
423.843	1272.06
424.066	1272.06
424.288	1267.06
424.511	1252.06
424.733	1277.06
424.956	1242.06
425.178	1269.06
425.401	1277.06
425.623	1226.06
425.846	1214.06
426.068	1247.06
426.291	1222.06
426.513	1216.06
426.735	1207.06
426.958	1224.06
427.18	1185.06
427.402	1182.06
427.625	1180.06
427.847	1177.06
428.069	1155.06
428.292	1194.06
428.514	1186.06
428.736	1175.06
428.958	1190.06
429.181	1177.06
429.403	1167.06
429.625	1201.06
429.847	1166.06
430.069	1191.06
430.292	1224.06
430.514	1225.06
430.736	1269.06
430.958	1181.06
431.18	1182.06
431.402	1165.06
431.624	1137.06
431.846	1155.06
432.068	1120.06
432.29	1105.06
432.512	1139.06
432.734	1176.06
432.956	1174.06
433.178	1190.06
433.4	1139.06
433.622	1160.06
433.844	1173.06
434.066	1171.06
434.287	1177.06
434.509	1162.06
434.731	1155.06
434.953	1224.06
435.175	1193.06
435.397	1222.06
435.618	1194.06
435.84	1163.06
436.062	1163.06
436.284	1151.06
436.505	1149.06
436.727	1171.06
436.949	1161.06
437.17	1155.06
437.392	1153.06
437.614	1145.06
437.835	1117.06
438.057	1115.06
438.278	1099.06
438.5	1106.06
438.721	1130.06
438.943	1155.06
439.165	1187.06
439.386	1196.06
439.608	1224.06
439.829	1189.06
440.05	1238.06
440.272	1279.06
440.493	1224.06
440.715	1214.06
440.936	1205.06
441.158	1230.06
441.379	1231.06
441.6	1238.06
441.822	1289.06
442.043	1395.06
442.264	1387.06
442.486	1320.06
442.707	1246.06
442.928	1231.06
443.149	1235.06
443.371	1229.06
443.592	1254.06
443.813	1256.06
444.034	1259.06
444.255	1298.06
444.476	1279.06
444.698	1373.06
444.919	1389.06
445.14	1409.06
445.361	1359.06
445.582	1309.06
445.803	1246.06
446.024	1231.06
446.245	1226.06
446.466	1230.06
446.687	1231.06
446.908	1245.06
447.129	1167.06
447.35	1184.06
447.571	1171.06
447.792	1139.06
448.013	1163.06
448.234	1146.06
448.455	1139.06
448.675	1210.06
448.896	1194.06
449.117	1231.06
449.338	1322.06
449.559	1365.06
449.779	1245.06
450	1162.06
450.221	1134.06
450.442	1130.06
450.662	1099.06
450.883	1120.06
451.104	1137.06
451.324	1112.06
451.545	1105.06
451.766	1125.06
451.986	1097.06
452.207	1221.06
452.428	1474.06
452.648	2098.06
452.869	1759.06
453.089	1315.06
453.31	1266.06
453.53	1200.06
453.751	1264.06
453.971	1343.06
454.192	1287.06
454.412	1175.06
454.633	1090.06
454.853	1102.06
455.073	1049.06
455.294	1081.06
455.514	1047.06
455.734	1039.06
455.955	1058.06
456.175	1054.06
456.395	1031.06
456.616	1051.06
456.836	1098.06
457.056	1103.06
457.276	1066.06
457.497	1135.06
457.717	1152.06
457.937	1141.06
458.157	1087.06
458.377	1118.06
458.598	1159.06
458.818	1131.06
459.038	1139.06
459.258	1145.06
459.478	1158.06
459.698	1187.06
459.918	1172.06
460.138	1147.06
460.358	1240.06
460.578	1216.06
460.798	1187.06
461.018	1262.06
461.238	1257.06
461.458	1302.06
461.678	1238.06
461.898	1297.06
462.118	1287.06
462.338	1323.06
462.558	1326.06
462.777	1350.06
462.997	1422.06
463.217	1449.06
463.437	1502.06
463.657	1515.06
463.876	1518.06
464.096	1471.06
464.316	1385.06
464.536	1385.06
464.755	1351.06
464.975	1331.06
465.195	1273.06
465.414	1252.06
465.634	1192.06
465.854	1188.06
466.073	1164.06
466.293	1186.06
466.512	1156.06
466.732	1186.06
466.951	1252.06
467.171	1309.06
467.391	1290.06
467.61	1187.06
467.829	1159.06
468.049	1154.06
468.268	1116.06
468.488	1146.06
468.707	1139.06
468.927	1125.06
469.146	1135.06
469.365	1170.06
469.585	1130.06
469.804	1199.06
470.023	1198.06
470.243	1234.06
470.462	1241.06
470.681	1335.06
470.901	1446.06
471.12	1659.06
471.339	1645.06
471.558	1390.06
471.777	1272.06
471.997	1183.06
472.216	1154.06
472.435	1179.06
472.654	1142.06
472.873	1139.06
473.092	1140.06
473.311	1139.06
473.53	1128.06
473.749	1147.06
473.968	1209.06
474.187	1153.06
474.406	1153.06
474.625	1159.06
474.844	1173.06
475.063	1146.06
475.282	1151.06
475.501	1147.06
475.72	1157.06
475.939	1148.06
476.158	1189.06
476.377	1207.06
476.596	1195.06
476.814	1218.06
477.033	1214.06
477.252	1207.06
477.471	1193.06
477.69	1272.06
477.908	1259.06
478.127	1286.06
478.346	1281.06
478.564	1347.06
478.783	1307.06
479.002	1318.06
479.22	1361.06
479.439	1349.06
479.658	1350.06
479.876	1348.06
480.095	1354.06
480.313	1382.06
480.532	1420.06
480.751	1400.06
480.969	1375.06
481.188	1346.06
481.406	1335.06
481.624	1317.06
481.843	1362.06
482.061	1391.06
482.28	1337.06
482.498	1361.06
482.717	1381.06
482.935	1375.06
483.153	1379.06
483.372	1420.06
483.59	1451.06
483.808	1417.06
484.027	1469.06
484.245	1537.06
484.463	1748.06
484.681	1908.06
484.9	1721.06
485.118	1625.06
485.336	1556.06
485.554	1609.06
485.772	1697.06
485.99	1911.06
486.209	2104.06
486.427	1746.06
486.645	1579.06
486.863	1517.06
487.081	1533.06
487.299	1454.06
487.517	1402.06
487.735	1448.06
487.953	1488.06
488.171	1484.06
488.389	1450.06
488.607	1402.06
488.825	1432.06
489.043	1418.06
489.261	1384.06
489.479	1386.06
489.696	1416.06
489.914	1428.06
490.132	1464.06
490.35	1471.06
490.568	1463.06
490.786	1470.06
491.003	1472.06
491.221	1479.06
491.439	1490.06
491.657	1506.06
491.874	1506.06
492.092	1517.06
492.31	1525.06
492.527	1548.06
492.745	1536.06
492.963	1553.06
493.18	1535.06
493.398	1510.06
493.615	1515.06
493.833	1515.06
494.05	1481.06
494.268	1507.06
494.485	1512.06
494.703	1504.06
494.92	1518.06
495.138	1541.06
495.355	1535.06
495.573	1481.06
495.79	1529.06
496.008	1536.06
496.225	1532.06
496.442	1589.06
496.66	1571.06
496.877	1667.06
497.094	1676.06
497.312	1619.06
497.529	1637.06
497.746	1617.06
497.963	1648.06
498.181	1704.06
498.398	1730.06
498.615	1780.06
498.832	1811.06
499.049	1890.06
499.267	2074.06
499.484	2180.06
499.701	2201.06
499.918	2235.06
500.135	2338.06
500.352	2529.06
500.569	2501.06
500.786	2559.06
501.003	2444.06
501.22	2323.06
501.437	2229.06
501.654	2070.06
501.871	1963.06
502.088	1937.06
502.305	1858.06
502.522	1780.06
502.739	1739.06
502.956	1683.06
503.172	1627.06
503.389	1605.06
503.606	1542.06
503.823	1559.06
504.04	1519.06
504.256	1552.06
504.473	1556.06
504.69	1552.06
504.907	1582.06
505.123	1492.06
505.34	1470.06
505.557	1425.06
505.773	1425.06
505.99	1398.06
506.207	1354.06
506.423	1366.06
506.64	1345.06
506.856	1356.06
507.073	1337.06
507.289	1352.06
507.506	1339.06
507.722	1370.06
507.939	1306.06
508.155	1315.06
508.372	1304.06
508.588	1288.06
508.805	1297.06
509.021	1305.06
509.238	1294.06
509.454	1373.06
509.67	1429.06
509.887	1369.06
510.103	1311.06
510.319	1316.06
510.536	1250.06
510.752	1236.06
510.968	1261.06
511.184	1221.06
511.401	1229.06
511.617	1259.06
511.833	1210.06
512.049	1218.06
512.265	1221.06
512.481	1215.06
512.698	1225.06
512.914	1230.06
513.13	1207.06
513.346	1217.06
513.562	1214.06
513.778	1256.06
513.994	1272.06
514.21	1271.06
514.426	1343.06
514.642	1375.06
514.858	1273.06
515.074	1226.06
515.29	1285.06
515.506	1245.06
515.721	1273.06
515.937	1231.06
516.153	1294.06
516.369	1266.06
516.585	1251.06
516.801	1312.06
517.016	1335.06
517.232	1355.06
517.448	1389.06
517.664	1389.06
517.879	1404.06
518.095	1398.06
518.311	1347.06
518.527	1371.06
518.742	1362.06
518.958	1356.06
519.173	1353.06
519.389	1330.06
519.605	1285.06
519.82	1286.06
520.036	1254.06
520.251	1218.06
520.467	1247.06
520.682	1241.06
520.898	1231.06
521.113	1220.06
521.329	1192.06
521.544	1212.06
521.76	1251.06
521.975	1198.06
522.19	1176.06
522.406	1194.06
522.621	1221.06
522.836	1201.06
523.052	1204.06
523.267	1200.06
523.482	1185.06
523.698	1201.06
523.913	1160.06
524.128	1199.06
524.343	1210.06
524.559	1183.06
524.774	1158.06
524.989	1180.06
525.204	1189.06
525.419	1209.06
525.634	1165.06
525.849	1205.06
526.064	1211.06
526.28	1186.06
526.495	1182.06
526.71	1202.06
526.925	1171.06
527.14	1153.06
527.355	1194.06
527.57	1184.06
527.785	1190.06
527.999	1171.06
528.214	1224.06
528.429	1187.06
528.644	1232.06
528.859	1238.06
529.074	1239.06
529.289	1290.06
529.503	1307.06
529.718	1291.06
529.933	1252.06
530.148	1235.06
530.363	1265.06
530.577	1226.06
530.792	1238.06
531.007	1282.06
531.221	1273.06
531.436	1290.06
531.651	1297.06
531.865	1246.06
532.08	1320.06
532.295	1329.06
532.509	1437.06
532.724	1417.06
532.938	1414.06
533.153	1443.06
533.367	1504.06
533.582	1577.06
533.796	1557.06
534.011	1489.06
534.225	1471.06
534.44	1449.06
534.654	1434.06
534.868	1387.06
535.083	1383.06
535.297	1358.06
535.511	1331.06
535.726	1325.06
535.94	1314.06
536.154	1292.06
536.369	1247.06
536.583	1270.06
536.797	1230.06
537.011	1220.06
537.225	1214.06
537.44	1218.06
537.654	1213.06
537.868	1153.06
538.082	1154.06
538.296	1179.06
538.51	1165.06
538.724	1203.06
538.938	1166.06
539.153	1155.06
539.367	1169.06
539.581	1134.06
539.795	1154.06
540.009	1122.06
540.222	1129.06
540.436	1155.06
540.65	1133.06
540.864	1185.06
541.078	1188.06
541.292	1252.06
541.506	1475.06
541.72	1553.06
541.934	1365.06
542.147	1288.06
542.361	1215.06
542.575	1161.06
542.789	1169.06
543.002	1134.06
543.216	1133.06
543.43	1099.06
543.644	1126.06
543.857	1111.06
544.071	1137.06
544.285	1151.06
544.498	1144.06
544.712	1146.06
544.925	1145.06
545.139	1157.06
545.352	1142.06
545.566	1159.06
545.779	1151.06
545.993	1191.06
546.206	1191.06
546.42	1145.06
546.633	1186.06
546.847	1187.06
547.06	1147.06
547.274	1146.06
547.487	1193.06
547.7	1138.06
547.914	1149.06
548.127	1149.06
548.34	1137.06
548.554	1153.06
548.767	1169.06
548.98	1125.06
549.193	1180.06
549.407	1172.06
549.62	1173.06
549.833	1179.06
550.046	1131.06
550.259	1178.06
550.473	1142.06
550.686	1138.06
550.899	1158.06
551.112	1144.06
551.325	1144.06
551.538	1121.06
551.751	1128.06
551.964	1097.06
552.177	1142.06
552.39	1207.06
552.603	1184.06
552.816	1250.06
553.029	1236.06
553.242	1267.06
553.455	1249.06
553.667	1281.06
553.88	1262.06
554.093	1283.06
554.306	1289.06
554.519	1254.06
554.732	1288.06
554.944	1311.06
555.157	1321.06
555.37	1329.06
555.583	1355.06
555.795	1439.06
556.008	1492.06
556.221	1661.06
556.433	1686.06
556.646	1749.06
556.859	1683.06
557.071	1588.06
557.284	1566.06
557.496	1552.06
557.709	1514.06
557.921	1547.06
558.134	1524.06
558.346	1534.06
558.559	1605.06
558.771	1619.06
558.984	1797.06
559.196	1869.06
559.409	1803.06
559.621	1687.06
559.833	1581.06
560.046	1534.06
560.258	1477.06
560.47	1395.06
560.683	1375.06
560.895	1335.06
561.107	1299.06
561.32	1232.06
561.532	1219.06
561.744	1215.06
561.956	1200.06
562.168	1177.06
562.381	1145.06
562.593	1150.06
562.805	1185.06
563.017	1153.06
563.229	1197.06
563.441	1306.06
563.653	1130.06
563.865	1099.06
564.077	1066.06
564.289	1096.06
564.501	1072.06
564.713	1062.06
564.925	1065.06
565.137	1057.06
565.349	1027.06
565.561	1036.06
565.773	1105.06
565.985	1098.06
566.197	1075.06
566.408	1087.06
566.62	1145.06
566.832	1161.06
567.044	1175.06
567.255	1182.06
567.467	1185.06
567.679	1213.06
567.891	1253.06
568.102	1406.06
568.314	1623.06
568.526	1383.06
568.737	1205.06
568.949	1139.06
569.161	1047.06
569.372	996.06
569.584	975.06
569.795	957.06
570.007	957.06
570.218	944.06
570.43	979.06
570.641	926.06
570.853	900.06
571.064	889.06
571.276	880.06
571.487	885.06
571.698	855.06
571.91	867.06
572.121	849.06
572.333	825.06
572.544	846.06
572.755	885.06
572.966	1075.06
573.178	925.06
573.389	845.06
573.6	807.06
573.811	780.06
574.023	776.06
574.234	750.06
574.445	804.06
574.656	773.06
574.867	753.06
575.078	779.06
575.289	744.06
575.501	747.06
575.712	766.06
575.923	744.06
576.134	784.06
576.345	756.06
576.556	769.06
576.767	756.06
576.978	784.06
577.188	753.06
577.399	773.06
577.61	770.06
577.821	784.06
578.032	768.06
578.243	783.06
578.454	842.06
578.665	831.06
578.875	825.06
579.086	843.06
579.297	893.06
579.508	965.06
579.718	986.06
579.929	1114.06
580.14	1216.06
580.35	1263.06
580.561	1179.06
580.772	1110.06
580.982	1065.06
581.193	975.06
581.403	931.06
581.614	925.06
581.825	877.06
582.035	835.06
582.246	845.06
582.456	793.06
582.667	781.06
582.877	783.06
583.087	746.06
583.298	740.06
583.508	720.06
583.719	699.06
583.929	677.06
584.139	690.06
584.35	655.06
584.56	666.06
584.77	669.06
584.981	634.06
585.191	665.06
585.401	637.06
585.611	623.06
585.821	625.06
586.032	637.06
586.242	621.06
586.452	615.06
586.662	615.06
586.872	595.06
587.082	594.06
587.292	579.06
587.502	597.06
587.713	594.06
587.923	578.06
588.133	566.06
588.343	565.06
588.553	571.06
588.762	570.06
588.972	578.06
589.182	571.06
589.392	553.06
589.602	540.06
589.812	574.06
590.022	573.06
590.232	527.06
590.441	560.06
590.651	535.06
590.861	543.06
591.071	551.06
591.281	566.06
591.49	532.06
591.7	566.06
591.91	544.06
592.119	535.06
592.329	535.06
592.539	544.06
592.748	533.06
592.958	570.06
593.167	575.06
593.377	557.06
593.587	588.06
593.796	599.06
594.006	592.06
594.215	592.06
594.424	603.06
594.634	575.06
594.843	551.06
595.053	584.06
595.262	558.06
595.472	561.06
595.681	528.06
595.89	546.06
596.1	499.06
596.309	518.06
596.518	512.06
596.727	483.06
596.937	515.06
597.146	516.06
597.355	488.06
597.564	477.06
597.774	443.06
597.983	458.06
598.192	463.06
598.401	467.06
598.61	465.06
598.819	473.06
599.028	475.06
599.237	443.06
599.446	440.06
599.655	469.06
599.864	476.06
600.073	470.06
600.282	455.06
600.491	452.06
600.7	449.06
600.909	443.06
601.118	469.06
601.327	447.06
601.536	450.06
601.745	470.06
601.953	520.06
602.162	581.06
602.371	517.06
602.58	465.06
602.789	467.06
602.997	442.06
603.206	463.06
603.415	447.06
603.623	454.06
603.832	460.06
604.041	459.06
604.249	443.06
604.458	430.06
604.666	439.06
604.875	417.06
605.084	437.06
605.292	432.06
605.501	442.06
605.709	441.06
605.918	436.06
606.126	455.06
606.334	447.06
606.543	465.06
606.751	488.06
606.96	546.06
607.168	594.06
607.376	485.06
607.585	486.06
607.793	437.06
608.001	449.06
608.21	435.06
608.418	413.06
608.626	425.06
608.834	431.06
609.043	425.06
609.251	444.06
609.459	415.06
609.667	427.06
609.875	409.06
610.083	425.06
610.291	435.06
610.499	415.06
610.707	425.06
610.916	423.06
611.124	416.06
611.332	395.06
611.54	405.06
611.748	416.06
611.955	411.06
612.163	396.06
612.371	401.06
612.579	410.06
612.787	381.06
612.995	385.06
613.203	391.06
613.411	397.06
613.618	396.06
613.826	387.06
614.034	380.06
614.242	392.06
614.449	394.06
614.657	404.06
614.865	394.06
615.072	390.06
615.28	425.06
615.488	391.06
615.695	399.06
615.903	401.06
616.111	383.06
616.318	395.06
616.526	422.06
616.733	359.06
616.941	409.06
617.148	407.06
617.356	396.06
617.563	385.06
617.771	391.06
617.978	369.06
618.185	417.06
618.393	360.06
618.6	378.06
618.807	373.06
619.015	398.06
619.222	381.06
619.429	405.06
619.637	400.06
619.844	354.06
620.051	379.06
620.258	366.06
620.466	363.06
620.673	387.06
620.88	349.06
621.087	357.06
621.294	367.06
621.501	345.06
621.708	367.06
621.915	368.06
622.122	360.06
622.329	355.06
622.536	352.06
622.743	359.06
622.95	374.06
623.157	369.06
623.364	367.06
623.571	367.06
623.778	354.06
623.985	360.06
624.192	346.06
624.399	355.06
624.606	344.06
624.812	355.06
625.019	332.06
625.226	327.06
625.433	325.06
625.639	325.06
625.846	333.06
626.053	323.06
626.259	329.06
626.466	327.06
626.673	313.06
626.879	314.06
627.086	338.06
627.293	334.06
627.499	335.06
627.706	334.06
627.912	312.06
628.119	334.06
628.325	312.06
628.532	337.06
628.738	333.06
628.945	315.06
629.151	334.06
629.357	309.06
629.564	313.06
629.77	299.06
629.976	323.06
630.183	315.06
630.389	306.06
630.595	308.06
630.802	321.06
631.008	302.06
631.214	320.06
631.42	320.06
631.627	312.06
631.833	317.06
632.039	307.06
632.245	296.06
632.451	301.06
632.657	324.06
632.863	329.06
633.069	292.06
633.275	309.06
633.481	299.06
633.688	303.06
633.893	324.06
634.099	281.06
634.305	309.06
634.511	296.06
634.717	310.06
634.923	309.06
635.129	357.06
635.335	376.06
635.541	353.06
635.747	313.06
635.952	314.06
636.158	306.06
636.364	315.06
636.57	317.06
636.775	298.06
636.981	310.06
637.187	309.06
637.392	282.06
637.598	305.06
637.804	321.06
638.009	305.06
638.215	303.06
638.421	302.06
638.626	305.06
638.832	305.06
639.037	319.06
639.243	319.06
639.448	308.06
639.654	307.06
639.859	315.06
640.065	317.06
640.27	323.06
640.475	315.06
640.681	321.06
640.886	297.06
641.091	330.06
641.297	318.06
641.502	325.06
641.707	322.06
641.913	323.06
642.118	337.06
642.323	328.06
642.528	333.06
642.733	345.06
642.939	337.06
643.144	371.06
643.349	346.06
643.554	381.06
643.759	379.06
643.964	399.06
644.169	423.06
644.374	454.06
644.579	463.06
644.784	505.06
644.989	568.06
645.194	627.06
645.399	735.06
645.604	757.06
645.809	613.06
646.014	514.06
646.219	412.06
646.423	388.06
646.628	360.06
646.833	363.06
647.038	341.06
647.243	315.06
647.447	338.06
647.652	311.06
647.857	288.06
648.062	290.06
648.266	293.06
648.471	295.06
648.676	294.06
648.88	295.06
649.085	294.06
649.289	281.06
649.494	264.06
649.698	281.06
649.903	265.06
650.107	274.06
650.312	274.06
650.516	249.06
650.721	251.06
650.925	239.06
651.13	241.06
651.334	262.06
651.539	249.06
651.743	224.06
651.947	229.06
652.152	234.06
652.356	256.06
652.56	263.06
652.764	272.06
652.969	261.06
653.173	237.06
653.377	222.06
653.581	223.06
653.785	218.06
653.99	207.06
654.194	215.06
654.398	218.06
654.602	207.06
654.806	212.06
655.01	213.06
655.214	197.06
655.418	225.06
655.622	206.06
655.826	209.06
656.03	201.06
656.234	222.06
656.438	231.06
656.642	223.06
656.846	212.06
657.049	203.06
657.253	197.06
657.457	182.06
657.661	170.06
657.865	161.06
658.068	163.06
658.272	160.06
658.476	158.06
658.68	155.06
658.883	154.06
659.087	145.06
659.291	123.06
659.494	118.06
659.698	144.06
659.901	124.06
660.105	121.06
660.309	115.06
660.512	125.06
660.716	117.06
660.919	127.06
661.123	109.06
661.326	110.06
661.53	98.06
661.733	106.06
661.936	104.06
662.14	102.06
662.343	91.06
662.546	97.06
662.75	82.06
662.953	72.06
663.156	91.06
663.36	89.06
663.563	81.06
663.766	73.06
663.969	82.06
664.173	79.06
664.376	87.06
664.579	92.06
664.782	85.06
664.985	87.06
665.188	79.06
665.391	81.06
665.594	86.06
665.797	90.06
666	85.06
666.203	88.06
666.406	68.06
666.609	62.06
666.812	76.06
667.015	87.06
667.218	79.06
667.421	90.06
667.624	69.06
667.827	67.06
668.03	77.06
668.232	83.06
668.435	105.06
668.638	78.06
668.841	90.06
669.043	72.06
669.246	85.06
669.449	83.06
669.651	90.06
669.854	81.06
670.057	97.06
670.259	94.06
670.462	94.06
670.665	76.06
670.867	84.06
671.07	82.06
671.272	83.06
671.475	91.06
671.677	94.06
671.88	79.06
672.082	84.06
672.284	91.06
672.487	93.06
672.689	76.06
672.892	85.06
