Data from SnStandardFlinnAPT0064_LampEnergy10_LIBS07252019.E.O._I.C._HRD10591_15-20-44-493.txt Node
Date: Thu Jul 25 15:20:44 EDT 2019
User: cochatt
Spectrometer: HR+D1059
Trigger mode: 1
Integration Time (sec): 1.000000E-1
Scans to average: 1
Electric dark correction enabled: true
Nonlinearity correction enabled: false
Boxcar width: 0
XAxis mode: Wavelengths
Number of Pixels in Spectrum: 2048
>>>>>Begin Spectral Data<<<<<
223.165	-21.12
223.4	-21.12
223.635	-21.12
223.869	-28.12
224.104	-21.12
224.338	-13.12
224.573	-13.12
224.808	-15.12
225.042	-2.12
225.277	-3.12
225.511	-0.12
225.746	8.88
225.98	3.88
226.215	4.88
226.449	26.88
226.683	32.88
226.918	17.88
227.152	21.88
227.387	15.88
227.621	37.88
227.856	35.88
228.09	47.88
228.324	41.88
228.559	46.88
228.793	122.88
229.027	295.88
229.262	335.88
229.496	312.88
229.73	307.88
229.964	302.88
230.199	293.88
230.433	312.88
230.667	327.88
230.901	326.88
231.136	325.88
231.37	362.88
231.604	404.88
231.838	436.88
232.072	534.88
232.306	563.88
232.541	487.88
232.775	419.88
233.009	416.88
233.243	419.88
233.477	456.88
233.711	538.88
233.945	597.88
234.179	512.88
234.413	461.88
234.647	453.88
234.881	471.88
235.115	526.88
235.349	636.88
235.583	782.88
235.817	1033.88
236.051	1030.88
236.285	689.88
236.519	530.88
236.753	506.88
236.987	515.88
237.221	554.88
237.455	513.88
237.689	476.88
237.922	470.88
238.156	478.88
238.39	508.88
238.624	509.88
238.858	516.88
239.091	499.88
239.325	518.88
239.559	494.88
239.793	505.88
240.027	506.88
240.26	526.88
240.494	560.88
240.728	575.88
240.961	635.88
241.195	658.88
241.429	712.88
241.662	718.88
241.896	792.88
242.13	953.88
242.363	1282.88
242.597	1701.88
242.83	1626.88
243.064	1604.88
243.298	1906.88
243.531	1602.88
243.765	1006.88
243.998	794.88
244.232	719.88
244.465	681.88
244.699	659.88
244.932	683.88
245.166	674.88
245.399	667.88
245.633	679.88
245.866	663.88
246.099	677.88
246.333	652.88
246.566	633.88
246.8	650.88
247.033	659.88
247.266	658.88
247.5	671.88
247.733	658.88
247.966	699.88
248.2	768.88
248.433	877.88
248.666	1037.88
248.899	998.88
249.133	881.88
249.366	888.88
249.599	969.88
249.832	1137.88
250.066	1106.88
250.299	864.88
250.532	809.88
250.765	754.88
250.998	754.88
251.231	754.88
251.465	754.88
251.698	740.88
251.931	750.88
252.164	734.88
252.397	755.88
252.63	766.88
252.863	818.88
253.096	773.88
253.329	817.88
253.562	787.88
253.795	798.88
254.028	798.88
254.261	819.88
254.494	891.88
254.727	1075.88
254.96	1278.88
255.193	1244.88
255.426	978.88
255.659	862.88
255.892	881.88
256.124	856.88
256.357	865.88
256.59	919.88
256.823	978.88
257.056	1142.88
257.289	1399.88
257.521	1497.88
257.754	1197.88
257.987	982.88
258.22	940.88
258.452	918.88
258.685	925.88
258.918	927.88
259.151	1009.88
259.383	1075.88
259.616	1223.88
259.849	1299.88
260.081	1130.88
260.314	994.88
260.547	1002.88
260.779	950.88
261.012	928.88
261.244	974.88
261.477	953.88
261.71	993.88
261.942	987.88
262.175	1009.88
262.407	1039.88
262.64	1049.88
262.872	1114.88
263.105	1142.88
263.337	1204.88
263.57	1262.88
263.802	1316.88
264.035	1324.88
264.267	1323.88
264.499	1389.88
264.732	1442.88
264.964	1481.88
265.197	1411.88
265.429	1411.88
265.661	1470.88
265.894	1594.88
266.126	1794.88
266.358	2000.88
266.591	1930.88
266.823	1595.88
267.055	1467.88
267.287	1373.88
267.52	1331.88
267.752	1314.88
267.984	1253.88
268.216	1259.88
268.448	1264.88
268.681	1259.88
268.913	1267.88
269.145	1233.88
269.377	1224.88
269.609	1234.88
269.841	1300.88
270.073	1367.88
270.306	1626.88
270.538	2200.88
270.77	3292.88
271.002	4063.88
271.234	2896.88
271.466	1896.88
271.698	1537.88
271.93	1456.88
272.162	1367.88
272.394	1344.88
272.626	1238.88
272.858	1256.88
273.09	1227.88
273.322	1228.88
273.553	1176.88
273.785	1214.88
274.017	1236.88
274.249	1202.88
274.481	1223.88
274.713	1211.88
274.945	1182.88
275.176	1233.88
275.408	1245.88
275.64	1212.88
275.872	1241.88
276.104	1242.88
276.335	1287.88
276.567	1286.88
276.799	1284.88
277.031	1363.88
277.262	1348.88
277.494	1413.88
277.726	1593.88
277.957	1891.88
278.189	2137.88
278.421	2008.88
278.652	1751.88
278.884	1654.88
279.115	1530.88
279.347	1429.88
279.579	1390.88
279.81	1400.88
280.042	1416.88
280.273	1460.88
280.505	1492.88
280.736	1505.88
280.968	1598.88
281.199	1791.88
281.431	2046.88
281.662	2114.88
281.894	1811.88
282.125	1624.88
282.356	1675.88
282.588	1674.88
282.819	1746.88
283.051	1835.88
283.282	2014.88
283.513	2560.88
283.745	3699.88
283.976	5870.88
284.207	8430.88
284.439	7632.88
284.67	4686.88
284.901	3809.88
285.132	3846.88
285.364	3648.88
285.595	2768.88
285.826	2507.88
286.057	2942.88
286.288	4006.88
286.52	5400.88
286.751	5001.88
286.982	3111.88
287.213	2304.88
287.444	2030.88
287.675	1852.88
287.906	1826.88
288.138	1752.88
288.369	1721.88
288.6	1692.88
288.831	1695.88
289.062	1638.88
289.293	1684.88
289.524	1714.88
289.755	1701.88
289.986	1736.88
290.217	1712.88
290.448	1740.88
290.679	1730.88
290.91	1776.88
291.141	1889.88
291.371	2052.88
291.602	2139.88
291.833	1974.88
292.064	1774.88
292.295	1723.88
292.526	1692.88
292.757	1645.88
292.987	1618.88
293.218	1598.88
293.449	1627.88
293.68	1600.88
293.91	1627.88
294.141	1559.88
294.372	1580.88
294.603	1575.88
294.833	1591.88
295.064	1555.88
295.295	1566.88
295.525	1595.88
295.756	1546.88
295.987	1568.88
296.217	1566.88
296.448	1602.88
296.679	1599.88
296.909	1562.88
297.14	1602.88
297.37	1635.88
297.601	1632.88
297.831	1646.88
298.062	1662.88
298.292	1643.88
298.523	1703.88
298.753	1702.88
298.984	1689.88
299.214	1739.88
299.445	1751.88
299.675	1768.88
299.905	1861.88
300.136	1961.88
300.366	2186.88
300.597	2784.88
300.827	3990.88
301.057	5371.88
301.288	5379.88
301.518	3431.88
301.748	2610.88
301.979	2399.88
302.209	2322.88
302.439	2286.88
302.669	2534.88
302.9	3047.88
303.13	4235.88
303.36	6406.88
303.59	8491.88
303.82	7453.88
304.051	4292.88
304.281	3094.88
304.511	2571.88
304.741	2381.88
304.971	2218.88
305.201	2077.88
305.431	2016.88
305.661	1973.88
305.891	1933.88
306.121	1903.88
306.352	1911.88
306.582	1863.88
306.812	1864.88
307.042	1869.88
307.272	1835.88
307.502	1816.88
307.731	1827.88
307.961	1851.88
308.191	1811.88
308.421	1843.88
308.651	1824.88
308.881	1781.88
309.111	1816.88
309.341	1810.88
309.571	1876.88
309.8	1834.88
310.03	1861.88
310.26	1854.88
310.49	1889.88
310.72	1883.88
310.949	1899.88
311.179	1912.88
311.409	1914.88
311.639	1919.88
311.868	1953.88
312.098	1952.88
312.328	1960.88
312.557	1988.88
312.787	1984.88
313.017	2003.88
313.246	2064.88
313.476	2079.88
313.706	2093.88
313.935	2190.88
314.165	2378.88
314.394	2500.88
314.624	2384.88
314.853	2163.88
315.083	2168.88
315.312	2164.88
315.542	2228.88
315.771	2232.88
316.001	2274.88
316.23	2320.88
316.46	2405.88
316.689	2651.88
316.919	3273.88
317.148	4691.88
317.377	7382.88
317.607	10870.88
317.836	11256.88
318.065	6774.88
318.295	4312.88
318.524	3423.88
318.753	3014.88
318.983	2757.88
319.212	2575.88
319.441	2505.88
319.67	2468.88
319.9	2424.88
320.129	2394.88
320.358	2362.88
320.587	2353.88
320.816	2325.88
321.046	2391.88
321.275	2371.88
321.504	2390.88
321.733	2431.88
321.962	2522.88
322.191	2584.88
322.42	2523.88
322.649	2552.88
322.878	2492.88
323.108	2495.88
323.337	2549.88
323.566	2548.88
323.795	2664.88
324.024	2707.88
324.253	2706.88
324.482	2883.88
324.71	3040.88
324.939	3204.88
325.168	3283.88
325.397	3406.88
325.626	4110.88
325.855	5755.88
326.084	9113.88
326.313	13070.88
326.542	13779.88
326.77	9362.88
326.999	6014.88
327.228	5025.88
327.457	4865.88
327.686	4935.88
327.914	5259.88
328.143	6128.88
328.372	7338.88
328.6	8144.88
328.829	7217.88
329.058	5914.88
329.287	5136.88
329.515	4714.88
329.744	4321.88
329.972	4137.88
330.201	3945.88
330.43	3798.88
330.658	3632.88
330.887	3620.88
331.115	3526.88
331.344	3530.88
331.572	3555.88
331.801	3538.88
332.03	3563.88
332.258	3626.88
332.486	3846.88
332.715	4325.88
332.943	5296.88
333.172	6782.88
333.4	6727.88
333.629	5105.88
333.857	4596.88
334.085	4562.88
334.314	4806.88
334.542	5245.88
334.771	6174.88
334.999	7719.88
335.227	9643.88
335.455	10850.88
335.684	9768.88
335.912	7998.88
336.14	6630.88
336.369	5817.88
336.597	5399.88
336.825	4965.88
337.053	4610.88
337.281	4304.88
337.51	4102.88
337.738	3869.88
337.966	3753.88
338.194	3598.88
338.422	3494.88
338.65	3395.88
338.878	3296.88
339.106	3307.88
339.334	3251.88
339.562	3166.88
339.79	3094.88
340.018	3088.88
340.246	3032.88
340.474	3026.88
340.702	3053.88
340.93	3024.88
341.158	3008.88
341.386	3002.88
341.614	2960.88
341.842	2903.88
342.07	2906.88
342.298	2831.88
342.526	2768.88
342.754	2723.88
342.981	2712.88
343.209	2750.88
343.437	2749.88
343.665	2847.88
343.893	2874.88
344.12	2874.88
344.348	2743.88
344.576	2754.88
344.804	2715.88
345.031	2672.88
345.259	2614.88
345.487	2626.88
345.714	2582.88
345.942	2557.88
346.17	2596.88
346.397	2561.88
346.625	2548.88
346.853	2550.88
347.08	2523.88
347.308	2564.88
347.535	2595.88
347.763	2599.88
347.99	2519.88
348.218	2547.88
348.445	2482.88
348.673	2485.88
348.9	2464.88
349.128	2469.88
349.355	2451.88
349.583	2432.88
349.81	2456.88
350.037	2402.88
350.265	2387.88
350.492	2402.88
350.72	2411.88
350.947	2414.88
351.174	2449.88
351.402	2415.88
351.629	2425.88
351.856	2409.88
352.083	2421.88
352.311	2399.88
352.538	2416.88
352.765	2404.88
352.992	2418.88
353.22	2404.88
353.447	2415.88
353.674	2382.88
353.901	2392.88
354.128	2434.88
354.355	2390.88
354.583	2409.88
354.81	2456.88
355.037	2406.88
355.264	2437.88
355.491	2468.88
355.718	2449.88
355.945	2435.88
356.172	2508.88
356.399	2455.88
356.626	2495.88
356.853	2521.88
357.08	2529.88
357.307	2579.88
357.534	2620.88
357.761	2640.88
357.988	2611.88
358.215	2606.88
358.441	2563.88
358.668	2522.88
358.895	2566.88
359.122	2547.88
359.349	2574.88
359.576	2533.88
359.802	2545.88
360.029	2542.88
360.256	2573.88
360.483	2559.88
360.709	2548.88
360.936	2573.88
361.163	2545.88
361.39	2564.88
361.616	2546.88
361.843	2583.88
362.07	2549.88
362.296	2600.88
362.523	2611.88
362.749	2537.88
362.976	2546.88
363.203	2572.88
363.429	2552.88
363.656	2561.88
363.882	2535.88
364.109	2583.88
364.335	2515.88
364.562	2564.88
364.788	2572.88
365.015	2607.88
365.241	2661.88
365.468	2840.88
365.694	2968.88
365.92	2853.88
366.147	2598.88
366.373	2614.88
366.599	2612.88
366.826	2638.88
367.052	2563.88
367.278	2609.88
367.505	2614.88
367.731	2628.88
367.957	2628.88
368.184	2626.88
368.41	2706.88
368.636	2661.88
368.862	2661.88
369.089	2659.88
369.315	2677.88
369.541	2654.88
369.767	2672.88
369.993	2640.88
370.219	2652.88
370.445	2653.88
370.672	2682.88
370.898	2651.88
371.124	2712.88
371.35	2759.88
371.576	2714.88
371.802	2748.88
372.028	2757.88
372.254	2707.88
372.48	2796.88
372.706	2818.88
372.932	2809.88
373.158	2806.88
373.384	2806.88
373.61	2799.88
373.835	2838.88
374.061	2812.88
374.287	2804.88
374.513	2844.88
374.739	2943.88
374.965	2900.88
375.191	2868.88
375.416	2867.88
375.642	2858.88
375.868	2855.88
376.094	2868.88
376.319	2786.88
376.545	2821.88
376.771	2734.88
376.997	2755.88
377.222	2772.88
377.448	2782.88
377.674	2775.88
377.899	2745.88
378.125	2766.88
378.35	2738.88
378.576	2771.88
378.802	2782.88
379.027	2816.88
379.253	2931.88
379.478	3120.88
379.704	3620.88
379.929	5260.88
380.155	8122.88
380.38	8852.88
380.606	5392.88
380.831	3718.88
381.057	3246.88
381.282	2977.88
381.507	2908.88
381.733	2857.88
381.958	2766.88
382.184	2712.88
382.409	2693.88
382.634	2721.88
382.86	2667.88
383.085	2680.88
383.31	2675.88
383.535	2705.88
383.761	2701.88
383.986	2698.88
384.211	2729.88
384.436	2770.88
384.662	2812.88
384.887	2824.88
385.112	2788.88
385.337	2801.88
385.562	2775.88
385.787	2800.88
386.013	2782.88
386.238	2816.88
386.463	2774.88
386.688	2819.88
386.913	2759.88
387.138	2762.88
387.363	2758.88
387.588	2753.88
387.813	2785.88
388.038	2724.88
388.263	2699.88
388.488	2788.88
388.713	2822.88
388.938	2759.88
389.163	2788.88
389.387	2778.88
389.612	2735.88
389.837	2810.88
390.062	2747.88
390.287	2794.88
390.512	2832.88
390.736	2859.88
390.961	2880.88
391.186	2900.88
391.411	2863.88
391.636	2879.88
391.86	2941.88
392.085	2938.88
392.31	2908.88
392.534	2885.88
392.759	2864.88
392.984	2768.88
393.208	2867.88
393.433	2869.88
393.658	2788.88
393.882	2827.88
394.107	2801.88
394.331	2831.88
394.556	2823.88
394.78	2896.88
395.005	2847.88
395.229	2820.88
395.454	2926.88
395.678	2902.88
395.903	2901.88
396.127	2882.88
396.352	2860.88
396.576	2846.88
396.801	2885.88
397.025	2914.88
397.249	2902.88
397.474	2933.88
397.698	2909.88
397.922	2937.88
398.147	2920.88
398.371	2972.88
398.595	3033.88
398.82	3076.88
399.044	3208.88
399.268	3362.88
399.492	3590.88
399.717	3698.88
399.941	3646.88
400.165	3526.88
400.389	3361.88
400.613	3254.88
400.837	3194.88
401.062	3147.88
401.286	3102.88
401.51	3051.88
401.734	3011.88
401.958	3012.88
402.182	3055.88
402.406	3003.88
402.63	3101.88
402.854	3090.88
403.078	3122.88
403.302	3157.88
403.526	3142.88
403.75	3177.88
403.974	3218.88
404.198	3142.88
404.422	3156.88
404.645	3178.88
404.869	3202.88
405.093	3138.88
405.317	3184.88
405.541	3258.88
405.765	3287.88
405.988	3309.88
406.212	3269.88
406.436	3290.88
406.66	3314.88
406.883	3217.88
407.107	3374.88
407.331	3443.88
407.555	3434.88
407.778	3489.88
408.002	3435.88
408.226	3395.88
408.449	3403.88
408.673	3337.88
408.896	3247.88
409.12	3238.88
409.344	3245.88
409.567	3195.88
409.791	3159.88
410.014	3172.88
410.238	3155.88
410.461	3176.88
410.685	3137.88
410.908	3176.88
411.132	3088.88
411.355	3048.88
411.578	3000.88
411.802	3029.88
412.025	3017.88
412.249	3050.88
412.472	3084.88
412.695	3011.88
412.919	3048.88
413.142	3006.88
413.365	2998.88
413.589	3047.88
413.812	2980.88
414.035	3006.88
414.258	3035.88
414.482	3018.88
414.705	3054.88
414.928	3010.88
415.151	2983.88
415.374	2968.88
415.597	2928.88
415.821	2876.88
416.044	2878.88
416.267	2904.88
416.49	2873.88
416.713	2784.88
416.936	2929.88
417.159	2824.88
417.382	2808.88
417.605	2866.88
417.828	2880.88
418.051	2915.88
418.274	2954.88
418.497	2881.88
418.72	2961.88
418.943	2919.88
419.166	3079.88
419.389	3248.88
419.611	3150.88
419.834	3085.88
420.057	3017.88
420.28	2919.88
420.503	2891.88
420.726	2888.88
420.948	2832.88
421.171	2887.88
421.394	2850.88
421.617	2862.88
421.839	2892.88
422.062	2889.88
422.285	2822.88
422.507	2902.88
422.73	2918.88
422.953	2947.88
423.175	2990.88
423.398	2942.88
423.621	2850.88
423.843	2865.88
424.066	2906.88
424.288	2876.88
424.511	2853.88
424.733	2891.88
424.956	2851.88
425.178	2834.88
425.401	2857.88
425.623	2848.88
425.846	2772.88
426.068	2787.88
426.291	2734.88
426.513	2784.88
426.735	2734.88
426.958	2774.88
427.18	2691.88
427.402	2797.88
427.625	2770.88
427.847	2690.88
428.069	2693.88
428.292	2715.88
428.514	2697.88
428.736	2640.88
428.958	2706.88
429.181	2586.88
429.403	2656.88
429.625	2640.88
429.847	2672.88
430.069	2705.88
430.292	2823.88
430.514	2936.88
430.736	2914.88
430.958	2742.88
431.18	2619.88
431.402	2691.88
431.624	2600.88
431.846	2634.88
432.068	2609.88
432.29	2640.88
432.512	2634.88
432.734	2677.88
432.956	2630.88
433.178	2684.88
433.4	2626.88
433.622	2630.88
433.844	2641.88
434.066	2651.88
434.287	2635.88
434.509	2692.88
434.731	2761.88
434.953	2787.88
435.175	2790.88
435.397	2770.88
435.618	2675.88
435.84	2660.88
436.062	2670.88
436.284	2640.88
436.505	2641.88
436.727	2619.88
436.949	2635.88
437.17	2578.88
437.392	2576.88
437.614	2594.88
437.835	2515.88
438.057	2549.88
438.278	2548.88
438.5	2516.88
438.721	2627.88
438.943	2724.88
439.165	2713.88
439.386	2734.88
439.608	2729.88
439.829	2746.88
440.05	2875.88
440.272	2935.88
440.493	2737.88
440.715	2703.88
440.936	2790.88
441.158	2755.88
441.379	2822.88
441.6	2870.88
441.822	2937.88
442.043	3139.88
442.264	3235.88
442.486	2969.88
442.707	2863.88
442.928	2834.88
443.149	2825.88
443.371	2772.88
443.592	2817.88
443.813	2837.88
444.034	2832.88
444.255	2877.88
444.476	2968.88
444.698	2996.88
444.919	3007.88
445.14	3137.88
445.361	2992.88
445.582	2826.88
445.803	2832.88
446.024	2840.88
446.245	2808.88
446.466	2818.88
446.687	2762.88
446.908	2754.88
447.129	2667.88
447.35	2708.88
447.571	2650.88
447.792	2582.88
448.013	2618.88
448.234	2579.88
448.455	2610.88
448.675	2675.88
448.896	2721.88
449.117	2791.88
449.338	3007.88
449.559	3234.88
449.779	2896.88
450	2673.88
450.221	2580.88
450.442	2574.88
450.662	2554.88
450.883	2520.88
451.104	2534.88
451.324	2584.88
451.545	2521.88
451.766	2566.88
451.986	2590.88
452.207	2849.88
452.428	3702.88
452.648	5562.88
452.869	4614.88
453.089	3237.88
453.31	3013.88
453.53	2996.88
453.751	3088.88
453.971	3257.88
454.192	3151.88
454.412	2701.88
454.633	2525.88
454.853	2504.88
455.073	2452.88
455.294	2464.88
455.514	2426.88
455.734	2398.88
455.955	2438.88
456.175	2432.88
456.395	2404.88
456.616	2400.88
456.836	2468.88
457.056	2467.88
457.276	2465.88
457.497	2589.88
457.717	2701.88
457.937	2566.88
458.157	2529.88
458.377	2584.88
458.598	2587.88
458.818	2632.88
459.038	2573.88
459.258	2598.88
459.478	2661.88
459.698	2694.88
459.918	2665.88
460.138	2696.88
460.358	2825.88
460.578	2814.88
460.798	2848.88
461.018	2901.88
461.238	2859.88
461.458	2892.88
461.678	2946.88
461.898	3030.88
462.118	2982.88
462.338	3078.88
462.558	3122.88
462.777	3142.88
462.997	3287.88
463.217	3391.88
463.437	3537.88
463.657	3654.88
463.876	3545.88
464.096	3362.88
464.316	3190.88
464.536	3179.88
464.755	3123.88
464.975	3028.88
465.195	2907.88
465.414	2864.88
465.634	2774.88
465.854	2723.88
466.073	2719.88
466.293	2715.88
466.512	2693.88
466.732	2726.88
466.951	2828.88
467.171	3057.88
467.391	2961.88
467.61	2706.88
467.829	2643.88
468.049	2632.88
468.268	2585.88
468.488	2576.88
468.707	2593.88
468.927	2568.88
469.146	2593.88
469.365	2628.88
469.585	2658.88
469.804	2703.88
470.023	2759.88
470.243	2788.88
470.462	2860.88
470.681	3041.88
470.901	3335.88
471.12	3856.88
471.339	3851.88
471.558	3203.88
471.777	2932.88
471.997	2782.88
472.216	2714.88
472.435	2671.88
472.654	2626.88
472.873	2576.88
473.092	2659.88
473.311	2629.88
473.53	2611.88
473.749	2742.88
473.968	2822.88
474.187	2706.88
474.406	2622.88
474.625	2655.88
474.844	2671.88
475.063	2612.88
475.282	2642.88
475.501	2637.88
475.72	2706.88
475.939	2657.88
476.158	2718.88
476.377	2807.88
476.596	2753.88
476.814	2761.88
477.033	2758.88
477.252	2785.88
477.471	2830.88
477.69	2911.88
477.908	2904.88
478.127	2982.88
478.346	3009.88
478.564	3029.88
478.783	3057.88
479.002	3062.88
479.22	3088.88
479.439	3081.88
479.658	3104.88
479.876	3129.88
480.095	3199.88
480.313	3209.88
480.532	3277.88
480.751	3186.88
480.969	3167.88
481.188	3155.88
481.406	3124.88
481.624	3178.88
481.843	3174.88
482.061	3161.88
482.28	3166.88
482.498	3250.88
482.717	3168.88
482.935	3242.88
483.153	3218.88
483.372	3313.88
483.59	3337.88
483.808	3365.88
484.027	3472.88
484.245	3650.88
484.463	4142.88
484.681	4564.88
484.9	4217.88
485.118	3861.88
485.336	3742.88
485.554	3849.88
485.772	4081.88
485.99	4680.88
486.209	5003.88
486.427	4176.88
486.645	3745.88
486.863	3595.88
487.081	3448.88
487.299	3450.88
487.517	3427.88
487.735	3400.88
487.953	3431.88
488.171	3416.88
488.389	3385.88
488.607	3361.88
488.825	3294.88
489.043	3266.88
489.261	3225.88
489.479	3264.88
489.696	3295.88
489.914	3319.88
490.132	3250.88
490.35	3318.88
490.568	3318.88
490.786	3346.88
491.003	3355.88
491.221	3393.88
491.439	3434.88
491.657	3377.88
491.874	3399.88
492.092	3421.88
492.31	3424.88
492.527	3409.88
492.745	3439.88
492.963	3432.88
493.18	3386.88
493.398	3403.88
493.615	3453.88
493.833	3409.88
494.05	3465.88
494.268	3448.88
494.485	3462.88
494.703	3465.88
494.92	3501.88
495.138	3410.88
495.355	3468.88
495.573	3424.88
495.79	3500.88
496.008	3505.88
496.225	3555.88
496.442	3609.88
496.66	3732.88
496.877	3904.88
497.094	3877.88
497.312	3714.88
497.529	3694.88
497.746	3702.88
497.963	3890.88
498.181	3972.88
498.398	4039.88
498.615	4125.88
498.832	4238.88
499.049	4532.88
499.267	4880.88
499.484	5169.88
499.701	5106.88
499.918	5211.88
500.135	5542.88
500.352	5802.88
500.569	5819.88
500.786	5760.88
501.003	5595.88
501.22	5307.88
501.437	5024.88
501.654	4782.88
501.871	4583.88
502.088	4400.88
502.305	4310.88
502.522	4172.88
502.739	4012.88
502.956	3910.88
503.172	3858.88
503.389	3668.88
503.606	3657.88
503.823	3650.88
504.04	3600.88
504.256	3533.88
504.473	3584.88
504.69	3617.88
504.907	3582.88
505.123	3455.88
505.34	3363.88
505.557	3318.88
505.773	3216.88
505.99	3240.88
506.207	3207.88
506.423	3155.88
506.64	3160.88
506.856	3069.88
507.073	3088.88
507.289	3059.88
507.506	3054.88
507.722	3032.88
507.939	3015.88
508.155	2991.88
508.372	2997.88
508.588	2965.88
508.805	2952.88
509.021	2967.88
509.238	3059.88
509.454	3170.88
509.67	3391.88
509.887	3134.88
510.103	3029.88
510.319	2985.88
510.536	2928.88
510.752	2926.88
510.968	2915.88
511.184	2856.88
511.401	2884.88
511.617	2866.88
511.833	2811.88
512.049	2809.88
512.265	2840.88
512.481	2890.88
512.698	2820.88
512.914	2793.88
513.13	2826.88
513.346	2876.88
513.562	2792.88
513.778	2850.88
513.994	2911.88
514.21	2996.88
514.426	3212.88
514.642	3308.88
514.858	3049.88
515.074	2992.88
515.29	2970.88
515.506	2950.88
515.721	2939.88
515.937	2919.88
516.153	2936.88
516.369	2985.88
516.585	3001.88
516.801	3056.88
517.016	3141.88
517.232	3158.88
517.448	3160.88
517.664	3276.88
517.879	3221.88
518.095	3272.88
518.311	3233.88
518.527	3167.88
518.742	3143.88
518.958	3211.88
519.173	3316.88
519.389	3138.88
519.605	2999.88
519.82	2922.88
520.036	2927.88
520.251	2874.88
520.467	2842.88
520.682	2854.88
520.898	2814.88
521.113	2777.88
521.329	2802.88
521.544	2747.88
521.76	2813.88
521.975	2783.88
522.19	2800.88
522.406	2776.88
522.621	2786.88
522.836	2719.88
523.052	2774.88
523.267	2682.88
523.482	2719.88
523.698	2710.88
523.913	2677.88
524.128	2735.88
524.343	2724.88
524.559	2745.88
524.774	2722.88
524.989	2698.88
525.204	2734.88
525.419	2726.88
525.634	2694.88
525.849	2691.88
526.064	2745.88
526.28	2739.88
526.495	2726.88
526.71	2727.88
526.925	2739.88
527.14	2734.88
527.355	2715.88
527.57	2742.88
527.785	2744.88
527.999	2748.88
528.214	2794.88
528.429	2765.88
528.644	2832.88
528.859	2873.88
529.074	2929.88
529.289	2932.88
529.503	2921.88
529.718	2924.88
529.933	2910.88
530.148	2913.88
530.363	2901.88
530.577	2903.88
530.792	2900.88
531.007	2949.88
531.221	2969.88
531.436	3025.88
531.651	3047.88
531.865	3070.88
532.08	3151.88
532.295	3233.88
532.509	3392.88
532.724	3460.88
532.938	3478.88
533.153	3611.88
533.367	3903.88
533.582	4086.88
533.796	4055.88
534.011	3916.88
534.225	3743.88
534.44	3500.88
534.654	3422.88
534.868	3375.88
535.083	3332.88
535.297	3286.88
535.511	3202.88
535.726	3217.88
535.94	3163.88
536.154	3042.88
536.369	3012.88
536.583	2996.88
536.797	2918.88
537.011	2901.88
537.225	2870.88
537.44	2881.88
537.654	2828.88
537.868	2803.88
538.082	2820.88
538.296	2697.88
538.51	2730.88
538.724	2759.88
538.938	2772.88
539.153	2710.88
539.367	2700.88
539.581	2650.88
539.795	2601.88
540.009	2666.88
540.222	2624.88
540.436	2635.88
540.65	2622.88
540.864	2676.88
541.078	2728.88
541.292	2870.88
541.506	3390.88
541.72	3532.88
541.934	3043.88
542.147	2891.88
542.361	2752.88
542.575	2655.88
542.789	2627.88
543.002	2550.88
543.216	2570.88
543.43	2487.88
543.644	2505.88
543.857	2531.88
544.071	2571.88
544.285	2568.88
544.498	2553.88
544.712	2563.88
544.925	2587.88
545.139	2597.88
545.352	2530.88
545.566	2560.88
545.779	2576.88
545.993	2615.88
546.206	2590.88
546.42	2624.88
546.633	2561.88
546.847	2534.88
547.06	2564.88
547.274	2572.88
547.487	2522.88
547.7	2569.88
547.914	2584.88
548.127	2534.88
548.34	2568.88
548.554	2565.88
548.767	2546.88
548.98	2538.88
549.193	2550.88
549.407	2595.88
549.62	2566.88
549.833	2592.88
550.046	2583.88
550.259	2593.88
550.473	2518.88
550.686	2538.88
550.899	2582.88
551.112	2563.88
551.325	2592.88
551.538	2602.88
551.751	2556.88
551.964	2576.88
552.177	2641.88
552.39	2651.88
552.603	2719.88
552.816	2711.88
553.029	2768.88
553.242	2842.88
553.455	2878.88
553.667	2804.88
553.88	2849.88
554.093	2847.88
554.306	2919.88
554.519	2927.88
554.732	2982.88
554.944	3020.88
555.157	3128.88
555.37	3214.88
555.583	3340.88
555.795	3542.88
556.008	3802.88
556.221	4334.88
556.433	4655.88
556.646	4664.88
556.859	4386.88
557.071	4193.88
557.284	4094.88
557.496	3961.88
557.709	3851.88
557.921	3780.88
558.134	3790.88
558.346	3833.88
558.559	3986.88
558.771	4255.88
558.984	4661.88
559.196	5067.88
559.409	4821.88
559.621	4438.88
559.833	4108.88
560.046	3780.88
560.258	3662.88
560.47	3482.88
560.683	3304.88
560.895	3182.88
561.107	3082.88
561.32	2978.88
561.532	2904.88
561.744	2908.88
561.956	2843.88
562.168	2700.88
562.381	2674.88
562.593	2688.88
562.805	2705.88
563.017	2742.88
563.229	2804.88
563.441	3216.88
563.653	2685.88
563.865	2469.88
564.077	2484.88
564.289	2392.88
564.501	2388.88
564.713	2416.88
564.925	2337.88
565.137	2400.88
565.349	2351.88
565.561	2388.88
565.773	2426.88
565.985	2410.88
566.197	2443.88
566.408	2514.88
566.62	2520.88
566.832	2630.88
567.044	2601.88
567.255	2641.88
567.467	2623.88
567.679	2722.88
567.891	2906.88
568.102	3189.88
568.314	3636.88
568.526	3211.88
568.737	2753.88
568.949	2532.88
569.161	2385.88
569.372	2312.88
569.584	2181.88
569.795	2172.88
570.007	2146.88
570.218	2176.88
570.43	2235.88
570.641	2113.88
570.853	2002.88
571.064	2021.88
571.276	1958.88
571.487	1940.88
571.698	1927.88
571.91	1892.88
572.121	1845.88
572.333	1875.88
572.544	1871.88
572.755	2040.88
572.966	2366.88
573.178	2105.88
573.389	1902.88
573.6	1822.88
573.811	1794.88
574.023	1808.88
574.234	1751.88
574.445	1723.88
574.656	1698.88
574.867	1740.88
575.078	1741.88
575.289	1741.88
575.501	1691.88
575.712	1717.88
575.923	1702.88
576.134	1704.88
576.345	1744.88
576.556	1730.88
576.767	1731.88
576.978	1712.88
577.188	1773.88
577.399	1744.88
577.61	1784.88
577.821	1820.88
578.032	1810.88
578.243	1819.88
578.454	1875.88
578.665	1907.88
578.875	1968.88
579.086	2000.88
579.297	2139.88
579.508	2269.88
579.718	2486.88
579.929	2888.88
580.14	3370.88
580.35	3483.88
580.561	3135.88
580.772	2799.88
580.982	2576.88
581.193	2359.88
581.403	2269.88
581.614	2168.88
581.825	2048.88
582.035	1972.88
582.246	1907.88
582.456	1827.88
582.667	1795.88
582.877	1810.88
583.087	1736.88
583.298	1698.88
583.508	1617.88
583.719	1615.88
583.929	1563.88
584.139	1575.88
584.35	1523.88
584.56	1474.88
584.77	1481.88
584.981	1449.88
585.191	1456.88
585.401	1404.88
585.611	1388.88
585.821	1363.88
586.032	1392.88
586.242	1360.88
586.452	1330.88
586.662	1342.88
586.872	1302.88
587.082	1311.88
587.292	1268.88
587.502	1318.88
587.713	1310.88
587.923	1295.88
588.133	1268.88
588.343	1202.88
588.553	1220.88
588.762	1232.88
588.972	1214.88
589.182	1265.88
589.392	1214.88
589.602	1227.88
589.812	1235.88
590.022	1204.88
590.232	1182.88
590.441	1196.88
590.651	1170.88
590.861	1187.88
591.071	1173.88
591.281	1198.88
591.49	1204.88
591.7	1202.88
591.91	1175.88
592.119	1211.88
592.329	1201.88
592.539	1176.88
592.748	1216.88
592.958	1231.88
593.167	1222.88
593.377	1214.88
593.587	1230.88
593.796	1229.88
594.006	1243.88
594.215	1249.88
594.424	1235.88
594.634	1216.88
594.843	1238.88
595.053	1155.88
595.262	1137.88
595.472	1127.88
595.681	1130.88
595.89	1103.88
596.1	1102.88
596.309	1080.88
596.518	1059.88
596.727	1049.88
596.937	1059.88
597.146	1052.88
597.355	1033.88
597.564	1022.88
597.774	1011.88
597.983	1016.88
598.192	994.88
598.401	978.88
598.61	991.88
598.819	938.88
599.028	971.88
599.237	965.88
599.446	964.88
599.655	976.88
599.864	970.88
600.073	954.88
600.282	937.88
600.491	963.88
600.7	944.88
600.909	947.88
601.118	964.88
601.327	939.88
601.536	962.88
601.745	1014.88
601.953	1087.88
602.162	1235.88
602.371	1097.88
602.58	977.88
602.789	968.88
602.997	931.88
603.206	945.88
603.415	919.88
603.623	906.88
603.832	923.88
604.041	954.88
604.249	906.88
604.458	915.88
604.666	879.88
604.875	920.88
605.084	899.88
605.292	890.88
605.501	884.88
605.709	909.88
605.918	902.88
606.126	906.88
606.334	938.88
606.543	898.88
606.751	1012.88
606.96	1150.88
607.168	1247.88
607.376	1082.88
607.585	980.88
607.793	950.88
608.001	929.88
608.21	929.88
608.418	897.88
608.626	888.88
608.834	854.88
609.043	869.88
609.251	862.88
609.459	857.88
609.667	848.88
609.875	832.88
610.083	826.88
610.291	839.88
610.499	838.88
610.707	829.88
610.916	832.88
611.124	839.88
611.332	832.88
611.54	851.88
611.748	794.88
611.955	836.88
612.163	798.88
612.371	803.88
612.579	832.88
612.787	804.88
612.995	816.88
613.203	804.88
613.411	790.88
613.618	806.88
613.826	774.88
614.034	798.88
614.242	816.88
614.449	806.88
614.657	772.88
614.865	766.88
615.072	784.88
615.28	811.88
615.488	800.88
615.695	798.88
615.903	775.88
616.111	744.88
616.318	811.88
616.526	790.88
616.733	795.88
616.941	775.88
617.148	773.88
617.356	786.88
617.563	772.88
617.771	781.88
617.978	743.88
618.185	758.88
618.393	742.88
618.6	779.88
618.807	738.88
619.015	772.88
619.222	764.88
619.429	753.88
619.637	743.88
619.844	730.88
620.051	739.88
620.258	708.88
620.466	713.88
620.673	707.88
620.88	700.88
621.087	688.88
621.294	679.88
621.501	722.88
621.708	712.88
621.915	726.88
622.122	714.88
622.329	707.88
622.536	682.88
622.743	706.88
622.95	708.88
623.157	682.88
623.364	709.88
623.571	686.88
623.778	700.88
623.985	703.88
624.192	688.88
624.399	690.88
624.606	697.88
624.812	664.88
625.019	669.88
625.226	668.88
625.433	656.88
625.639	636.88
625.846	640.88
626.053	628.88
626.259	624.88
626.466	672.88
626.673	631.88
626.879	630.88
627.086	626.88
627.293	634.88
627.499	638.88
627.706	657.88
627.912	632.88
628.119	632.88
628.325	631.88
628.532	642.88
628.738	640.88
628.945	631.88
629.151	642.88
629.357	609.88
629.564	606.88
629.77	613.88
629.976	608.88
630.183	620.88
630.389	618.88
630.595	597.88
630.802	590.88
631.008	600.88
631.214	602.88
631.42	598.88
631.627	595.88
631.833	611.88
632.039	609.88
632.245	589.88
632.451	607.88
632.657	584.88
632.863	587.88
633.069	574.88
633.275	590.88
633.481	570.88
633.688	586.88
633.893	577.88
634.099	581.88
634.305	596.88
634.511	596.88
634.717	586.88
634.923	642.88
635.129	702.88
635.335	792.88
635.541	702.88
635.747	638.88
635.952	611.88
636.158	608.88
636.364	585.88
636.57	597.88
636.775	585.88
636.981	572.88
637.187	595.88
637.392	580.88
637.598	578.88
637.804	594.88
638.009	593.88
638.215	587.88
638.421	565.88
638.626	579.88
638.832	575.88
639.037	607.88
639.243	600.88
639.448	600.88
639.654	605.88
639.859	598.88
640.065	597.88
640.27	615.88
640.475	610.88
640.681	642.88
640.886	616.88
641.091	626.88
641.297	644.88
641.502	635.88
641.707	662.88
641.913	651.88
642.118	680.88
642.323	680.88
642.528	716.88
642.733	698.88
642.939	721.88
643.144	725.88
643.349	770.88
643.554	794.88
643.759	838.88
643.964	843.88
644.169	889.88
644.374	977.88
644.579	1103.88
644.784	1170.88
644.989	1379.88
645.194	1627.88
645.399	2008.88
645.604	2152.88
645.809	1591.88
646.014	1181.88
646.219	994.88
646.423	894.88
646.628	775.88
646.833	752.88
647.038	708.88
647.243	658.88
647.447	633.88
647.652	624.88
647.857	595.88
648.062	594.88
648.266	564.88
648.471	582.88
648.676	556.88
648.88	547.88
649.085	526.88
649.289	544.88
649.494	501.88
649.698	503.88
649.903	502.88
650.107	474.88
650.312	473.88
650.516	483.88
650.721	448.88
650.925	442.88
651.13	440.88
651.334	453.88
651.539	442.88
651.743	431.88
651.947	427.88
652.152	433.88
652.356	427.88
652.56	472.88
652.764	515.88
652.969	481.88
653.173	438.88
653.377	412.88
653.581	386.88
653.785	376.88
653.99	389.88
654.194	371.88
654.398	363.88
654.602	366.88
654.806	360.88
655.01	371.88
655.214	371.88
655.418	346.88
655.622	350.88
655.826	362.88
656.03	352.88
656.234	350.88
656.438	376.88
656.642	376.88
656.846	370.88
657.049	362.88
657.253	315.88
657.457	311.88
657.661	289.88
657.865	283.88
658.068	260.88
658.272	262.88
658.476	246.88
658.68	227.88
658.883	212.88
659.087	211.88
659.291	183.88
659.494	191.88
659.698	203.88
659.901	199.88
660.105	177.88
660.309	177.88
660.512	164.88
660.716	155.88
660.919	161.88
661.123	124.88
661.326	133.88
661.53	131.88
661.733	122.88
661.936	104.88
662.14	134.88
662.343	112.88
662.546	110.88
662.75	93.88
662.953	115.88
663.156	114.88
663.36	104.88
663.563	105.88
663.766	83.88
663.969	104.88
664.173	100.88
664.376	84.88
664.579	80.88
664.782	89.88
664.985	83.88
665.188	82.88
665.391	77.88
665.594	86.88
665.797	90.88
666	79.88
666.203	96.88
666.406	91.88
666.609	74.88
666.812	76.88
667.015	80.88
667.218	88.88
667.421	83.88
667.624	88.88
667.827	82.88
668.03	84.88
668.232	95.88
668.435	77.88
668.638	81.88
668.841	97.88
669.043	81.88
669.246	83.88
669.449	91.88
669.651	78.88
669.854	79.88
670.057	90.88
670.259	88.88
670.462	80.88
670.665	83.88
670.867	87.88
671.07	83.88
671.272	81.88
671.475	88.88
671.677	76.88
671.88	95.88
672.082	85.88
672.284	78.88
672.487	79.88
672.689	73.88
672.892	87.88
