Data from SnStandardFlinnAPT0064_LampEnergy5.5_LIBS07252019.E.O._I.C._HRD10591_15-17-26-492.txt Node
Date: Thu Jul 25 15:17:26 EDT 2019
User: cochatt
Spectrometer: HR+D1059
Trigger mode: 1
Integration Time (sec): 1.000000E-1
Scans to average: 1
Electric dark correction enabled: true
Nonlinearity correction enabled: false
Boxcar width: 0
XAxis mode: Wavelengths
Number of Pixels in Spectrum: 2048
>>>>>Begin Spectral Data<<<<<
223.165	-21.5
223.4	-21.5
223.635	-21.5
223.869	-13.5
224.104	-3.5
224.338	-21.5
224.573	-13.5
224.808	-19.5
225.042	-15.5
225.277	-2.5
225.511	1.5
225.746	1.5
225.98	-0.5
226.215	6.5
226.449	27.5
226.683	18.5
226.918	35.5
227.152	20.5
227.387	30.5
227.621	46.5
227.856	37.5
228.09	32.5
228.324	51.5
228.559	47.5
228.793	76.5
229.027	139.5
229.262	153.5
229.496	144.5
229.73	170.5
229.964	172.5
230.199	164.5
230.433	152.5
230.667	185.5
230.901	174.5
231.136	180.5
231.37	197.5
231.604	204.5
231.838	214.5
232.072	255.5
232.306	260.5
232.541	222.5
232.775	213.5
233.009	208.5
233.243	207.5
233.477	212.5
233.711	246.5
233.945	299.5
234.179	260.5
234.413	234.5
234.647	227.5
234.881	218.5
235.115	254.5
235.349	306.5
235.583	352.5
235.817	452.5
236.051	465.5
236.285	310.5
236.519	259.5
236.753	253.5
236.987	270.5
237.221	251.5
237.455	249.5
237.689	201.5
237.922	209.5
238.156	243.5
238.39	251.5
238.624	233.5
238.858	230.5
239.091	230.5
239.325	228.5
239.559	239.5
239.793	250.5
240.027	250.5
240.26	263.5
240.494	272.5
240.728	277.5
240.961	288.5
241.195	300.5
241.429	300.5
241.662	305.5
241.896	337.5
242.13	422.5
242.363	537.5
242.597	711.5
242.83	676.5
243.064	676.5
243.298	775.5
243.531	680.5
243.765	453.5
243.998	360.5
244.232	340.5
244.465	296.5
244.699	286.5
244.932	291.5
245.166	310.5
245.399	308.5
245.633	323.5
245.866	333.5
246.099	292.5
246.333	297.5
246.566	309.5
246.8	297.5
247.033	282.5
247.266	303.5
247.5	310.5
247.733	313.5
247.966	327.5
248.2	359.5
248.433	389.5
248.666	405.5
248.899	433.5
249.133	362.5
249.366	384.5
249.599	403.5
249.832	469.5
250.066	451.5
250.299	371.5
250.532	354.5
250.765	342.5
250.998	336.5
251.231	348.5
251.465	334.5
251.698	313.5
251.931	357.5
252.164	348.5
252.397	347.5
252.63	343.5
252.863	377.5
253.096	353.5
253.329	382.5
253.562	370.5
253.795	355.5
254.028	352.5
254.261	388.5
254.494	399.5
254.727	463.5
254.96	541.5
255.193	544.5
255.426	420.5
255.659	386.5
255.892	388.5
256.124	368.5
256.357	405.5
256.59	425.5
256.823	455.5
257.056	480.5
257.289	549.5
257.521	625.5
257.754	518.5
257.987	434.5
258.22	434.5
258.452	413.5
258.685	422.5
258.918	452.5
259.151	442.5
259.383	480.5
259.616	532.5
259.849	554.5
260.081	483.5
260.314	472.5
260.547	443.5
260.779	419.5
261.012	442.5
261.244	457.5
261.477	466.5
261.71	466.5
261.942	444.5
262.175	464.5
262.407	471.5
262.64	497.5
262.872	504.5
263.105	518.5
263.337	552.5
263.57	584.5
263.802	598.5
264.035	583.5
264.267	607.5
264.499	629.5
264.732	641.5
264.964	643.5
265.197	649.5
265.429	662.5
265.661	641.5
265.894	699.5
266.126	792.5
266.358	861.5
266.591	811.5
266.823	701.5
267.055	656.5
267.287	616.5
267.52	608.5
267.752	577.5
267.984	578.5
268.216	560.5
268.448	558.5
268.681	580.5
268.913	573.5
269.145	562.5
269.377	567.5
269.609	566.5
269.841	575.5
270.073	607.5
270.306	720.5
270.538	940.5
270.77	1380.5
271.002	1685.5
271.234	1159.5
271.466	784.5
271.698	665.5
271.93	617.5
272.162	589.5
272.394	557.5
272.626	553.5
272.858	558.5
273.09	558.5
273.322	552.5
273.553	541.5
273.785	536.5
274.017	532.5
274.249	536.5
274.481	540.5
274.713	540.5
274.945	551.5
275.176	545.5
275.408	542.5
275.64	580.5
275.872	545.5
276.104	552.5
276.335	552.5
276.567	584.5
276.799	559.5
277.031	572.5
277.262	579.5
277.494	624.5
277.726	674.5
277.957	768.5
278.189	865.5
278.421	827.5
278.652	755.5
278.884	691.5
279.115	674.5
279.347	631.5
279.579	626.5
279.81	612.5
280.042	601.5
280.273	615.5
280.505	657.5
280.736	676.5
280.968	668.5
281.199	741.5
281.431	814.5
281.662	857.5
281.894	774.5
282.125	702.5
282.356	689.5
282.588	731.5
282.819	708.5
283.051	780.5
283.282	834.5
283.513	1014.5
283.745	1518.5
283.976	2473.5
284.207	3476.5
284.439	3117.5
284.67	1806.5
284.901	1484.5
285.132	1479.5
285.364	1443.5
285.595	1104.5
285.826	994.5
286.057	1192.5
286.288	1650.5
286.52	2229.5
286.751	2093.5
286.982	1238.5
287.213	937.5
287.444	824.5
287.675	797.5
287.906	768.5
288.138	729.5
288.369	741.5
288.6	729.5
288.831	744.5
289.062	731.5
289.293	719.5
289.524	737.5
289.755	708.5
289.986	735.5
290.217	727.5
290.448	770.5
290.679	716.5
290.91	755.5
291.141	788.5
291.371	832.5
291.602	861.5
291.833	818.5
292.064	749.5
292.295	708.5
292.526	712.5
292.757	710.5
292.987	693.5
293.218	694.5
293.449	721.5
293.68	680.5
293.91	691.5
294.141	706.5
294.372	672.5
294.603	656.5
294.833	665.5
295.064	678.5
295.295	671.5
295.525	689.5
295.756	690.5
295.987	674.5
296.217	693.5
296.448	672.5
296.679	700.5
296.909	654.5
297.14	694.5
297.37	689.5
297.601	687.5
297.831	716.5
298.062	707.5
298.292	746.5
298.523	729.5
298.753	737.5
298.984	712.5
299.214	729.5
299.445	758.5
299.675	782.5
299.905	792.5
300.136	834.5
300.366	911.5
300.597	1148.5
300.827	1605.5
301.057	2227.5
301.288	2156.5
301.518	1364.5
301.748	1094.5
301.979	960.5
302.209	958.5
302.439	973.5
302.669	1013.5
302.9	1213.5
303.13	1710.5
303.36	2536.5
303.59	3462.5
303.82	2952.5
304.051	1691.5
304.281	1242.5
304.511	1034.5
304.741	969.5
304.971	890.5
305.201	885.5
305.431	844.5
305.661	867.5
305.891	810.5
306.121	815.5
306.352	801.5
306.582	802.5
306.812	794.5
307.042	802.5
307.272	794.5
307.502	765.5
307.731	798.5
307.961	803.5
308.191	813.5
308.421	804.5
308.651	792.5
308.881	773.5
309.111	777.5
309.341	820.5
309.571	807.5
309.8	826.5
310.03	844.5
310.26	815.5
310.49	801.5
310.72	820.5
310.949	805.5
311.179	816.5
311.409	838.5
311.639	839.5
311.868	848.5
312.098	831.5
312.328	865.5
312.557	865.5
312.787	864.5
313.017	866.5
313.246	856.5
313.476	850.5
313.706	899.5
313.935	912.5
314.165	976.5
314.394	989.5
314.624	1018.5
314.853	945.5
315.083	914.5
315.312	944.5
315.542	967.5
315.771	945.5
316.001	965.5
316.23	980.5
316.46	1040.5
316.689	1136.5
316.919	1344.5
317.148	1944.5
317.377	3103.5
317.607	4559.5
317.836	4648.5
318.065	2633.5
318.295	1689.5
318.524	1347.5
318.753	1181.5
318.983	1150.5
319.212	1058.5
319.441	1059.5
319.67	1034.5
319.9	1012.5
320.129	987.5
320.358	990.5
320.587	1000.5
320.816	985.5
321.046	985.5
321.275	982.5
321.504	962.5
321.733	996.5
321.962	1069.5
322.191	1076.5
322.42	1040.5
322.649	1060.5
322.878	1051.5
323.108	1060.5
323.337	1079.5
323.566	1074.5
323.795	1116.5
324.024	1118.5
324.253	1137.5
324.482	1189.5
324.71	1218.5
324.939	1330.5
325.168	1333.5
325.397	1358.5
325.626	1671.5
325.855	2344.5
326.084	3711.5
326.313	5522.5
326.542	5857.5
326.77	3622.5
326.999	2316.5
327.228	1945.5
327.457	1853.5
327.686	1860.5
327.914	1986.5
328.143	2233.5
328.372	2625.5
328.6	2846.5
328.829	2612.5
329.058	2254.5
329.287	2065.5
329.515	1879.5
329.744	1730.5
329.972	1634.5
330.201	1578.5
330.43	1536.5
330.658	1484.5
330.887	1456.5
331.115	1442.5
331.344	1406.5
331.572	1423.5
331.801	1448.5
332.03	1447.5
332.258	1461.5
332.486	1562.5
332.715	1772.5
332.943	2164.5
333.172	2589.5
333.4	2616.5
333.629	2001.5
333.857	1813.5
334.085	1826.5
334.314	1918.5
334.542	1992.5
334.771	2378.5
334.999	2780.5
335.227	3396.5
335.455	3823.5
335.684	3517.5
335.912	2984.5
336.14	2588.5
336.369	2333.5
336.597	2156.5
336.825	1948.5
337.053	1842.5
337.281	1730.5
337.51	1672.5
337.738	1615.5
337.966	1553.5
338.194	1496.5
338.422	1464.5
338.65	1439.5
338.878	1384.5
339.106	1350.5
339.334	1339.5
339.562	1314.5
339.79	1293.5
340.018	1308.5
340.246	1293.5
340.474	1290.5
340.702	1276.5
340.93	1273.5
341.158	1272.5
341.386	1245.5
341.614	1251.5
341.842	1252.5
342.07	1190.5
342.298	1237.5
342.526	1190.5
342.754	1117.5
342.981	1168.5
343.209	1174.5
343.437	1166.5
343.665	1171.5
343.893	1217.5
344.12	1209.5
344.348	1183.5
344.576	1186.5
344.804	1144.5
345.031	1136.5
345.259	1162.5
345.487	1111.5
345.714	1159.5
345.942	1092.5
346.17	1092.5
346.397	1093.5
346.625	1092.5
346.853	1084.5
347.08	1062.5
347.308	1082.5
347.535	1071.5
347.763	1072.5
347.99	1057.5
348.218	1096.5
348.445	1052.5
348.673	1058.5
348.9	1080.5
349.128	1071.5
349.355	1061.5
349.583	1064.5
349.81	1042.5
350.037	1031.5
350.265	1053.5
350.492	1058.5
350.72	1038.5
350.947	1039.5
351.174	1042.5
351.402	1045.5
351.629	1044.5
351.856	1052.5
352.083	1036.5
352.311	1052.5
352.538	1032.5
352.765	1007.5
352.992	1036.5
353.22	1008.5
353.447	1058.5
353.674	1045.5
353.901	1037.5
354.128	1036.5
354.355	1047.5
354.583	1030.5
354.81	1034.5
355.037	1047.5
355.264	1065.5
355.491	1042.5
355.718	1033.5
355.945	1062.5
356.172	1059.5
356.399	1067.5
356.626	1072.5
356.853	1052.5
357.08	1110.5
357.307	1093.5
357.534	1122.5
357.761	1098.5
357.988	1113.5
358.215	1117.5
358.441	1130.5
358.668	1070.5
358.895	1098.5
359.122	1084.5
359.349	1116.5
359.576	1098.5
359.802	1084.5
360.029	1123.5
360.256	1121.5
360.483	1109.5
360.709	1124.5
360.936	1110.5
361.163	1119.5
361.39	1106.5
361.616	1085.5
361.843	1086.5
362.07	1116.5
362.296	1126.5
362.523	1113.5
362.749	1132.5
362.976	1106.5
363.203	1100.5
363.429	1089.5
363.656	1113.5
363.882	1100.5
364.109	1088.5
364.335	1096.5
364.562	1097.5
364.788	1093.5
365.015	1098.5
365.241	1118.5
365.468	1186.5
365.694	1192.5
365.92	1208.5
366.147	1118.5
366.373	1113.5
366.599	1114.5
366.826	1118.5
367.052	1124.5
367.278	1161.5
367.505	1114.5
367.731	1124.5
367.957	1120.5
368.184	1140.5
368.41	1156.5
368.636	1151.5
368.862	1129.5
369.089	1128.5
369.315	1137.5
369.541	1174.5
369.767	1175.5
369.993	1154.5
370.219	1145.5
370.445	1159.5
370.672	1170.5
370.898	1172.5
371.124	1142.5
371.35	1190.5
371.576	1157.5
371.802	1163.5
372.028	1186.5
372.254	1213.5
372.48	1190.5
372.706	1210.5
372.932	1221.5
373.158	1229.5
373.384	1196.5
373.61	1189.5
373.835	1206.5
374.061	1205.5
374.287	1223.5
374.513	1212.5
374.739	1239.5
374.965	1236.5
375.191	1261.5
375.416	1246.5
375.642	1204.5
375.868	1207.5
376.094	1219.5
376.319	1233.5
376.545	1215.5
376.771	1182.5
376.997	1198.5
377.222	1194.5
377.448	1160.5
377.674	1167.5
377.899	1178.5
378.125	1169.5
378.35	1202.5
378.576	1190.5
378.802	1177.5
379.027	1204.5
379.253	1285.5
379.478	1318.5
379.704	1535.5
379.929	2186.5
380.155	3301.5
380.38	3559.5
380.606	2120.5
380.831	1551.5
381.057	1337.5
381.282	1242.5
381.507	1227.5
381.733	1201.5
381.958	1166.5
382.184	1174.5
382.409	1186.5
382.634	1150.5
382.86	1181.5
383.085	1174.5
383.31	1148.5
383.535	1154.5
383.761	1212.5
383.986	1185.5
384.211	1181.5
384.436	1216.5
384.662	1211.5
384.887	1194.5
385.112	1212.5
385.337	1233.5
385.562	1212.5
385.787	1211.5
386.013	1216.5
386.238	1217.5
386.463	1203.5
386.688	1218.5
386.913	1194.5
387.138	1202.5
387.363	1214.5
387.588	1213.5
387.813	1226.5
388.038	1218.5
388.263	1222.5
388.488	1211.5
388.713	1227.5
388.938	1241.5
389.163	1200.5
389.387	1209.5
389.612	1190.5
389.837	1212.5
390.062	1195.5
390.287	1210.5
390.512	1222.5
390.736	1230.5
390.961	1224.5
391.186	1245.5
391.411	1251.5
391.636	1254.5
391.86	1261.5
392.085	1272.5
392.31	1274.5
392.534	1244.5
392.759	1267.5
392.984	1238.5
393.208	1206.5
393.433	1300.5
393.658	1246.5
393.882	1214.5
394.107	1213.5
394.331	1214.5
394.556	1245.5
394.78	1227.5
395.005	1244.5
395.229	1239.5
395.454	1297.5
395.678	1292.5
395.903	1296.5
396.127	1275.5
396.352	1263.5
396.576	1253.5
396.801	1280.5
397.025	1261.5
397.249	1273.5
397.474	1281.5
397.698	1257.5
397.922	1294.5
398.147	1268.5
398.371	1302.5
398.595	1330.5
398.82	1375.5
399.044	1399.5
399.268	1441.5
399.492	1550.5
399.717	1567.5
399.941	1599.5
400.165	1512.5
400.389	1490.5
400.613	1453.5
400.837	1395.5
401.062	1404.5
401.286	1343.5
401.51	1346.5
401.734	1317.5
401.958	1381.5
402.182	1329.5
402.406	1332.5
402.63	1352.5
402.854	1364.5
403.078	1358.5
403.302	1366.5
403.526	1395.5
403.75	1374.5
403.974	1400.5
404.198	1402.5
404.422	1399.5
404.645	1408.5
404.869	1397.5
405.093	1401.5
405.317	1416.5
405.541	1382.5
405.765	1391.5
405.988	1452.5
406.212	1439.5
406.436	1421.5
406.66	1418.5
406.883	1418.5
407.107	1485.5
407.331	1500.5
407.555	1511.5
407.778	1514.5
408.002	1493.5
408.226	1478.5
408.449	1485.5
408.673	1439.5
408.896	1445.5
409.12	1415.5
409.344	1418.5
409.567	1382.5
409.791	1408.5
410.014	1406.5
410.238	1430.5
410.461	1364.5
410.685	1369.5
410.908	1350.5
411.132	1373.5
411.355	1361.5
411.578	1365.5
411.802	1332.5
412.025	1310.5
412.249	1324.5
412.472	1338.5
412.695	1339.5
412.919	1308.5
413.142	1345.5
413.365	1355.5
413.589	1341.5
413.812	1313.5
414.035	1308.5
414.258	1303.5
414.482	1324.5
414.705	1314.5
414.928	1346.5
415.151	1288.5
415.374	1330.5
415.597	1319.5
415.821	1274.5
416.044	1257.5
416.267	1260.5
416.49	1262.5
416.713	1309.5
416.936	1279.5
417.159	1231.5
417.382	1221.5
417.605	1278.5
417.828	1269.5
418.051	1228.5
418.274	1289.5
418.497	1281.5
418.72	1296.5
418.943	1295.5
419.166	1344.5
419.389	1397.5
419.611	1381.5
419.834	1312.5
420.057	1305.5
420.28	1308.5
420.503	1292.5
420.726	1249.5
420.948	1265.5
421.171	1259.5
421.394	1286.5
421.617	1304.5
421.839	1262.5
422.062	1279.5
422.285	1242.5
422.507	1258.5
422.73	1297.5
422.953	1322.5
423.175	1304.5
423.398	1292.5
423.621	1287.5
423.843	1272.5
424.066	1290.5
424.288	1272.5
424.511	1267.5
424.733	1250.5
424.956	1260.5
425.178	1274.5
425.401	1276.5
425.623	1263.5
425.846	1231.5
426.068	1244.5
426.291	1222.5
426.513	1246.5
426.735	1223.5
426.958	1247.5
427.18	1177.5
427.402	1196.5
427.625	1194.5
427.847	1188.5
428.069	1165.5
428.292	1184.5
428.514	1178.5
428.736	1166.5
428.958	1212.5
429.181	1189.5
429.403	1164.5
429.625	1162.5
429.847	1164.5
430.069	1226.5
430.292	1229.5
430.514	1262.5
430.736	1262.5
430.958	1215.5
431.18	1168.5
431.402	1169.5
431.624	1166.5
431.846	1182.5
432.068	1170.5
432.29	1156.5
432.512	1148.5
432.734	1171.5
432.956	1178.5
433.178	1144.5
433.4	1189.5
433.622	1218.5
433.844	1202.5
434.066	1195.5
434.287	1134.5
434.509	1189.5
434.731	1190.5
434.953	1225.5
435.175	1202.5
435.397	1219.5
435.618	1203.5
435.84	1168.5
436.062	1141.5
436.284	1159.5
436.505	1163.5
436.727	1177.5
436.949	1165.5
437.17	1182.5
437.392	1119.5
437.614	1129.5
437.835	1139.5
438.057	1103.5
438.278	1096.5
438.5	1138.5
438.721	1170.5
438.943	1212.5
439.165	1184.5
439.386	1226.5
439.608	1241.5
439.829	1213.5
440.05	1215.5
440.272	1293.5
440.493	1232.5
440.715	1183.5
440.936	1235.5
441.158	1249.5
441.379	1264.5
441.6	1306.5
441.822	1308.5
442.043	1364.5
442.264	1412.5
442.486	1328.5
442.707	1236.5
442.928	1238.5
443.149	1265.5
443.371	1209.5
443.592	1264.5
443.813	1233.5
444.034	1308.5
444.255	1295.5
444.476	1332.5
444.698	1341.5
444.919	1352.5
445.14	1419.5
445.361	1344.5
445.582	1307.5
445.803	1286.5
446.024	1251.5
446.245	1249.5
446.466	1242.5
446.687	1260.5
446.908	1262.5
447.129	1191.5
447.35	1208.5
447.571	1189.5
447.792	1152.5
448.013	1167.5
448.234	1178.5
448.455	1198.5
448.675	1168.5
448.896	1204.5
449.117	1218.5
449.338	1324.5
449.559	1397.5
449.779	1280.5
450	1183.5
450.221	1140.5
450.442	1123.5
450.662	1127.5
450.883	1104.5
451.104	1136.5
451.324	1142.5
451.545	1118.5
451.766	1106.5
451.986	1142.5
452.207	1226.5
452.428	1500.5
452.648	2146.5
452.869	1773.5
453.089	1300.5
453.31	1252.5
453.53	1248.5
453.751	1297.5
453.971	1351.5
454.192	1376.5
454.412	1178.5
454.633	1145.5
454.853	1107.5
455.073	1084.5
455.294	1112.5
455.514	1061.5
455.734	1072.5
455.955	1084.5
456.175	1070.5
456.395	1065.5
456.616	1072.5
456.836	1087.5
457.056	1083.5
457.276	1072.5
457.497	1140.5
457.717	1150.5
457.937	1132.5
458.157	1134.5
458.377	1087.5
458.598	1130.5
458.818	1096.5
459.038	1127.5
459.258	1124.5
459.478	1174.5
459.698	1160.5
459.918	1181.5
460.138	1217.5
460.358	1245.5
460.578	1275.5
460.798	1289.5
461.018	1282.5
461.238	1278.5
461.458	1278.5
461.678	1266.5
461.898	1321.5
462.118	1316.5
462.338	1353.5
462.558	1319.5
462.777	1340.5
462.997	1393.5
463.217	1492.5
463.437	1524.5
463.657	1573.5
463.876	1504.5
464.096	1430.5
464.316	1401.5
464.536	1385.5
464.755	1362.5
464.975	1305.5
465.195	1290.5
465.414	1286.5
465.634	1201.5
465.854	1166.5
466.073	1182.5
466.293	1190.5
466.512	1168.5
466.732	1173.5
466.951	1242.5
467.171	1331.5
467.391	1289.5
467.61	1214.5
467.829	1151.5
468.049	1166.5
468.268	1128.5
468.488	1139.5
468.707	1132.5
468.927	1190.5
469.146	1153.5
469.365	1178.5
469.585	1151.5
469.804	1206.5
470.023	1214.5
470.243	1248.5
470.462	1258.5
470.681	1310.5
470.901	1439.5
471.12	1662.5
471.339	1678.5
471.558	1397.5
471.777	1250.5
471.997	1241.5
472.216	1164.5
472.435	1194.5
472.654	1158.5
472.873	1152.5
473.092	1155.5
473.311	1176.5
473.53	1166.5
473.749	1201.5
473.968	1210.5
474.187	1181.5
474.406	1143.5
474.625	1153.5
474.844	1166.5
475.063	1167.5
475.282	1170.5
475.501	1172.5
475.72	1171.5
475.939	1208.5
476.158	1203.5
476.377	1245.5
476.596	1226.5
476.814	1200.5
477.033	1236.5
477.252	1236.5
477.471	1234.5
477.69	1314.5
477.908	1317.5
478.127	1333.5
478.346	1287.5
478.564	1326.5
478.783	1342.5
479.002	1364.5
479.22	1367.5
479.439	1382.5
479.658	1327.5
479.876	1319.5
480.095	1388.5
480.313	1414.5
480.532	1442.5
480.751	1402.5
480.969	1345.5
481.188	1371.5
481.406	1357.5
481.624	1365.5
481.843	1382.5
482.061	1394.5
482.28	1370.5
482.498	1348.5
482.717	1375.5
482.935	1384.5
483.153	1429.5
483.372	1432.5
483.59	1474.5
483.808	1468.5
484.027	1468.5
484.245	1566.5
484.463	1760.5
484.681	1940.5
484.9	1733.5
485.118	1615.5
485.336	1596.5
485.554	1622.5
485.772	1710.5
485.99	1930.5
486.209	2143.5
486.427	1746.5
486.645	1583.5
486.863	1539.5
487.081	1494.5
487.299	1474.5
487.517	1471.5
487.735	1479.5
487.953	1496.5
488.171	1477.5
488.389	1474.5
488.607	1461.5
488.825	1445.5
489.043	1412.5
489.261	1437.5
489.479	1424.5
489.696	1433.5
489.914	1460.5
490.132	1443.5
490.35	1444.5
490.568	1480.5
490.786	1514.5
491.003	1510.5
491.221	1501.5
491.439	1498.5
491.657	1502.5
491.874	1529.5
492.092	1556.5
492.31	1576.5
492.527	1596.5
492.745	1556.5
492.963	1541.5
493.18	1510.5
493.398	1549.5
493.615	1528.5
493.833	1550.5
494.05	1539.5
494.268	1555.5
494.485	1490.5
494.703	1535.5
494.92	1517.5
495.138	1538.5
495.355	1541.5
495.573	1570.5
495.79	1523.5
496.008	1584.5
496.225	1557.5
496.442	1574.5
496.66	1602.5
496.877	1664.5
497.094	1666.5
497.312	1632.5
497.529	1610.5
497.746	1640.5
497.963	1649.5
498.181	1704.5
498.398	1725.5
498.615	1780.5
498.832	1875.5
499.049	1945.5
499.267	2092.5
499.484	2219.5
499.701	2224.5
499.918	2278.5
500.135	2386.5
500.352	2549.5
500.569	2592.5
500.786	2530.5
501.003	2463.5
501.22	2366.5
501.437	2222.5
501.654	2117.5
501.871	2002.5
502.088	1921.5
502.305	1863.5
502.522	1833.5
502.739	1781.5
502.956	1705.5
503.172	1614.5
503.389	1647.5
503.606	1603.5
503.823	1613.5
504.04	1562.5
504.256	1540.5
504.473	1559.5
504.69	1558.5
504.907	1526.5
505.123	1510.5
505.34	1496.5
505.557	1445.5
505.773	1468.5
505.99	1417.5
506.207	1398.5
506.423	1380.5
506.64	1353.5
506.856	1349.5
507.073	1317.5
507.289	1351.5
507.506	1336.5
507.722	1352.5
507.939	1311.5
508.155	1330.5
508.372	1316.5
508.588	1265.5
508.805	1296.5
509.021	1308.5
509.238	1281.5
509.454	1377.5
509.67	1461.5
509.887	1354.5
510.103	1317.5
510.319	1311.5
510.536	1281.5
510.752	1278.5
510.968	1238.5
511.184	1241.5
511.401	1258.5
511.617	1242.5
511.833	1230.5
512.049	1220.5
512.265	1223.5
512.481	1229.5
512.698	1252.5
512.914	1241.5
513.13	1206.5
513.346	1251.5
513.562	1245.5
513.778	1257.5
513.994	1251.5
514.21	1292.5
514.426	1326.5
514.642	1363.5
514.858	1305.5
515.074	1252.5
515.29	1245.5
515.506	1268.5
515.721	1281.5
515.937	1285.5
516.153	1313.5
516.369	1284.5
516.585	1301.5
516.801	1307.5
517.016	1369.5
517.232	1361.5
517.448	1412.5
517.664	1398.5
517.879	1411.5
518.095	1428.5
518.311	1379.5
518.527	1389.5
518.742	1347.5
518.958	1369.5
519.173	1392.5
519.389	1359.5
519.605	1321.5
519.82	1289.5
520.036	1283.5
520.251	1256.5
520.467	1233.5
520.682	1261.5
520.898	1241.5
521.113	1216.5
521.329	1225.5
521.544	1192.5
521.76	1246.5
521.975	1223.5
522.19	1208.5
522.406	1193.5
522.621	1250.5
522.836	1218.5
523.052	1184.5
523.267	1192.5
523.482	1193.5
523.698	1217.5
523.913	1189.5
524.128	1188.5
524.343	1197.5
524.559	1186.5
524.774	1186.5
524.989	1210.5
525.204	1220.5
525.419	1188.5
525.634	1204.5
525.849	1206.5
526.064	1194.5
526.28	1221.5
526.495	1208.5
526.71	1218.5
526.925	1177.5
527.14	1176.5
527.355	1182.5
527.57	1174.5
527.785	1183.5
527.999	1212.5
528.214	1222.5
528.429	1232.5
528.644	1220.5
528.859	1260.5
529.074	1301.5
529.289	1296.5
529.503	1310.5
529.718	1337.5
529.933	1266.5
530.148	1225.5
530.363	1240.5
530.577	1238.5
530.792	1267.5
531.007	1254.5
531.221	1270.5
531.436	1274.5
531.651	1269.5
531.865	1283.5
532.08	1316.5
532.295	1320.5
532.509	1450.5
532.724	1422.5
532.938	1413.5
533.153	1475.5
533.367	1510.5
533.582	1611.5
533.796	1583.5
534.011	1519.5
534.225	1495.5
534.44	1444.5
534.654	1408.5
534.868	1414.5
535.083	1404.5
535.297	1380.5
535.511	1369.5
535.726	1356.5
535.94	1351.5
536.154	1320.5
536.369	1246.5
536.583	1232.5
536.797	1255.5
537.011	1218.5
537.225	1221.5
537.44	1207.5
537.654	1219.5
537.868	1202.5
538.082	1183.5
538.296	1174.5
538.51	1210.5
538.724	1186.5
538.938	1178.5
539.153	1207.5
539.367	1201.5
539.581	1183.5
539.795	1160.5
540.009	1139.5
540.222	1110.5
540.436	1148.5
540.65	1127.5
540.864	1150.5
541.078	1204.5
541.292	1266.5
541.506	1489.5
541.72	1600.5
541.934	1383.5
542.147	1310.5
542.361	1248.5
542.575	1216.5
542.789	1175.5
543.002	1186.5
543.216	1123.5
543.43	1104.5
543.644	1118.5
543.857	1124.5
544.071	1170.5
544.285	1182.5
544.498	1157.5
544.712	1169.5
544.925	1145.5
545.139	1160.5
545.352	1186.5
545.566	1158.5
545.779	1151.5
545.993	1176.5
546.206	1174.5
546.42	1171.5
546.633	1200.5
546.847	1170.5
547.06	1158.5
547.274	1154.5
547.487	1153.5
547.7	1154.5
547.914	1173.5
548.127	1175.5
548.34	1177.5
548.554	1160.5
548.767	1152.5
548.98	1181.5
549.193	1161.5
549.407	1173.5
549.62	1170.5
549.833	1177.5
550.046	1178.5
550.259	1178.5
550.473	1137.5
550.686	1163.5
550.899	1161.5
551.112	1162.5
551.325	1134.5
551.538	1167.5
551.751	1127.5
551.964	1117.5
552.177	1166.5
552.39	1210.5
552.603	1226.5
552.816	1225.5
553.029	1243.5
553.242	1244.5
553.455	1257.5
553.667	1242.5
553.88	1294.5
554.093	1281.5
554.306	1266.5
554.519	1287.5
554.732	1300.5
554.944	1302.5
555.157	1306.5
555.37	1359.5
555.583	1392.5
555.795	1438.5
556.008	1534.5
556.221	1652.5
556.433	1712.5
556.646	1781.5
556.859	1673.5
557.071	1645.5
557.284	1635.5
557.496	1565.5
557.709	1593.5
557.921	1523.5
558.134	1585.5
558.346	1576.5
558.559	1583.5
558.771	1678.5
558.984	1776.5
559.196	1856.5
559.409	1802.5
559.621	1698.5
559.833	1637.5
560.046	1540.5
560.258	1479.5
560.47	1432.5
560.683	1398.5
560.895	1345.5
561.107	1335.5
561.32	1304.5
561.532	1252.5
561.744	1200.5
561.956	1200.5
562.168	1212.5
562.381	1184.5
562.593	1118.5
562.805	1158.5
563.017	1170.5
563.229	1219.5
563.441	1326.5
563.653	1192.5
563.865	1097.5
564.077	1095.5
564.289	1083.5
564.501	1078.5
564.713	1055.5
564.925	1058.5
565.137	1044.5
565.349	1096.5
565.561	1068.5
565.773	1098.5
565.985	1068.5
566.197	1109.5
566.408	1116.5
566.62	1167.5
566.832	1152.5
567.044	1192.5
567.255	1178.5
567.467	1184.5
567.679	1220.5
567.891	1280.5
568.102	1427.5
568.314	1667.5
568.526	1412.5
568.737	1215.5
568.949	1088.5
569.161	1020.5
569.372	998.5
569.584	964.5
569.795	960.5
570.007	935.5
570.218	959.5
570.43	1012.5
570.641	936.5
570.853	873.5
571.064	899.5
571.276	886.5
571.487	872.5
571.698	822.5
571.91	841.5
572.121	854.5
572.333	842.5
572.544	820.5
572.755	920.5
572.966	1059.5
573.178	945.5
573.389	868.5
573.6	823.5
573.811	820.5
574.023	791.5
574.234	772.5
574.445	777.5
574.656	777.5
574.867	744.5
575.078	786.5
575.289	807.5
575.501	762.5
575.712	760.5
575.923	778.5
576.134	743.5
576.345	765.5
576.556	778.5
576.767	785.5
576.978	769.5
577.188	766.5
577.399	802.5
577.61	749.5
577.821	793.5
578.032	790.5
578.243	825.5
578.454	846.5
578.665	819.5
578.875	833.5
579.086	862.5
579.297	886.5
579.508	921.5
579.718	1005.5
579.929	1093.5
580.14	1268.5
580.35	1282.5
580.561	1211.5
580.772	1145.5
580.982	1066.5
581.193	1026.5
581.403	960.5
581.614	914.5
581.825	897.5
582.035	860.5
582.246	832.5
582.456	813.5
582.667	809.5
582.877	774.5
583.087	777.5
583.298	732.5
583.508	727.5
583.719	710.5
583.929	684.5
584.139	698.5
584.35	677.5
584.56	655.5
584.77	664.5
584.981	676.5
585.191	646.5
585.401	665.5
585.611	644.5
585.821	638.5
586.032	621.5
586.242	621.5
586.452	661.5
586.662	628.5
586.872	615.5
587.082	601.5
587.292	593.5
587.502	589.5
587.713	590.5
587.923	586.5
588.133	580.5
588.343	582.5
588.553	574.5
588.762	579.5
588.972	552.5
589.182	589.5
589.392	562.5
589.602	546.5
589.812	565.5
590.022	564.5
590.232	550.5
590.441	549.5
590.651	553.5
590.861	547.5
591.071	529.5
591.281	541.5
591.49	556.5
591.7	560.5
591.91	583.5
592.119	538.5
592.329	558.5
592.539	552.5
592.748	566.5
592.958	577.5
593.167	601.5
593.377	591.5
593.587	560.5
593.796	578.5
594.006	577.5
594.215	602.5
594.424	604.5
594.634	572.5
594.843	540.5
595.053	558.5
595.262	536.5
595.472	536.5
595.681	518.5
595.89	531.5
596.1	508.5
596.309	513.5
596.518	498.5
596.727	515.5
596.937	498.5
597.146	485.5
597.355	499.5
597.564	506.5
597.774	488.5
597.983	469.5
598.192	465.5
598.401	481.5
598.61	457.5
598.819	470.5
599.028	437.5
599.237	455.5
599.446	477.5
599.655	467.5
599.864	454.5
600.073	464.5
600.282	449.5
600.491	447.5
600.7	456.5
600.909	444.5
601.118	453.5
601.327	466.5
601.536	457.5
601.745	483.5
601.953	513.5
602.162	579.5
602.371	521.5
602.58	482.5
602.789	459.5
602.997	457.5
603.206	466.5
603.415	457.5
603.623	426.5
603.832	443.5
604.041	446.5
604.249	440.5
604.458	436.5
604.666	440.5
604.875	430.5
605.084	419.5
605.292	419.5
605.501	450.5
605.709	434.5
605.918	454.5
606.126	451.5
606.334	448.5
606.543	464.5
606.751	488.5
606.96	546.5
607.168	603.5
607.376	526.5
607.585	465.5
607.793	475.5
608.001	466.5
608.21	453.5
608.418	428.5
608.626	444.5
608.834	428.5
609.043	413.5
609.251	412.5
609.459	416.5
609.667	451.5
609.875	409.5
610.083	424.5
610.291	434.5
610.499	414.5
610.707	422.5
610.916	404.5
611.124	417.5
611.332	406.5
611.54	405.5
611.748	417.5
611.955	404.5
612.163	401.5
612.371	392.5
612.579	430.5
612.787	413.5
612.995	391.5
613.203	410.5
613.411	388.5
613.618	405.5
613.826	373.5
614.034	417.5
614.242	422.5
614.449	388.5
614.657	385.5
614.865	377.5
615.072	397.5
615.28	381.5
615.488	387.5
615.695	411.5
615.903	399.5
616.111	406.5
616.318	417.5
616.526	389.5
616.733	396.5
616.941	390.5
617.148	415.5
617.356	401.5
617.563	392.5
617.771	392.5
617.978	393.5
618.185	386.5
618.393	387.5
618.6	380.5
618.807	377.5
619.015	380.5
619.222	370.5
619.429	376.5
619.637	368.5
619.844	368.5
620.051	350.5
620.258	376.5
620.466	353.5
620.673	365.5
620.88	351.5
621.087	357.5
621.294	369.5
621.501	364.5
621.708	360.5
621.915	371.5
622.122	357.5
622.329	363.5
622.536	359.5
622.743	366.5
622.95	369.5
623.157	360.5
623.364	372.5
623.571	349.5
623.778	372.5
623.985	351.5
624.192	352.5
624.399	356.5
624.606	360.5
624.812	337.5
625.019	340.5
625.226	340.5
625.433	330.5
625.639	322.5
625.846	327.5
626.053	335.5
626.259	337.5
626.466	323.5
626.673	326.5
626.879	322.5
627.086	323.5
627.293	336.5
627.499	345.5
627.706	329.5
627.912	345.5
628.119	347.5
628.325	310.5
628.532	318.5
628.738	328.5
628.945	329.5
629.151	329.5
629.357	320.5
629.564	321.5
629.77	319.5
629.976	326.5
630.183	319.5
630.389	304.5
630.595	327.5
630.802	311.5
631.008	327.5
631.214	310.5
631.42	315.5
631.627	325.5
631.833	293.5
632.039	320.5
632.245	296.5
632.451	313.5
632.657	309.5
632.863	303.5
633.069	298.5
633.275	325.5
633.481	319.5
633.688	300.5
633.893	305.5
634.099	309.5
634.305	313.5
634.511	293.5
634.717	309.5
634.923	294.5
635.129	340.5
635.335	377.5
635.541	344.5
635.747	329.5
635.952	317.5
636.158	315.5
636.364	308.5
636.57	306.5
636.775	306.5
636.981	309.5
637.187	282.5
637.392	304.5
637.598	321.5
637.804	305.5
638.009	296.5
638.215	285.5
638.421	304.5
638.626	301.5
638.832	314.5
639.037	306.5
639.243	282.5
639.448	312.5
639.654	306.5
639.859	316.5
640.065	297.5
640.27	304.5
640.475	333.5
640.681	318.5
640.886	336.5
641.091	339.5
641.297	316.5
641.502	325.5
641.707	326.5
641.913	331.5
642.118	348.5
642.323	319.5
642.528	335.5
642.733	352.5
642.939	350.5
643.144	366.5
643.349	370.5
643.554	382.5
643.759	409.5
643.964	404.5
644.169	437.5
644.374	449.5
644.579	489.5
644.784	518.5
644.989	562.5
645.194	642.5
645.399	741.5
645.604	778.5
645.809	625.5
646.014	507.5
646.219	443.5
646.423	401.5
646.628	339.5
646.833	342.5
647.038	341.5
647.243	322.5
647.447	304.5
647.652	329.5
647.857	322.5
648.062	300.5
648.266	275.5
648.471	280.5
648.676	283.5
648.88	277.5
649.085	304.5
649.289	282.5
649.494	267.5
649.698	278.5
649.903	269.5
650.107	264.5
650.312	255.5
650.516	260.5
650.721	257.5
650.925	264.5
651.13	263.5
651.334	243.5
651.539	235.5
651.743	231.5
651.947	229.5
652.152	238.5
652.356	237.5
652.56	256.5
652.764	272.5
652.969	259.5
653.173	224.5
653.377	231.5
653.581	202.5
653.785	224.5
653.99	220.5
654.194	200.5
654.398	216.5
654.602	197.5
654.806	217.5
655.01	192.5
655.214	202.5
655.418	206.5
655.622	205.5
655.826	212.5
656.03	213.5
656.234	219.5
656.438	231.5
656.642	234.5
656.846	229.5
657.049	204.5
657.253	198.5
657.457	180.5
657.661	190.5
657.865	177.5
658.068	147.5
658.272	166.5
658.476	153.5
658.68	146.5
658.883	127.5
659.087	122.5
659.291	126.5
659.494	148.5
659.698	132.5
659.901	123.5
660.105	124.5
660.309	120.5
660.512	130.5
660.716	111.5
660.919	121.5
661.123	109.5
661.326	91.5
661.53	112.5
661.733	109.5
661.936	97.5
662.14	79.5
662.343	89.5
662.546	83.5
662.75	84.5
662.953	88.5
663.156	83.5
663.36	83.5
663.563	79.5
663.766	90.5
663.969	76.5
664.173	71.5
664.376	80.5
664.579	74.5
664.782	84.5
664.985	82.5
665.188	80.5
665.391	87.5
665.594	87.5
665.797	79.5
666	74.5
666.203	74.5
666.406	78.5
666.609	76.5
666.812	78.5
667.015	84.5
667.218	89.5
667.421	72.5
667.624	74.5
667.827	92.5
668.03	89.5
668.232	84.5
668.435	89.5
668.638	77.5
668.841	88.5
669.043	77.5
669.246	82.5
669.449	85.5
669.651	86.5
669.854	82.5
670.057	87.5
670.259	73.5
670.462	82.5
670.665	78.5
670.867	85.5
671.07	74.5
671.272	72.5
671.475	70.5
671.677	78.5
671.88	70.5
672.082	79.5
672.284	80.5
672.487	80.5
672.689	74.5
672.892	72.5
