Data from SnStandardFlinnAPT0064_LampEnergy5.5_LIBS07252019.E.O._I.C._HRD10591_15-15-19-491.txt Node
Date: Thu Jul 25 15:15:19 EDT 2019
User: cochatt
Spectrometer: HR+D1059
Trigger mode: 1
Integration Time (sec): 1.000000E-1
Scans to average: 1
Electric dark correction enabled: true
Nonlinearity correction enabled: false
Boxcar width: 0
XAxis mode: Wavelengths
Number of Pixels in Spectrum: 2048
>>>>>Begin Spectral Data<<<<<
223.165	-5.56
223.4	-5.56
223.635	-5.56
223.869	-9.56
224.104	-23.56
224.338	-12.56
224.573	-22.56
224.808	-18.56
225.042	-14.56
225.277	-12.56
225.511	-11.56
225.746	15.44
225.98	0.44
226.215	3.44
226.449	9.44
226.683	15.44
226.918	34.44
227.152	52.44
227.387	33.44
227.621	23.44
227.856	38.44
228.09	53.44
228.324	48.44
228.559	62.44
228.793	91.44
229.027	139.44
229.262	164.44
229.496	139.44
229.73	149.44
229.964	144.44
230.199	154.44
230.433	154.44
230.667	156.44
230.901	164.44
231.136	177.44
231.37	181.44
231.604	185.44
231.838	191.44
232.072	211.44
232.306	208.44
232.541	204.44
232.775	188.44
233.009	195.44
233.243	209.44
233.477	204.44
233.711	223.44
233.945	246.44
234.179	240.44
234.413	204.44
234.647	224.44
234.881	209.44
235.115	237.44
235.349	272.44
235.583	329.44
235.817	397.44
236.051	392.44
236.285	287.44
236.519	241.44
236.753	235.44
236.987	226.44
237.221	247.44
237.455	234.44
237.689	222.44
237.922	223.44
238.156	216.44
238.39	216.44
238.624	222.44
238.858	219.44
239.091	243.44
239.325	237.44
239.559	227.44
239.793	253.44
240.027	229.44
240.26	236.44
240.494	225.44
240.728	251.44
240.961	263.44
241.195	266.44
241.429	316.44
241.662	296.44
241.896	302.44
242.13	382.44
242.363	468.44
242.597	560.44
242.83	559.44
243.064	576.44
243.298	653.44
243.531	548.44
243.765	374.44
243.998	339.44
244.232	305.44
244.465	278.44
244.699	296.44
244.932	280.44
245.166	284.44
245.399	318.44
245.633	289.44
245.866	309.44
246.099	299.44
246.333	299.44
246.566	299.44
246.8	293.44
247.033	285.44
247.266	274.44
247.5	283.44
247.733	291.44
247.966	319.44
248.2	331.44
248.433	356.44
248.666	385.44
248.899	383.44
249.133	340.44
249.366	347.44
249.599	373.44
249.832	404.44
250.066	423.44
250.299	351.44
250.532	307.44
250.765	326.44
250.998	343.44
251.231	331.44
251.465	347.44
251.698	332.44
251.931	339.44
252.164	333.44
252.397	339.44
252.63	337.44
252.863	338.44
253.096	332.44
253.329	349.44
253.562	342.44
253.795	333.44
254.028	346.44
254.261	352.44
254.494	367.44
254.727	389.44
254.96	478.44
255.193	488.44
255.426	394.44
255.659	369.44
255.892	364.44
256.124	357.44
256.357	395.44
256.59	389.44
256.823	411.44
257.056	446.44
257.289	529.44
257.521	536.44
257.754	461.44
257.987	398.44
258.22	391.44
258.452	392.44
258.685	384.44
258.918	395.44
259.151	419.44
259.383	436.44
259.616	477.44
259.849	493.44
260.081	456.44
260.314	443.44
260.547	407.44
260.779	420.44
261.012	405.44
261.244	410.44
261.477	431.44
261.71	435.44
261.942	439.44
262.175	440.44
262.407	482.44
262.64	447.44
262.872	470.44
263.105	501.44
263.337	518.44
263.57	545.44
263.802	569.44
264.035	562.44
264.267	586.44
264.499	598.44
264.732	633.44
264.964	626.44
265.197	608.44
265.429	620.44
265.661	619.44
265.894	679.44
266.126	719.44
266.358	767.44
266.591	755.44
266.823	648.44
267.055	583.44
267.287	625.44
267.52	569.44
267.752	551.44
267.984	561.44
268.216	541.44
268.448	522.44
268.681	546.44
268.913	531.44
269.145	538.44
269.377	551.44
269.609	529.44
269.841	537.44
270.073	557.44
270.306	640.44
270.538	836.44
270.77	1145.44
271.002	1333.44
271.234	1017.44
271.466	736.44
271.698	615.44
271.93	576.44
272.162	566.44
272.394	515.44
272.626	524.44
272.858	504.44
273.09	536.44
273.322	526.44
273.553	516.44
273.785	496.44
274.017	514.44
274.249	530.44
274.481	503.44
274.713	521.44
274.945	516.44
275.176	518.44
275.408	511.44
275.64	544.44
275.872	536.44
276.104	529.44
276.335	548.44
276.567	552.44
276.799	521.44
277.031	531.44
277.262	539.44
277.494	561.44
277.726	598.44
277.957	670.44
278.189	756.44
278.421	715.44
278.652	644.44
278.884	657.44
279.115	598.44
279.347	584.44
279.579	568.44
279.81	570.44
280.042	598.44
280.273	565.44
280.505	595.44
280.736	597.44
280.968	613.44
281.199	659.44
281.431	738.44
281.662	764.44
281.894	715.44
282.125	657.44
282.356	651.44
282.588	664.44
282.819	686.44
283.051	694.44
283.282	778.44
283.513	921.44
283.745	1277.44
283.976	1955.44
284.207	2776.44
284.439	2487.44
284.67	1583.44
284.901	1282.44
285.132	1263.44
285.364	1196.44
285.595	953.44
285.826	907.44
286.057	1046.44
286.288	1341.44
286.52	1770.44
286.751	1676.44
286.982	1105.44
287.213	876.44
287.444	782.44
287.675	744.44
287.906	720.44
288.138	735.44
288.369	681.44
288.6	720.44
288.831	702.44
289.062	691.44
289.293	725.44
289.524	681.44
289.755	707.44
289.986	700.44
290.217	710.44
290.448	700.44
290.679	705.44
290.91	714.44
291.141	735.44
291.371	759.44
291.602	769.44
291.833	742.44
292.064	703.44
292.295	697.44
292.526	696.44
292.757	660.44
292.987	684.44
293.218	660.44
293.449	648.44
293.68	671.44
293.91	666.44
294.141	648.44
294.372	657.44
294.603	660.44
294.833	660.44
295.064	672.44
295.295	668.44
295.525	653.44
295.756	657.44
295.987	655.44
296.217	681.44
296.448	647.44
296.679	634.44
296.909	658.44
297.14	660.44
297.37	658.44
297.601	680.44
297.831	678.44
298.062	676.44
298.292	665.44
298.523	681.44
298.753	703.44
298.984	700.44
299.214	708.44
299.445	713.44
299.675	741.44
299.905	718.44
300.136	763.44
300.366	842.44
300.597	1001.44
300.827	1315.44
301.057	1753.44
301.288	1723.44
301.518	1208.44
301.748	933.44
301.979	886.44
302.209	895.44
302.439	902.44
302.669	925.44
302.9	1090.44
303.13	1399.44
303.36	2022.44
303.59	2655.44
303.82	2335.44
304.051	1488.44
304.281	1099.44
304.511	930.44
304.741	883.44
304.971	841.44
305.201	831.44
305.431	787.44
305.661	787.44
305.891	770.44
306.121	730.44
306.352	767.44
306.582	742.44
306.812	754.44
307.042	751.44
307.272	755.44
307.502	748.44
307.731	771.44
307.961	751.44
308.191	723.44
308.421	747.44
308.651	736.44
308.881	740.44
309.111	739.44
309.341	758.44
309.571	752.44
309.8	738.44
310.03	787.44
310.26	760.44
310.49	772.44
310.72	792.44
310.949	762.44
311.179	775.44
311.409	790.44
311.639	787.44
311.868	795.44
312.098	798.44
312.328	815.44
312.557	827.44
312.787	823.44
313.017	812.44
313.246	810.44
313.476	840.44
313.706	861.44
313.935	903.44
314.165	917.44
314.394	945.44
314.624	917.44
314.853	870.44
315.083	836.44
315.312	871.44
315.542	865.44
315.771	880.44
316.001	915.44
316.23	923.44
316.46	953.44
316.689	1010.44
316.919	1219.44
317.148	1638.44
317.377	2425.44
317.607	3503.44
317.836	3650.44
318.065	2224.44
318.295	1509.44
318.524	1232.44
318.753	1122.44
318.983	1029.44
319.212	986.44
319.441	976.44
319.67	959.44
319.9	939.44
320.129	937.44
320.358	965.44
320.587	954.44
320.816	940.44
321.046	941.44
321.275	925.44
321.504	925.44
321.733	943.44
321.962	1012.44
322.191	1016.44
322.42	989.44
322.649	987.44
322.878	984.44
323.108	988.44
323.337	1023.44
323.566	996.44
323.795	1018.44
324.024	1045.44
324.253	1064.44
324.482	1094.44
324.71	1151.44
324.939	1205.44
325.168	1228.44
325.397	1260.44
325.626	1473.44
325.855	1961.44
326.084	3025.44
326.313	4349.44
326.542	4572.44
326.77	3062.44
326.999	2087.44
327.228	1787.44
327.457	1692.44
327.686	1718.44
327.914	1832.44
328.143	2097.44
328.372	2371.44
328.6	2560.44
328.829	2385.44
329.058	2144.44
329.287	1944.44
329.515	1764.44
329.744	1622.44
329.972	1567.44
330.201	1516.44
330.43	1465.44
330.658	1443.44
330.887	1411.44
331.115	1374.44
331.344	1378.44
331.572	1362.44
331.801	1378.44
332.03	1388.44
332.258	1388.44
332.486	1445.44
332.715	1591.44
332.943	1900.44
333.172	2223.44
333.4	2223.44
333.629	1827.44
333.857	1722.44
334.085	1701.44
334.314	1803.44
334.542	1943.44
334.771	2203.44
334.999	2584.44
335.227	3080.44
335.455	3404.44
335.684	3210.44
335.912	2811.44
336.14	2489.44
336.369	2205.44
336.597	2047.44
336.825	1885.44
337.053	1783.44
337.281	1658.44
337.51	1586.44
337.738	1498.44
337.966	1486.44
338.194	1417.44
338.422	1402.44
338.65	1367.44
338.878	1315.44
339.106	1308.44
339.334	1305.44
339.562	1335.44
339.79	1241.44
340.018	1237.44
340.246	1234.44
340.474	1196.44
340.702	1219.44
340.93	1230.44
341.158	1218.44
341.386	1201.44
341.614	1219.44
341.842	1181.44
342.07	1151.44
342.298	1156.44
342.526	1140.44
342.754	1113.44
342.981	1093.44
343.209	1139.44
343.437	1128.44
343.665	1123.44
343.893	1159.44
344.12	1126.44
344.348	1125.44
344.576	1103.44
344.804	1084.44
345.031	1058.44
345.259	1073.44
345.487	1060.44
345.714	1051.44
345.942	1056.44
346.17	1073.44
346.397	1051.44
346.625	1033.44
346.853	1033.44
347.08	1046.44
347.308	1082.44
347.535	1017.44
347.763	1013.44
347.99	1051.44
348.218	1051.44
348.445	1009.44
348.673	1001.44
348.9	1009.44
349.128	1010.44
349.355	1010.44
349.583	993.44
349.81	987.44
350.037	991.44
350.265	961.44
350.492	998.44
350.72	1010.44
350.947	1010.44
351.174	1002.44
351.402	1003.44
351.629	987.44
351.856	983.44
352.083	991.44
352.311	1001.44
352.538	972.44
352.765	978.44
352.992	969.44
353.22	972.44
353.447	967.44
353.674	997.44
353.901	972.44
354.128	980.44
354.355	999.44
354.583	986.44
354.81	992.44
355.037	1003.44
355.264	996.44
355.491	975.44
355.718	1004.44
355.945	1007.44
356.172	1023.44
356.399	1043.44
356.626	1034.44
356.853	1027.44
357.08	1047.44
357.307	1014.44
357.534	1048.44
357.761	1078.44
357.988	1045.44
358.215	1036.44
358.441	1037.44
358.668	1053.44
358.895	1036.44
359.122	1049.44
359.349	1025.44
359.576	1059.44
359.802	1040.44
360.029	1029.44
360.256	1028.44
360.483	1046.44
360.709	1069.44
360.936	1072.44
361.163	1047.44
361.39	1051.44
361.616	1059.44
361.843	1056.44
362.07	1074.44
362.296	1080.44
362.523	1052.44
362.749	1076.44
362.976	1037.44
363.203	1046.44
363.429	1061.44
363.656	1050.44
363.882	1066.44
364.109	1053.44
364.335	1054.44
364.562	1072.44
364.788	1063.44
365.015	1062.44
365.241	1077.44
365.468	1113.44
365.694	1126.44
365.92	1109.44
366.147	1072.44
366.373	1113.44
366.599	1090.44
366.826	1039.44
367.052	1064.44
367.278	1068.44
367.505	1082.44
367.731	1085.44
367.957	1106.44
368.184	1097.44
368.41	1102.44
368.636	1105.44
368.862	1068.44
369.089	1082.44
369.315	1097.44
369.541	1108.44
369.767	1109.44
369.993	1117.44
370.219	1091.44
370.445	1106.44
370.672	1099.44
370.898	1091.44
371.124	1108.44
371.35	1143.44
371.576	1159.44
371.802	1136.44
372.028	1100.44
372.254	1120.44
372.48	1165.44
372.706	1163.44
372.932	1176.44
373.158	1186.44
373.384	1133.44
373.61	1124.44
373.835	1156.44
374.061	1151.44
374.287	1145.44
374.513	1181.44
374.739	1194.44
374.965	1227.44
375.191	1198.44
375.416	1224.44
375.642	1151.44
375.868	1190.44
376.094	1179.44
376.319	1161.44
376.545	1171.44
376.771	1166.44
376.997	1126.44
377.222	1151.44
377.448	1140.44
377.674	1141.44
377.899	1181.44
378.125	1111.44
378.35	1155.44
378.576	1129.44
378.802	1149.44
379.027	1130.44
379.253	1141.44
379.478	1222.44
379.704	1390.44
379.929	1795.44
380.155	2562.44
380.38	2766.44
380.606	1849.44
380.831	1364.44
381.057	1266.44
381.282	1229.44
381.507	1189.44
381.733	1178.44
381.958	1131.44
382.184	1141.44
382.409	1126.44
382.634	1133.44
382.86	1095.44
383.085	1106.44
383.31	1112.44
383.535	1123.44
383.761	1155.44
383.986	1154.44
384.211	1160.44
384.436	1148.44
384.662	1169.44
384.887	1172.44
385.112	1127.44
385.337	1155.44
385.562	1155.44
385.787	1173.44
386.013	1191.44
386.238	1174.44
386.463	1217.44
386.688	1186.44
386.913	1194.44
387.138	1161.44
387.363	1183.44
387.588	1157.44
387.813	1149.44
388.038	1172.44
388.263	1165.44
388.488	1153.44
388.713	1207.44
388.938	1173.44
389.163	1132.44
389.387	1155.44
389.612	1161.44
389.837	1166.44
390.062	1147.44
390.287	1199.44
390.512	1171.44
390.736	1207.44
390.961	1237.44
391.186	1191.44
391.411	1224.44
391.636	1227.44
391.86	1248.44
392.085	1227.44
392.31	1228.44
392.534	1193.44
392.759	1226.44
392.984	1203.44
393.208	1181.44
393.433	1163.44
393.658	1176.44
393.882	1165.44
394.107	1162.44
394.331	1228.44
394.556	1184.44
394.78	1147.44
395.005	1236.44
395.229	1197.44
395.454	1204.44
395.678	1219.44
395.903	1195.44
396.127	1188.44
396.352	1204.44
396.576	1164.44
396.801	1194.44
397.025	1185.44
397.249	1244.44
397.474	1219.44
397.698	1217.44
397.922	1286.44
398.147	1191.44
398.371	1263.44
398.595	1259.44
398.82	1284.44
399.044	1355.44
399.268	1388.44
399.492	1494.44
399.717	1580.44
399.941	1557.44
400.165	1513.44
400.389	1445.44
400.613	1402.44
400.837	1353.44
401.062	1320.44
401.286	1311.44
401.51	1311.44
401.734	1282.44
401.958	1307.44
402.182	1320.44
402.406	1276.44
402.63	1327.44
402.854	1317.44
403.078	1317.44
403.302	1345.44
403.526	1335.44
403.75	1324.44
403.974	1345.44
404.198	1361.44
404.422	1384.44
404.645	1363.44
404.869	1338.44
405.093	1317.44
405.317	1335.44
405.541	1363.44
405.765	1334.44
405.988	1399.44
406.212	1375.44
406.436	1400.44
406.66	1376.44
406.883	1378.44
407.107	1416.44
407.331	1433.44
407.555	1436.44
407.778	1451.44
408.002	1417.44
408.226	1431.44
408.449	1423.44
408.673	1391.44
408.896	1366.44
409.12	1351.44
409.344	1359.44
409.567	1363.44
409.791	1345.44
410.014	1333.44
410.238	1332.44
410.461	1344.44
410.685	1307.44
410.908	1331.44
411.132	1332.44
411.355	1267.44
411.578	1303.44
411.802	1291.44
412.025	1273.44
412.249	1289.44
412.472	1320.44
412.695	1274.44
412.919	1289.44
413.142	1265.44
413.365	1276.44
413.589	1261.44
413.812	1257.44
414.035	1282.44
414.258	1256.44
414.482	1296.44
414.705	1263.44
414.928	1281.44
415.151	1297.44
415.374	1313.44
415.597	1270.44
415.821	1257.44
416.044	1238.44
416.267	1239.44
416.49	1219.44
416.713	1229.44
416.936	1221.44
417.159	1232.44
417.382	1224.44
417.605	1194.44
417.828	1230.44
418.051	1230.44
418.274	1235.44
418.497	1227.44
418.72	1267.44
418.943	1260.44
419.166	1297.44
419.389	1343.44
419.611	1320.44
419.834	1308.44
420.057	1271.44
420.28	1230.44
420.503	1239.44
420.726	1249.44
420.948	1222.44
421.171	1236.44
421.394	1248.44
421.617	1225.44
421.839	1223.44
422.062	1212.44
422.285	1268.44
422.507	1258.44
422.73	1230.44
422.953	1268.44
423.175	1278.44
423.398	1241.44
423.621	1229.44
423.843	1247.44
424.066	1268.44
424.288	1250.44
424.511	1251.44
424.733	1249.44
424.956	1249.44
425.178	1232.44
425.401	1223.44
425.623	1235.44
425.846	1191.44
426.068	1193.44
426.291	1182.44
426.513	1157.44
426.735	1195.44
426.958	1185.44
427.18	1145.44
427.402	1185.44
427.625	1176.44
427.847	1089.44
428.069	1137.44
428.292	1165.44
428.514	1128.44
428.736	1179.44
428.958	1141.44
429.181	1129.44
429.403	1105.44
429.625	1101.44
429.847	1139.44
430.069	1141.44
430.292	1181.44
430.514	1192.44
430.736	1196.44
430.958	1153.44
431.18	1131.44
431.402	1139.44
431.624	1137.44
431.846	1104.44
432.068	1120.44
432.29	1144.44
432.512	1103.44
432.734	1159.44
432.956	1147.44
433.178	1159.44
433.4	1131.44
433.622	1196.44
433.844	1174.44
434.066	1136.44
434.287	1099.44
434.509	1123.44
434.731	1138.44
434.953	1177.44
435.175	1175.44
435.397	1204.44
435.618	1109.44
435.84	1132.44
436.062	1119.44
436.284	1167.44
436.505	1133.44
436.727	1132.44
436.949	1148.44
437.17	1139.44
437.392	1099.44
437.614	1094.44
437.835	1089.44
438.057	1108.44
438.278	1077.44
438.5	1111.44
438.721	1129.44
438.943	1153.44
439.165	1170.44
439.386	1155.44
439.608	1139.44
439.829	1177.44
440.05	1220.44
440.272	1211.44
440.493	1173.44
440.715	1151.44
440.936	1161.44
441.158	1200.44
441.379	1193.44
441.6	1212.44
441.822	1264.44
442.043	1321.44
442.264	1316.44
442.486	1237.44
442.707	1234.44
442.928	1209.44
443.149	1229.44
443.371	1217.44
443.592	1254.44
443.813	1199.44
444.034	1198.44
444.255	1295.44
444.476	1278.44
444.698	1275.44
444.919	1335.44
445.14	1380.44
445.361	1331.44
445.582	1265.44
445.803	1229.44
446.024	1216.44
446.245	1211.44
446.466	1241.44
446.687	1197.44
446.908	1194.44
447.129	1150.44
447.35	1166.44
447.571	1146.44
447.792	1117.44
448.013	1131.44
448.234	1129.44
448.455	1124.44
448.675	1135.44
448.896	1162.44
449.117	1186.44
449.338	1233.44
449.559	1288.44
449.779	1155.44
450	1140.44
450.221	1043.44
450.442	1101.44
450.662	1103.44
450.883	1068.44
451.104	1080.44
451.324	1095.44
451.545	1051.44
451.766	1063.44
451.986	1099.44
452.207	1145.44
452.428	1347.44
452.648	1756.44
452.869	1508.44
453.089	1191.44
453.31	1177.44
453.53	1208.44
453.751	1204.44
453.971	1237.44
454.192	1252.44
454.412	1107.44
454.633	1079.44
454.853	1071.44
455.073	1027.44
455.294	1052.44
455.514	1035.44
455.734	1039.44
455.955	1027.44
456.175	1069.44
456.395	1024.44
456.616	1016.44
456.836	1030.44
457.056	1028.44
457.276	1050.44
457.497	1096.44
457.717	1091.44
457.937	1087.44
458.157	1095.44
458.377	1083.44
458.598	1083.44
458.818	1119.44
459.038	1090.44
459.258	1074.44
459.478	1119.44
459.698	1145.44
459.918	1173.44
460.138	1221.44
460.358	1228.44
460.578	1208.44
460.798	1239.44
461.018	1217.44
461.238	1238.44
461.458	1268.44
461.678	1246.44
461.898	1256.44
462.118	1243.44
462.338	1296.44
462.558	1313.44
462.777	1299.44
462.997	1363.44
463.217	1419.44
463.437	1459.44
463.657	1444.44
463.876	1478.44
464.096	1389.44
464.316	1372.44
464.536	1329.44
464.755	1307.44
464.975	1275.44
465.195	1245.44
465.414	1223.44
465.634	1153.44
465.854	1149.44
466.073	1164.44
466.293	1145.44
466.512	1151.44
466.732	1152.44
466.951	1183.44
467.171	1229.44
467.391	1254.44
467.61	1147.44
467.829	1114.44
468.049	1108.44
468.268	1128.44
468.488	1093.44
468.707	1103.44
468.927	1108.44
469.146	1096.44
469.365	1101.44
469.585	1128.44
469.804	1158.44
470.023	1169.44
470.243	1183.44
470.462	1203.44
470.681	1258.44
470.901	1371.44
471.12	1507.44
471.339	1527.44
471.558	1297.44
471.777	1204.44
471.997	1190.44
472.216	1163.44
472.435	1113.44
472.654	1096.44
472.873	1091.44
473.092	1107.44
473.311	1146.44
473.53	1129.44
473.749	1146.44
473.968	1184.44
474.187	1117.44
474.406	1113.44
474.625	1149.44
474.844	1117.44
475.063	1117.44
475.282	1145.44
475.501	1122.44
475.72	1131.44
475.939	1136.44
476.158	1143.44
476.377	1181.44
476.596	1172.44
476.814	1153.44
477.033	1155.44
477.252	1194.44
477.471	1221.44
477.69	1220.44
477.908	1251.44
478.127	1286.44
478.346	1299.44
478.564	1241.44
478.783	1288.44
479.002	1292.44
479.22	1296.44
479.439	1297.44
479.658	1321.44
479.876	1318.44
480.095	1322.44
480.313	1346.44
480.532	1427.44
480.751	1378.44
480.969	1327.44
481.188	1316.44
481.406	1320.44
481.624	1331.44
481.843	1320.44
482.061	1322.44
482.28	1324.44
482.498	1335.44
482.717	1307.44
482.935	1351.44
483.153	1369.44
483.372	1365.44
483.59	1389.44
483.808	1388.44
484.027	1424.44
484.245	1452.44
484.463	1585.44
484.681	1761.44
484.9	1620.44
485.118	1536.44
485.336	1540.44
485.554	1530.44
485.772	1625.44
485.99	1800.44
486.209	1926.44
486.427	1653.44
486.645	1527.44
486.863	1436.44
487.081	1446.44
487.299	1419.44
487.517	1455.44
487.735	1423.44
487.953	1449.44
488.171	1455.44
488.389	1424.44
488.607	1412.44
488.825	1381.44
489.043	1369.44
489.261	1375.44
489.479	1365.44
489.696	1384.44
489.914	1400.44
490.132	1399.44
490.35	1406.44
490.568	1427.44
490.786	1413.44
491.003	1475.44
491.221	1452.44
491.439	1433.44
491.657	1481.44
491.874	1498.44
492.092	1494.44
492.31	1501.44
492.527	1525.44
492.745	1501.44
492.963	1505.44
493.18	1489.44
493.398	1505.44
493.615	1464.44
493.833	1491.44
494.05	1465.44
494.268	1472.44
494.485	1480.44
494.703	1484.44
494.92	1476.44
495.138	1489.44
495.355	1506.44
495.573	1479.44
495.79	1476.44
496.008	1517.44
496.225	1479.44
496.442	1519.44
496.66	1549.44
496.877	1604.44
497.094	1574.44
497.312	1583.44
497.529	1587.44
497.746	1579.44
497.963	1631.44
498.181	1644.44
498.398	1715.44
498.615	1750.44
498.832	1777.44
499.049	1855.44
499.267	1976.44
499.484	2093.44
499.701	2113.44
499.918	2240.44
500.135	2388.44
500.352	2506.44
500.569	2547.44
500.786	2530.44
501.003	2446.44
501.22	2293.44
501.437	2173.44
501.654	2083.44
501.871	1963.44
502.088	1856.44
502.305	1832.44
502.522	1719.44
502.739	1704.44
502.956	1656.44
503.172	1641.44
503.389	1604.44
503.606	1560.44
503.823	1519.44
504.04	1473.44
504.256	1524.44
504.473	1531.44
504.69	1554.44
504.907	1509.44
505.123	1469.44
505.34	1437.44
505.557	1417.44
505.773	1391.44
505.99	1389.44
506.207	1350.44
506.423	1322.44
506.64	1312.44
506.856	1333.44
507.073	1291.44
507.289	1283.44
507.506	1287.44
507.722	1261.44
507.939	1245.44
508.155	1263.44
508.372	1263.44
508.588	1243.44
508.805	1232.44
509.021	1248.44
509.238	1299.44
509.454	1311.44
509.67	1351.44
509.887	1303.44
510.103	1249.44
510.319	1241.44
510.536	1241.44
510.752	1211.44
510.968	1245.44
511.184	1250.44
511.401	1203.44
511.617	1188.44
511.833	1214.44
512.049	1195.44
512.265	1218.44
512.481	1168.44
512.698	1190.44
512.914	1184.44
513.13	1177.44
513.346	1193.44
513.562	1198.44
513.778	1218.44
513.994	1210.44
514.21	1208.44
514.426	1268.44
514.642	1330.44
514.858	1234.44
515.074	1241.44
515.29	1271.44
515.506	1218.44
515.721	1237.44
515.937	1235.44
516.153	1240.44
516.369	1232.44
516.585	1293.44
516.801	1299.44
517.016	1318.44
517.232	1351.44
517.448	1344.44
517.664	1378.44
517.879	1369.44
518.095	1381.44
518.311	1372.44
518.527	1305.44
518.742	1348.44
518.958	1334.44
519.173	1375.44
519.389	1333.44
519.605	1280.44
519.82	1229.44
520.036	1235.44
520.251	1234.44
520.467	1207.44
520.682	1174.44
520.898	1155.44
521.113	1211.44
521.329	1179.44
521.544	1165.44
521.76	1211.44
521.975	1191.44
522.19	1166.44
522.406	1191.44
522.621	1186.44
522.836	1175.44
523.052	1154.44
523.267	1165.44
523.482	1180.44
523.698	1173.44
523.913	1127.44
524.128	1165.44
524.343	1151.44
524.559	1174.44
524.774	1150.44
524.989	1153.44
525.204	1181.44
525.419	1151.44
525.634	1136.44
525.849	1151.44
526.064	1154.44
526.28	1136.44
526.495	1146.44
526.71	1153.44
526.925	1146.44
527.14	1161.44
527.355	1147.44
527.57	1114.44
527.785	1159.44
527.999	1159.44
528.214	1160.44
528.429	1186.44
528.644	1232.44
528.859	1242.44
529.074	1223.44
529.289	1247.44
529.503	1258.44
529.718	1240.44
529.933	1242.44
530.148	1218.44
530.363	1199.44
530.577	1171.44
530.792	1170.44
531.007	1228.44
531.221	1231.44
531.436	1213.44
531.651	1238.44
531.865	1250.44
532.08	1301.44
532.295	1286.44
532.509	1370.44
532.724	1337.44
532.938	1359.44
533.153	1353.44
533.367	1437.44
533.582	1476.44
533.796	1503.44
534.011	1467.44
534.225	1416.44
534.44	1362.44
534.654	1362.44
534.868	1361.44
535.083	1305.44
535.297	1322.44
535.511	1283.44
535.726	1288.44
535.94	1271.44
536.154	1247.44
536.369	1229.44
536.583	1190.44
536.797	1214.44
537.011	1211.44
537.225	1186.44
537.44	1149.44
537.654	1189.44
537.868	1151.44
538.082	1148.44
538.296	1153.44
538.51	1147.44
538.724	1149.44
538.938	1147.44
539.153	1157.44
539.367	1151.44
539.581	1129.44
539.795	1091.44
540.009	1076.44
540.222	1079.44
540.436	1115.44
540.65	1108.44
540.864	1125.44
541.078	1123.44
541.292	1191.44
541.506	1372.44
541.72	1459.44
541.934	1303.44
542.147	1283.44
542.361	1206.44
542.575	1159.44
542.789	1156.44
543.002	1116.44
543.216	1115.44
543.43	1087.44
543.644	1067.44
543.857	1091.44
544.071	1125.44
544.285	1147.44
544.498	1118.44
544.712	1098.44
544.925	1142.44
545.139	1115.44
545.352	1146.44
545.566	1114.44
545.779	1118.44
545.993	1140.44
546.206	1132.44
546.42	1141.44
546.633	1139.44
546.847	1104.44
547.06	1134.44
547.274	1146.44
547.487	1108.44
547.7	1167.44
547.914	1135.44
548.127	1144.44
548.34	1124.44
548.554	1131.44
548.767	1111.44
548.98	1172.44
549.193	1095.44
549.407	1146.44
549.62	1151.44
549.833	1136.44
550.046	1113.44
550.259	1105.44
550.473	1092.44
550.686	1132.44
550.899	1109.44
551.112	1130.44
551.325	1105.44
551.538	1116.44
551.751	1093.44
551.964	1088.44
552.177	1144.44
552.39	1164.44
552.603	1186.44
552.816	1203.44
553.029	1184.44
553.242	1236.44
553.455	1235.44
553.667	1226.44
553.88	1217.44
554.093	1208.44
554.306	1228.44
554.519	1224.44
554.732	1232.44
554.944	1266.44
555.157	1283.44
555.37	1279.44
555.583	1339.44
555.795	1377.44
556.008	1435.44
556.221	1535.44
556.433	1589.44
556.646	1593.44
556.859	1581.44
557.071	1532.44
557.284	1546.44
557.496	1472.44
557.709	1515.44
557.921	1461.44
558.134	1490.44
558.346	1469.44
558.559	1521.44
558.771	1595.44
558.984	1646.44
559.196	1750.44
559.409	1706.44
559.621	1604.44
559.833	1531.44
560.046	1481.44
560.258	1410.44
560.47	1360.44
560.683	1337.44
560.895	1277.44
561.107	1263.44
561.32	1229.44
561.532	1212.44
561.744	1197.44
561.956	1195.44
562.168	1167.44
562.381	1083.44
562.593	1107.44
562.805	1154.44
563.017	1139.44
563.229	1136.44
563.441	1184.44
563.653	1103.44
563.865	1074.44
564.077	1027.44
564.289	1024.44
564.501	1029.44
564.713	1042.44
564.925	1032.44
565.137	1027.44
565.349	1015.44
565.561	1051.44
565.773	1017.44
565.985	1059.44
566.197	1089.44
566.408	1078.44
566.62	1105.44
566.832	1143.44
567.044	1160.44
567.255	1151.44
567.467	1179.44
567.679	1187.44
567.891	1220.44
568.102	1339.44
568.314	1479.44
568.526	1331.44
568.737	1177.44
568.949	1068.44
569.161	1020.44
569.372	992.44
569.584	943.44
569.795	943.44
570.007	942.44
570.218	933.44
570.43	935.44
570.641	884.44
570.853	872.44
571.064	860.44
571.276	851.44
571.487	831.44
571.698	829.44
571.91	830.44
572.121	819.44
572.333	831.44
572.544	817.44
572.755	884.44
572.966	965.44
573.178	872.44
573.389	828.44
573.6	787.44
573.811	764.44
574.023	778.44
574.234	767.44
574.445	770.44
574.656	769.44
574.867	745.44
575.078	738.44
575.289	743.44
575.501	745.44
575.712	738.44
575.923	740.44
576.134	743.44
576.345	763.44
576.556	731.44
576.767	748.44
576.978	740.44
577.188	753.44
577.399	755.44
577.61	754.44
577.821	760.44
578.032	778.44
578.243	779.44
578.454	774.44
578.665	789.44
578.875	827.44
579.086	836.44
579.297	876.44
579.508	891.44
579.718	968.44
579.929	1034.44
580.14	1178.44
580.35	1169.44
580.561	1128.44
580.772	1035.44
580.982	994.44
581.193	955.44
581.403	909.44
581.614	886.44
581.825	876.44
582.035	845.44
582.246	790.44
582.456	786.44
582.667	778.44
582.877	763.44
583.087	750.44
583.298	726.44
583.508	709.44
583.719	687.44
583.929	696.44
584.139	676.44
584.35	665.44
584.56	653.44
584.77	629.44
584.981	655.44
585.191	652.44
585.401	627.44
585.611	596.44
585.821	601.44
586.032	595.44
586.242	602.44
586.452	610.44
586.662	605.44
586.872	602.44
587.082	575.44
587.292	576.44
587.502	575.44
587.713	574.44
587.923	567.44
588.133	564.44
588.343	549.44
588.553	570.44
588.762	577.44
588.972	555.44
589.182	585.44
589.392	553.44
589.602	544.44
589.812	554.44
590.022	553.44
590.232	529.44
590.441	539.44
590.651	540.44
590.861	548.44
591.071	512.44
591.281	557.44
591.49	561.44
591.7	548.44
591.91	567.44
592.119	526.44
592.329	561.44
592.539	562.44
592.748	563.44
592.958	547.44
593.167	587.44
593.377	573.44
593.587	545.44
593.796	578.44
594.006	570.44
594.215	557.44
594.424	567.44
594.634	549.44
594.843	552.44
595.053	538.44
595.262	516.44
595.472	523.44
595.681	521.44
595.89	517.44
596.1	488.44
596.309	495.44
596.518	490.44
596.727	474.44
596.937	474.44
597.146	485.44
597.355	462.44
597.564	486.44
597.774	477.44
597.983	474.44
598.192	461.44
598.401	460.44
598.61	471.44
598.819	441.44
599.028	442.44
599.237	441.44
599.446	452.44
599.655	455.44
599.864	441.44
600.073	449.44
600.282	435.44
600.491	455.44
600.7	452.44
600.909	431.44
601.118	440.44
601.327	435.44
601.536	451.44
601.745	462.44
601.953	475.44
602.162	553.44
602.371	486.44
602.58	456.44
602.789	473.44
602.997	437.44
603.206	448.44
603.415	435.44
603.623	435.44
603.832	442.44
604.041	431.44
604.249	429.44
604.458	411.44
604.666	424.44
604.875	417.44
605.084	433.44
605.292	436.44
605.501	427.44
605.709	435.44
605.918	421.44
606.126	447.44
606.334	429.44
606.543	426.44
606.751	456.44
606.96	511.44
607.168	553.44
607.376	458.44
607.585	447.44
607.793	447.44
608.001	441.44
608.21	429.44
608.418	407.44
608.626	410.44
608.834	419.44
609.043	404.44
609.251	411.44
609.459	416.44
609.667	409.44
609.875	398.44
610.083	422.44
610.291	408.44
610.499	398.44
610.707	401.44
610.916	391.44
611.124	421.44
611.332	401.44
611.54	405.44
611.748	394.44
611.955	409.44
612.163	395.44
612.371	381.44
612.579	402.44
612.787	407.44
612.995	394.44
613.203	379.44
613.411	378.44
613.618	387.44
613.826	370.44
614.034	389.44
614.242	376.44
614.449	390.44
614.657	392.44
614.865	401.44
615.072	403.44
615.28	393.44
615.488	390.44
615.695	396.44
615.903	378.44
616.111	393.44
616.318	373.44
616.526	358.44
616.733	363.44
616.941	396.44
617.148	391.44
617.356	388.44
617.563	395.44
617.771	375.44
617.978	373.44
618.185	389.44
618.393	380.44
618.6	372.44
618.807	368.44
619.015	376.44
619.222	365.44
619.429	364.44
619.637	378.44
619.844	355.44
620.051	363.44
620.258	358.44
620.466	324.44
620.673	353.44
620.88	360.44
621.087	360.44
621.294	347.44
621.501	344.44
621.708	365.44
621.915	346.44
622.122	371.44
622.329	341.44
622.536	356.44
622.743	357.44
622.95	361.44
623.157	329.44
623.364	341.44
623.571	354.44
623.778	351.44
623.985	341.44
624.192	364.44
624.399	340.44
624.606	333.44
624.812	337.44
625.019	344.44
625.226	325.44
625.433	322.44
625.639	332.44
625.846	329.44
626.053	332.44
626.259	323.44
626.466	314.44
626.673	319.44
626.879	320.44
627.086	327.44
627.293	316.44
627.499	340.44
627.706	332.44
627.912	315.44
628.119	313.44
628.325	325.44
628.532	319.44
628.738	321.44
628.945	321.44
629.151	318.44
629.357	314.44
629.564	319.44
629.77	289.44
629.976	325.44
630.183	312.44
630.389	326.44
630.595	322.44
630.802	301.44
631.008	298.44
631.214	305.44
631.42	287.44
631.627	299.44
631.833	284.44
632.039	307.44
632.245	301.44
632.451	319.44
632.657	309.44
632.863	302.44
633.069	316.44
633.275	287.44
633.481	307.44
633.688	301.44
633.893	320.44
634.099	296.44
634.305	308.44
634.511	309.44
634.717	303.44
634.923	309.44
635.129	328.44
635.335	363.44
635.541	341.44
635.747	320.44
635.952	323.44
636.158	282.44
636.364	307.44
636.57	304.44
636.775	307.44
636.981	312.44
637.187	291.44
637.392	323.44
637.598	299.44
637.804	305.44
638.009	289.44
638.215	294.44
638.421	294.44
638.626	296.44
638.832	305.44
639.037	297.44
639.243	306.44
639.448	308.44
639.654	312.44
639.859	292.44
640.065	310.44
640.27	304.44
640.475	301.44
640.681	312.44
640.886	311.44
641.091	314.44
641.297	321.44
641.502	327.44
641.707	336.44
641.913	323.44
642.118	308.44
642.323	319.44
642.528	338.44
642.733	349.44
642.939	359.44
643.144	357.44
643.349	351.44
643.554	357.44
643.759	388.44
643.964	388.44
644.169	412.44
644.374	429.44
644.579	470.44
644.784	479.44
644.989	525.44
645.194	598.44
645.399	683.44
645.604	678.44
645.809	571.44
646.014	466.44
646.219	417.44
646.423	388.44
646.628	361.44
646.833	341.44
647.038	319.44
647.243	329.44
647.447	308.44
647.652	309.44
647.857	303.44
648.062	298.44
648.266	292.44
648.471	287.44
648.676	273.44
648.88	296.44
649.085	268.44
649.289	265.44
649.494	267.44
649.698	276.44
649.903	265.44
650.107	263.44
650.312	250.44
650.516	249.44
650.721	244.44
650.925	256.44
651.13	236.44
651.334	221.44
651.539	244.44
651.743	228.44
651.947	225.44
652.152	220.44
652.356	216.44
652.56	250.44
652.764	261.44
652.969	234.44
653.173	237.44
653.377	212.44
653.581	217.44
653.785	235.44
653.99	205.44
654.194	197.44
654.398	211.44
654.602	204.44
654.806	210.44
655.01	207.44
655.214	211.44
655.418	198.44
655.622	226.44
655.826	210.44
656.03	214.44
656.234	223.44
656.438	232.44
656.642	229.44
656.846	231.44
657.049	204.44
657.253	205.44
657.457	196.44
657.661	189.44
657.865	165.44
658.068	157.44
658.272	147.44
658.476	152.44
658.68	142.44
658.883	124.44
659.087	143.44
659.291	149.44
659.494	129.44
659.698	128.44
659.901	125.44
660.105	133.44
660.309	117.44
660.512	124.44
660.716	117.44
660.919	120.44
661.123	116.44
661.326	108.44
661.53	99.44
661.733	102.44
661.936	97.44
662.14	106.44
662.343	104.44
662.546	93.44
662.75	88.44
662.953	106.44
663.156	95.44
663.36	91.44
663.563	91.44
663.766	83.44
663.969	87.44
664.173	102.44
664.376	85.44
664.579	89.44
664.782	81.44
664.985	97.44
665.188	98.44
665.391	80.44
665.594	75.44
665.797	84.44
666	86.44
666.203	84.44
666.406	79.44
666.609	84.44
666.812	85.44
667.015	87.44
667.218	77.44
667.421	79.44
667.624	72.44
667.827	94.44
668.03	82.44
668.232	66.44
668.435	92.44
668.638	68.44
668.841	78.44
669.043	81.44
669.246	83.44
669.449	93.44
669.651	111.44
669.854	84.44
670.057	79.44
670.259	85.44
670.462	98.44
670.665	71.44
670.867	89.44
671.07	73.44
671.272	83.44
671.475	89.44
671.677	89.44
671.88	90.44
672.082	71.44
672.284	77.44
672.487	99.44
672.689	75.44
672.892	101.44
