Data from SnStandardFlinnAPT0064_LampEnergy5.5_LIBS07252019.E.O._I.C._HRD10591_15-14-34-490.txt Node
Date: Thu Jul 25 15:14:34 EDT 2019
User: cochatt
Spectrometer: HR+D1059
Trigger mode: 1
Integration Time (sec): 1.000000E-1
Scans to average: 1
Electric dark correction enabled: true
Nonlinearity correction enabled: false
Boxcar width: 0
XAxis mode: Wavelengths
Number of Pixels in Spectrum: 2048
>>>>>Begin Spectral Data<<<<<
223.165	-24.94
223.4	-24.94
223.635	-24.94
223.869	-25.94
224.104	-16.94
224.338	-19.94
224.573	-9.94
224.808	-10.94
225.042	-9.94
225.277	-18.94
225.511	9.06
225.746	0.06
225.98	5.06
226.215	16.06
226.449	16.06
226.683	25.06
226.918	33.06
227.152	33.06
227.387	54.06
227.621	39.06
227.856	53.06
228.09	40.06
228.324	57.06
228.559	67.06
228.793	84.06
229.027	149.06
229.262	149.06
229.496	162.06
229.73	152.06
229.964	153.06
230.199	165.06
230.433	160.06
230.667	149.06
230.901	157.06
231.136	158.06
231.37	170.06
231.604	174.06
231.838	201.06
232.072	209.06
232.306	231.06
232.541	200.06
232.775	202.06
233.009	190.06
233.243	204.06
233.477	216.06
233.711	223.06
233.945	235.06
234.179	222.06
234.413	202.06
234.647	201.06
234.881	214.06
235.115	218.06
235.349	260.06
235.583	297.06
235.817	366.06
236.051	359.06
236.285	270.06
236.519	218.06
236.753	221.06
236.987	210.06
237.221	232.06
237.455	225.06
237.689	215.06
237.922	213.06
238.156	209.06
238.39	225.06
238.624	210.06
238.858	227.06
239.091	214.06
239.325	221.06
239.559	230.06
239.793	237.06
240.027	237.06
240.26	242.06
240.494	249.06
240.728	259.06
240.961	249.06
241.195	261.06
241.429	278.06
241.662	293.06
241.896	310.06
242.13	352.06
242.363	446.06
242.597	537.06
242.83	546.06
243.064	537.06
243.298	588.06
243.531	507.06
243.765	362.06
243.998	311.06
244.232	319.06
244.465	253.06
244.699	289.06
244.932	279.06
245.166	291.06
245.399	301.06
245.633	285.06
245.866	289.06
246.099	304.06
246.333	290.06
246.566	281.06
246.8	280.06
247.033	281.06
247.266	269.06
247.5	269.06
247.733	282.06
247.966	296.06
248.2	308.06
248.433	377.06
248.666	373.06
248.899	356.06
249.133	346.06
249.366	352.06
249.599	376.06
249.832	379.06
250.066	404.06
250.299	345.06
250.532	323.06
250.765	319.06
250.998	335.06
251.231	306.06
251.465	322.06
251.698	326.06
251.931	330.06
252.164	325.06
252.397	334.06
252.63	333.06
252.863	324.06
253.096	330.06
253.329	332.06
253.562	331.06
253.795	319.06
254.028	332.06
254.261	338.06
254.494	371.06
254.727	397.06
254.96	436.06
255.193	459.06
255.426	397.06
255.659	349.06
255.892	371.06
256.124	355.06
256.357	375.06
256.59	377.06
256.823	375.06
257.056	417.06
257.289	470.06
257.521	508.06
257.754	431.06
257.987	388.06
258.22	368.06
258.452	381.06
258.685	384.06
258.918	385.06
259.151	408.06
259.383	446.06
259.616	440.06
259.849	447.06
260.081	422.06
260.314	411.06
260.547	408.06
260.779	401.06
261.012	414.06
261.244	396.06
261.477	422.06
261.71	437.06
261.942	444.06
262.175	446.06
262.407	421.06
262.64	469.06
262.872	455.06
263.105	493.06
263.337	480.06
263.57	509.06
263.802	550.06
264.035	562.06
264.267	566.06
264.499	570.06
264.732	597.06
264.964	605.06
265.197	581.06
265.429	603.06
265.661	596.06
265.894	647.06
266.126	699.06
266.358	728.06
266.591	727.06
266.823	622.06
267.055	596.06
267.287	588.06
267.52	548.06
267.752	549.06
267.984	532.06
268.216	534.06
268.448	521.06
268.681	531.06
268.913	494.06
269.145	507.06
269.377	528.06
269.609	500.06
269.841	519.06
270.073	531.06
270.306	600.06
270.538	759.06
270.77	1039.06
271.002	1271.06
271.234	947.06
271.466	683.06
271.698	592.06
271.93	567.06
272.162	545.06
272.394	538.06
272.626	525.06
272.858	512.06
273.09	504.06
273.322	514.06
273.553	503.06
273.785	523.06
274.017	504.06
274.249	506.06
274.481	511.06
274.713	482.06
274.945	503.06
275.176	497.06
275.408	519.06
275.64	513.06
275.872	487.06
276.104	509.06
276.335	503.06
276.567	503.06
276.799	526.06
277.031	515.06
277.262	527.06
277.494	551.06
277.726	578.06
277.957	647.06
278.189	711.06
278.421	700.06
278.652	618.06
278.884	612.06
279.115	571.06
279.347	575.06
279.579	573.06
279.81	551.06
280.042	554.06
280.273	574.06
280.505	578.06
280.736	561.06
280.968	610.06
281.199	641.06
281.431	683.06
281.662	717.06
281.894	670.06
282.125	615.06
282.356	614.06
282.588	643.06
282.819	636.06
283.051	704.06
283.282	729.06
283.513	877.06
283.745	1213.06
283.976	1854.06
284.207	2506.06
284.439	2231.06
284.67	1454.06
284.901	1229.06
285.132	1173.06
285.364	1125.06
285.595	933.06
285.826	861.06
286.057	978.06
286.288	1244.06
286.52	1642.06
286.751	1523.06
286.982	1010.06
287.213	851.06
287.444	777.06
287.675	691.06
287.906	699.06
288.138	671.06
288.369	652.06
288.6	680.06
288.831	674.06
289.062	656.06
289.293	652.06
289.524	701.06
289.755	681.06
289.986	667.06
290.217	663.06
290.448	665.06
290.679	673.06
290.91	659.06
291.141	717.06
291.371	718.06
291.602	747.06
291.833	700.06
292.064	693.06
292.295	656.06
292.526	634.06
292.757	632.06
292.987	651.06
293.218	654.06
293.449	611.06
293.68	637.06
293.91	620.06
294.141	615.06
294.372	636.06
294.603	615.06
294.833	610.06
295.064	627.06
295.295	628.06
295.525	618.06
295.756	608.06
295.987	604.06
296.217	650.06
296.448	642.06
296.679	637.06
296.909	640.06
297.14	625.06
297.37	643.06
297.601	634.06
297.831	635.06
298.062	647.06
298.292	651.06
298.523	652.06
298.753	676.06
298.984	670.06
299.214	663.06
299.445	684.06
299.675	704.06
299.905	723.06
300.136	725.06
300.366	813.06
300.597	975.06
300.827	1245.06
301.057	1575.06
301.288	1587.06
301.518	1104.06
301.748	912.06
301.979	852.06
302.209	837.06
302.439	827.06
302.669	881.06
302.9	1022.06
303.13	1337.06
303.36	1809.06
303.59	2425.06
303.82	2142.06
304.051	1371.06
304.281	1070.06
304.511	907.06
304.741	867.06
304.971	819.06
305.201	792.06
305.431	761.06
305.661	755.06
305.891	769.06
306.121	738.06
306.352	774.06
306.582	717.06
306.812	717.06
307.042	725.06
307.272	738.06
307.502	708.06
307.731	735.06
307.961	729.06
308.191	709.06
308.421	726.06
308.651	729.06
308.881	710.06
309.111	729.06
309.341	727.06
309.571	710.06
309.8	747.06
310.03	755.06
310.26	738.06
310.49	742.06
310.72	710.06
310.949	754.06
311.179	755.06
311.409	778.06
311.639	753.06
311.868	784.06
312.098	788.06
312.328	743.06
312.557	773.06
312.787	771.06
313.017	791.06
313.246	768.06
313.476	782.06
313.706	796.06
313.935	835.06
314.165	855.06
314.394	893.06
314.624	855.06
314.853	826.06
315.083	829.06
315.312	842.06
315.542	851.06
315.771	886.06
316.001	865.06
316.23	874.06
316.46	890.06
316.689	965.06
316.919	1112.06
317.148	1565.06
317.377	2231.06
317.607	3189.06
317.836	3310.06
318.065	2088.06
318.295	1473.06
318.524	1201.06
318.753	1054.06
318.983	995.06
319.212	979.06
319.441	943.06
319.67	957.06
319.9	925.06
320.129	938.06
320.358	915.06
320.587	908.06
320.816	903.06
321.046	899.06
321.275	918.06
321.504	937.06
321.733	953.06
321.962	950.06
322.191	959.06
322.42	967.06
322.649	972.06
322.878	959.06
323.108	960.06
323.337	962.06
323.566	1001.06
323.795	1004.06
324.024	997.06
324.253	1024.06
324.482	1065.06
324.71	1074.06
324.939	1126.06
325.168	1170.06
325.397	1242.06
325.626	1387.06
325.855	1853.06
326.084	2745.06
326.313	3910.06
326.542	4157.06
326.77	2784.06
326.999	1972.06
327.228	1733.06
327.457	1647.06
327.686	1677.06
327.914	1786.06
328.143	1978.06
328.372	2279.06
328.6	2417.06
328.829	2294.06
329.058	2039.06
329.287	1832.06
329.515	1711.06
329.744	1591.06
329.972	1518.06
330.201	1479.06
330.43	1403.06
330.658	1360.06
330.887	1357.06
331.115	1335.06
331.344	1311.06
331.572	1322.06
331.801	1316.06
332.03	1315.06
332.258	1353.06
332.486	1364.06
332.715	1519.06
332.943	1739.06
333.172	2107.06
333.4	2050.06
333.629	1772.06
333.857	1627.06
334.085	1634.06
334.314	1736.06
334.542	1816.06
334.771	2103.06
334.999	2469.06
335.227	2940.06
335.455	3239.06
335.684	3059.06
335.912	2673.06
336.14	2302.06
336.369	2090.06
336.597	1969.06
336.825	1787.06
337.053	1686.06
337.281	1591.06
337.51	1529.06
337.738	1464.06
337.966	1394.06
338.194	1359.06
338.422	1322.06
338.65	1313.06
338.878	1301.06
339.106	1291.06
339.334	1219.06
339.562	1219.06
339.79	1199.06
340.018	1178.06
340.246	1180.06
340.474	1177.06
340.702	1166.06
340.93	1170.06
341.158	1182.06
341.386	1168.06
341.614	1148.06
341.842	1164.06
342.07	1143.06
342.298	1144.06
342.526	1100.06
342.754	1073.06
342.981	1068.06
343.209	1057.06
343.437	1081.06
343.665	1103.06
343.893	1102.06
344.12	1108.06
344.348	1097.06
344.576	1099.06
344.804	1085.06
345.031	990.06
345.259	1041.06
345.487	1016.06
345.714	1012.06
345.942	1037.06
346.17	988.06
346.397	1017.06
346.625	973.06
346.853	975.06
347.08	987.06
347.308	1023.06
347.535	1005.06
347.763	996.06
347.99	978.06
348.218	965.06
348.445	977.06
348.673	973.06
348.9	982.06
349.128	968.06
349.355	952.06
349.583	979.06
349.81	961.06
350.037	962.06
350.265	957.06
350.492	938.06
350.72	963.06
350.947	936.06
351.174	951.06
351.402	922.06
351.629	955.06
351.856	945.06
352.083	963.06
352.311	961.06
352.538	969.06
352.765	914.06
352.992	932.06
353.22	962.06
353.447	959.06
353.674	948.06
353.901	985.06
354.128	937.06
354.355	959.06
354.583	970.06
354.81	957.06
355.037	947.06
355.264	970.06
355.491	941.06
355.718	975.06
355.945	961.06
356.172	1000.06
356.399	965.06
356.626	993.06
356.853	988.06
357.08	964.06
357.307	999.06
357.534	1004.06
357.761	1010.06
357.988	997.06
358.215	1043.06
358.441	1011.06
358.668	998.06
358.895	991.06
359.122	999.06
359.349	1005.06
359.576	1011.06
359.802	983.06
360.029	1015.06
360.256	1029.06
360.483	981.06
360.709	1011.06
360.936	990.06
361.163	1006.06
361.39	1005.06
361.616	1045.06
361.843	1003.06
362.07	1027.06
362.296	1037.06
362.523	1045.06
362.749	1011.06
362.976	997.06
363.203	987.06
363.429	987.06
363.656	1013.06
363.882	979.06
364.109	1021.06
364.335	1017.06
364.562	1018.06
364.788	1030.06
365.015	1031.06
365.241	1030.06
365.468	1077.06
365.694	1096.06
365.92	1057.06
366.147	1046.06
366.373	1043.06
366.599	1047.06
366.826	1020.06
367.052	1027.06
367.278	1034.06
367.505	1039.06
367.731	1035.06
367.957	1034.06
368.184	1048.06
368.41	1032.06
368.636	1071.06
368.862	1071.06
369.089	1042.06
369.315	1032.06
369.541	1068.06
369.767	1062.06
369.993	1030.06
370.219	1067.06
370.445	1075.06
370.672	1057.06
370.898	1067.06
371.124	1054.06
371.35	1066.06
371.576	1077.06
371.802	1091.06
372.028	1083.06
372.254	1070.06
372.48	1098.06
372.706	1097.06
372.932	1091.06
373.158	1110.06
373.384	1111.06
373.61	1118.06
373.835	1139.06
374.061	1121.06
374.287	1161.06
374.513	1125.06
374.739	1134.06
374.965	1196.06
375.191	1158.06
375.416	1145.06
375.642	1135.06
375.868	1141.06
376.094	1129.06
376.319	1115.06
376.545	1111.06
376.771	1131.06
376.997	1086.06
377.222	1084.06
377.448	1092.06
377.674	1108.06
377.899	1086.06
378.125	1070.06
378.35	1101.06
378.576	1088.06
378.802	1113.06
379.027	1123.06
379.253	1138.06
379.478	1161.06
379.704	1332.06
379.929	1676.06
380.155	2433.06
380.38	2528.06
380.606	1767.06
380.831	1325.06
381.057	1230.06
381.282	1142.06
381.507	1141.06
381.733	1083.06
381.958	1110.06
382.184	1093.06
382.409	1074.06
382.634	1081.06
382.86	1085.06
383.085	1090.06
383.31	1081.06
383.535	1074.06
383.761	1051.06
383.986	1089.06
384.211	1135.06
384.436	1100.06
384.662	1117.06
384.887	1126.06
385.112	1134.06
385.337	1124.06
385.562	1122.06
385.787	1102.06
386.013	1130.06
386.238	1127.06
386.463	1101.06
386.688	1131.06
386.913	1124.06
387.138	1089.06
387.363	1139.06
387.588	1081.06
387.813	1132.06
388.038	1126.06
388.263	1115.06
388.488	1114.06
388.713	1123.06
388.938	1103.06
389.163	1103.06
389.387	1154.06
389.612	1084.06
389.837	1114.06
390.062	1118.06
390.287	1124.06
390.512	1121.06
390.736	1132.06
390.961	1151.06
391.186	1202.06
391.411	1177.06
391.636	1166.06
391.86	1162.06
392.085	1168.06
392.31	1168.06
392.534	1135.06
392.759	1143.06
392.984	1128.06
393.208	1143.06
393.433	1114.06
393.658	1129.06
393.882	1161.06
394.107	1124.06
394.331	1143.06
394.556	1122.06
394.78	1118.06
395.005	1142.06
395.229	1115.06
395.454	1163.06
395.678	1165.06
395.903	1177.06
396.127	1180.06
396.352	1165.06
396.576	1146.06
396.801	1150.06
397.025	1169.06
397.249	1183.06
397.474	1197.06
397.698	1157.06
397.922	1186.06
398.147	1193.06
398.371	1213.06
398.595	1217.06
398.82	1274.06
399.044	1271.06
399.268	1349.06
399.492	1419.06
399.717	1518.06
399.941	1496.06
400.165	1393.06
400.389	1360.06
400.613	1311.06
400.837	1314.06
401.062	1278.06
401.286	1252.06
401.51	1239.06
401.734	1210.06
401.958	1259.06
402.182	1242.06
402.406	1244.06
402.63	1250.06
402.854	1267.06
403.078	1237.06
403.302	1239.06
403.526	1273.06
403.75	1285.06
403.974	1310.06
404.198	1290.06
404.422	1286.06
404.645	1315.06
404.869	1323.06
405.093	1285.06
405.317	1272.06
405.541	1321.06
405.765	1309.06
405.988	1319.06
406.212	1283.06
406.436	1318.06
406.66	1337.06
406.883	1295.06
407.107	1352.06
407.331	1366.06
407.555	1423.06
407.778	1384.06
408.002	1353.06
408.226	1348.06
408.449	1362.06
408.673	1345.06
408.896	1351.06
409.12	1321.06
409.344	1308.06
409.567	1278.06
409.791	1301.06
410.014	1267.06
410.238	1265.06
410.461	1263.06
410.685	1240.06
410.908	1247.06
411.132	1277.06
411.355	1265.06
411.578	1281.06
411.802	1234.06
412.025	1208.06
412.249	1245.06
412.472	1256.06
412.695	1207.06
412.919	1223.06
413.142	1216.06
413.365	1190.06
413.589	1233.06
413.812	1199.06
414.035	1203.06
414.258	1206.06
414.482	1221.06
414.705	1228.06
414.928	1217.06
415.151	1223.06
415.374	1197.06
415.597	1198.06
415.821	1181.06
416.044	1161.06
416.267	1191.06
416.49	1155.06
416.713	1183.06
416.936	1213.06
417.159	1130.06
417.382	1157.06
417.605	1171.06
417.828	1174.06
418.051	1197.06
418.274	1210.06
418.497	1187.06
418.72	1198.06
418.943	1175.06
419.166	1210.06
419.389	1313.06
419.611	1291.06
419.834	1237.06
420.057	1240.06
420.28	1179.06
420.503	1190.06
420.726	1186.06
420.948	1181.06
421.171	1196.06
421.394	1202.06
421.617	1183.06
421.839	1168.06
422.062	1201.06
422.285	1187.06
422.507	1195.06
422.73	1197.06
422.953	1175.06
423.175	1214.06
423.398	1189.06
423.621	1173.06
423.843	1180.06
424.066	1204.06
424.288	1218.06
424.511	1185.06
424.733	1188.06
424.956	1148.06
425.178	1189.06
425.401	1192.06
425.623	1185.06
425.846	1107.06
426.068	1152.06
426.291	1132.06
426.513	1153.06
426.735	1143.06
426.958	1148.06
427.18	1124.06
427.402	1131.06
427.625	1106.06
427.847	1118.06
428.069	1098.06
428.292	1090.06
428.514	1109.06
428.736	1094.06
428.958	1118.06
429.181	1083.06
429.403	1074.06
429.625	1081.06
429.847	1084.06
430.069	1106.06
430.292	1121.06
430.514	1130.06
430.736	1143.06
430.958	1095.06
431.18	1102.06
431.402	1067.06
431.624	1059.06
431.846	1070.06
432.068	1093.06
432.29	1070.06
432.512	1056.06
432.734	1081.06
432.956	1081.06
433.178	1109.06
433.4	1109.06
433.622	1118.06
433.844	1108.06
434.066	1080.06
434.287	1098.06
434.509	1073.06
434.731	1110.06
434.953	1126.06
435.175	1134.06
435.397	1141.06
435.618	1081.06
435.84	1091.06
436.062	1070.06
436.284	1098.06
436.505	1087.06
436.727	1097.06
436.949	1068.06
437.17	1058.06
437.392	1060.06
437.614	1047.06
437.835	1045.06
438.057	1028.06
438.278	1081.06
438.5	1031.06
438.721	1069.06
438.943	1109.06
439.165	1106.06
439.386	1129.06
439.608	1123.06
439.829	1116.06
440.05	1140.06
440.272	1148.06
440.493	1129.06
440.715	1112.06
440.936	1110.06
441.158	1149.06
441.379	1143.06
441.6	1190.06
441.822	1234.06
442.043	1242.06
442.264	1242.06
442.486	1188.06
442.707	1169.06
442.928	1123.06
443.149	1155.06
443.371	1131.06
443.592	1152.06
443.813	1173.06
444.034	1171.06
444.255	1205.06
444.476	1205.06
444.698	1238.06
444.919	1285.06
445.14	1347.06
445.361	1250.06
445.582	1211.06
445.803	1174.06
446.024	1156.06
446.245	1164.06
446.466	1173.06
446.687	1145.06
446.908	1153.06
447.129	1129.06
447.35	1101.06
447.571	1105.06
447.792	1084.06
448.013	1081.06
448.234	1037.06
448.455	1033.06
448.675	1084.06
448.896	1096.06
449.117	1130.06
449.338	1190.06
449.559	1218.06
449.779	1117.06
450	1037.06
450.221	1055.06
450.442	1057.06
450.662	1064.06
450.883	1046.06
451.104	1069.06
451.324	1059.06
451.545	1055.06
451.766	1049.06
451.986	1057.06
452.207	1096.06
452.428	1237.06
452.648	1655.06
452.869	1457.06
453.089	1154.06
453.31	1115.06
453.53	1116.06
453.751	1146.06
453.971	1179.06
454.192	1190.06
454.412	1046.06
454.633	1025.06
454.853	1035.06
455.073	994.06
455.294	1026.06
455.514	1003.06
455.734	990.06
455.955	979.06
456.175	1007.06
456.395	981.06
456.616	1014.06
456.836	1009.06
457.056	1014.06
457.276	1021.06
457.497	1078.06
457.717	1088.06
457.937	1027.06
458.157	1049.06
458.377	1102.06
458.598	1062.06
458.818	1065.06
459.038	1054.06
459.258	1097.06
459.478	1071.06
459.698	1078.06
459.918	1089.06
460.138	1145.06
460.358	1147.06
460.578	1152.06
460.798	1193.06
461.018	1200.06
461.238	1147.06
461.458	1191.06
461.678	1156.06
461.898	1201.06
462.118	1224.06
462.338	1241.06
462.558	1237.06
462.777	1281.06
462.997	1323.06
463.217	1351.06
463.437	1378.06
463.657	1370.06
463.876	1330.06
464.096	1300.06
464.316	1271.06
464.536	1267.06
464.755	1237.06
464.975	1216.06
465.195	1198.06
465.414	1157.06
465.634	1110.06
465.854	1126.06
466.073	1104.06
466.293	1114.06
466.512	1106.06
466.732	1094.06
466.951	1124.06
467.171	1178.06
467.391	1141.06
467.61	1119.06
467.829	1112.06
468.049	1080.06
468.268	1058.06
468.488	1068.06
468.707	1081.06
468.927	1029.06
469.146	1057.06
469.365	1083.06
469.585	1067.06
469.804	1121.06
470.023	1125.06
470.243	1133.06
470.462	1152.06
470.681	1190.06
470.901	1257.06
471.12	1415.06
471.339	1401.06
471.558	1246.06
471.777	1155.06
471.997	1140.06
472.216	1070.06
472.435	1062.06
472.654	1063.06
472.873	998.06
473.092	1069.06
473.311	1079.06
473.53	1082.06
473.749	1095.06
473.968	1130.06
474.187	1102.06
474.406	1061.06
474.625	1068.06
474.844	1087.06
475.063	1080.06
475.282	1089.06
475.501	1081.06
475.72	1082.06
475.939	1083.06
476.158	1114.06
476.377	1132.06
476.596	1126.06
476.814	1142.06
477.033	1114.06
477.252	1117.06
477.471	1137.06
477.69	1202.06
477.908	1229.06
478.127	1189.06
478.346	1220.06
478.564	1243.06
478.783	1252.06
479.002	1273.06
479.22	1258.06
479.439	1278.06
479.658	1265.06
479.876	1271.06
480.095	1276.06
480.313	1291.06
480.532	1321.06
480.751	1310.06
480.969	1270.06
481.188	1253.06
481.406	1256.06
481.624	1240.06
481.843	1266.06
482.061	1272.06
482.28	1265.06
482.498	1278.06
482.717	1261.06
482.935	1272.06
483.153	1309.06
483.372	1369.06
483.59	1361.06
483.808	1340.06
484.027	1374.06
484.245	1388.06
484.463	1513.06
484.681	1675.06
484.9	1552.06
485.118	1485.06
485.336	1467.06
485.554	1450.06
485.772	1538.06
485.99	1703.06
486.209	1775.06
486.427	1549.06
486.645	1419.06
486.863	1406.06
487.081	1398.06
487.299	1323.06
487.517	1309.06
487.735	1378.06
487.953	1389.06
488.171	1405.06
488.389	1368.06
488.607	1359.06
488.825	1359.06
489.043	1269.06
489.261	1301.06
489.479	1291.06
489.696	1337.06
489.914	1317.06
490.132	1366.06
490.35	1349.06
490.568	1363.06
490.786	1386.06
491.003	1407.06
491.221	1398.06
491.439	1375.06
491.657	1421.06
491.874	1439.06
492.092	1442.06
492.31	1482.06
492.527	1450.06
492.745	1446.06
492.963	1448.06
493.18	1397.06
493.398	1435.06
493.615	1415.06
493.833	1457.06
494.05	1439.06
494.268	1427.06
494.485	1418.06
494.703	1403.06
494.92	1413.06
495.138	1403.06
495.355	1422.06
495.573	1410.06
495.79	1402.06
496.008	1408.06
496.225	1450.06
496.442	1455.06
496.66	1483.06
496.877	1555.06
497.094	1550.06
497.312	1524.06
497.529	1493.06
497.746	1534.06
497.963	1535.06
498.181	1526.06
498.398	1598.06
498.615	1674.06
498.832	1708.06
499.049	1799.06
499.267	1868.06
499.484	2037.06
499.701	2105.06
499.918	2152.06
500.135	2281.06
500.352	2394.06
500.569	2431.06
500.786	2406.06
501.003	2341.06
501.22	2255.06
501.437	2070.06
501.654	1973.06
501.871	1895.06
502.088	1799.06
502.305	1736.06
502.522	1689.06
502.739	1639.06
502.956	1578.06
503.172	1521.06
503.389	1538.06
503.606	1497.06
503.823	1445.06
504.04	1469.06
504.256	1473.06
504.473	1475.06
504.69	1447.06
504.907	1447.06
505.123	1396.06
505.34	1373.06
505.557	1343.06
505.773	1351.06
505.99	1349.06
506.207	1305.06
506.423	1267.06
506.64	1256.06
506.856	1261.06
507.073	1285.06
507.289	1252.06
507.506	1235.06
507.722	1230.06
507.939	1224.06
508.155	1235.06
508.372	1194.06
508.588	1193.06
508.805	1187.06
509.021	1205.06
509.238	1198.06
509.454	1287.06
509.67	1329.06
509.887	1252.06
510.103	1243.06
510.319	1164.06
510.536	1177.06
510.752	1181.06
510.968	1146.06
511.184	1153.06
511.401	1190.06
511.617	1159.06
511.833	1179.06
512.049	1157.06
512.265	1160.06
512.481	1144.06
512.698	1150.06
512.914	1116.06
513.13	1185.06
513.346	1148.06
513.562	1137.06
513.778	1154.06
513.994	1182.06
514.21	1245.06
514.426	1228.06
514.642	1243.06
514.858	1180.06
515.074	1183.06
515.29	1161.06
515.506	1165.06
515.721	1219.06
515.937	1179.06
516.153	1185.06
516.369	1183.06
516.585	1193.06
516.801	1211.06
517.016	1242.06
517.232	1270.06
517.448	1284.06
517.664	1311.06
517.879	1297.06
518.095	1322.06
518.311	1302.06
518.527	1276.06
518.742	1281.06
518.958	1287.06
519.173	1283.06
519.389	1265.06
519.605	1192.06
519.82	1181.06
520.036	1175.06
520.251	1173.06
520.467	1185.06
520.682	1162.06
520.898	1126.06
521.113	1125.06
521.329	1158.06
521.544	1139.06
521.76	1153.06
521.975	1144.06
522.19	1138.06
522.406	1118.06
522.621	1115.06
522.836	1124.06
523.052	1107.06
523.267	1142.06
523.482	1100.06
523.698	1132.06
523.913	1128.06
524.128	1115.06
524.343	1128.06
524.559	1141.06
524.774	1128.06
524.989	1125.06
525.204	1107.06
525.419	1101.06
525.634	1105.06
525.849	1109.06
526.064	1120.06
526.28	1110.06
526.495	1107.06
526.71	1127.06
526.925	1121.06
527.14	1118.06
527.355	1118.06
527.57	1138.06
527.785	1109.06
527.999	1113.06
528.214	1147.06
528.429	1159.06
528.644	1170.06
528.859	1161.06
529.074	1190.06
529.289	1213.06
529.503	1198.06
529.718	1187.06
529.933	1173.06
530.148	1171.06
530.363	1180.06
530.577	1176.06
530.792	1191.06
531.007	1183.06
531.221	1153.06
531.436	1173.06
531.651	1198.06
531.865	1217.06
532.08	1207.06
532.295	1234.06
532.509	1272.06
532.724	1275.06
532.938	1275.06
533.153	1330.06
533.367	1386.06
533.582	1445.06
533.796	1417.06
534.011	1436.06
534.225	1372.06
534.44	1340.06
534.654	1345.06
534.868	1323.06
535.083	1302.06
535.297	1281.06
535.511	1228.06
535.726	1245.06
535.94	1194.06
536.154	1205.06
536.369	1189.06
536.583	1161.06
536.797	1197.06
537.011	1143.06
537.225	1127.06
537.44	1132.06
537.654	1132.06
537.868	1111.06
538.082	1143.06
538.296	1081.06
538.51	1109.06
538.724	1130.06
538.938	1079.06
539.153	1109.06
539.367	1118.06
539.581	1098.06
539.795	1077.06
540.009	1061.06
540.222	1090.06
540.436	1105.06
540.65	1061.06
540.864	1086.06
541.078	1085.06
541.292	1152.06
541.506	1309.06
541.72	1363.06
541.934	1217.06
542.147	1213.06
542.361	1157.06
542.575	1114.06
542.789	1103.06
543.002	1070.06
543.216	1035.06
543.43	1061.06
543.644	1049.06
543.857	1058.06
544.071	1089.06
544.285	1100.06
544.498	1101.06
544.712	1086.06
544.925	1073.06
545.139	1107.06
545.352	1059.06
545.566	1101.06
545.779	1093.06
545.993	1121.06
546.206	1092.06
546.42	1079.06
546.633	1123.06
546.847	1081.06
547.06	1096.06
547.274	1101.06
547.487	1101.06
547.7	1089.06
547.914	1094.06
548.127	1100.06
548.34	1093.06
548.554	1089.06
548.767	1103.06
548.98	1104.06
549.193	1085.06
549.407	1079.06
549.62	1057.06
549.833	1105.06
550.046	1067.06
550.259	1102.06
550.473	1081.06
550.686	1103.06
550.899	1093.06
551.112	1082.06
551.325	1076.06
551.538	1085.06
551.751	1059.06
551.964	1081.06
552.177	1060.06
552.39	1095.06
552.603	1123.06
552.816	1127.06
553.029	1154.06
553.242	1153.06
553.455	1159.06
553.667	1206.06
553.88	1168.06
554.093	1181.06
554.306	1149.06
554.519	1205.06
554.732	1214.06
554.944	1195.06
555.157	1215.06
555.37	1258.06
555.583	1329.06
555.795	1345.06
556.008	1398.06
556.221	1465.06
556.433	1513.06
556.646	1556.06
556.859	1492.06
557.071	1487.06
557.284	1502.06
557.496	1463.06
557.709	1418.06
557.921	1405.06
558.134	1442.06
558.346	1423.06
558.559	1442.06
558.771	1491.06
558.984	1591.06
559.196	1666.06
559.409	1617.06
559.621	1531.06
559.833	1458.06
560.046	1418.06
560.258	1370.06
560.47	1337.06
560.683	1287.06
560.895	1265.06
561.107	1205.06
561.32	1201.06
561.532	1188.06
561.744	1133.06
561.956	1110.06
562.168	1092.06
562.381	1115.06
562.593	1079.06
562.805	1099.06
563.017	1130.06
563.229	1078.06
563.441	1163.06
563.653	1067.06
563.865	1030.06
564.077	1000.06
564.289	989.06
564.501	1025.06
564.713	1001.06
564.925	1040.06
565.137	979.06
565.349	981.06
565.561	990.06
565.773	1005.06
565.985	1004.06
566.197	1018.06
566.408	1067.06
566.62	1071.06
566.832	1128.06
567.044	1103.06
567.255	1105.06
567.467	1095.06
567.679	1123.06
567.891	1180.06
568.102	1259.06
568.314	1411.06
568.526	1241.06
568.737	1097.06
568.949	1019.06
569.161	947.06
569.372	915.06
569.584	923.06
569.795	895.06
570.007	848.06
570.218	905.06
570.43	917.06
570.641	854.06
570.853	846.06
571.064	843.06
571.276	861.06
571.487	836.06
571.698	804.06
571.91	834.06
572.121	797.06
572.333	790.06
572.544	773.06
572.755	802.06
572.966	897.06
573.178	859.06
573.389	796.06
573.6	759.06
573.811	742.06
574.023	721.06
574.234	727.06
574.445	740.06
574.656	748.06
574.867	716.06
575.078	707.06
575.289	737.06
575.501	719.06
575.712	735.06
575.923	730.06
576.134	714.06
576.345	744.06
576.556	732.06
576.767	727.06
576.978	734.06
577.188	726.06
577.399	734.06
577.61	724.06
577.821	734.06
578.032	764.06
578.243	754.06
578.454	777.06
578.665	797.06
578.875	791.06
579.086	803.06
579.297	841.06
579.508	881.06
579.718	919.06
579.929	986.06
580.14	1087.06
580.35	1115.06
580.561	1044.06
580.772	1007.06
580.982	985.06
581.193	930.06
581.403	873.06
581.614	844.06
581.825	837.06
582.035	801.06
582.246	746.06
582.456	749.06
582.667	733.06
582.877	732.06
583.087	732.06
583.298	710.06
583.508	679.06
583.719	669.06
583.929	677.06
584.139	645.06
584.35	636.06
584.56	649.06
584.77	633.06
584.981	629.06
585.191	642.06
585.401	610.06
585.611	585.06
585.821	593.06
586.032	583.06
586.242	581.06
586.452	574.06
586.662	587.06
586.872	575.06
587.082	563.06
587.292	565.06
587.502	537.06
587.713	528.06
587.923	539.06
588.133	554.06
588.343	549.06
588.553	548.06
588.762	549.06
588.972	551.06
589.182	531.06
589.392	537.06
589.602	528.06
589.812	517.06
590.022	526.06
590.232	532.06
590.441	532.06
590.651	555.06
590.861	531.06
591.071	522.06
591.281	532.06
591.49	535.06
591.7	517.06
591.91	542.06
592.119	537.06
592.329	530.06
592.539	522.06
592.748	554.06
592.958	535.06
593.167	539.06
593.377	538.06
593.587	568.06
593.796	560.06
594.006	526.06
594.215	559.06
594.424	556.06
594.634	533.06
594.843	526.06
595.053	541.06
595.262	514.06
595.472	492.06
595.681	500.06
595.89	491.06
596.1	507.06
596.309	462.06
596.518	477.06
596.727	476.06
596.937	476.06
597.146	478.06
597.355	459.06
597.564	462.06
597.774	464.06
597.983	445.06
598.192	429.06
598.401	458.06
598.61	441.06
598.819	444.06
599.028	456.06
599.237	445.06
599.446	438.06
599.655	437.06
599.864	422.06
600.073	443.06
600.282	428.06
600.491	435.06
600.7	443.06
600.909	415.06
601.118	450.06
601.327	431.06
601.536	451.06
601.745	445.06
601.953	470.06
602.162	525.06
602.371	483.06
602.58	456.06
602.789	429.06
602.997	441.06
603.206	430.06
603.415	435.06
603.623	417.06
603.832	431.06
604.041	412.06
604.249	418.06
604.458	408.06
604.666	412.06
604.875	403.06
605.084	407.06
605.292	404.06
605.501	419.06
605.709	411.06
605.918	420.06
606.126	427.06
606.334	441.06
606.543	453.06
606.751	451.06
606.96	505.06
607.168	533.06
607.376	474.06
607.585	470.06
607.793	431.06
608.001	422.06
608.21	409.06
608.418	397.06
608.626	413.06
608.834	397.06
609.043	405.06
609.251	399.06
609.459	400.06
609.667	414.06
609.875	402.06
610.083	399.06
610.291	411.06
610.499	413.06
610.707	403.06
610.916	389.06
611.124	407.06
611.332	409.06
611.54	382.06
611.748	411.06
611.955	381.06
612.163	408.06
612.371	409.06
612.579	382.06
612.787	380.06
612.995	384.06
613.203	380.06
613.411	411.06
613.618	364.06
613.826	376.06
614.034	397.06
614.242	387.06
614.449	373.06
614.657	380.06
614.865	375.06
615.072	395.06
615.28	394.06
615.488	393.06
615.695	389.06
615.903	379.06
616.111	398.06
616.318	383.06
616.526	351.06
616.733	379.06
616.941	365.06
617.148	373.06
617.356	375.06
617.563	362.06
617.771	355.06
617.978	374.06
618.185	381.06
618.393	384.06
618.6	383.06
618.807	364.06
619.015	355.06
619.222	352.06
619.429	362.06
619.637	363.06
619.844	339.06
620.051	340.06
620.258	351.06
620.466	351.06
620.673	346.06
620.88	334.06
621.087	329.06
621.294	318.06
621.501	316.06
621.708	335.06
621.915	357.06
622.122	362.06
622.329	352.06
622.536	330.06
622.743	359.06
622.95	341.06
623.157	343.06
623.364	347.06
623.571	330.06
623.778	345.06
623.985	337.06
624.192	345.06
624.399	355.06
624.606	347.06
624.812	316.06
625.019	326.06
625.226	319.06
625.433	326.06
625.639	314.06
625.846	327.06
626.053	302.06
626.259	317.06
626.466	314.06
626.673	313.06
626.879	310.06
627.086	295.06
627.293	293.06
627.499	338.06
627.706	313.06
627.912	329.06
628.119	330.06
628.325	353.06
628.532	317.06
628.738	317.06
628.945	310.06
629.151	309.06
629.357	320.06
629.564	326.06
629.77	310.06
629.976	322.06
630.183	309.06
630.389	317.06
630.595	300.06
630.802	287.06
631.008	303.06
631.214	309.06
631.42	333.06
631.627	290.06
631.833	301.06
632.039	293.06
632.245	318.06
632.451	289.06
632.657	315.06
632.863	296.06
633.069	293.06
633.275	310.06
633.481	291.06
633.688	276.06
633.893	298.06
634.099	285.06
634.305	312.06
634.511	298.06
634.717	285.06
634.923	301.06
635.129	326.06
635.335	365.06
635.541	325.06
635.747	327.06
635.952	299.06
636.158	295.06
636.364	302.06
636.57	305.06
636.775	289.06
636.981	274.06
637.187	305.06
637.392	302.06
637.598	313.06
637.804	299.06
638.009	305.06
638.215	294.06
638.421	293.06
638.626	285.06
638.832	295.06
639.037	289.06
639.243	297.06
639.448	314.06
639.654	310.06
639.859	297.06
640.065	301.06
640.27	313.06
640.475	288.06
640.681	290.06
640.886	335.06
641.091	313.06
641.297	299.06
641.502	311.06
641.707	307.06
641.913	315.06
642.118	346.06
642.323	311.06
642.528	328.06
642.733	337.06
642.939	343.06
643.144	349.06
643.349	365.06
643.554	354.06
643.759	377.06
643.964	383.06
644.169	388.06
644.374	403.06
644.579	421.06
644.784	462.06
644.989	486.06
645.194	564.06
645.399	643.06
645.604	669.06
645.809	544.06
646.014	461.06
646.219	411.06
646.423	379.06
646.628	351.06
646.833	337.06
647.038	325.06
647.243	324.06
647.447	307.06
647.652	327.06
647.857	286.06
648.062	309.06
648.266	298.06
648.471	292.06
648.676	277.06
648.88	276.06
649.085	263.06
649.289	276.06
649.494	278.06
649.698	271.06
649.903	251.06
650.107	259.06
650.312	258.06
650.516	236.06
650.721	246.06
650.925	238.06
651.13	249.06
651.334	243.06
651.539	239.06
651.743	230.06
651.947	242.06
652.152	232.06
652.356	222.06
652.56	244.06
652.764	241.06
652.969	245.06
653.173	226.06
653.377	211.06
653.581	206.06
653.785	222.06
653.99	221.06
654.194	197.06
654.398	201.06
654.602	189.06
654.806	206.06
655.01	228.06
655.214	201.06
655.418	200.06
655.622	209.06
655.826	191.06
656.03	209.06
656.234	206.06
656.438	218.06
656.642	216.06
656.846	207.06
657.049	206.06
657.253	199.06
657.457	193.06
657.661	187.06
657.865	163.06
658.068	183.06
658.272	144.06
658.476	155.06
658.68	137.06
658.883	129.06
659.087	151.06
659.291	135.06
659.494	127.06
659.698	129.06
659.901	125.06
660.105	123.06
660.309	124.06
660.512	125.06
660.716	118.06
660.919	112.06
661.123	109.06
661.326	107.06
661.53	92.06
661.733	97.06
661.936	115.06
662.14	102.06
662.343	109.06
662.546	97.06
662.75	92.06
662.953	99.06
663.156	108.06
663.36	80.06
663.563	88.06
663.766	99.06
663.969	94.06
664.173	85.06
664.376	90.06
664.579	86.06
664.782	86.06
664.985	85.06
665.188	85.06
665.391	81.06
665.594	82.06
665.797	94.06
666	91.06
666.203	81.06
666.406	92.06
666.609	76.06
666.812	90.06
667.015	79.06
667.218	86.06
667.421	85.06
667.624	86.06
667.827	91.06
668.03	91.06
668.232	76.06
668.435	89.06
668.638	83.06
668.841	101.06
669.043	97.06
669.246	82.06
669.449	88.06
669.651	83.06
669.854	81.06
670.057	94.06
670.259	76.06
670.462	84.06
670.665	87.06
670.867	92.06
671.07	101.06
671.272	82.06
671.475	79.06
671.677	86.06
671.88	99.06
672.082	92.06
672.284	85.06
672.487	93.06
672.689	91.06
672.892	80.06
