Data from SnStandardFlinnAPT0064_LampEnergy5.5_LIBS07252019.E.O._I.C._HRD10591_15-17-13-492.txt Node
Date: Thu Jul 25 15:17:13 EDT 2019
User: cochatt
Spectrometer: HR+D1059
Trigger mode: 1
Integration Time (sec): 1.000000E-1
Scans to average: 1
Electric dark correction enabled: true
Nonlinearity correction enabled: false
Boxcar width: 0
XAxis mode: Wavelengths
Number of Pixels in Spectrum: 2048
>>>>>Begin Spectral Data<<<<<
223.165	-7.44
223.4	-7.44
223.635	-7.44
223.869	-13.44
224.104	-17.44
224.338	-16.44
224.573	-12.44
224.808	-12.44
225.042	-4.44
225.277	-16.44
225.511	-6.44
225.746	11.56
225.98	3.56
226.215	18.56
226.449	7.56
226.683	15.56
226.918	17.56
227.152	32.56
227.387	30.56
227.621	49.56
227.856	59.56
228.09	47.56
228.324	57.56
228.559	68.56
228.793	92.56
229.027	144.56
229.262	180.56
229.496	161.56
229.73	157.56
229.964	162.56
230.199	170.56
230.433	178.56
230.667	179.56
230.901	163.56
231.136	189.56
231.37	190.56
231.604	201.56
231.838	223.56
232.072	252.56
232.306	285.56
232.541	219.56
232.775	214.56
233.009	227.56
233.243	207.56
233.477	243.56
233.711	263.56
233.945	294.56
234.179	261.56
234.413	240.56
234.647	232.56
234.881	235.56
235.115	267.56
235.349	304.56
235.583	366.56
235.817	479.56
236.051	477.56
236.285	323.56
236.519	256.56
236.753	233.56
236.987	263.56
237.221	268.56
237.455	240.56
237.689	244.56
237.922	227.56
238.156	223.56
238.39	232.56
238.624	235.56
238.858	249.56
239.091	243.56
239.325	236.56
239.559	240.56
239.793	264.56
240.027	259.56
240.26	261.56
240.494	279.56
240.728	297.56
240.961	297.56
241.195	308.56
241.429	329.56
241.662	327.56
241.896	364.56
242.13	444.56
242.363	547.56
242.597	698.56
242.83	687.56
243.064	688.56
243.298	802.56
243.531	682.56
243.765	432.56
243.998	358.56
244.232	335.56
244.465	324.56
244.699	311.56
244.932	319.56
245.166	304.56
245.399	313.56
245.633	320.56
245.866	324.56
246.099	319.56
246.333	326.56
246.566	319.56
246.8	313.56
247.033	316.56
247.266	296.56
247.5	318.56
247.733	336.56
247.966	320.56
248.2	355.56
248.433	409.56
248.666	439.56
248.899	394.56
249.133	384.56
249.366	388.56
249.599	434.56
249.832	456.56
250.066	471.56
250.299	397.56
250.532	373.56
250.765	332.56
250.998	370.56
251.231	340.56
251.465	345.56
251.698	345.56
251.931	345.56
252.164	355.56
252.397	354.56
252.63	359.56
252.863	372.56
253.096	367.56
253.329	356.56
253.562	379.56
253.795	369.56
254.028	370.56
254.261	363.56
254.494	420.56
254.727	456.56
254.96	544.56
255.193	551.56
255.426	441.56
255.659	392.56
255.892	382.56
256.124	404.56
256.357	400.56
256.59	400.56
256.823	449.56
257.056	506.56
257.289	590.56
257.521	629.56
257.754	545.56
257.987	454.56
258.22	430.56
258.452	418.56
258.685	464.56
258.918	442.56
259.151	471.56
259.383	478.56
259.616	534.56
259.849	552.56
260.081	478.56
260.314	468.56
260.547	442.56
260.779	448.56
261.012	467.56
261.244	450.56
261.477	469.56
261.71	450.56
261.942	472.56
262.175	495.56
262.407	488.56
262.64	495.56
262.872	508.56
263.105	527.56
263.337	561.56
263.57	594.56
263.802	601.56
264.035	612.56
264.267	630.56
264.499	629.56
264.732	650.56
264.964	678.56
265.197	676.56
265.429	648.56
265.661	636.56
265.894	719.56
266.126	784.56
266.358	866.56
266.591	866.56
266.823	726.56
267.055	670.56
267.287	614.56
267.52	610.56
267.752	626.56
267.984	596.56
268.216	580.56
268.448	583.56
268.681	567.56
268.913	580.56
269.145	582.56
269.377	568.56
269.609	583.56
269.841	592.56
270.073	611.56
270.306	731.56
270.538	946.56
270.77	1390.56
271.002	1718.56
271.234	1211.56
271.466	793.56
271.698	673.56
271.93	615.56
272.162	580.56
272.394	593.56
272.626	560.56
272.858	554.56
273.09	595.56
273.322	553.56
273.553	562.56
273.785	584.56
274.017	565.56
274.249	550.56
274.481	550.56
274.713	558.56
274.945	560.56
275.176	572.56
275.408	560.56
275.64	577.56
275.872	563.56
276.104	582.56
276.335	577.56
276.567	579.56
276.799	588.56
277.031	571.56
277.262	603.56
277.494	616.56
277.726	668.56
277.957	787.56
278.189	875.56
278.421	817.56
278.652	754.56
278.884	726.56
279.115	640.56
279.347	652.56
279.579	620.56
279.81	615.56
280.042	607.56
280.273	639.56
280.505	650.56
280.736	659.56
280.968	702.56
281.199	747.56
281.431	835.56
281.662	866.56
281.894	757.56
282.125	687.56
282.356	730.56
282.588	744.56
282.819	747.56
283.051	802.56
283.282	885.56
283.513	1090.56
283.745	1542.56
283.976	2496.56
284.207	3606.56
284.439	3164.56
284.67	1889.56
284.901	1504.56
285.132	1457.56
285.364	1410.56
285.595	1134.56
285.826	1040.56
286.057	1247.56
286.288	1685.56
286.52	2250.56
286.751	2094.56
286.982	1264.56
287.213	937.56
287.444	844.56
287.675	812.56
287.906	786.56
288.138	779.56
288.369	743.56
288.6	750.56
288.831	770.56
289.062	746.56
289.293	752.56
289.524	738.56
289.755	735.56
289.986	734.56
290.217	750.56
290.448	754.56
290.679	753.56
290.91	788.56
291.141	808.56
291.371	832.56
291.602	852.56
291.833	827.56
292.064	770.56
292.295	724.56
292.526	726.56
292.757	714.56
292.987	720.56
293.218	700.56
293.449	700.56
293.68	694.56
293.91	699.56
294.141	705.56
294.372	710.56
294.603	707.56
294.833	702.56
295.064	688.56
295.295	707.56
295.525	696.56
295.756	696.56
295.987	720.56
296.217	700.56
296.448	696.56
296.679	696.56
296.909	699.56
297.14	714.56
297.37	727.56
297.601	739.56
297.831	726.56
298.062	734.56
298.292	731.56
298.523	737.56
298.753	745.56
298.984	748.56
299.214	750.56
299.445	772.56
299.675	777.56
299.905	796.56
300.136	847.56
300.366	956.56
300.597	1164.56
300.827	1664.56
301.057	2214.56
301.288	2219.56
301.518	1398.56
301.748	1080.56
301.979	976.56
302.209	960.56
302.439	995.56
302.669	1023.56
302.9	1235.56
303.13	1729.56
303.36	2575.56
303.59	3478.56
303.82	3003.56
304.051	1716.56
304.281	1229.56
304.511	1034.56
304.741	950.56
304.971	908.56
305.201	874.56
305.431	879.56
305.661	866.56
305.891	848.56
306.121	823.56
306.352	827.56
306.582	830.56
306.812	830.56
307.042	829.56
307.272	807.56
307.502	818.56
307.731	800.56
307.961	812.56
308.191	804.56
308.421	809.56
308.651	832.56
308.881	823.56
309.111	820.56
309.341	832.56
309.571	822.56
309.8	834.56
310.03	810.56
310.26	849.56
310.49	820.56
310.72	845.56
310.949	852.56
311.179	848.56
311.409	829.56
311.639	852.56
311.868	850.56
312.098	875.56
312.328	870.56
312.557	865.56
312.787	874.56
313.017	886.56
313.246	888.56
313.476	891.56
313.706	929.56
313.935	971.56
314.165	986.56
314.394	1045.56
314.624	989.56
314.853	964.56
315.083	963.56
315.312	951.56
315.542	948.56
315.771	960.56
316.001	987.56
316.23	1000.56
316.46	1036.56
316.689	1137.56
316.919	1344.56
317.148	1984.56
317.377	3059.56
317.607	4600.56
317.836	4694.56
318.065	2671.56
318.295	1790.56
318.524	1399.56
318.753	1228.56
318.983	1128.56
319.212	1055.56
319.441	1066.56
319.67	1064.56
319.9	1047.56
320.129	983.56
320.358	1028.56
320.587	1015.56
320.816	1023.56
321.046	1048.56
321.275	1032.56
321.504	1030.56
321.733	1068.56
321.962	1063.56
322.191	1108.56
322.42	1074.56
322.649	1099.56
322.878	1078.56
323.108	1048.56
323.337	1101.56
323.566	1123.56
323.795	1116.56
324.024	1126.56
324.253	1146.56
324.482	1191.56
324.71	1254.56
324.939	1367.56
325.168	1354.56
325.397	1430.56
325.626	1655.56
325.855	2340.56
326.084	3762.56
326.313	5580.56
326.542	5899.56
326.77	3729.56
326.999	2352.56
327.228	1959.56
327.457	1891.56
327.686	1926.56
327.914	2048.56
328.143	2319.56
328.372	2714.56
328.6	2956.56
328.829	2712.56
329.058	2292.56
329.287	2058.56
329.515	1918.56
329.744	1734.56
329.972	1693.56
330.201	1622.56
330.43	1524.56
330.658	1520.56
330.887	1511.56
331.115	1486.56
331.344	1470.56
331.572	1477.56
331.801	1478.56
332.03	1477.56
332.258	1499.56
332.486	1569.56
332.715	1808.56
332.943	2174.56
333.172	2660.56
333.4	2694.56
333.629	2053.56
333.857	1858.56
334.085	1882.56
334.314	1913.56
334.542	2107.56
334.771	2424.56
334.999	2893.56
335.227	3530.56
335.455	3944.56
335.684	3636.56
335.912	3030.56
336.14	2670.56
336.369	2386.56
336.597	2165.56
336.825	2010.56
337.053	1875.56
337.281	1790.56
337.51	1706.56
337.738	1641.56
337.966	1624.56
338.194	1543.56
338.422	1501.56
338.65	1468.56
338.878	1422.56
339.106	1426.56
339.334	1383.56
339.562	1375.56
339.79	1346.56
340.018	1323.56
340.246	1352.56
340.474	1292.56
340.702	1293.56
340.93	1311.56
341.158	1305.56
341.386	1281.56
341.614	1289.56
341.842	1275.56
342.07	1217.56
342.298	1238.56
342.526	1212.56
342.754	1206.56
342.981	1191.56
343.209	1220.56
343.437	1200.56
343.665	1209.56
343.893	1238.56
344.12	1213.56
344.348	1218.56
344.576	1182.56
344.804	1190.56
345.031	1190.56
345.259	1162.56
345.487	1149.56
345.714	1122.56
345.942	1141.56
346.17	1115.56
346.397	1128.56
346.625	1138.56
346.853	1100.56
347.08	1098.56
347.308	1141.56
347.535	1092.56
347.763	1140.56
347.99	1125.56
348.218	1097.56
348.445	1096.56
348.673	1099.56
348.9	1112.56
349.128	1081.56
349.355	1046.56
349.583	1059.56
349.81	1074.56
350.037	1056.56
350.265	1078.56
350.492	1058.56
350.72	1078.56
350.947	1053.56
351.174	1087.56
351.402	1099.56
351.629	1061.56
351.856	1052.56
352.083	1076.56
352.311	1074.56
352.538	1071.56
352.765	1064.56
352.992	1030.56
353.22	1046.56
353.447	1061.56
353.674	1066.56
353.901	1079.56
354.128	1070.56
354.355	1070.56
354.583	1077.56
354.81	1080.56
355.037	1053.56
355.264	1072.56
355.491	1084.56
355.718	1096.56
355.945	1093.56
356.172	1097.56
356.399	1107.56
356.626	1122.56
356.853	1117.56
357.08	1086.56
357.307	1112.56
357.534	1130.56
357.761	1109.56
357.988	1129.56
358.215	1161.56
358.441	1143.56
358.668	1114.56
358.895	1107.56
359.122	1134.56
359.349	1128.56
359.576	1119.56
359.802	1123.56
360.029	1134.56
360.256	1114.56
360.483	1129.56
360.709	1124.56
360.936	1159.56
361.163	1137.56
361.39	1134.56
361.616	1158.56
361.843	1157.56
362.07	1150.56
362.296	1139.56
362.523	1118.56
362.749	1158.56
362.976	1139.56
363.203	1124.56
363.429	1123.56
363.656	1130.56
363.882	1118.56
364.109	1134.56
364.335	1138.56
364.562	1139.56
364.788	1115.56
365.015	1157.56
365.241	1161.56
365.468	1202.56
365.694	1252.56
365.92	1222.56
366.147	1162.56
366.373	1159.56
366.599	1135.56
366.826	1128.56
367.052	1147.56
367.278	1158.56
367.505	1139.56
367.731	1156.56
367.957	1155.56
368.184	1166.56
368.41	1158.56
368.636	1187.56
368.862	1139.56
369.089	1177.56
369.315	1198.56
369.541	1178.56
369.767	1157.56
369.993	1155.56
370.219	1164.56
370.445	1219.56
370.672	1224.56
370.898	1204.56
371.124	1187.56
371.35	1191.56
371.576	1201.56
371.802	1225.56
372.028	1214.56
372.254	1214.56
372.48	1239.56
372.706	1234.56
372.932	1270.56
373.158	1239.56
373.384	1237.56
373.61	1233.56
373.835	1236.56
374.061	1249.56
374.287	1248.56
374.513	1270.56
374.739	1272.56
374.965	1271.56
375.191	1296.56
375.416	1267.56
375.642	1268.56
375.868	1274.56
376.094	1221.56
376.319	1250.56
376.545	1243.56
376.771	1218.56
376.997	1242.56
377.222	1208.56
377.448	1209.56
377.674	1205.56
377.899	1234.56
378.125	1227.56
378.35	1198.56
378.576	1232.56
378.802	1209.56
379.027	1252.56
379.253	1252.56
379.478	1355.56
379.704	1553.56
379.929	2188.56
380.155	3338.56
380.38	3613.56
380.606	2170.56
380.831	1530.56
381.057	1362.56
381.282	1284.56
381.507	1252.56
381.733	1230.56
381.958	1238.56
382.184	1191.56
382.409	1198.56
382.634	1200.56
382.86	1201.56
383.085	1179.56
383.31	1226.56
383.535	1219.56
383.761	1212.56
383.986	1204.56
384.211	1206.56
384.436	1214.56
384.662	1208.56
384.887	1212.56
385.112	1251.56
385.337	1253.56
385.562	1226.56
385.787	1254.56
386.013	1289.56
386.238	1254.56
386.463	1249.56
386.688	1273.56
386.913	1212.56
387.138	1270.56
387.363	1248.56
387.588	1217.56
387.813	1259.56
388.038	1169.56
388.263	1242.56
388.488	1243.56
388.713	1223.56
388.938	1245.56
389.163	1258.56
389.387	1284.56
389.612	1251.56
389.837	1283.56
390.062	1248.56
390.287	1253.56
390.512	1253.56
390.736	1272.56
390.961	1275.56
391.186	1306.56
391.411	1294.56
391.636	1332.56
391.86	1310.56
392.085	1316.56
392.31	1298.56
392.534	1322.56
392.759	1244.56
392.984	1268.56
393.208	1302.56
393.433	1347.56
393.658	1297.56
393.882	1255.56
394.107	1278.56
394.331	1274.56
394.556	1303.56
394.78	1275.56
395.005	1278.56
395.229	1276.56
395.454	1276.56
395.678	1291.56
395.903	1301.56
396.127	1318.56
396.352	1266.56
396.576	1307.56
396.801	1279.56
397.025	1304.56
397.249	1273.56
397.474	1315.56
397.698	1358.56
397.922	1318.56
398.147	1308.56
398.371	1332.56
398.595	1362.56
398.82	1388.56
399.044	1447.56
399.268	1481.56
399.492	1576.56
399.717	1666.56
399.941	1650.56
400.165	1584.56
400.389	1536.56
400.613	1468.56
400.837	1408.56
401.062	1403.56
401.286	1413.56
401.51	1413.56
401.734	1357.56
401.958	1374.56
402.182	1370.56
402.406	1369.56
402.63	1386.56
402.854	1412.56
403.078	1414.56
403.302	1417.56
403.526	1425.56
403.75	1393.56
403.974	1407.56
404.198	1407.56
404.422	1466.56
404.645	1420.56
404.869	1434.56
405.093	1426.56
405.317	1409.56
405.541	1414.56
405.765	1449.56
405.988	1444.56
406.212	1475.56
406.436	1462.56
406.66	1469.56
406.883	1446.56
407.107	1521.56
407.331	1538.56
407.555	1567.56
407.778	1490.56
408.002	1476.56
408.226	1525.56
408.449	1517.56
408.673	1458.56
408.896	1444.56
409.12	1419.56
409.344	1458.56
409.567	1428.56
409.791	1411.56
410.014	1458.56
410.238	1415.56
410.461	1406.56
410.685	1399.56
410.908	1422.56
411.132	1391.56
411.355	1371.56
411.578	1394.56
411.802	1367.56
412.025	1364.56
412.249	1373.56
412.472	1393.56
412.695	1376.56
412.919	1380.56
413.142	1354.56
413.365	1376.56
413.589	1340.56
413.812	1352.56
414.035	1364.56
414.258	1376.56
414.482	1360.56
414.705	1350.56
414.928	1339.56
415.151	1354.56
415.374	1343.56
415.597	1363.56
415.821	1323.56
416.044	1319.56
416.267	1310.56
416.49	1305.56
416.713	1296.56
416.936	1296.56
417.159	1280.56
417.382	1277.56
417.605	1286.56
417.828	1295.56
418.051	1321.56
418.274	1302.56
418.497	1303.56
418.72	1344.56
418.943	1353.56
419.166	1382.56
419.389	1447.56
419.611	1435.56
419.834	1375.56
420.057	1394.56
420.28	1325.56
420.503	1318.56
420.726	1319.56
420.948	1301.56
421.171	1295.56
421.394	1291.56
421.617	1328.56
421.839	1328.56
422.062	1340.56
422.285	1297.56
422.507	1307.56
422.73	1339.56
422.953	1348.56
423.175	1357.56
423.398	1311.56
423.621	1347.56
423.843	1321.56
424.066	1339.56
424.288	1328.56
424.511	1321.56
424.733	1317.56
424.956	1295.56
425.178	1312.56
425.401	1281.56
425.623	1305.56
425.846	1253.56
426.068	1285.56
426.291	1280.56
426.513	1246.56
426.735	1235.56
426.958	1227.56
427.18	1204.56
427.402	1224.56
427.625	1260.56
427.847	1228.56
428.069	1195.56
428.292	1225.56
428.514	1217.56
428.736	1236.56
428.958	1248.56
429.181	1195.56
429.403	1198.56
429.625	1204.56
429.847	1209.56
430.069	1206.56
430.292	1249.56
430.514	1296.56
430.736	1272.56
430.958	1255.56
431.18	1201.56
431.402	1223.56
431.624	1190.56
431.846	1176.56
432.068	1170.56
432.29	1206.56
432.512	1189.56
432.734	1182.56
432.956	1195.56
433.178	1243.56
433.4	1207.56
433.622	1206.56
433.844	1191.56
434.066	1194.56
434.287	1186.56
434.509	1222.56
434.731	1184.56
434.953	1227.56
435.175	1263.56
435.397	1250.56
435.618	1192.56
435.84	1176.56
436.062	1217.56
436.284	1187.56
436.505	1190.56
436.727	1176.56
436.949	1180.56
437.17	1186.56
437.392	1186.56
437.614	1165.56
437.835	1153.56
438.057	1142.56
438.278	1130.56
438.5	1186.56
438.721	1214.56
438.943	1225.56
439.165	1239.56
439.386	1227.56
439.608	1251.56
439.829	1233.56
440.05	1279.56
440.272	1278.56
440.493	1254.56
440.715	1254.56
440.936	1251.56
441.158	1262.56
441.379	1258.56
441.6	1321.56
441.822	1350.56
442.043	1403.56
442.264	1481.56
442.486	1363.56
442.707	1292.56
442.928	1291.56
443.149	1289.56
443.371	1289.56
443.592	1304.56
443.813	1291.56
444.034	1293.56
444.255	1318.56
444.476	1321.56
444.698	1352.56
444.919	1368.56
445.14	1488.56
445.361	1401.56
445.582	1313.56
445.803	1261.56
446.024	1294.56
446.245	1280.56
446.466	1286.56
446.687	1253.56
446.908	1280.56
447.129	1236.56
447.35	1203.56
447.571	1197.56
447.792	1198.56
448.013	1200.56
448.234	1182.56
448.455	1178.56
448.675	1216.56
448.896	1211.56
449.117	1254.56
449.338	1365.56
449.559	1427.56
449.779	1246.56
450	1154.56
450.221	1167.56
450.442	1169.56
450.662	1150.56
450.883	1164.56
451.104	1163.56
451.324	1131.56
451.545	1166.56
451.766	1172.56
451.986	1159.56
452.207	1230.56
452.428	1532.56
452.648	2154.56
452.869	1823.56
453.089	1350.56
453.31	1269.56
453.53	1278.56
453.751	1316.56
453.971	1390.56
454.192	1396.56
454.412	1198.56
454.633	1133.56
454.853	1118.56
455.073	1100.56
455.294	1123.56
455.514	1114.56
455.734	1089.56
455.955	1082.56
456.175	1080.56
456.395	1082.56
456.616	1091.56
456.836	1132.56
457.056	1107.56
457.276	1127.56
457.497	1179.56
457.717	1194.56
457.937	1152.56
458.157	1156.56
458.377	1167.56
458.598	1146.56
458.818	1187.56
459.038	1162.56
459.258	1180.56
459.478	1186.56
459.698	1185.56
459.918	1239.56
460.138	1274.56
460.358	1241.56
460.578	1264.56
460.798	1293.56
461.018	1264.56
461.238	1286.56
461.458	1282.56
461.678	1305.56
461.898	1360.56
462.118	1324.56
462.338	1351.56
462.558	1402.56
462.777	1410.56
462.997	1464.56
463.217	1521.56
463.437	1584.56
463.657	1589.56
463.876	1574.56
464.096	1495.56
464.316	1419.56
464.536	1439.56
464.755	1373.56
464.975	1366.56
465.195	1328.56
465.414	1278.56
465.634	1257.56
465.854	1202.56
466.073	1214.56
466.293	1233.56
466.512	1188.56
466.732	1233.56
466.951	1285.56
467.171	1337.56
467.391	1291.56
467.61	1231.56
467.829	1177.56
468.049	1209.56
468.268	1155.56
468.488	1170.56
468.707	1170.56
468.927	1144.56
469.146	1215.56
469.365	1190.56
469.585	1185.56
469.804	1198.56
470.023	1236.56
470.243	1232.56
470.462	1271.56
470.681	1316.56
470.901	1438.56
471.12	1696.56
471.339	1728.56
471.558	1438.56
471.777	1306.56
471.997	1232.56
472.216	1195.56
472.435	1188.56
472.654	1187.56
472.873	1147.56
473.092	1164.56
473.311	1200.56
473.53	1186.56
473.749	1233.56
473.968	1219.56
474.187	1223.56
474.406	1182.56
474.625	1175.56
474.844	1201.56
475.063	1218.56
475.282	1164.56
475.501	1206.56
475.72	1204.56
475.939	1199.56
476.158	1213.56
476.377	1247.56
476.596	1235.56
476.814	1226.56
477.033	1229.56
477.252	1237.56
477.471	1249.56
477.69	1319.56
477.908	1310.56
478.127	1302.56
478.346	1356.56
478.564	1365.56
478.783	1376.56
479.002	1384.56
479.22	1394.56
479.439	1396.56
479.658	1383.56
479.876	1407.56
480.095	1383.56
480.313	1404.56
480.532	1474.56
480.751	1433.56
480.969	1408.56
481.188	1392.56
481.406	1377.56
481.624	1392.56
481.843	1406.56
482.061	1391.56
482.28	1409.56
482.498	1391.56
482.717	1397.56
482.935	1465.56
483.153	1458.56
483.372	1483.56
483.59	1478.56
483.808	1475.56
484.027	1542.56
484.245	1603.56
484.463	1797.56
484.681	2034.56
484.9	1786.56
485.118	1676.56
485.336	1625.56
485.554	1672.56
485.772	1730.56
485.99	2007.56
486.209	2178.56
486.427	1784.56
486.645	1623.56
486.863	1589.56
487.081	1544.56
487.299	1528.56
487.517	1520.56
487.735	1473.56
487.953	1544.56
488.171	1532.56
488.389	1503.56
488.607	1483.56
488.825	1472.56
489.043	1431.56
489.261	1443.56
489.479	1438.56
489.696	1461.56
489.914	1480.56
490.132	1490.56
490.35	1498.56
490.568	1475.56
490.786	1487.56
491.003	1558.56
491.221	1578.56
491.439	1520.56
491.657	1569.56
491.874	1590.56
492.092	1610.56
492.31	1629.56
492.527	1567.56
492.745	1588.56
492.963	1590.56
493.18	1558.56
493.398	1573.56
493.615	1559.56
493.833	1553.56
494.05	1573.56
494.268	1602.56
494.485	1564.56
494.703	1559.56
494.92	1540.56
495.138	1552.56
495.355	1585.56
495.573	1572.56
495.79	1606.56
496.008	1561.56
496.225	1593.56
496.442	1593.56
496.66	1628.56
496.877	1705.56
497.094	1684.56
497.312	1655.56
497.529	1678.56
497.746	1683.56
497.963	1693.56
498.181	1716.56
498.398	1783.56
498.615	1807.56
498.832	1827.56
499.049	1962.56
499.267	2103.56
499.484	2257.56
499.701	2256.56
499.918	2351.56
500.135	2448.56
500.352	2580.56
500.569	2613.56
500.786	2596.56
501.003	2498.56
501.22	2379.56
501.437	2306.56
501.654	2131.56
501.871	2028.56
502.088	1947.56
502.305	1910.56
502.522	1850.56
502.739	1812.56
502.956	1734.56
503.172	1707.56
503.389	1676.56
503.606	1604.56
503.823	1607.56
504.04	1594.56
504.256	1660.56
504.473	1592.56
504.69	1582.56
504.907	1601.56
505.123	1536.56
505.34	1537.56
505.557	1469.56
505.773	1467.56
505.99	1458.56
506.207	1450.56
506.423	1407.56
506.64	1404.56
506.856	1402.56
507.073	1393.56
507.289	1398.56
507.506	1363.56
507.722	1383.56
507.939	1352.56
508.155	1369.56
508.372	1322.56
508.588	1318.56
508.805	1294.56
509.021	1331.56
509.238	1363.56
509.454	1415.56
509.67	1488.56
509.887	1392.56
510.103	1364.56
510.319	1308.56
510.536	1340.56
510.752	1297.56
510.968	1330.56
511.184	1287.56
511.401	1302.56
511.617	1264.56
511.833	1295.56
512.049	1248.56
512.265	1275.56
512.481	1247.56
512.698	1284.56
512.914	1245.56
513.13	1263.56
513.346	1244.56
513.562	1287.56
513.778	1259.56
513.994	1270.56
514.21	1334.56
514.426	1370.56
514.642	1452.56
514.858	1354.56
515.074	1268.56
515.29	1273.56
515.506	1272.56
515.721	1296.56
515.937	1308.56
516.153	1313.56
516.369	1327.56
516.585	1338.56
516.801	1364.56
517.016	1369.56
517.232	1360.56
517.448	1434.56
517.664	1462.56
517.879	1436.56
518.095	1442.56
518.311	1443.56
518.527	1395.56
518.742	1380.56
518.958	1426.56
519.173	1415.56
519.389	1411.56
519.605	1360.56
519.82	1308.56
520.036	1291.56
520.251	1303.56
520.467	1275.56
520.682	1247.56
520.898	1223.56
521.113	1264.56
521.329	1217.56
521.544	1249.56
521.76	1226.56
521.975	1237.56
522.19	1270.56
522.406	1233.56
522.621	1220.56
522.836	1232.56
523.052	1216.56
523.267	1209.56
523.482	1234.56
523.698	1214.56
523.913	1228.56
524.128	1227.56
524.343	1224.56
524.559	1223.56
524.774	1233.56
524.989	1238.56
525.204	1230.56
525.419	1219.56
525.634	1201.56
525.849	1210.56
526.064	1239.56
526.28	1196.56
526.495	1188.56
526.71	1222.56
526.925	1194.56
527.14	1234.56
527.355	1224.56
527.57	1240.56
527.785	1226.56
527.999	1219.56
528.214	1259.56
528.429	1291.56
528.644	1258.56
528.859	1283.56
529.074	1314.56
529.289	1324.56
529.503	1271.56
529.718	1335.56
529.933	1284.56
530.148	1270.56
530.363	1282.56
530.577	1278.56
530.792	1241.56
531.007	1315.56
531.221	1302.56
531.436	1329.56
531.651	1335.56
531.865	1333.56
532.08	1368.56
532.295	1376.56
532.509	1481.56
532.724	1460.56
532.938	1470.56
533.153	1494.56
533.367	1589.56
533.582	1676.56
533.796	1673.56
534.011	1571.56
534.225	1532.56
534.44	1491.56
534.654	1486.56
534.868	1438.56
535.083	1436.56
535.297	1398.56
535.511	1390.56
535.726	1372.56
535.94	1348.56
536.154	1322.56
536.369	1310.56
536.583	1303.56
536.797	1319.56
537.011	1254.56
537.225	1244.56
537.44	1271.56
537.654	1223.56
537.868	1269.56
538.082	1202.56
538.296	1195.56
538.51	1228.56
538.724	1196.56
538.938	1239.56
539.153	1218.56
539.367	1232.56
539.581	1196.56
539.795	1166.56
540.009	1152.56
540.222	1154.56
540.436	1163.56
540.65	1192.56
540.864	1200.56
541.078	1224.56
541.292	1292.56
541.506	1524.56
541.72	1613.56
541.934	1428.56
542.147	1349.56
542.361	1244.56
542.575	1186.56
542.789	1189.56
543.002	1198.56
543.216	1152.56
543.43	1146.56
543.644	1128.56
543.857	1148.56
544.071	1168.56
544.285	1171.56
544.498	1179.56
544.712	1182.56
544.925	1192.56
545.139	1177.56
545.352	1193.56
545.566	1180.56
545.779	1188.56
545.993	1214.56
546.206	1189.56
546.42	1164.56
546.633	1212.56
546.847	1205.56
547.06	1190.56
547.274	1189.56
547.487	1189.56
547.7	1192.56
547.914	1204.56
548.127	1200.56
548.34	1216.56
548.554	1178.56
548.767	1186.56
548.98	1198.56
549.193	1159.56
549.407	1180.56
549.62	1218.56
549.833	1192.56
550.046	1160.56
550.259	1193.56
550.473	1179.56
550.686	1194.56
550.899	1191.56
551.112	1174.56
551.325	1182.56
551.538	1151.56
551.751	1191.56
551.964	1185.56
552.177	1160.56
552.39	1199.56
552.603	1225.56
552.816	1217.56
553.029	1223.56
553.242	1299.56
553.455	1270.56
553.667	1300.56
553.88	1302.56
554.093	1276.56
554.306	1285.56
554.519	1319.56
554.732	1348.56
554.944	1340.56
555.157	1364.56
555.37	1392.56
555.583	1432.56
555.795	1489.56
556.008	1574.56
556.221	1706.56
556.433	1819.56
556.646	1817.56
556.859	1746.56
557.071	1748.56
557.284	1670.56
557.496	1636.56
557.709	1604.56
557.921	1586.56
558.134	1568.56
558.346	1602.56
558.559	1658.56
558.771	1730.56
558.984	1843.56
559.196	1916.56
559.409	1918.56
559.621	1778.56
559.833	1677.56
560.046	1583.56
560.258	1536.56
560.47	1449.56
560.683	1429.56
560.895	1381.56
561.107	1325.56
561.32	1281.56
561.532	1268.56
561.744	1282.56
561.956	1225.56
562.168	1223.56
562.381	1189.56
562.593	1204.56
562.805	1173.56
563.017	1202.56
563.229	1225.56
563.441	1371.56
563.653	1212.56
563.865	1155.56
564.077	1108.56
564.289	1078.56
564.501	1099.56
564.713	1068.56
564.925	1090.56
565.137	1107.56
565.349	1077.56
565.561	1115.56
565.773	1094.56
565.985	1102.56
566.197	1094.56
566.408	1130.56
566.62	1210.56
566.832	1198.56
567.044	1180.56
567.255	1201.56
567.467	1219.56
567.679	1264.56
567.891	1330.56
568.102	1450.56
568.314	1716.56
568.526	1421.56
568.737	1184.56
568.949	1133.56
569.161	1089.56
569.372	1023.56
569.584	982.56
569.795	952.56
570.007	960.56
570.218	997.56
570.43	1004.56
570.641	963.56
570.853	928.56
571.064	886.56
571.276	911.56
571.487	907.56
571.698	890.56
571.91	865.56
572.121	886.56
572.333	881.56
572.544	860.56
572.755	944.56
572.966	1094.56
573.178	965.56
573.389	862.56
573.6	848.56
573.811	808.56
574.023	807.56
574.234	792.56
574.445	793.56
574.656	794.56
574.867	784.56
575.078	783.56
575.289	794.56
575.501	802.56
575.712	774.56
575.923	771.56
576.134	798.56
576.345	820.56
576.556	792.56
576.767	789.56
576.978	780.56
577.188	780.56
577.399	799.56
577.61	789.56
577.821	789.56
578.032	822.56
578.243	792.56
578.454	850.56
578.665	836.56
578.875	825.56
579.086	892.56
579.297	942.56
579.508	960.56
579.718	1040.56
579.929	1157.56
580.14	1302.56
580.35	1350.56
580.561	1282.56
580.772	1162.56
580.982	1115.56
581.193	1051.56
581.403	988.56
581.614	960.56
581.825	906.56
582.035	882.56
582.246	845.56
582.456	865.56
582.667	826.56
582.877	807.56
583.087	779.56
583.298	753.56
583.508	713.56
583.719	739.56
583.929	726.56
584.139	700.56
584.35	696.56
584.56	668.56
584.77	690.56
584.981	690.56
585.191	671.56
585.401	665.56
585.611	646.56
585.821	663.56
586.032	631.56
586.242	635.56
586.452	616.56
586.662	634.56
586.872	628.56
587.082	599.56
587.292	597.56
587.502	601.56
587.713	587.56
587.923	610.56
588.133	592.56
588.343	595.56
588.553	579.56
588.762	557.56
588.972	588.56
589.182	567.56
589.392	587.56
589.602	564.56
589.812	593.56
590.022	564.56
590.232	565.56
590.441	553.56
590.651	558.56
590.861	572.56
591.071	578.56
591.281	548.56
591.49	554.56
591.7	572.56
591.91	566.56
592.119	576.56
592.329	585.56
592.539	570.56
592.748	573.56
592.958	584.56
593.167	596.56
593.377	588.56
593.587	596.56
593.796	575.56
594.006	588.56
594.215	606.56
594.424	574.56
594.634	568.56
594.843	564.56
595.053	568.56
595.262	570.56
595.472	548.56
595.681	549.56
595.89	527.56
596.1	500.56
596.309	519.56
596.518	514.56
596.727	516.56
596.937	504.56
597.146	487.56
597.355	485.56
597.564	497.56
597.774	480.56
597.983	487.56
598.192	491.56
598.401	475.56
598.61	469.56
598.819	448.56
599.028	475.56
599.237	469.56
599.446	476.56
599.655	504.56
599.864	448.56
600.073	461.56
600.282	487.56
600.491	462.56
600.7	462.56
600.909	490.56
601.118	474.56
601.327	464.56
601.536	487.56
601.745	497.56
601.953	533.56
602.162	598.56
602.371	509.56
602.58	483.56
602.789	469.56
602.997	466.56
603.206	466.56
603.415	483.56
603.623	463.56
603.832	450.56
604.041	464.56
604.249	450.56
604.458	444.56
604.666	443.56
604.875	427.56
605.084	446.56
605.292	449.56
605.501	459.56
605.709	464.56
605.918	460.56
606.126	455.56
606.334	449.56
606.543	466.56
606.751	500.56
606.96	554.56
607.168	626.56
607.376	516.56
607.585	485.56
607.793	457.56
608.001	453.56
608.21	454.56
608.418	454.56
608.626	431.56
608.834	434.56
609.043	460.56
609.251	438.56
609.459	424.56
609.667	439.56
609.875	442.56
610.083	433.56
610.291	434.56
610.499	423.56
610.707	427.56
610.916	419.56
611.124	427.56
611.332	394.56
611.54	404.56
611.748	423.56
611.955	417.56
612.163	417.56
612.371	421.56
612.579	414.56
612.787	423.56
612.995	412.56
613.203	413.56
613.411	407.56
613.618	417.56
613.826	420.56
614.034	414.56
614.242	407.56
614.449	425.56
614.657	400.56
614.865	407.56
615.072	375.56
615.28	411.56
615.488	404.56
615.695	394.56
615.903	414.56
616.111	414.56
616.318	414.56
616.526	404.56
616.733	417.56
616.941	402.56
617.148	424.56
617.356	408.56
617.563	392.56
617.771	385.56
617.978	381.56
618.185	405.56
618.393	374.56
618.6	372.56
618.807	391.56
619.015	399.56
619.222	394.56
619.429	404.56
619.637	378.56
619.844	385.56
620.051	391.56
620.258	384.56
620.466	382.56
620.673	353.56
620.88	374.56
621.087	379.56
621.294	361.56
621.501	369.56
621.708	372.56
621.915	373.56
622.122	372.56
622.329	379.56
622.536	376.56
622.743	371.56
622.95	361.56
623.157	366.56
623.364	355.56
623.571	344.56
623.778	364.56
623.985	356.56
624.192	367.56
624.399	376.56
624.606	355.56
624.812	352.56
625.019	347.56
625.226	333.56
625.433	365.56
625.639	342.56
625.846	326.56
626.053	330.56
626.259	330.56
626.466	323.56
626.673	336.56
626.879	318.56
627.086	311.56
627.293	325.56
627.499	337.56
627.706	349.56
627.912	339.56
628.119	325.56
628.325	337.56
628.532	330.56
628.738	326.56
628.945	325.56
629.151	332.56
629.357	326.56
629.564	328.56
629.77	320.56
629.976	338.56
630.183	316.56
630.389	320.56
630.595	321.56
630.802	329.56
631.008	318.56
631.214	313.56
631.42	304.56
631.627	322.56
631.833	305.56
632.039	315.56
632.245	328.56
632.451	314.56
632.657	296.56
632.863	332.56
633.069	312.56
633.275	313.56
633.481	291.56
633.688	325.56
633.893	309.56
634.099	327.56
634.305	296.56
634.511	317.56
634.717	322.56
634.923	320.56
635.129	344.56
635.335	385.56
635.541	370.56
635.747	334.56
635.952	330.56
636.158	310.56
636.364	318.56
636.57	318.56
636.775	307.56
636.981	338.56
637.187	302.56
637.392	294.56
637.598	339.56
637.804	322.56
638.009	320.56
638.215	317.56
638.421	321.56
638.626	315.56
638.832	324.56
639.037	318.56
639.243	307.56
639.448	330.56
639.654	333.56
639.859	325.56
640.065	337.56
640.27	318.56
640.475	317.56
640.681	324.56
640.886	337.56
641.091	332.56
641.297	321.56
641.502	327.56
641.707	325.56
641.913	354.56
642.118	342.56
642.323	361.56
642.528	359.56
642.733	363.56
642.939	361.56
643.144	379.56
643.349	362.56
643.554	398.56
643.759	395.56
643.964	402.56
644.169	433.56
644.374	472.56
644.579	505.56
644.784	537.56
644.989	610.56
645.194	696.56
645.399	804.56
645.604	859.56
645.809	653.56
646.014	512.56
646.219	454.56
646.423	402.56
646.628	380.56
646.833	391.56
647.038	346.56
647.243	342.56
647.447	308.56
647.652	345.56
647.857	297.56
648.062	306.56
648.266	300.56
648.471	311.56
648.676	304.56
648.88	286.56
649.085	301.56
649.289	303.56
649.494	283.56
649.698	280.56
649.903	280.56
650.107	280.56
650.312	266.56
650.516	266.56
650.721	273.56
650.925	256.56
651.13	264.56
651.334	262.56
651.539	240.56
651.743	230.56
651.947	234.56
652.152	269.56
652.356	246.56
652.56	254.56
652.764	305.56
652.969	251.56
653.173	242.56
653.377	225.56
653.581	235.56
653.785	218.56
653.99	218.56
654.194	217.56
654.398	218.56
654.602	216.56
654.806	206.56
655.01	214.56
655.214	223.56
655.418	204.56
655.622	214.56
655.826	195.56
656.03	214.56
656.234	224.56
656.438	233.56
656.642	252.56
656.846	248.56
657.049	227.56
657.253	204.56
657.457	186.56
657.661	190.56
657.865	186.56
658.068	163.56
658.272	167.56
658.476	152.56
658.68	154.56
658.883	142.56
659.087	136.56
659.291	153.56
659.494	151.56
659.698	122.56
659.901	116.56
660.105	124.56
660.309	129.56
660.512	113.56
660.716	119.56
660.919	115.56
661.123	117.56
661.326	108.56
661.53	117.56
661.733	102.56
661.936	99.56
662.14	94.56
662.343	95.56
662.546	112.56
662.75	101.56
662.953	86.56
663.156	84.56
663.36	93.56
663.563	89.56
663.766	88.56
663.969	81.56
664.173	77.56
664.376	81.56
664.579	77.56
664.782	98.56
664.985	86.56
665.188	88.56
665.391	81.56
665.594	79.56
665.797	82.56
666	95.56
666.203	82.56
666.406	66.56
666.609	81.56
666.812	91.56
667.015	73.56
667.218	73.56
667.421	72.56
667.624	99.56
667.827	97.56
668.03	92.56
668.232	83.56
668.435	79.56
668.638	71.56
668.841	91.56
669.043	71.56
669.246	77.56
669.449	75.56
669.651	75.56
669.854	77.56
670.057	78.56
670.259	74.56
670.462	91.56
670.665	82.56
670.867	86.56
671.07	90.56
671.272	90.56
671.475	96.56
671.677	90.56
671.88	96.56
672.082	81.56
672.284	82.56
672.487	92.56
672.689	80.56
672.892	87.56
