Data from SnStandardFlinnAPT0064_LampEnergy5.5_LIBS07252019.E.O._I.C._HRD10591_15-16-43-492.txt Node
Date: Thu Jul 25 15:16:43 EDT 2019
User: cochatt
Spectrometer: HR+D1059
Trigger mode: 1
Integration Time (sec): 1.000000E-1
Scans to average: 1
Electric dark correction enabled: true
Nonlinearity correction enabled: false
Boxcar width: 0
XAxis mode: Wavelengths
Number of Pixels in Spectrum: 2048
>>>>>Begin Spectral Data<<<<<
223.165	-21.31
223.4	-21.31
223.635	-21.31
223.869	-8.31
224.104	-28.31
224.338	-10.31
224.573	-12.31
224.808	-15.31
225.042	-16.31
225.277	-17.31
225.511	7.69
225.746	19.69
225.98	10.69
226.215	14.69
226.449	7.69
226.683	8.69
226.918	26.69
227.152	33.69
227.387	41.69
227.621	35.69
227.856	50.69
228.09	51.69
228.324	53.69
228.559	66.69
228.793	84.69
229.027	147.69
229.262	162.69
229.496	147.69
229.73	145.69
229.964	160.69
230.199	158.69
230.433	177.69
230.667	170.69
230.901	161.69
231.136	197.69
231.37	195.69
231.604	193.69
231.838	205.69
232.072	250.69
232.306	277.69
232.541	229.69
232.775	196.69
233.009	204.69
233.243	230.69
233.477	235.69
233.711	245.69
233.945	280.69
234.179	245.69
234.413	230.69
234.647	216.69
234.881	241.69
235.115	257.69
235.349	300.69
235.583	373.69
235.817	461.69
236.051	450.69
236.285	312.69
236.519	243.69
236.753	247.69
236.987	239.69
237.221	262.69
237.455	245.69
237.689	235.69
237.922	230.69
238.156	226.69
238.39	233.69
238.624	236.69
238.858	224.69
239.091	215.69
239.325	228.69
239.559	232.69
239.793	254.69
240.027	235.69
240.26	252.69
240.494	249.69
240.728	265.69
240.961	287.69
241.195	304.69
241.429	313.69
241.662	301.69
241.896	348.69
242.13	403.69
242.363	537.69
242.597	670.69
242.83	629.69
243.064	652.69
243.298	796.69
243.531	647.69
243.765	407.69
243.998	335.69
244.232	314.69
244.465	306.69
244.699	300.69
244.932	307.69
245.166	290.69
245.399	307.69
245.633	306.69
245.866	293.69
246.099	295.69
246.333	299.69
246.566	287.69
246.8	291.69
247.033	306.69
247.266	295.69
247.5	321.69
247.733	307.69
247.966	327.69
248.2	342.69
248.433	387.69
248.666	419.69
248.899	402.69
249.133	370.69
249.366	389.69
249.599	398.69
249.832	460.69
250.066	452.69
250.299	374.69
250.532	346.69
250.765	349.69
250.998	341.69
251.231	309.69
251.465	332.69
251.698	344.69
251.931	335.69
252.164	323.69
252.397	329.69
252.63	372.69
252.863	369.69
253.096	346.69
253.329	357.69
253.562	377.69
253.795	370.69
254.028	373.69
254.261	386.69
254.494	392.69
254.727	466.69
254.96	527.69
255.193	533.69
255.426	411.69
255.659	378.69
255.892	393.69
256.124	391.69
256.357	397.69
256.59	415.69
256.823	417.69
257.056	476.69
257.289	533.69
257.521	623.69
257.754	495.69
257.987	432.69
258.22	398.69
258.452	391.69
258.685	380.69
258.918	392.69
259.151	453.69
259.383	465.69
259.616	493.69
259.849	524.69
260.081	471.69
260.314	425.69
260.547	437.69
260.779	447.69
261.012	438.69
261.244	456.69
261.477	431.69
261.71	438.69
261.942	449.69
262.175	448.69
262.407	493.69
262.64	460.69
262.872	487.69
263.105	509.69
263.337	515.69
263.57	574.69
263.802	568.69
264.035	579.69
264.267	567.69
264.499	597.69
264.732	628.69
264.964	642.69
265.197	616.69
265.429	635.69
265.661	647.69
265.894	658.69
266.126	757.69
266.358	827.69
266.591	784.69
266.823	667.69
267.055	632.69
267.287	609.69
267.52	598.69
267.752	577.69
267.984	579.69
268.216	572.69
268.448	563.69
268.681	569.69
268.913	584.69
269.145	555.69
269.377	550.69
269.609	579.69
269.841	564.69
270.073	586.69
270.306	685.69
270.538	917.69
270.77	1286.69
271.002	1631.69
271.234	1119.69
271.466	761.69
271.698	650.69
271.93	580.69
272.162	559.69
272.394	546.69
272.626	553.69
272.858	547.69
273.09	535.69
273.322	542.69
273.553	543.69
273.785	533.69
274.017	549.69
274.249	528.69
274.481	538.69
274.713	530.69
274.945	544.69
275.176	521.69
275.408	534.69
275.64	556.69
275.872	552.69
276.104	546.69
276.335	545.69
276.567	547.69
276.799	559.69
277.031	570.69
277.262	568.69
277.494	581.69
277.726	645.69
277.957	745.69
278.189	837.69
278.421	781.69
278.652	723.69
278.884	686.69
279.115	608.69
279.347	608.69
279.579	623.69
279.81	609.69
280.042	607.69
280.273	597.69
280.505	634.69
280.736	632.69
280.968	673.69
281.199	732.69
281.431	819.69
281.662	844.69
281.894	719.69
282.125	679.69
282.356	684.69
282.588	697.69
282.819	719.69
283.051	758.69
283.282	859.69
283.513	1016.69
283.745	1451.69
283.976	2386.69
284.207	3346.69
284.439	2974.69
284.67	1751.69
284.901	1404.69
285.132	1399.69
285.364	1354.69
285.595	1066.69
285.826	997.69
286.057	1203.69
286.288	1587.69
286.52	2118.69
286.751	1974.69
286.982	1189.69
287.213	899.69
287.444	804.69
287.675	765.69
287.906	745.69
288.138	727.69
288.369	742.69
288.6	717.69
288.831	712.69
289.062	717.69
289.293	700.69
289.524	758.69
289.755	718.69
289.986	722.69
290.217	742.69
290.448	733.69
290.679	728.69
290.91	767.69
291.141	767.69
291.371	802.69
291.602	830.69
291.833	780.69
292.064	724.69
292.295	708.69
292.526	694.69
292.757	721.69
292.987	675.69
293.218	656.69
293.449	691.69
293.68	690.69
293.91	704.69
294.141	653.69
294.372	695.69
294.603	676.69
294.833	701.69
295.064	661.69
295.295	669.69
295.525	648.69
295.756	655.69
295.987	667.69
296.217	683.69
296.448	664.69
296.679	656.69
296.909	691.69
297.14	711.69
297.37	725.69
297.601	673.69
297.831	680.69
298.062	703.69
298.292	697.69
298.523	725.69
298.753	737.69
298.984	706.69
299.214	725.69
299.445	771.69
299.675	769.69
299.905	780.69
300.136	792.69
300.366	895.69
300.597	1143.69
300.827	1553.69
301.057	2060.69
301.288	2091.69
301.518	1311.69
301.748	1041.69
301.979	915.69
302.209	928.69
302.439	946.69
302.669	997.69
302.9	1192.69
303.13	1643.69
303.36	2430.69
303.59	3275.69
303.82	2837.69
304.051	1631.69
304.281	1189.69
304.511	987.69
304.741	939.69
304.971	886.69
305.201	857.69
305.431	828.69
305.661	815.69
305.891	774.69
306.121	797.69
306.352	818.69
306.582	795.69
306.812	787.69
307.042	808.69
307.272	828.69
307.502	793.69
307.731	781.69
307.961	785.69
308.191	778.69
308.421	759.69
308.651	778.69
308.881	754.69
309.111	740.69
309.341	774.69
309.571	805.69
309.8	797.69
310.03	781.69
310.26	797.69
310.49	793.69
310.72	816.69
310.949	804.69
311.179	804.69
311.409	801.69
311.639	811.69
311.868	816.69
312.098	821.69
312.328	841.69
312.557	868.69
312.787	835.69
313.017	863.69
313.246	837.69
313.476	860.69
313.706	865.69
313.935	899.69
314.165	931.69
314.394	984.69
314.624	979.69
314.853	899.69
315.083	909.69
315.312	904.69
315.542	939.69
315.771	961.69
316.001	940.69
316.23	953.69
316.46	1012.69
316.689	1070.69
316.919	1290.69
317.148	1854.69
317.377	2927.69
317.607	4381.69
317.836	4407.69
318.065	2568.69
318.295	1651.69
318.524	1335.69
318.753	1117.69
318.983	1079.69
319.212	1029.69
319.441	1027.69
319.67	1022.69
319.9	1025.69
320.129	962.69
320.358	989.69
320.587	965.69
320.816	984.69
321.046	1009.69
321.275	998.69
321.504	1012.69
321.733	1009.69
321.962	1038.69
322.191	1049.69
322.42	1041.69
322.649	1023.69
322.878	1039.69
323.108	1036.69
323.337	1055.69
323.566	1056.69
323.795	1096.69
324.024	1067.69
324.253	1121.69
324.482	1142.69
324.71	1223.69
324.939	1249.69
325.168	1328.69
325.397	1347.69
325.626	1620.69
325.855	2244.69
326.084	3540.69
326.313	5311.69
326.542	5562.69
326.77	3450.69
326.999	2259.69
327.228	1887.69
327.457	1801.69
327.686	1801.69
327.914	1933.69
328.143	2235.69
328.372	2623.69
328.6	2776.69
328.829	2571.69
329.058	2187.69
329.287	1949.69
329.515	1809.69
329.744	1685.69
329.972	1611.69
330.201	1507.69
330.43	1477.69
330.658	1447.69
330.887	1451.69
331.115	1441.69
331.344	1408.69
331.572	1423.69
331.801	1401.69
332.03	1418.69
332.258	1441.69
332.486	1528.69
332.715	1686.69
332.943	2110.69
333.172	2565.69
333.4	2556.69
333.629	1950.69
333.857	1764.69
334.085	1747.69
334.314	1858.69
334.542	1961.69
334.771	2257.69
334.999	2758.69
335.227	3372.69
335.455	3722.69
335.684	3461.69
335.912	2921.69
336.14	2478.69
336.369	2247.69
336.597	2060.69
336.825	1914.69
337.053	1767.69
337.281	1699.69
337.51	1651.69
337.738	1583.69
337.966	1464.69
338.194	1437.69
338.422	1442.69
338.65	1385.69
338.878	1329.69
339.106	1352.69
339.334	1313.69
339.562	1311.69
339.79	1291.69
340.018	1250.69
340.246	1282.69
340.474	1249.69
340.702	1243.69
340.93	1256.69
341.158	1236.69
341.386	1254.69
341.614	1193.69
341.842	1203.69
342.07	1188.69
342.298	1175.69
342.526	1188.69
342.754	1161.69
342.981	1150.69
343.209	1137.69
343.437	1171.69
343.665	1173.69
343.893	1187.69
344.12	1205.69
344.348	1181.69
344.576	1139.69
344.804	1143.69
345.031	1091.69
345.259	1121.69
345.487	1114.69
345.714	1125.69
345.942	1080.69
346.17	1105.69
346.397	1091.69
346.625	1081.69
346.853	1059.69
347.08	1076.69
347.308	1071.69
347.535	1082.69
347.763	1066.69
347.99	1055.69
348.218	1036.69
348.445	1038.69
348.673	1064.69
348.9	1060.69
349.128	1057.69
349.355	1053.69
349.583	1046.69
349.81	1025.69
350.037	1024.69
350.265	1076.69
350.492	1045.69
350.72	1016.69
350.947	1015.69
351.174	1072.69
351.402	1023.69
351.629	1001.69
351.856	1016.69
352.083	1027.69
352.311	1018.69
352.538	1021.69
352.765	1024.69
352.992	1026.69
353.22	1040.69
353.447	1014.69
353.674	1002.69
353.901	1030.69
354.128	1032.69
354.355	1030.69
354.583	1024.69
354.81	1045.69
355.037	1035.69
355.264	1068.69
355.491	1040.69
355.718	1022.69
355.945	1050.69
356.172	1055.69
356.399	1064.69
356.626	1083.69
356.853	1088.69
357.08	1068.69
357.307	1066.69
357.534	1075.69
357.761	1080.69
357.988	1083.69
358.215	1092.69
358.441	1043.69
358.668	1057.69
358.895	1073.69
359.122	1085.69
359.349	1079.69
359.576	1089.69
359.802	1091.69
360.029	1103.69
360.256	1075.69
360.483	1088.69
360.709	1064.69
360.936	1083.69
361.163	1113.69
361.39	1100.69
361.616	1085.69
361.843	1066.69
362.07	1114.69
362.296	1103.69
362.523	1113.69
362.749	1066.69
362.976	1057.69
363.203	1117.69
363.429	1097.69
363.656	1072.69
363.882	1077.69
364.109	1073.69
364.335	1068.69
364.562	1084.69
364.788	1077.69
365.015	1099.69
365.241	1120.69
365.468	1162.69
365.694	1201.69
365.92	1164.69
366.147	1136.69
366.373	1151.69
366.599	1083.69
366.826	1104.69
367.052	1084.69
367.278	1115.69
367.505	1103.69
367.731	1096.69
367.957	1120.69
368.184	1118.69
368.41	1136.69
368.636	1144.69
368.862	1108.69
369.089	1133.69
369.315	1116.69
369.541	1106.69
369.767	1091.69
369.993	1121.69
370.219	1129.69
370.445	1156.69
370.672	1143.69
370.898	1159.69
371.124	1166.69
371.35	1158.69
371.576	1145.69
371.802	1167.69
372.028	1172.69
372.254	1149.69
372.48	1194.69
372.706	1200.69
372.932	1191.69
373.158	1200.69
373.384	1203.69
373.61	1183.69
373.835	1208.69
374.061	1193.69
374.287	1207.69
374.513	1195.69
374.739	1236.69
374.965	1250.69
375.191	1219.69
375.416	1239.69
375.642	1215.69
375.868	1249.69
376.094	1218.69
376.319	1201.69
376.545	1201.69
376.771	1180.69
376.997	1164.69
377.222	1174.69
377.448	1174.69
377.674	1170.69
377.899	1143.69
378.125	1207.69
378.35	1169.69
378.576	1149.69
378.802	1158.69
379.027	1200.69
379.253	1254.69
379.478	1269.69
379.704	1502.69
379.929	2103.69
380.155	3144.69
380.38	3354.69
380.606	2066.69
380.831	1504.69
381.057	1327.69
381.282	1262.69
381.507	1187.69
381.733	1175.69
381.958	1175.69
382.184	1159.69
382.409	1127.69
382.634	1161.69
382.86	1154.69
383.085	1163.69
383.31	1140.69
383.535	1163.69
383.761	1153.69
383.986	1145.69
384.211	1188.69
384.436	1175.69
384.662	1175.69
384.887	1226.69
385.112	1183.69
385.337	1164.69
385.562	1215.69
385.787	1201.69
386.013	1209.69
386.238	1193.69
386.463	1224.69
386.688	1228.69
386.913	1209.69
387.138	1217.69
387.363	1201.69
387.588	1188.69
387.813	1175.69
388.038	1215.69
388.263	1204.69
388.488	1217.69
388.713	1206.69
388.938	1187.69
389.163	1172.69
389.387	1200.69
389.612	1210.69
389.837	1190.69
390.062	1172.69
390.287	1206.69
390.512	1239.69
390.736	1236.69
390.961	1237.69
391.186	1230.69
391.411	1256.69
391.636	1259.69
391.86	1255.69
392.085	1259.69
392.31	1241.69
392.534	1244.69
392.759	1235.69
392.984	1263.69
393.208	1249.69
393.433	1259.69
393.658	1242.69
393.882	1213.69
394.107	1229.69
394.331	1240.69
394.556	1239.69
394.78	1227.69
395.005	1249.69
395.229	1229.69
395.454	1264.69
395.678	1247.69
395.903	1259.69
396.127	1243.69
396.352	1257.69
396.576	1276.69
396.801	1266.69
397.025	1306.69
397.249	1281.69
397.474	1304.69
397.698	1248.69
397.922	1286.69
398.147	1296.69
398.371	1345.69
398.595	1329.69
398.82	1338.69
399.044	1383.69
399.268	1462.69
399.492	1555.69
399.717	1567.69
399.941	1611.69
400.165	1549.69
400.389	1475.69
400.613	1409.69
400.837	1365.69
401.062	1366.69
401.286	1340.69
401.51	1341.69
401.734	1333.69
401.958	1347.69
402.182	1344.69
402.406	1333.69
402.63	1344.69
402.854	1361.69
403.078	1355.69
403.302	1392.69
403.526	1394.69
403.75	1380.69
403.974	1381.69
404.198	1388.69
404.422	1372.69
404.645	1369.69
404.869	1367.69
405.093	1386.69
405.317	1402.69
405.541	1369.69
405.765	1403.69
405.988	1388.69
406.212	1415.69
406.436	1388.69
406.66	1416.69
406.883	1418.69
407.107	1479.69
407.331	1491.69
407.555	1502.69
407.778	1473.69
408.002	1484.69
408.226	1453.69
408.449	1460.69
408.673	1432.69
408.896	1394.69
409.12	1409.69
409.344	1376.69
409.567	1394.69
409.791	1397.69
410.014	1365.69
410.238	1372.69
410.461	1388.69
410.685	1356.69
410.908	1355.69
411.132	1341.69
411.355	1298.69
411.578	1290.69
411.802	1317.69
412.025	1322.69
412.249	1335.69
412.472	1299.69
412.695	1308.69
412.919	1321.69
413.142	1307.69
413.365	1293.69
413.589	1333.69
413.812	1323.69
414.035	1319.69
414.258	1315.69
414.482	1315.69
414.705	1330.69
414.928	1335.69
415.151	1292.69
415.374	1279.69
415.597	1296.69
415.821	1231.69
416.044	1255.69
416.267	1280.69
416.49	1271.69
416.713	1244.69
416.936	1271.69
417.159	1241.69
417.382	1224.69
417.605	1248.69
417.828	1233.69
418.051	1239.69
418.274	1273.69
418.497	1235.69
418.72	1299.69
418.943	1249.69
419.166	1347.69
419.389	1398.69
419.611	1355.69
419.834	1312.69
420.057	1322.69
420.28	1286.69
420.503	1250.69
420.726	1232.69
420.948	1265.69
421.171	1277.69
421.394	1299.69
421.617	1251.69
421.839	1284.69
422.062	1261.69
422.285	1273.69
422.507	1268.69
422.73	1300.69
422.953	1338.69
423.175	1330.69
423.398	1285.69
423.621	1291.69
423.843	1298.69
424.066	1241.69
424.288	1254.69
424.511	1264.69
424.733	1263.69
424.956	1263.69
425.178	1237.69
425.401	1231.69
425.623	1259.69
425.846	1233.69
426.068	1231.69
426.291	1256.69
426.513	1242.69
426.735	1225.69
426.958	1205.69
427.18	1196.69
427.402	1201.69
427.625	1165.69
427.847	1165.69
428.069	1181.69
428.292	1180.69
428.514	1193.69
428.736	1167.69
428.958	1219.69
429.181	1151.69
429.403	1148.69
429.625	1136.69
429.847	1159.69
430.069	1172.69
430.292	1196.69
430.514	1239.69
430.736	1246.69
430.958	1173.69
431.18	1157.69
431.402	1147.69
431.624	1139.69
431.846	1149.69
432.068	1139.69
432.29	1140.69
432.512	1131.69
432.734	1182.69
432.956	1143.69
433.178	1176.69
433.4	1161.69
433.622	1184.69
433.844	1177.69
434.066	1163.69
434.287	1167.69
434.509	1169.69
434.731	1166.69
434.953	1198.69
435.175	1252.69
435.397	1215.69
435.618	1160.69
435.84	1167.69
436.062	1179.69
436.284	1163.69
436.505	1149.69
436.727	1157.69
436.949	1149.69
437.17	1135.69
437.392	1132.69
437.614	1107.69
437.835	1089.69
438.057	1105.69
438.278	1093.69
438.5	1122.69
438.721	1145.69
438.943	1177.69
439.165	1212.69
439.386	1189.69
439.608	1184.69
439.829	1219.69
440.05	1238.69
440.272	1245.69
440.493	1226.69
440.715	1184.69
440.936	1206.69
441.158	1237.69
441.379	1218.69
441.6	1275.69
441.822	1300.69
442.043	1322.69
442.264	1386.69
442.486	1285.69
442.707	1291.69
442.928	1256.69
443.149	1257.69
443.371	1205.69
443.592	1229.69
443.813	1242.69
444.034	1228.69
444.255	1290.69
444.476	1293.69
444.698	1334.69
444.919	1353.69
445.14	1429.69
445.361	1329.69
445.582	1298.69
445.803	1269.69
446.024	1258.69
446.245	1255.69
446.466	1229.69
446.687	1232.69
446.908	1247.69
447.129	1206.69
447.35	1184.69
447.571	1177.69
447.792	1140.69
448.013	1153.69
448.234	1135.69
448.455	1130.69
448.675	1153.69
448.896	1207.69
449.117	1230.69
449.338	1319.69
449.559	1367.69
449.779	1213.69
450	1148.69
450.221	1144.69
450.442	1120.69
450.662	1114.69
450.883	1105.69
451.104	1122.69
451.324	1079.69
451.545	1141.69
451.766	1097.69
451.986	1111.69
452.207	1179.69
452.428	1482.69
452.648	2017.69
452.869	1753.69
453.089	1322.69
453.31	1204.69
453.53	1225.69
453.751	1289.69
453.971	1328.69
454.192	1321.69
454.412	1177.69
454.633	1147.69
454.853	1081.69
455.073	1080.69
455.294	1052.69
455.514	1068.69
455.734	1081.69
455.955	1041.69
456.175	1069.69
456.395	1075.69
456.616	1074.69
456.836	1089.69
457.056	1056.69
457.276	1075.69
457.497	1144.69
457.717	1131.69
457.937	1118.69
458.157	1125.69
458.377	1133.69
458.598	1107.69
458.818	1158.69
459.038	1145.69
459.258	1131.69
459.478	1159.69
459.698	1164.69
459.918	1149.69
460.138	1205.69
460.358	1226.69
460.578	1228.69
460.798	1259.69
461.018	1293.69
461.238	1257.69
461.458	1238.69
461.678	1263.69
461.898	1305.69
462.118	1308.69
462.338	1334.69
462.558	1332.69
462.777	1359.69
462.997	1404.69
463.217	1474.69
463.437	1488.69
463.657	1526.69
463.876	1531.69
464.096	1465.69
464.316	1388.69
464.536	1363.69
464.755	1365.69
464.975	1295.69
465.195	1305.69
465.414	1276.69
465.634	1210.69
465.854	1207.69
466.073	1183.69
466.293	1169.69
466.512	1179.69
466.732	1189.69
466.951	1212.69
467.171	1335.69
467.391	1270.69
467.61	1188.69
467.829	1201.69
468.049	1137.69
468.268	1139.69
468.488	1141.69
468.707	1141.69
468.927	1125.69
469.146	1148.69
469.365	1157.69
469.585	1149.69
469.804	1170.69
470.023	1175.69
470.243	1223.69
470.462	1208.69
470.681	1303.69
470.901	1410.69
471.12	1636.69
471.339	1662.69
471.558	1382.69
471.777	1252.69
471.997	1204.69
472.216	1187.69
472.435	1165.69
472.654	1117.69
472.873	1138.69
473.092	1136.69
473.311	1113.69
473.53	1174.69
473.749	1157.69
473.968	1189.69
474.187	1136.69
474.406	1146.69
474.625	1119.69
474.844	1151.69
475.063	1130.69
475.282	1130.69
475.501	1137.69
475.72	1172.69
475.939	1157.69
476.158	1204.69
476.377	1224.69
476.596	1183.69
476.814	1201.69
477.033	1178.69
477.252	1223.69
477.471	1240.69
477.69	1256.69
477.908	1303.69
478.127	1321.69
478.346	1336.69
478.564	1314.69
478.783	1347.69
479.002	1348.69
479.22	1345.69
479.439	1378.69
479.658	1362.69
479.876	1353.69
480.095	1378.69
480.313	1390.69
480.532	1395.69
480.751	1411.69
480.969	1356.69
481.188	1369.69
481.406	1352.69
481.624	1324.69
481.843	1332.69
482.061	1353.69
482.28	1367.69
482.498	1332.69
482.717	1367.69
482.935	1327.69
483.153	1395.69
483.372	1407.69
483.59	1425.69
483.808	1434.69
484.027	1481.69
484.245	1545.69
484.463	1732.69
484.681	1913.69
484.9	1727.69
485.118	1634.69
485.336	1588.69
485.554	1543.69
485.772	1659.69
485.99	1880.69
486.209	2087.69
486.427	1716.69
486.645	1549.69
486.863	1539.69
487.081	1486.69
487.299	1435.69
487.517	1469.69
487.735	1480.69
487.953	1517.69
488.171	1490.69
488.389	1467.69
488.607	1443.69
488.825	1413.69
489.043	1405.69
489.261	1400.69
489.479	1415.69
489.696	1401.69
489.914	1394.69
490.132	1404.69
490.35	1448.69
490.568	1450.69
490.786	1500.69
491.003	1481.69
491.221	1501.69
491.439	1515.69
491.657	1477.69
491.874	1538.69
492.092	1554.69
492.31	1558.69
492.527	1529.69
492.745	1524.69
492.963	1514.69
493.18	1479.69
493.398	1492.69
493.615	1527.69
493.833	1516.69
494.05	1528.69
494.268	1495.69
494.485	1529.69
494.703	1522.69
494.92	1513.69
495.138	1463.69
495.355	1551.69
495.573	1517.69
495.79	1494.69
496.008	1547.69
496.225	1519.69
496.442	1546.69
496.66	1587.69
496.877	1662.69
497.094	1651.69
497.312	1606.69
497.529	1622.69
497.746	1634.69
497.963	1653.69
498.181	1668.69
498.398	1715.69
498.615	1759.69
498.832	1824.69
499.049	1901.69
499.267	2039.69
499.484	2173.69
499.701	2199.69
499.918	2283.69
500.135	2374.69
500.352	2493.69
500.569	2594.69
500.786	2496.69
501.003	2445.69
501.22	2319.69
501.437	2187.69
501.654	2102.69
501.871	1962.69
502.088	1909.69
502.305	1823.69
502.522	1777.69
502.739	1733.69
502.956	1718.69
503.172	1669.69
503.389	1605.69
503.606	1590.69
503.823	1563.69
504.04	1595.69
504.256	1544.69
504.473	1561.69
504.69	1542.69
504.907	1529.69
505.123	1476.69
505.34	1457.69
505.557	1416.69
505.773	1427.69
505.99	1405.69
506.207	1362.69
506.423	1349.69
506.64	1353.69
506.856	1378.69
507.073	1333.69
507.289	1337.69
507.506	1334.69
507.722	1328.69
507.939	1332.69
508.155	1303.69
508.372	1272.69
508.588	1281.69
508.805	1279.69
509.021	1280.69
509.238	1312.69
509.454	1384.69
509.67	1425.69
509.887	1350.69
510.103	1273.69
510.319	1267.69
510.536	1258.69
510.752	1249.69
510.968	1267.69
511.184	1247.69
511.401	1215.69
511.617	1212.69
511.833	1204.69
512.049	1172.69
512.265	1221.69
512.481	1243.69
512.698	1229.69
512.914	1187.69
513.13	1196.69
513.346	1231.69
513.562	1228.69
513.778	1225.69
513.994	1253.69
514.21	1259.69
514.426	1327.69
514.642	1376.69
514.858	1290.69
515.074	1227.69
515.29	1252.69
515.506	1274.69
515.721	1289.69
515.937	1238.69
516.153	1255.69
516.369	1294.69
516.585	1286.69
516.801	1298.69
517.016	1325.69
517.232	1337.69
517.448	1380.69
517.664	1375.69
517.879	1395.69
518.095	1376.69
518.311	1393.69
518.527	1369.69
518.742	1363.69
518.958	1355.69
519.173	1383.69
519.389	1323.69
519.605	1298.69
519.82	1249.69
520.036	1294.69
520.251	1241.69
520.467	1242.69
520.682	1233.69
520.898	1202.69
521.113	1247.69
521.329	1195.69
521.544	1192.69
521.76	1200.69
521.975	1209.69
522.19	1213.69
522.406	1211.69
522.621	1177.69
522.836	1196.69
523.052	1228.69
523.267	1150.69
523.482	1161.69
523.698	1195.69
523.913	1174.69
524.128	1212.69
524.343	1199.69
524.559	1197.69
524.774	1186.69
524.989	1150.69
525.204	1189.69
525.419	1201.69
525.634	1209.69
525.849	1167.69
526.064	1176.69
526.28	1182.69
526.495	1138.69
526.71	1196.69
526.925	1194.69
527.14	1181.69
527.355	1153.69
527.57	1192.69
527.785	1199.69
527.999	1193.69
528.214	1215.69
528.429	1196.69
528.644	1231.69
528.859	1230.69
529.074	1281.69
529.289	1317.69
529.503	1288.69
529.718	1252.69
529.933	1225.69
530.148	1227.69
530.363	1235.69
530.577	1223.69
530.792	1267.69
531.007	1261.69
531.221	1259.69
531.436	1301.69
531.651	1251.69
531.865	1279.69
532.08	1311.69
532.295	1318.69
532.509	1415.69
532.724	1369.69
532.938	1400.69
533.153	1489.69
533.367	1525.69
533.582	1606.69
533.796	1596.69
534.011	1553.69
534.225	1467.69
534.44	1387.69
534.654	1402.69
534.868	1384.69
535.083	1389.69
535.297	1375.69
535.511	1348.69
535.726	1304.69
535.94	1307.69
536.154	1270.69
536.369	1258.69
536.583	1233.69
536.797	1265.69
537.011	1256.69
537.225	1219.69
537.44	1209.69
537.654	1189.69
537.868	1211.69
538.082	1148.69
538.296	1164.69
538.51	1165.69
538.724	1173.69
538.938	1186.69
539.153	1164.69
539.367	1180.69
539.581	1155.69
539.795	1145.69
540.009	1115.69
540.222	1116.69
540.436	1136.69
540.65	1127.69
540.864	1177.69
541.078	1168.69
541.292	1258.69
541.506	1486.69
541.72	1561.69
541.934	1337.69
542.147	1295.69
542.361	1216.69
542.575	1190.69
542.789	1135.69
543.002	1121.69
543.216	1121.69
543.43	1106.69
543.644	1081.69
543.857	1116.69
544.071	1130.69
544.285	1147.69
544.498	1135.69
544.712	1143.69
544.925	1148.69
545.139	1149.69
545.352	1145.69
545.566	1135.69
545.779	1153.69
545.993	1152.69
546.206	1158.69
546.42	1174.69
546.633	1129.69
546.847	1165.69
547.06	1171.69
547.274	1129.69
547.487	1157.69
547.7	1160.69
547.914	1139.69
548.127	1155.69
548.34	1161.69
548.554	1150.69
548.767	1144.69
548.98	1157.69
549.193	1173.69
549.407	1140.69
549.62	1173.69
549.833	1148.69
550.046	1151.69
550.259	1162.69
550.473	1129.69
550.686	1175.69
550.899	1164.69
551.112	1144.69
551.325	1135.69
551.538	1157.69
551.751	1110.69
551.964	1121.69
552.177	1162.69
552.39	1190.69
552.603	1155.69
552.816	1216.69
553.029	1216.69
553.242	1212.69
553.455	1234.69
553.667	1283.69
553.88	1272.69
554.093	1251.69
554.306	1237.69
554.519	1277.69
554.732	1288.69
554.944	1277.69
555.157	1304.69
555.37	1335.69
555.583	1398.69
555.795	1433.69
556.008	1510.69
556.221	1667.69
556.433	1760.69
556.646	1749.69
556.859	1674.69
557.071	1617.69
557.284	1577.69
557.496	1544.69
557.709	1523.69
557.921	1504.69
558.134	1478.69
558.346	1558.69
558.559	1526.69
558.771	1637.69
558.984	1760.69
559.196	1883.69
559.409	1770.69
559.621	1663.69
559.833	1633.69
560.046	1522.69
560.258	1471.69
560.47	1440.69
560.683	1356.69
560.895	1315.69
561.107	1241.69
561.32	1247.69
561.532	1249.69
561.744	1240.69
561.956	1186.69
562.168	1185.69
562.381	1170.69
562.593	1155.69
562.805	1159.69
563.017	1191.69
563.229	1179.69
563.441	1315.69
563.653	1171.69
563.865	1090.69
564.077	1081.69
564.289	1073.69
564.501	1070.69
564.713	1102.69
564.925	1060.69
565.137	1041.69
565.349	1075.69
565.561	1039.69
565.773	1065.69
565.985	1052.69
566.197	1098.69
566.408	1123.69
566.62	1145.69
566.832	1177.69
567.044	1180.69
567.255	1157.69
567.467	1175.69
567.679	1212.69
567.891	1267.69
568.102	1401.69
568.314	1596.69
568.526	1377.69
568.737	1163.69
568.949	1095.69
569.161	1046.69
569.372	1012.69
569.584	955.69
569.795	929.69
570.007	940.69
570.218	969.69
570.43	994.69
570.641	912.69
570.853	885.69
571.064	872.69
571.276	868.69
571.487	857.69
571.698	864.69
571.91	843.69
572.121	844.69
572.333	841.69
572.544	860.69
572.755	913.69
572.966	1028.69
573.178	940.69
573.389	827.69
573.6	806.69
573.811	782.69
574.023	809.69
574.234	752.69
574.445	792.69
574.656	756.69
574.867	763.69
575.078	772.69
575.289	771.69
575.501	753.69
575.712	739.69
575.923	737.69
576.134	758.69
576.345	787.69
576.556	801.69
576.767	740.69
576.978	779.69
577.188	819.69
577.399	769.69
577.61	776.69
577.821	755.69
578.032	759.69
578.243	801.69
578.454	819.69
578.665	821.69
578.875	843.69
579.086	855.69
579.297	907.69
579.508	977.69
579.718	992.69
579.929	1082.69
580.14	1222.69
580.35	1269.69
580.561	1203.69
580.772	1101.69
580.982	1044.69
581.193	999.69
581.403	933.69
581.614	911.69
581.825	889.69
582.035	868.69
582.246	833.69
582.456	804.69
582.667	799.69
582.877	781.69
583.087	769.69
583.298	744.69
583.508	704.69
583.719	702.69
583.929	716.69
584.139	685.69
584.35	667.69
584.56	664.69
584.77	661.69
584.981	655.69
585.191	643.69
585.401	654.69
585.611	641.69
585.821	622.69
586.032	610.69
586.242	623.69
586.452	619.69
586.662	615.69
586.872	600.69
587.082	573.69
587.292	599.69
587.502	574.69
587.713	590.69
587.923	594.69
588.133	588.69
588.343	569.69
588.553	551.69
588.762	577.69
588.972	547.69
589.182	567.69
589.392	571.69
589.602	571.69
589.812	563.69
590.022	563.69
590.232	561.69
590.441	561.69
590.651	537.69
590.861	551.69
591.071	545.69
591.281	538.69
591.49	561.69
591.7	545.69
591.91	567.69
592.119	541.69
592.329	564.69
592.539	545.69
592.748	573.69
592.958	575.69
593.167	606.69
593.377	605.69
593.587	588.69
593.796	569.69
594.006	593.69
594.215	570.69
594.424	573.69
594.634	585.69
594.843	553.69
595.053	543.69
595.262	543.69
595.472	531.69
595.681	537.69
595.89	511.69
596.1	529.69
596.309	540.69
596.518	521.69
596.727	517.69
596.937	494.69
597.146	483.69
597.355	495.69
597.564	469.69
597.774	481.69
597.983	480.69
598.192	482.69
598.401	456.69
598.61	497.69
598.819	465.69
599.028	470.69
599.237	463.69
599.446	440.69
599.655	460.69
599.864	463.69
600.073	432.69
600.282	455.69
600.491	441.69
600.7	465.69
600.909	458.69
601.118	453.69
601.327	459.69
601.536	461.69
601.745	484.69
601.953	526.69
602.162	598.69
602.371	521.69
602.58	450.69
602.789	456.69
602.997	452.69
603.206	449.69
603.415	462.69
603.623	445.69
603.832	447.69
604.041	448.69
604.249	440.69
604.458	457.69
604.666	420.69
604.875	419.69
605.084	433.69
605.292	433.69
605.501	427.69
605.709	438.69
605.918	451.69
606.126	451.69
606.334	420.69
606.543	464.69
606.751	473.69
606.96	552.69
607.168	586.69
607.376	502.69
607.585	461.69
607.793	442.69
608.001	426.69
608.21	464.69
608.418	439.69
608.626	422.69
608.834	433.69
609.043	410.69
609.251	451.69
609.459	433.69
609.667	433.69
609.875	403.69
610.083	434.69
610.291	413.69
610.499	435.69
610.707	421.69
610.916	418.69
611.124	412.69
611.332	422.69
611.54	411.69
611.748	414.69
611.955	423.69
612.163	409.69
612.371	403.69
612.579	403.69
612.787	406.69
612.995	407.69
613.203	399.69
613.411	402.69
613.618	431.69
613.826	407.69
614.034	402.69
614.242	406.69
614.449	384.69
614.657	382.69
614.865	395.69
615.072	405.69
615.28	405.69
615.488	414.69
615.695	409.69
615.903	419.69
616.111	397.69
616.318	400.69
616.526	413.69
616.733	410.69
616.941	386.69
617.148	387.69
617.356	391.69
617.563	413.69
617.771	394.69
617.978	394.69
618.185	386.69
618.393	388.69
618.6	374.69
618.807	385.69
619.015	389.69
619.222	393.69
619.429	390.69
619.637	379.69
619.844	375.69
620.051	361.69
620.258	367.69
620.466	373.69
620.673	344.69
620.88	373.69
621.087	369.69
621.294	360.69
621.501	348.69
621.708	368.69
621.915	370.69
622.122	352.69
622.329	389.69
622.536	360.69
622.743	358.69
622.95	367.69
623.157	343.69
623.364	373.69
623.571	355.69
623.778	342.69
623.985	345.69
624.192	369.69
624.399	330.69
624.606	340.69
624.812	337.69
625.019	355.69
625.226	353.69
625.433	335.69
625.639	333.69
625.846	326.69
626.053	329.69
626.259	330.69
626.466	316.69
626.673	356.69
626.879	336.69
627.086	308.69
627.293	333.69
627.499	330.69
627.706	325.69
627.912	320.69
628.119	320.69
628.325	331.69
628.532	339.69
628.738	338.69
628.945	333.69
629.151	349.69
629.357	319.69
629.564	295.69
629.77	336.69
629.976	328.69
630.183	321.69
630.389	317.69
630.595	309.69
630.802	314.69
631.008	321.69
631.214	318.69
631.42	335.69
631.627	307.69
631.833	285.69
632.039	308.69
632.245	319.69
632.451	314.69
632.657	328.69
632.863	300.69
633.069	304.69
633.275	308.69
633.481	296.69
633.688	306.69
633.893	311.69
634.099	305.69
634.305	285.69
634.511	293.69
634.717	292.69
634.923	308.69
635.129	345.69
635.335	377.69
635.541	350.69
635.747	321.69
635.952	307.69
636.158	314.69
636.364	320.69
636.57	301.69
636.775	309.69
636.981	309.69
637.187	305.69
637.392	305.69
637.598	299.69
637.804	309.69
638.009	319.69
638.215	323.69
638.421	289.69
638.626	310.69
638.832	310.69
639.037	330.69
639.243	301.69
639.448	307.69
639.654	330.69
639.859	311.69
640.065	310.69
640.27	320.69
640.475	315.69
640.681	324.69
640.886	323.69
641.091	316.69
641.297	323.69
641.502	312.69
641.707	335.69
641.913	345.69
642.118	322.69
642.323	332.69
642.528	359.69
642.733	352.69
642.939	375.69
643.144	377.69
643.349	363.69
643.554	391.69
643.759	392.69
643.964	409.69
644.169	422.69
644.374	431.69
644.579	471.69
644.784	514.69
644.989	585.69
645.194	655.69
645.399	781.69
645.604	790.69
645.809	642.69
646.014	499.69
646.219	428.69
646.423	421.69
646.628	375.69
646.833	369.69
647.038	340.69
647.243	317.69
647.447	317.69
647.652	310.69
647.857	327.69
648.062	296.69
648.266	299.69
648.471	304.69
648.676	284.69
648.88	293.69
649.085	280.69
649.289	279.69
649.494	280.69
649.698	280.69
649.903	264.69
650.107	243.69
650.312	274.69
650.516	256.69
650.721	248.69
650.925	254.69
651.13	246.69
651.334	245.69
651.539	247.69
651.743	221.69
651.947	231.69
652.152	232.69
652.356	227.69
652.56	262.69
652.764	297.69
652.969	242.69
653.173	239.69
653.377	209.69
653.581	209.69
653.785	209.69
653.99	201.69
654.194	209.69
654.398	216.69
654.602	200.69
654.806	214.69
655.01	199.69
655.214	209.69
655.418	208.69
655.622	218.69
655.826	212.69
656.03	204.69
656.234	211.69
656.438	213.69
656.642	217.69
656.846	205.69
657.049	212.69
657.253	201.69
657.457	196.69
657.661	195.69
657.865	166.69
658.068	175.69
658.272	172.69
658.476	153.69
658.68	132.69
658.883	150.69
659.087	149.69
659.291	142.69
659.494	128.69
659.698	121.69
659.901	136.69
660.105	130.69
660.309	114.69
660.512	130.69
660.716	115.69
660.919	120.69
661.123	113.69
661.326	92.69
661.53	109.69
661.733	114.69
661.936	113.69
662.14	111.69
662.343	94.69
662.546	89.69
662.75	103.69
662.953	92.69
663.156	89.69
663.36	96.69
663.563	78.69
663.766	78.69
663.969	85.69
664.173	91.69
664.376	88.69
664.579	95.69
664.782	90.69
664.985	93.69
665.188	80.69
665.391	85.69
665.594	88.69
665.797	90.69
666	80.69
666.203	92.69
666.406	84.69
666.609	81.69
666.812	84.69
667.015	83.69
667.218	84.69
667.421	85.69
667.624	77.69
667.827	77.69
668.03	89.69
668.232	77.69
668.435	81.69
668.638	67.69
668.841	83.69
669.043	87.69
669.246	78.69
669.449	71.69
669.651	82.69
669.854	69.69
670.057	71.69
670.259	94.69
670.462	95.69
670.665	88.69
670.867	75.69
671.07	70.69
671.272	84.69
671.475	77.69
671.677	84.69
671.88	95.69
672.082	75.69
672.284	75.69
672.487	95.69
672.689	78.69
672.892	75.69
