Data from SnStandardFlinnAPT0064_LampEnergy5.5_LIBS07252019.E.O._I.C._HRD10591_15-16-03-496.txt Node
Date: Thu Jul 25 15:16:03 EDT 2019
User: cochatt
Spectrometer: HR+D1059
Trigger mode: 1
Integration Time (sec): 1.000000E-1
Scans to average: 1
Electric dark correction enabled: true
Nonlinearity correction enabled: false
Boxcar width: 0
XAxis mode: Wavelengths
Number of Pixels in Spectrum: 2048
>>>>>Begin Spectral Data<<<<<
223.165	-11.12
223.4	-11.12
223.635	-11.12
223.869	-7.12
224.104	-30.12
224.338	-11.12
224.573	-24.12
224.808	-15.12
225.042	-0.12
225.277	1.88
225.511	-2.12
225.746	0.88
225.98	3.88
226.215	19.88
226.449	11.88
226.683	8.88
226.918	30.88
227.152	22.88
227.387	42.88
227.621	52.88
227.856	48.88
228.09	36.88
228.324	58.88
228.559	68.88
228.793	78.88
229.027	152.88
229.262	167.88
229.496	155.88
229.73	141.88
229.964	151.88
230.199	168.88
230.433	154.88
230.667	171.88
230.901	174.88
231.136	164.88
231.37	180.88
231.604	171.88
231.838	205.88
232.072	256.88
232.306	246.88
232.541	200.88
232.775	203.88
233.009	205.88
233.243	205.88
233.477	212.88
233.711	246.88
233.945	278.88
234.179	233.88
234.413	211.88
234.647	201.88
234.881	228.88
235.115	233.88
235.349	284.88
235.583	314.88
235.817	402.88
236.051	434.88
236.285	278.88
236.519	259.88
236.753	221.88
236.987	244.88
237.221	230.88
237.455	243.88
237.689	221.88
237.922	217.88
238.156	229.88
238.39	219.88
238.624	222.88
238.858	232.88
239.091	214.88
239.325	231.88
239.559	225.88
239.793	236.88
240.027	242.88
240.26	244.88
240.494	246.88
240.728	252.88
240.961	269.88
241.195	274.88
241.429	278.88
241.662	289.88
241.896	332.88
242.13	362.88
242.363	509.88
242.597	601.88
242.83	591.88
243.064	618.88
243.298	684.88
243.531	593.88
243.765	380.88
243.998	342.88
244.232	309.88
244.465	294.88
244.699	304.88
244.932	299.88
245.166	288.88
245.399	297.88
245.633	292.88
245.866	322.88
246.099	295.88
246.333	287.88
246.566	295.88
246.8	284.88
247.033	284.88
247.266	286.88
247.5	309.88
247.733	294.88
247.966	296.88
248.2	321.88
248.433	364.88
248.666	404.88
248.899	405.88
249.133	359.88
249.366	365.88
249.599	401.88
249.832	418.88
250.066	445.88
250.299	378.88
250.532	352.88
250.765	336.88
250.998	324.88
251.231	314.88
251.465	310.88
251.698	321.88
251.931	328.88
252.164	339.88
252.397	329.88
252.63	325.88
252.863	348.88
253.096	355.88
253.329	345.88
253.562	328.88
253.795	372.88
254.028	353.88
254.261	352.88
254.494	384.88
254.727	426.88
254.96	491.88
255.193	512.88
255.426	408.88
255.659	358.88
255.892	380.88
256.124	388.88
256.357	392.88
256.59	414.88
256.823	416.88
257.056	435.88
257.289	500.88
257.521	572.88
257.754	462.88
257.987	415.88
258.22	412.88
258.452	380.88
258.685	394.88
258.918	396.88
259.151	421.88
259.383	461.88
259.616	468.88
259.849	516.88
260.081	462.88
260.314	434.88
260.547	420.88
260.779	419.88
261.012	418.88
261.244	436.88
261.477	430.88
261.71	446.88
261.942	445.88
262.175	425.88
262.407	465.88
262.64	456.88
262.872	465.88
263.105	484.88
263.337	526.88
263.57	526.88
263.802	561.88
264.035	571.88
264.267	575.88
264.499	610.88
264.732	618.88
264.964	641.88
265.197	644.88
265.429	608.88
265.661	632.88
265.894	649.88
266.126	722.88
266.358	806.88
266.591	774.88
266.823	639.88
267.055	611.88
267.287	601.88
267.52	567.88
267.752	573.88
267.984	568.88
268.216	546.88
268.448	540.88
268.681	546.88
268.913	562.88
269.145	556.88
269.377	545.88
269.609	546.88
269.841	567.88
270.073	570.88
270.306	681.88
270.538	861.88
270.77	1229.88
271.002	1480.88
271.234	1037.88
271.466	745.88
271.698	619.88
271.93	580.88
272.162	568.88
272.394	557.88
272.626	538.88
272.858	541.88
273.09	529.88
273.322	530.88
273.553	515.88
273.785	509.88
274.017	520.88
274.249	534.88
274.481	514.88
274.713	523.88
274.945	520.88
275.176	521.88
275.408	530.88
275.64	540.88
275.872	518.88
276.104	547.88
276.335	552.88
276.567	525.88
276.799	543.88
277.031	555.88
277.262	558.88
277.494	577.88
277.726	638.88
277.957	713.88
278.189	791.88
278.421	748.88
278.652	685.88
278.884	662.88
279.115	602.88
279.347	576.88
279.579	585.88
279.81	605.88
280.042	587.88
280.273	599.88
280.505	617.88
280.736	617.88
280.968	638.88
281.199	688.88
281.431	757.88
281.662	747.88
281.894	713.88
282.125	677.88
282.356	654.88
282.588	670.88
282.819	688.88
283.051	705.88
283.282	784.88
283.513	969.88
283.745	1379.88
283.976	2132.88
284.207	2964.88
284.439	2625.88
284.67	1670.88
284.901	1327.88
285.132	1280.88
285.364	1258.88
285.595	1008.88
285.826	934.88
286.057	1057.88
286.288	1428.88
286.52	1908.88
286.751	1751.88
286.982	1146.88
287.213	891.88
287.444	782.88
287.675	745.88
287.906	728.88
288.138	736.88
288.369	705.88
288.6	673.88
288.831	699.88
289.062	674.88
289.293	724.88
289.524	700.88
289.755	702.88
289.986	714.88
290.217	703.88
290.448	707.88
290.679	733.88
290.91	742.88
291.141	739.88
291.371	758.88
291.602	805.88
291.833	752.88
292.064	712.88
292.295	661.88
292.526	683.88
292.757	662.88
292.987	674.88
293.218	662.88
293.449	674.88
293.68	685.88
293.91	664.88
294.141	668.88
294.372	644.88
294.603	649.88
294.833	654.88
295.064	654.88
295.295	659.88
295.525	670.88
295.756	654.88
295.987	676.88
296.217	663.88
296.448	669.88
296.679	645.88
296.909	663.88
297.14	662.88
297.37	682.88
297.601	680.88
297.831	672.88
298.062	697.88
298.292	698.88
298.523	703.88
298.753	700.88
298.984	690.88
299.214	735.88
299.445	691.88
299.675	737.88
299.905	754.88
300.136	773.88
300.366	852.88
300.597	1076.88
300.827	1423.88
301.057	1881.88
301.288	1874.88
301.518	1237.88
301.748	985.88
301.979	903.88
302.209	898.88
302.439	879.88
302.669	938.88
302.9	1128.88
303.13	1473.88
303.36	2157.88
303.59	2832.88
303.82	2524.88
304.051	1534.88
304.281	1109.88
304.511	950.88
304.741	892.88
304.971	886.88
305.201	805.88
305.431	791.88
305.661	809.88
305.891	773.88
306.121	794.88
306.352	766.88
306.582	734.88
306.812	747.88
307.042	760.88
307.272	757.88
307.502	771.88
307.731	762.88
307.961	754.88
308.191	758.88
308.421	748.88
308.651	762.88
308.881	761.88
309.111	785.88
309.341	734.88
309.571	761.88
309.8	761.88
310.03	794.88
310.26	776.88
310.49	801.88
310.72	781.88
310.949	786.88
311.179	792.88
311.409	779.88
311.639	805.88
311.868	812.88
312.098	817.88
312.328	823.88
312.557	840.88
312.787	842.88
313.017	833.88
313.246	828.88
313.476	840.88
313.706	849.88
313.935	872.88
314.165	893.88
314.394	962.88
314.624	918.88
314.853	902.88
315.083	890.88
315.312	872.88
315.542	888.88
315.771	914.88
316.001	917.88
316.23	942.88
316.46	967.88
316.689	1039.88
316.919	1222.88
317.148	1736.88
317.377	2641.88
317.607	3842.88
317.836	3878.88
318.065	2326.88
318.295	1560.88
318.524	1287.88
318.753	1101.88
318.983	1066.88
319.212	1008.88
319.441	1003.88
319.67	974.88
319.9	957.88
320.129	955.88
320.358	974.88
320.587	941.88
320.816	967.88
321.046	947.88
321.275	962.88
321.504	997.88
321.733	983.88
321.962	1005.88
322.191	1040.88
322.42	1013.88
322.649	1009.88
322.878	1033.88
323.108	1010.88
323.337	1025.88
323.566	1049.88
323.795	1056.88
324.024	1064.88
324.253	1076.88
324.482	1116.88
324.71	1136.88
324.939	1226.88
325.168	1275.88
325.397	1316.88
325.626	1488.88
325.855	2078.88
326.084	3128.88
326.313	4602.88
326.542	4893.88
326.77	3136.88
326.999	2118.88
327.228	1862.88
327.457	1744.88
327.686	1761.88
327.914	1860.88
328.143	2114.88
328.372	2450.88
328.6	2652.88
328.829	2439.88
329.058	2139.88
329.287	1936.88
329.515	1760.88
329.744	1643.88
329.972	1567.88
330.201	1524.88
330.43	1460.88
330.658	1444.88
330.887	1404.88
331.115	1402.88
331.344	1387.88
331.572	1380.88
331.801	1380.88
332.03	1396.88
332.258	1380.88
332.486	1470.88
332.715	1625.88
332.943	1957.88
333.172	2324.88
333.4	2317.88
333.629	1830.88
333.857	1716.88
334.085	1765.88
334.314	1801.88
334.542	1968.88
334.771	2208.88
334.999	2567.88
335.227	3191.88
335.455	3502.88
335.684	3243.88
335.912	2850.88
336.14	2425.88
336.369	2182.88
336.597	2033.88
336.825	1919.88
337.053	1769.88
337.281	1683.88
337.51	1574.88
337.738	1505.88
337.966	1462.88
338.194	1430.88
338.422	1409.88
338.65	1360.88
338.878	1318.88
339.106	1268.88
339.334	1308.88
339.562	1289.88
339.79	1248.88
340.018	1238.88
340.246	1253.88
340.474	1211.88
340.702	1221.88
340.93	1206.88
341.158	1216.88
341.386	1212.88
341.614	1218.88
341.842	1209.88
342.07	1156.88
342.298	1143.88
342.526	1147.88
342.754	1143.88
342.981	1133.88
343.209	1128.88
343.437	1136.88
343.665	1166.88
343.893	1140.88
344.12	1148.88
344.348	1163.88
344.576	1149.88
344.804	1109.88
345.031	1060.88
345.259	1056.88
345.487	1082.88
345.714	1090.88
345.942	1039.88
346.17	1086.88
346.397	1093.88
346.625	1051.88
346.853	1043.88
347.08	1044.88
347.308	1043.88
347.535	1009.88
347.763	1028.88
347.99	1024.88
348.218	1013.88
348.445	1018.88
348.673	1009.88
348.9	1033.88
349.128	1003.88
349.355	1012.88
349.583	995.88
349.81	1025.88
350.037	1029.88
350.265	1003.88
350.492	1012.88
350.72	981.88
350.947	1033.88
351.174	1026.88
351.402	954.88
351.629	999.88
351.856	1007.88
352.083	972.88
352.311	989.88
352.538	972.88
352.765	965.88
352.992	994.88
353.22	1013.88
353.447	1037.88
353.674	1000.88
353.901	1016.88
354.128	1021.88
354.355	1005.88
354.583	987.88
354.81	1003.88
355.037	1029.88
355.264	1026.88
355.491	1048.88
355.718	1024.88
355.945	1017.88
356.172	1056.88
356.399	1057.88
356.626	1033.88
356.853	1048.88
357.08	1023.88
357.307	1050.88
357.534	1052.88
357.761	1048.88
357.988	1083.88
358.215	1054.88
358.441	1035.88
358.668	1048.88
358.895	1056.88
359.122	1029.88
359.349	1029.88
359.576	1053.88
359.802	1047.88
360.029	1045.88
360.256	1067.88
360.483	1091.88
360.709	1052.88
360.936	1076.88
361.163	1045.88
361.39	1036.88
361.616	1074.88
361.843	1038.88
362.07	1056.88
362.296	1054.88
362.523	1080.88
362.749	1034.88
362.976	1056.88
363.203	1065.88
363.429	1044.88
363.656	1053.88
363.882	1053.88
364.109	1053.88
364.335	1054.88
364.562	1096.88
364.788	1063.88
365.015	1054.88
365.241	1057.88
365.468	1150.88
365.694	1151.88
365.92	1116.88
366.147	1114.88
366.373	1102.88
366.599	1059.88
366.826	1096.88
367.052	1080.88
367.278	1080.88
367.505	1080.88
367.731	1086.88
367.957	1090.88
368.184	1089.88
368.41	1137.88
368.636	1103.88
368.862	1111.88
369.089	1120.88
369.315	1097.88
369.541	1093.88
369.767	1104.88
369.993	1107.88
370.219	1099.88
370.445	1075.88
370.672	1102.88
370.898	1104.88
371.124	1100.88
371.35	1145.88
371.576	1169.88
371.802	1152.88
372.028	1156.88
372.254	1176.88
372.48	1152.88
372.706	1142.88
372.932	1152.88
373.158	1145.88
373.384	1172.88
373.61	1138.88
373.835	1160.88
374.061	1156.88
374.287	1157.88
374.513	1185.88
374.739	1194.88
374.965	1218.88
375.191	1244.88
375.416	1221.88
375.642	1165.88
375.868	1203.88
376.094	1170.88
376.319	1146.88
376.545	1156.88
376.771	1154.88
376.997	1140.88
377.222	1110.88
377.448	1172.88
377.674	1153.88
377.899	1120.88
378.125	1118.88
378.35	1150.88
378.576	1114.88
378.802	1141.88
379.027	1141.88
379.253	1207.88
379.478	1218.88
379.704	1391.88
379.929	1920.88
380.155	2802.88
380.38	2955.88
380.606	1904.88
380.831	1413.88
381.057	1280.88
381.282	1214.88
381.507	1156.88
381.733	1143.88
381.958	1158.88
382.184	1118.88
382.409	1130.88
382.634	1128.88
382.86	1092.88
383.085	1124.88
383.31	1125.88
383.535	1159.88
383.761	1110.88
383.986	1148.88
384.211	1155.88
384.436	1170.88
384.662	1171.88
384.887	1165.88
385.112	1184.88
385.337	1176.88
385.562	1144.88
385.787	1172.88
386.013	1158.88
386.238	1174.88
386.463	1195.88
386.688	1209.88
386.913	1179.88
387.138	1195.88
387.363	1164.88
387.588	1147.88
387.813	1173.88
388.038	1182.88
388.263	1161.88
388.488	1161.88
388.713	1182.88
388.938	1172.88
389.163	1168.88
389.387	1206.88
389.612	1204.88
389.837	1179.88
390.062	1177.88
390.287	1204.88
390.512	1182.88
390.736	1240.88
390.961	1212.88
391.186	1216.88
391.411	1241.88
391.636	1225.88
391.86	1254.88
392.085	1223.88
392.31	1226.88
392.534	1231.88
392.759	1212.88
392.984	1211.88
393.208	1232.88
393.433	1267.88
393.658	1249.88
393.882	1201.88
394.107	1221.88
394.331	1180.88
394.556	1213.88
394.78	1196.88
395.005	1240.88
395.229	1172.88
395.454	1225.88
395.678	1247.88
395.903	1237.88
396.127	1236.88
396.352	1216.88
396.576	1203.88
396.801	1229.88
397.025	1257.88
397.249	1297.88
397.474	1237.88
397.698	1235.88
397.922	1270.88
398.147	1247.88
398.371	1248.88
398.595	1280.88
398.82	1329.88
399.044	1358.88
399.268	1434.88
399.492	1525.88
399.717	1536.88
399.941	1573.88
400.165	1498.88
400.389	1432.88
400.613	1396.88
400.837	1372.88
401.062	1336.88
401.286	1304.88
401.51	1290.88
401.734	1312.88
401.958	1336.88
402.182	1302.88
402.406	1317.88
402.63	1320.88
402.854	1315.88
403.078	1334.88
403.302	1313.88
403.526	1371.88
403.75	1362.88
403.974	1397.88
404.198	1356.88
404.422	1378.88
404.645	1326.88
404.869	1353.88
405.093	1366.88
405.317	1337.88
405.541	1381.88
405.765	1372.88
405.988	1405.88
406.212	1378.88
406.436	1385.88
406.66	1396.88
406.883	1400.88
407.107	1443.88
407.331	1456.88
407.555	1464.88
407.778	1474.88
408.002	1435.88
408.226	1449.88
408.449	1418.88
408.673	1389.88
408.896	1382.88
409.12	1402.88
409.344	1381.88
409.567	1359.88
409.791	1336.88
410.014	1353.88
410.238	1310.88
410.461	1328.88
410.685	1328.88
410.908	1325.88
411.132	1320.88
411.355	1314.88
411.578	1306.88
411.802	1301.88
412.025	1292.88
412.249	1323.88
412.472	1341.88
412.695	1264.88
412.919	1287.88
413.142	1275.88
413.365	1286.88
413.589	1280.88
413.812	1291.88
414.035	1243.88
414.258	1252.88
414.482	1304.88
414.705	1281.88
414.928	1278.88
415.151	1246.88
415.374	1229.88
415.597	1271.88
415.821	1232.88
416.044	1229.88
416.267	1245.88
416.49	1227.88
416.713	1252.88
416.936	1235.88
417.159	1205.88
417.382	1176.88
417.605	1186.88
417.828	1213.88
418.051	1249.88
418.274	1260.88
418.497	1231.88
418.72	1300.88
418.943	1245.88
419.166	1297.88
419.389	1365.88
419.611	1345.88
419.834	1300.88
420.057	1264.88
420.28	1224.88
420.503	1244.88
420.726	1214.88
420.948	1211.88
421.171	1204.88
421.394	1229.88
421.617	1238.88
421.839	1265.88
422.062	1259.88
422.285	1224.88
422.507	1266.88
422.73	1283.88
422.953	1256.88
423.175	1252.88
423.398	1286.88
423.621	1240.88
423.843	1262.88
424.066	1224.88
424.288	1190.88
424.511	1234.88
424.733	1228.88
424.956	1254.88
425.178	1211.88
425.401	1228.88
425.623	1204.88
425.846	1213.88
426.068	1221.88
426.291	1200.88
426.513	1180.88
426.735	1165.88
426.958	1170.88
427.18	1162.88
427.402	1143.88
427.625	1176.88
427.847	1170.88
428.069	1148.88
428.292	1165.88
428.514	1165.88
428.736	1162.88
428.958	1167.88
429.181	1141.88
429.403	1106.88
429.625	1132.88
429.847	1152.88
430.069	1175.88
430.292	1223.88
430.514	1209.88
430.736	1210.88
430.958	1141.88
431.18	1136.88
431.402	1123.88
431.624	1117.88
431.846	1141.88
432.068	1124.88
432.29	1117.88
432.512	1113.88
432.734	1172.88
432.956	1123.88
433.178	1160.88
433.4	1146.88
433.622	1149.88
433.844	1165.88
434.066	1110.88
434.287	1123.88
434.509	1150.88
434.731	1191.88
434.953	1178.88
435.175	1151.88
435.397	1190.88
435.618	1128.88
435.84	1145.88
436.062	1108.88
436.284	1139.88
436.505	1135.88
436.727	1128.88
436.949	1125.88
437.17	1146.88
437.392	1112.88
437.614	1098.88
437.835	1095.88
438.057	1078.88
438.278	1067.88
438.5	1128.88
438.721	1140.88
438.943	1166.88
439.165	1156.88
439.386	1184.88
439.608	1188.88
439.829	1147.88
440.05	1225.88
440.272	1217.88
440.493	1156.88
440.715	1165.88
440.936	1183.88
441.158	1201.88
441.379	1229.88
441.6	1242.88
441.822	1275.88
442.043	1304.88
442.264	1342.88
442.486	1246.88
442.707	1244.88
442.928	1243.88
443.149	1225.88
443.371	1205.88
443.592	1224.88
443.813	1259.88
444.034	1236.88
444.255	1244.88
444.476	1295.88
444.698	1269.88
444.919	1284.88
445.14	1366.88
445.361	1292.88
445.582	1242.88
445.803	1228.88
446.024	1213.88
446.245	1215.88
446.466	1232.88
446.687	1203.88
446.908	1208.88
447.129	1133.88
447.35	1173.88
447.571	1154.88
447.792	1125.88
448.013	1119.88
448.234	1128.88
448.455	1113.88
448.675	1150.88
448.896	1172.88
449.117	1180.88
449.338	1237.88
449.559	1316.88
449.779	1216.88
450	1110.88
450.221	1096.88
450.442	1089.88
450.662	1075.88
450.883	1058.88
451.104	1104.88
451.324	1098.88
451.545	1095.88
451.766	1058.88
451.986	1109.88
452.207	1166.88
452.428	1383.88
452.648	1858.88
452.869	1605.88
453.089	1256.88
453.31	1184.88
453.53	1180.88
453.751	1236.88
453.971	1274.88
454.192	1292.88
454.412	1123.88
454.633	1072.88
454.853	1060.88
455.073	1073.88
455.294	1048.88
455.514	1056.88
455.734	1028.88
455.955	1026.88
456.175	1047.88
456.395	1029.88
456.616	1050.88
456.836	1031.88
457.056	1045.88
457.276	1042.88
457.497	1115.88
457.717	1114.88
457.937	1107.88
458.157	1085.88
458.377	1100.88
458.598	1116.88
458.818	1089.88
459.038	1109.88
459.258	1098.88
459.478	1113.88
459.698	1126.88
459.918	1151.88
460.138	1192.88
460.358	1225.88
460.578	1230.88
460.798	1221.88
461.018	1236.88
461.238	1214.88
461.458	1248.88
461.678	1238.88
461.898	1249.88
462.118	1285.88
462.338	1278.88
462.558	1322.88
462.777	1320.88
462.997	1365.88
463.217	1404.88
463.437	1463.88
463.657	1451.88
463.876	1473.88
464.096	1369.88
464.316	1316.88
464.536	1348.88
464.755	1340.88
464.975	1268.88
465.195	1261.88
465.414	1188.88
465.634	1149.88
465.854	1139.88
466.073	1151.88
466.293	1165.88
466.512	1159.88
466.732	1133.88
466.951	1188.88
467.171	1261.88
467.391	1236.88
467.61	1182.88
467.829	1132.88
468.049	1130.88
468.268	1106.88
468.488	1090.88
468.707	1121.88
468.927	1120.88
469.146	1093.88
469.365	1132.88
469.585	1124.88
469.804	1149.88
470.023	1192.88
470.243	1172.88
470.462	1190.88
470.681	1275.88
470.901	1366.88
471.12	1515.88
471.339	1561.88
471.558	1327.88
471.777	1227.88
471.997	1204.88
472.216	1172.88
472.435	1127.88
472.654	1080.88
472.873	1137.88
473.092	1102.88
473.311	1130.88
473.53	1119.88
473.749	1193.88
473.968	1192.88
474.187	1134.88
474.406	1086.88
474.625	1100.88
474.844	1110.88
475.063	1139.88
475.282	1145.88
475.501	1127.88
475.72	1102.88
475.939	1149.88
476.158	1190.88
476.377	1168.88
476.596	1178.88
476.814	1175.88
477.033	1163.88
477.252	1160.88
477.471	1208.88
477.69	1237.88
477.908	1282.88
478.127	1306.88
478.346	1257.88
478.564	1280.88
478.783	1284.88
479.002	1342.88
479.22	1355.88
479.439	1330.88
479.658	1328.88
479.876	1327.88
480.095	1329.88
480.313	1330.88
480.532	1364.88
480.751	1406.88
480.969	1337.88
481.188	1328.88
481.406	1345.88
481.624	1340.88
481.843	1328.88
482.061	1318.88
482.28	1336.88
482.498	1325.88
482.717	1309.88
482.935	1362.88
483.153	1410.88
483.372	1386.88
483.59	1397.88
483.808	1414.88
484.027	1456.88
484.245	1475.88
484.463	1662.88
484.681	1815.88
484.9	1671.88
485.118	1584.88
485.336	1492.88
485.554	1513.88
485.772	1630.88
485.99	1839.88
486.209	1970.88
486.427	1709.88
486.645	1523.88
486.863	1484.88
487.081	1479.88
487.299	1438.88
487.517	1430.88
487.735	1456.88
487.953	1460.88
488.171	1435.88
488.389	1434.88
488.607	1419.88
488.825	1388.88
489.043	1348.88
489.261	1376.88
489.479	1389.88
489.696	1398.88
489.914	1388.88
490.132	1378.88
490.35	1400.88
490.568	1406.88
490.786	1434.88
491.003	1423.88
491.221	1493.88
491.439	1478.88
491.657	1459.88
491.874	1481.88
492.092	1537.88
492.31	1529.88
492.527	1492.88
492.745	1467.88
492.963	1473.88
493.18	1478.88
493.398	1480.88
493.615	1460.88
493.833	1474.88
494.05	1479.88
494.268	1462.88
494.485	1465.88
494.703	1479.88
494.92	1430.88
495.138	1485.88
495.355	1464.88
495.573	1486.88
495.79	1483.88
496.008	1524.88
496.225	1506.88
496.442	1525.88
496.66	1560.88
496.877	1587.88
497.094	1599.88
497.312	1580.88
497.529	1550.88
497.746	1602.88
497.963	1599.88
498.181	1662.88
498.398	1678.88
498.615	1758.88
498.832	1765.88
499.049	1883.88
499.267	1986.88
499.484	2109.88
499.701	2129.88
499.918	2248.88
500.135	2365.88
500.352	2486.88
500.569	2525.88
500.786	2491.88
501.003	2400.88
501.22	2279.88
501.437	2167.88
501.654	2027.88
501.871	1961.88
502.088	1885.88
502.305	1809.88
502.522	1760.88
502.739	1706.88
502.956	1656.88
503.172	1627.88
503.389	1572.88
503.606	1548.88
503.823	1549.88
504.04	1529.88
504.256	1522.88
504.473	1524.88
504.69	1491.88
504.907	1493.88
505.123	1454.88
505.34	1447.88
505.557	1431.88
505.773	1382.88
505.99	1378.88
506.207	1332.88
506.423	1352.88
506.64	1344.88
506.856	1313.88
507.073	1297.88
507.289	1315.88
507.506	1326.88
507.722	1255.88
507.939	1318.88
508.155	1273.88
508.372	1252.88
508.588	1248.88
508.805	1224.88
509.021	1279.88
509.238	1272.88
509.454	1306.88
509.67	1393.88
509.887	1321.88
510.103	1296.88
510.319	1221.88
510.536	1249.88
510.752	1226.88
510.968	1234.88
511.184	1189.88
511.401	1193.88
511.617	1206.88
511.833	1218.88
512.049	1200.88
512.265	1212.88
512.481	1192.88
512.698	1181.88
512.914	1200.88
513.13	1214.88
513.346	1182.88
513.562	1211.88
513.778	1223.88
513.994	1216.88
514.21	1242.88
514.426	1289.88
514.642	1314.88
514.858	1269.88
515.074	1192.88
515.29	1227.88
515.506	1230.88
515.721	1249.88
515.937	1243.88
516.153	1250.88
516.369	1242.88
516.585	1272.88
516.801	1250.88
517.016	1289.88
517.232	1354.88
517.448	1354.88
517.664	1349.88
517.879	1384.88
518.095	1355.88
518.311	1356.88
518.527	1337.88
518.742	1326.88
518.958	1328.88
519.173	1358.88
519.389	1315.88
519.605	1286.88
519.82	1226.88
520.036	1272.88
520.251	1222.88
520.467	1219.88
520.682	1164.88
520.898	1203.88
521.113	1179.88
521.329	1197.88
521.544	1193.88
521.76	1188.88
521.975	1179.88
522.19	1147.88
522.406	1173.88
522.621	1180.88
522.836	1159.88
523.052	1184.88
523.267	1156.88
523.482	1182.88
523.698	1186.88
523.913	1143.88
524.128	1174.88
524.343	1174.88
524.559	1140.88
524.774	1138.88
524.989	1143.88
525.204	1182.88
525.419	1165.88
525.634	1146.88
525.849	1162.88
526.064	1126.88
526.28	1158.88
526.495	1148.88
526.71	1185.88
526.925	1180.88
527.14	1168.88
527.355	1165.88
527.57	1160.88
527.785	1146.88
527.999	1156.88
528.214	1173.88
528.429	1183.88
528.644	1187.88
528.859	1211.88
529.074	1222.88
529.289	1286.88
529.503	1245.88
529.718	1236.88
529.933	1204.88
530.148	1207.88
530.363	1218.88
530.577	1198.88
530.792	1206.88
531.007	1208.88
531.221	1208.88
531.436	1252.88
531.651	1260.88
531.865	1244.88
532.08	1256.88
532.295	1306.88
532.509	1340.88
532.724	1398.88
532.938	1376.88
533.153	1392.88
533.367	1451.88
533.582	1547.88
533.796	1494.88
534.011	1476.88
534.225	1428.88
534.44	1377.88
534.654	1392.88
534.868	1364.88
535.083	1326.88
535.297	1291.88
535.511	1328.88
535.726	1328.88
535.94	1276.88
536.154	1255.88
536.369	1222.88
536.583	1200.88
536.797	1192.88
537.011	1212.88
537.225	1204.88
537.44	1170.88
537.654	1194.88
537.868	1149.88
538.082	1169.88
538.296	1172.88
538.51	1132.88
538.724	1143.88
538.938	1158.88
539.153	1157.88
539.367	1131.88
539.581	1160.88
539.795	1108.88
540.009	1131.88
540.222	1101.88
540.436	1132.88
540.65	1121.88
540.864	1143.88
541.078	1156.88
541.292	1222.88
541.506	1414.88
541.72	1431.88
541.934	1296.88
542.147	1290.88
542.361	1202.88
542.575	1168.88
542.789	1125.88
543.002	1083.88
543.216	1089.88
543.43	1077.88
543.644	1085.88
543.857	1108.88
544.071	1119.88
544.285	1120.88
544.498	1131.88
544.712	1117.88
544.925	1117.88
545.139	1115.88
545.352	1158.88
545.566	1158.88
545.779	1117.88
545.993	1153.88
546.206	1166.88
546.42	1144.88
546.633	1138.88
546.847	1107.88
547.06	1124.88
547.274	1141.88
547.487	1130.88
547.7	1146.88
547.914	1148.88
548.127	1168.88
548.34	1141.88
548.554	1148.88
548.767	1127.88
548.98	1148.88
549.193	1148.88
549.407	1140.88
549.62	1146.88
549.833	1155.88
550.046	1133.88
550.259	1109.88
550.473	1099.88
550.686	1108.88
550.899	1146.88
551.112	1127.88
551.325	1106.88
551.538	1099.88
551.751	1103.88
551.964	1090.88
552.177	1149.88
552.39	1160.88
552.603	1184.88
552.816	1178.88
553.029	1228.88
553.242	1207.88
553.455	1206.88
553.667	1262.88
553.88	1247.88
554.093	1261.88
554.306	1257.88
554.519	1250.88
554.732	1268.88
554.944	1306.88
555.157	1294.88
555.37	1313.88
555.583	1348.88
555.795	1396.88
556.008	1475.88
556.221	1561.88
556.433	1632.88
556.646	1671.88
556.859	1631.88
557.071	1555.88
557.284	1550.88
557.496	1536.88
557.709	1481.88
557.921	1456.88
558.134	1489.88
558.346	1509.88
558.559	1556.88
558.771	1629.88
558.984	1672.88
559.196	1790.88
559.409	1746.88
559.621	1641.88
559.833	1582.88
560.046	1489.88
560.258	1453.88
560.47	1377.88
560.683	1323.88
560.895	1331.88
561.107	1283.88
561.32	1256.88
561.532	1208.88
561.744	1205.88
561.956	1190.88
562.168	1152.88
562.381	1105.88
562.593	1117.88
562.805	1145.88
563.017	1150.88
563.229	1158.88
563.441	1237.88
563.653	1127.88
563.865	1082.88
564.077	1064.88
564.289	1047.88
564.501	1009.88
564.713	1010.88
564.925	1031.88
565.137	1030.88
565.349	1039.88
565.561	1062.88
565.773	1047.88
565.985	1047.88
566.197	1069.88
566.408	1080.88
566.62	1144.88
566.832	1157.88
567.044	1160.88
567.255	1163.88
567.467	1166.88
567.679	1213.88
567.891	1255.88
568.102	1316.88
568.314	1560.88
568.526	1328.88
568.737	1163.88
568.949	1068.88
569.161	1031.88
569.372	969.88
569.584	930.88
569.795	928.88
570.007	902.88
570.218	949.88
570.43	964.88
570.641	908.88
570.853	900.88
571.064	892.88
571.276	861.88
571.487	843.88
571.698	833.88
571.91	838.88
572.121	846.88
572.333	810.88
572.544	826.88
572.755	849.88
572.966	974.88
573.178	902.88
573.389	806.88
573.6	813.88
573.811	769.88
574.023	779.88
574.234	767.88
574.445	750.88
574.656	759.88
574.867	738.88
575.078	752.88
575.289	749.88
575.501	746.88
575.712	714.88
575.923	746.88
576.134	769.88
576.345	747.88
576.556	747.88
576.767	771.88
576.978	766.88
577.188	766.88
577.399	757.88
577.61	778.88
577.821	784.88
578.032	763.88
578.243	794.88
578.454	792.88
578.665	796.88
578.875	832.88
579.086	857.88
579.297	885.88
579.508	894.88
579.718	959.88
579.929	1079.88
580.14	1137.88
580.35	1205.88
580.561	1151.88
580.772	1083.88
580.982	1020.88
581.193	968.88
581.403	922.88
581.614	893.88
581.825	841.88
582.035	830.88
582.246	799.88
582.456	785.88
582.667	781.88
582.877	749.88
583.087	737.88
583.298	709.88
583.508	686.88
583.719	681.88
583.929	683.88
584.139	667.88
584.35	659.88
584.56	640.88
584.77	663.88
584.981	644.88
585.191	637.88
585.401	648.88
585.611	612.88
585.821	633.88
586.032	610.88
586.242	610.88
586.452	608.88
586.662	598.88
586.872	584.88
587.082	582.88
587.292	600.88
587.502	587.88
587.713	588.88
587.923	565.88
588.133	555.88
588.343	574.88
588.553	560.88
588.762	540.88
588.972	549.88
589.182	566.88
589.392	573.88
589.602	547.88
589.812	550.88
590.022	545.88
590.232	539.88
590.441	541.88
590.651	555.88
590.861	559.88
591.071	529.88
591.281	563.88
591.49	538.88
591.7	552.88
591.91	546.88
592.119	553.88
592.329	520.88
592.539	527.88
592.748	570.88
592.958	573.88
593.167	572.88
593.377	580.88
593.587	590.88
593.796	564.88
594.006	573.88
594.215	580.88
594.424	568.88
594.634	562.88
594.843	544.88
595.053	539.88
595.262	540.88
595.472	524.88
595.681	504.88
595.89	521.88
596.1	503.88
596.309	511.88
596.518	482.88
596.727	482.88
596.937	497.88
597.146	481.88
597.355	474.88
597.564	456.88
597.774	451.88
597.983	474.88
598.192	466.88
598.401	440.88
598.61	470.88
598.819	440.88
599.028	453.88
599.237	463.88
599.446	466.88
599.655	454.88
599.864	469.88
600.073	457.88
600.282	459.88
600.491	444.88
600.7	453.88
600.909	450.88
601.118	449.88
601.327	452.88
601.536	439.88
601.745	468.88
601.953	489.88
602.162	539.88
602.371	485.88
602.58	453.88
602.789	464.88
602.997	444.88
603.206	446.88
603.415	449.88
603.623	429.88
603.832	458.88
604.041	449.88
604.249	426.88
604.458	420.88
604.666	422.88
604.875	416.88
605.084	420.88
605.292	429.88
605.501	442.88
605.709	444.88
605.918	442.88
606.126	450.88
606.334	421.88
606.543	456.88
606.751	461.88
606.96	524.88
607.168	567.88
607.376	475.88
607.585	450.88
607.793	433.88
608.001	452.88
608.21	448.88
608.418	438.88
608.626	424.88
608.834	417.88
609.043	411.88
609.251	425.88
609.459	417.88
609.667	416.88
609.875	425.88
610.083	417.88
610.291	386.88
610.499	411.88
610.707	382.88
610.916	410.88
611.124	402.88
611.332	406.88
611.54	399.88
611.748	400.88
611.955	405.88
612.163	396.88
612.371	397.88
612.579	404.88
612.787	396.88
612.995	391.88
613.203	419.88
613.411	394.88
613.618	381.88
613.826	411.88
614.034	380.88
614.242	387.88
614.449	405.88
614.657	413.88
614.865	392.88
615.072	392.88
615.28	399.88
615.488	400.88
615.695	397.88
615.903	389.88
616.111	388.88
616.318	407.88
616.526	394.88
616.733	396.88
616.941	388.88
617.148	404.88
617.356	409.88
617.563	395.88
617.771	370.88
617.978	410.88
618.185	389.88
618.393	378.88
618.6	388.88
618.807	381.88
619.015	379.88
619.222	348.88
619.429	357.88
619.637	353.88
619.844	341.88
620.051	347.88
620.258	362.88
620.466	362.88
620.673	350.88
620.88	333.88
621.087	363.88
621.294	338.88
621.501	354.88
621.708	362.88
621.915	350.88
622.122	349.88
622.329	357.88
622.536	358.88
622.743	354.88
622.95	357.88
623.157	351.88
623.364	347.88
623.571	344.88
623.778	363.88
623.985	355.88
624.192	348.88
624.399	342.88
624.606	370.88
624.812	348.88
625.019	336.88
625.226	327.88
625.433	341.88
625.639	334.88
625.846	337.88
626.053	327.88
626.259	341.88
626.466	308.88
626.673	312.88
626.879	334.88
627.086	302.88
627.293	334.88
627.499	316.88
627.706	333.88
627.912	329.88
628.119	318.88
628.325	325.88
628.532	327.88
628.738	341.88
628.945	333.88
629.151	346.88
629.357	317.88
629.564	316.88
629.77	313.88
629.976	308.88
630.183	299.88
630.389	299.88
630.595	297.88
630.802	324.88
631.008	321.88
631.214	299.88
631.42	309.88
631.627	309.88
631.833	305.88
632.039	298.88
632.245	292.88
632.451	295.88
632.657	308.88
632.863	320.88
633.069	305.88
633.275	289.88
633.481	292.88
633.688	274.88
633.893	290.88
634.099	313.88
634.305	305.88
634.511	289.88
634.717	331.88
634.923	314.88
635.129	340.88
635.335	359.88
635.541	331.88
635.747	320.88
635.952	317.88
636.158	293.88
636.364	289.88
636.57	297.88
636.775	310.88
636.981	305.88
637.187	286.88
637.392	311.88
637.598	289.88
637.804	300.88
638.009	306.88
638.215	311.88
638.421	304.88
638.626	292.88
638.832	301.88
639.037	293.88
639.243	295.88
639.448	317.88
639.654	303.88
639.859	311.88
640.065	295.88
640.27	320.88
640.475	318.88
640.681	317.88
640.886	329.88
641.091	319.88
641.297	320.88
641.502	334.88
641.707	306.88
641.913	322.88
642.118	317.88
642.323	317.88
642.528	350.88
642.733	356.88
642.939	346.88
643.144	350.88
643.349	355.88
643.554	377.88
643.759	389.88
643.964	420.88
644.169	411.88
644.374	430.88
644.579	477.88
644.784	494.88
644.989	535.88
645.194	606.88
645.399	705.88
645.604	712.88
645.809	595.88
646.014	480.88
646.219	428.88
646.423	383.88
646.628	380.88
646.833	338.88
647.038	331.88
647.243	308.88
647.447	290.88
647.652	300.88
647.857	297.88
648.062	317.88
648.266	289.88
648.471	299.88
648.676	280.88
648.88	275.88
649.085	286.88
649.289	288.88
649.494	294.88
649.698	265.88
649.903	260.88
650.107	259.88
650.312	267.88
650.516	255.88
650.721	260.88
650.925	249.88
651.13	229.88
651.334	229.88
651.539	229.88
651.743	232.88
651.947	236.88
652.152	238.88
652.356	235.88
652.56	241.88
652.764	289.88
652.969	247.88
653.173	230.88
653.377	201.88
653.581	206.88
653.785	203.88
653.99	208.88
654.194	216.88
654.398	210.88
654.602	218.88
654.806	224.88
655.01	203.88
655.214	201.88
655.418	197.88
655.622	217.88
655.826	218.88
656.03	234.88
656.234	226.88
656.438	235.88
656.642	232.88
656.846	226.88
657.049	226.88
657.253	212.88
657.457	193.88
657.661	186.88
657.865	171.88
658.068	173.88
658.272	178.88
658.476	163.88
658.68	151.88
658.883	147.88
659.087	145.88
659.291	142.88
659.494	138.88
659.698	127.88
659.901	125.88
660.105	114.88
660.309	117.88
660.512	116.88
660.716	124.88
660.919	113.88
661.123	122.88
661.326	116.88
661.53	116.88
661.733	107.88
661.936	102.88
662.14	91.88
662.343	101.88
662.546	102.88
662.75	87.88
662.953	90.88
663.156	85.88
663.36	86.88
663.563	100.88
663.766	91.88
663.969	100.88
664.173	81.88
664.376	91.88
664.579	87.88
664.782	87.88
664.985	105.88
665.188	76.88
665.391	82.88
665.594	81.88
665.797	88.88
666	93.88
666.203	94.88
666.406	89.88
666.609	71.88
666.812	90.88
667.015	80.88
667.218	67.88
667.421	71.88
667.624	72.88
667.827	77.88
668.03	95.88
668.232	86.88
668.435	82.88
668.638	99.88
668.841	86.88
669.043	88.88
669.246	73.88
669.449	91.88
669.651	84.88
669.854	80.88
670.057	90.88
670.259	72.88
670.462	90.88
670.665	100.88
670.867	72.88
671.07	79.88
671.272	78.88
671.475	77.88
671.677	85.88
671.88	79.88
672.082	81.88
672.284	73.88
672.487	78.88
672.689	67.88
672.892	84.88
