Data from SnStandardFlinnAPT0064_LampEnergy5.5_LIBS07252019.E.O._I.C._HRD10591_15-16-31-491.txt Node
Date: Thu Jul 25 15:16:31 EDT 2019
User: cochatt
Spectrometer: HR+D1059
Trigger mode: 1
Integration Time (sec): 1.000000E-1
Scans to average: 1
Electric dark correction enabled: true
Nonlinearity correction enabled: false
Boxcar width: 0
XAxis mode: Wavelengths
Number of Pixels in Spectrum: 2048
>>>>>Begin Spectral Data<<<<<
223.165	-14.38
223.4	-14.38
223.635	-14.38
223.869	-25.38
224.104	-25.38
224.338	-14.38
224.573	-14.38
224.808	-7.38
225.042	-1.38
225.277	3.62
225.511	6.62
225.746	1.62
225.98	8.62
226.215	8.62
226.449	15.62
226.683	18.62
226.918	19.62
227.152	19.62
227.387	49.62
227.621	31.62
227.856	35.62
228.09	56.62
228.324	68.62
228.559	64.62
228.793	95.62
229.027	161.62
229.262	175.62
229.496	161.62
229.73	175.62
229.964	165.62
230.199	165.62
230.433	174.62
230.667	167.62
230.901	167.62
231.136	169.62
231.37	181.62
231.604	198.62
231.838	228.62
232.072	245.62
232.306	258.62
232.541	220.62
232.775	230.62
233.009	222.62
233.243	215.62
233.477	221.62
233.711	244.62
233.945	279.62
234.179	216.62
234.413	218.62
234.647	230.62
234.881	215.62
235.115	252.62
235.349	284.62
235.583	373.62
235.817	462.62
236.051	448.62
236.285	301.62
236.519	250.62
236.753	253.62
236.987	245.62
237.221	237.62
237.455	247.62
237.689	231.62
237.922	216.62
238.156	231.62
238.39	242.62
238.624	223.62
238.858	228.62
239.091	224.62
239.325	248.62
239.559	227.62
239.793	239.62
240.027	263.62
240.26	249.62
240.494	244.62
240.728	267.62
240.961	270.62
241.195	290.62
241.429	326.62
241.662	316.62
241.896	347.62
242.13	402.62
242.363	545.62
242.597	654.62
242.83	638.62
243.064	644.62
243.298	743.62
243.531	623.62
243.765	444.62
243.998	349.62
244.232	318.62
244.465	306.62
244.699	301.62
244.932	300.62
245.166	302.62
245.399	297.62
245.633	321.62
245.866	316.62
246.099	306.62
246.333	302.62
246.566	303.62
246.8	288.62
247.033	303.62
247.266	302.62
247.5	316.62
247.733	297.62
247.966	336.62
248.2	326.62
248.433	377.62
248.666	416.62
248.899	396.62
249.133	356.62
249.366	392.62
249.599	407.62
249.832	441.62
250.066	445.62
250.299	354.62
250.532	345.62
250.765	337.62
250.998	329.62
251.231	322.62
251.465	328.62
251.698	340.62
251.931	322.62
252.164	358.62
252.397	368.62
252.63	346.62
252.863	362.62
253.096	347.62
253.329	348.62
253.562	364.62
253.795	354.62
254.028	354.62
254.261	372.62
254.494	390.62
254.727	444.62
254.96	538.62
255.193	505.62
255.426	421.62
255.659	398.62
255.892	400.62
256.124	386.62
256.357	391.62
256.59	405.62
256.823	426.62
257.056	473.62
257.289	559.62
257.521	605.62
257.754	504.62
257.987	424.62
258.22	420.62
258.452	391.62
258.685	420.62
258.918	430.62
259.151	432.62
259.383	466.62
259.616	518.62
259.849	546.62
260.081	474.62
260.314	432.62
260.547	417.62
260.779	425.62
261.012	438.62
261.244	458.62
261.477	438.62
261.71	431.62
261.942	436.62
262.175	459.62
262.407	471.62
262.64	498.62
262.872	500.62
263.105	509.62
263.337	536.62
263.57	556.62
263.802	567.62
264.035	584.62
264.267	622.62
264.499	602.62
264.732	624.62
264.964	641.62
265.197	637.62
265.429	621.62
265.661	650.62
265.894	694.62
266.126	715.62
266.358	837.62
266.591	804.62
266.823	678.62
267.055	649.62
267.287	620.62
267.52	590.62
267.752	562.62
267.984	580.62
268.216	582.62
268.448	565.62
268.681	551.62
268.913	544.62
269.145	558.62
269.377	540.62
269.609	552.62
269.841	555.62
270.073	601.62
270.306	680.62
270.538	921.62
270.77	1318.62
271.002	1584.62
271.234	1103.62
271.466	745.62
271.698	616.62
271.93	580.62
272.162	552.62
272.394	564.62
272.626	548.62
272.858	529.62
273.09	552.62
273.322	568.62
273.553	542.62
273.785	494.62
274.017	526.62
274.249	539.62
274.481	536.62
274.713	548.62
274.945	554.62
275.176	519.62
275.408	537.62
275.64	536.62
275.872	554.62
276.104	585.62
276.335	533.62
276.567	556.62
276.799	530.62
277.031	574.62
277.262	590.62
277.494	589.62
277.726	642.62
277.957	728.62
278.189	815.62
278.421	792.62
278.652	697.62
278.884	654.62
279.115	618.62
279.347	609.62
279.579	594.62
279.81	619.62
280.042	607.62
280.273	612.62
280.505	617.62
280.736	639.62
280.968	663.62
281.199	701.62
281.431	810.62
281.662	834.62
281.894	745.62
282.125	673.62
282.356	697.62
282.588	683.62
282.819	727.62
283.051	770.62
283.282	824.62
283.513	1018.62
283.745	1443.62
283.976	2319.62
284.207	3255.62
284.439	2846.62
284.67	1703.62
284.901	1409.62
285.132	1401.62
285.364	1330.62
285.595	1060.62
285.826	974.62
286.057	1115.62
286.288	1561.62
286.52	2103.62
286.751	1906.62
286.982	1191.62
287.213	883.62
287.444	804.62
287.675	756.62
287.906	769.62
288.138	713.62
288.369	727.62
288.6	729.62
288.831	711.62
289.062	702.62
289.293	687.62
289.524	700.62
289.755	748.62
289.986	745.62
290.217	730.62
290.448	719.62
290.679	728.62
290.91	722.62
291.141	760.62
291.371	794.62
291.602	795.62
291.833	799.62
292.064	731.62
292.295	711.62
292.526	712.62
292.757	713.62
292.987	680.62
293.218	689.62
293.449	673.62
293.68	684.62
293.91	698.62
294.141	662.62
294.372	642.62
294.603	673.62
294.833	710.62
295.064	666.62
295.295	680.62
295.525	659.62
295.756	658.62
295.987	656.62
296.217	681.62
296.448	664.62
296.679	685.62
296.909	681.62
297.14	695.62
297.37	682.62
297.601	684.62
297.831	698.62
298.062	700.62
298.292	713.62
298.523	721.62
298.753	718.62
298.984	715.62
299.214	730.62
299.445	713.62
299.675	757.62
299.905	777.62
300.136	796.62
300.366	876.62
300.597	1114.62
300.827	1532.62
301.057	2054.62
301.288	2008.62
301.518	1298.62
301.748	1001.62
301.979	924.62
302.209	907.62
302.439	908.62
302.669	1001.62
302.9	1179.62
303.13	1622.62
303.36	2405.62
303.59	3193.62
303.82	2700.62
304.051	1601.62
304.281	1160.62
304.511	986.62
304.741	925.62
304.971	876.62
305.201	865.62
305.431	837.62
305.661	804.62
305.891	794.62
306.121	791.62
306.352	776.62
306.582	760.62
306.812	791.62
307.042	786.62
307.272	778.62
307.502	766.62
307.731	748.62
307.961	786.62
308.191	780.62
308.421	775.62
308.651	760.62
308.881	774.62
309.111	778.62
309.341	782.62
309.571	760.62
309.8	778.62
310.03	784.62
310.26	770.62
310.49	781.62
310.72	799.62
310.949	768.62
311.179	808.62
311.409	820.62
311.639	819.62
311.868	809.62
312.098	833.62
312.328	807.62
312.557	844.62
312.787	854.62
313.017	815.62
313.246	825.62
313.476	854.62
313.706	878.62
313.935	915.62
314.165	981.62
314.394	988.62
314.624	927.62
314.853	913.62
315.083	924.62
315.312	916.62
315.542	897.62
315.771	901.62
316.001	925.62
316.23	945.62
316.46	981.62
316.689	1090.62
316.919	1314.62
317.148	1877.62
317.377	2855.62
317.607	4237.62
317.836	4255.62
318.065	2496.62
318.295	1593.62
318.524	1318.62
318.753	1184.62
318.983	1092.62
319.212	1031.62
319.441	980.62
319.67	995.62
319.9	993.62
320.129	989.62
320.358	937.62
320.587	968.62
320.816	966.62
321.046	976.62
321.275	975.62
321.504	981.62
321.733	997.62
321.962	991.62
322.191	1026.62
322.42	1000.62
322.649	1010.62
322.878	1004.62
323.108	1037.62
323.337	1055.62
323.566	1056.62
323.795	1051.62
324.024	1075.62
324.253	1114.62
324.482	1167.62
324.71	1204.62
324.939	1242.62
325.168	1284.62
325.397	1344.62
325.626	1614.62
325.855	2236.62
326.084	3492.62
326.313	5105.62
326.542	5422.62
326.77	3370.62
326.999	2207.62
327.228	1863.62
327.457	1777.62
327.686	1800.62
327.914	1953.62
328.143	2200.62
328.372	2547.62
328.6	2750.62
328.829	2538.62
329.058	2184.62
329.287	1950.62
329.515	1802.62
329.744	1645.62
329.972	1604.62
330.201	1537.62
330.43	1477.62
330.658	1460.62
330.887	1434.62
331.115	1406.62
331.344	1378.62
331.572	1430.62
331.801	1396.62
332.03	1436.62
332.258	1408.62
332.486	1483.62
332.715	1704.62
332.943	2043.62
333.172	2500.62
333.4	2500.62
333.629	1938.62
333.857	1758.62
334.085	1785.62
334.314	1834.62
334.542	1986.62
334.771	2249.62
334.999	2700.62
335.227	3296.62
335.455	3685.62
335.684	3364.62
335.912	2880.62
336.14	2530.62
336.369	2201.62
336.597	2064.62
336.825	1925.62
337.053	1785.62
337.281	1670.62
337.51	1592.62
337.738	1556.62
337.966	1522.62
338.194	1442.62
338.422	1397.62
338.65	1377.62
338.878	1352.62
339.106	1326.62
339.334	1349.62
339.562	1293.62
339.79	1262.62
340.018	1257.62
340.246	1278.62
340.474	1248.62
340.702	1243.62
340.93	1246.62
341.158	1270.62
341.386	1261.62
341.614	1221.62
341.842	1233.62
342.07	1193.62
342.298	1140.62
342.526	1168.62
342.754	1144.62
342.981	1104.62
343.209	1140.62
343.437	1192.62
343.665	1167.62
343.893	1181.62
344.12	1205.62
344.348	1134.62
344.576	1158.62
344.804	1096.62
345.031	1099.62
345.259	1089.62
345.487	1069.62
345.714	1072.62
345.942	1074.62
346.17	1073.62
346.397	1081.62
346.625	1088.62
346.853	1061.62
347.08	1080.62
347.308	1079.62
347.535	1074.62
347.763	1049.62
347.99	1065.62
348.218	1041.62
348.445	1025.62
348.673	1038.62
348.9	1049.62
349.128	1007.62
349.355	1030.62
349.583	1050.62
349.81	1016.62
350.037	1028.62
350.265	1054.62
350.492	996.62
350.72	1041.62
350.947	998.62
351.174	1018.62
351.402	1031.62
351.629	1038.62
351.856	1025.62
352.083	1016.62
352.311	999.62
352.538	996.62
352.765	1037.62
352.992	1025.62
353.22	1000.62
353.447	1003.62
353.674	993.62
353.901	1004.62
354.128	1022.62
354.355	1010.62
354.583	1024.62
354.81	1029.62
355.037	1040.62
355.264	1017.62
355.491	1022.62
355.718	1034.62
355.945	1042.62
356.172	1038.62
356.399	1065.62
356.626	1030.62
356.853	1068.62
357.08	1045.62
357.307	1071.62
357.534	1080.62
357.761	1048.62
357.988	1065.62
358.215	1061.62
358.441	1094.62
358.668	1085.62
358.895	1058.62
359.122	1060.62
359.349	1102.62
359.576	1066.62
359.802	1065.62
360.029	1061.62
360.256	1111.62
360.483	1069.62
360.709	1068.62
360.936	1077.62
361.163	1081.62
361.39	1101.62
361.616	1097.62
361.843	1112.62
362.07	1096.62
362.296	1093.62
362.523	1088.62
362.749	1058.62
362.976	1082.62
363.203	1095.62
363.429	1052.62
363.656	1080.62
363.882	1107.62
364.109	1100.62
364.335	1065.62
364.562	1092.62
364.788	1096.62
365.015	1091.62
365.241	1109.62
365.468	1161.62
365.694	1189.62
365.92	1177.62
366.147	1139.62
366.373	1097.62
366.599	1103.62
366.826	1070.62
367.052	1099.62
367.278	1127.62
367.505	1089.62
367.731	1131.62
367.957	1103.62
368.184	1102.62
368.41	1132.62
368.636	1138.62
368.862	1085.62
369.089	1129.62
369.315	1129.62
369.541	1128.62
369.767	1119.62
369.993	1137.62
370.219	1116.62
370.445	1137.62
370.672	1156.62
370.898	1136.62
371.124	1150.62
371.35	1141.62
371.576	1163.62
371.802	1171.62
372.028	1166.62
372.254	1180.62
372.48	1158.62
372.706	1200.62
372.932	1162.62
373.158	1157.62
373.384	1191.62
373.61	1183.62
373.835	1197.62
374.061	1215.62
374.287	1217.62
374.513	1196.62
374.739	1245.62
374.965	1220.62
375.191	1195.62
375.416	1227.62
375.642	1196.62
375.868	1218.62
376.094	1188.62
376.319	1210.62
376.545	1178.62
376.771	1186.62
376.997	1178.62
377.222	1171.62
377.448	1157.62
377.674	1182.62
377.899	1168.62
378.125	1173.62
378.35	1152.62
378.576	1163.62
378.802	1174.62
379.027	1169.62
379.253	1233.62
379.478	1282.62
379.704	1468.62
379.929	2042.62
380.155	3075.62
380.38	3259.62
380.606	2061.62
380.831	1492.62
381.057	1330.62
381.282	1213.62
381.507	1208.62
381.733	1212.62
381.958	1156.62
382.184	1134.62
382.409	1162.62
382.634	1145.62
382.86	1138.62
383.085	1182.62
383.31	1169.62
383.535	1185.62
383.761	1135.62
383.986	1141.62
384.211	1168.62
384.436	1197.62
384.662	1164.62
384.887	1210.62
385.112	1177.62
385.337	1182.62
385.562	1207.62
385.787	1189.62
386.013	1197.62
386.238	1200.62
386.463	1190.62
386.688	1183.62
386.913	1160.62
387.138	1198.62
387.363	1204.62
387.588	1201.62
387.813	1191.62
388.038	1202.62
388.263	1196.62
388.488	1225.62
388.713	1188.62
388.938	1191.62
389.163	1165.62
389.387	1198.62
389.612	1191.62
389.837	1174.62
390.062	1191.62
390.287	1224.62
390.512	1198.62
390.736	1221.62
390.961	1211.62
391.186	1229.62
391.411	1217.62
391.636	1250.62
391.86	1253.62
392.085	1237.62
392.31	1249.62
392.534	1258.62
392.759	1219.62
392.984	1208.62
393.208	1254.62
393.433	1270.62
393.658	1249.62
393.882	1212.62
394.107	1198.62
394.331	1199.62
394.556	1216.62
394.78	1210.62
395.005	1217.62
395.229	1222.62
395.454	1216.62
395.678	1212.62
395.903	1234.62
396.127	1247.62
396.352	1256.62
396.576	1226.62
396.801	1255.62
397.025	1238.62
397.249	1260.62
397.474	1294.62
397.698	1261.62
397.922	1245.62
398.147	1287.62
398.371	1297.62
398.595	1309.62
398.82	1348.62
399.044	1372.62
399.268	1485.62
399.492	1530.62
399.717	1583.62
399.941	1588.62
400.165	1519.62
400.389	1463.62
400.613	1405.62
400.837	1358.62
401.062	1344.62
401.286	1341.62
401.51	1324.62
401.734	1300.62
401.958	1318.62
402.182	1333.62
402.406	1334.62
402.63	1337.62
402.854	1351.62
403.078	1341.62
403.302	1354.62
403.526	1384.62
403.75	1326.62
403.974	1365.62
404.198	1356.62
404.422	1357.62
404.645	1366.62
404.869	1356.62
405.093	1375.62
405.317	1375.62
405.541	1397.62
405.765	1406.62
405.988	1396.62
406.212	1410.62
406.436	1373.62
406.66	1438.62
406.883	1389.62
407.107	1459.62
407.331	1480.62
407.555	1450.62
407.778	1474.62
408.002	1416.62
408.226	1448.62
408.449	1442.62
408.673	1416.62
408.896	1438.62
409.12	1404.62
409.344	1384.62
409.567	1348.62
409.791	1349.62
410.014	1373.62
410.238	1354.62
410.461	1346.62
410.685	1340.62
410.908	1380.62
411.132	1323.62
411.355	1306.62
411.578	1298.62
411.802	1259.62
412.025	1314.62
412.249	1325.62
412.472	1332.62
412.695	1281.62
412.919	1270.62
413.142	1261.62
413.365	1286.62
413.589	1272.62
413.812	1272.62
414.035	1273.62
414.258	1294.62
414.482	1284.62
414.705	1279.62
414.928	1319.62
415.151	1278.62
415.374	1256.62
415.597	1277.62
415.821	1190.62
416.044	1247.62
416.267	1246.62
416.49	1261.62
416.713	1241.62
416.936	1258.62
417.159	1231.62
417.382	1239.62
417.605	1234.62
417.828	1249.62
418.051	1281.62
418.274	1261.62
418.497	1250.62
418.72	1289.62
418.943	1268.62
419.166	1350.62
419.389	1392.62
419.611	1346.62
419.834	1308.62
420.057	1260.62
420.28	1288.62
420.503	1234.62
420.726	1277.62
420.948	1247.62
421.171	1220.62
421.394	1223.62
421.617	1260.62
421.839	1245.62
422.062	1282.62
422.285	1278.62
422.507	1265.62
422.73	1266.62
422.953	1273.62
423.175	1264.62
423.398	1288.62
423.621	1254.62
423.843	1268.62
424.066	1285.62
424.288	1263.62
424.511	1264.62
424.733	1269.62
424.956	1255.62
425.178	1237.62
425.401	1239.62
425.623	1270.62
425.846	1222.62
426.068	1222.62
426.291	1232.62
426.513	1174.62
426.735	1184.62
426.958	1206.62
427.18	1158.62
427.402	1183.62
427.625	1189.62
427.847	1182.62
428.069	1155.62
428.292	1181.62
428.514	1154.62
428.736	1169.62
428.958	1168.62
429.181	1109.62
429.403	1164.62
429.625	1167.62
429.847	1169.62
430.069	1156.62
430.292	1205.62
430.514	1231.62
430.736	1225.62
430.958	1193.62
431.18	1161.62
431.402	1168.62
431.624	1128.62
431.846	1131.62
432.068	1122.62
432.29	1141.62
432.512	1119.62
432.734	1158.62
432.956	1143.62
433.178	1162.62
433.4	1162.62
433.622	1159.62
433.844	1176.62
434.066	1180.62
434.287	1157.62
434.509	1174.62
434.731	1158.62
434.953	1181.62
435.175	1210.62
435.397	1209.62
435.618	1159.62
435.84	1136.62
436.062	1146.62
436.284	1152.62
436.505	1162.62
436.727	1142.62
436.949	1138.62
437.17	1135.62
437.392	1125.62
437.614	1090.62
437.835	1080.62
438.057	1104.62
438.278	1109.62
438.5	1129.62
438.721	1143.62
438.943	1156.62
439.165	1151.62
439.386	1211.62
439.608	1188.62
439.829	1193.62
440.05	1253.62
440.272	1276.62
440.493	1210.62
440.715	1182.62
440.936	1218.62
441.158	1221.62
441.379	1201.62
441.6	1238.62
441.822	1286.62
442.043	1378.62
442.264	1356.62
442.486	1301.62
442.707	1250.62
442.928	1204.62
443.149	1228.62
443.371	1232.62
443.592	1228.62
443.813	1269.62
444.034	1258.62
444.255	1261.62
444.476	1301.62
444.698	1275.62
444.919	1338.62
445.14	1405.62
445.361	1335.62
445.582	1258.62
445.803	1243.62
446.024	1220.62
446.245	1240.62
446.466	1255.62
446.687	1237.62
446.908	1217.62
447.129	1199.62
447.35	1178.62
447.571	1167.62
447.792	1159.62
448.013	1138.62
448.234	1150.62
448.455	1136.62
448.675	1146.62
448.896	1148.62
449.117	1213.62
449.338	1294.62
449.559	1362.62
449.779	1236.62
450	1121.62
450.221	1146.62
450.442	1147.62
450.662	1115.62
450.883	1068.62
451.104	1090.62
451.324	1158.62
451.545	1115.62
451.766	1092.62
451.986	1143.62
452.207	1186.62
452.428	1449.62
452.648	2013.62
452.869	1700.62
453.089	1310.62
453.31	1187.62
453.53	1186.62
453.751	1257.62
453.971	1310.62
454.192	1304.62
454.412	1105.62
454.633	1080.62
454.853	1079.62
455.073	1087.62
455.294	1035.62
455.514	1060.62
455.734	1044.62
455.955	1023.62
456.175	1053.62
456.395	1066.62
456.616	1041.62
456.836	1066.62
457.056	1064.62
457.276	1103.62
457.497	1101.62
457.717	1109.62
457.937	1077.62
458.157	1111.62
458.377	1109.62
458.598	1117.62
458.818	1124.62
459.038	1156.62
459.258	1105.62
459.478	1123.62
459.698	1182.62
459.918	1172.62
460.138	1165.62
460.358	1248.62
460.578	1232.62
460.798	1234.62
461.018	1248.62
461.238	1271.62
461.458	1264.62
461.678	1258.62
461.898	1299.62
462.118	1244.62
462.338	1330.62
462.558	1337.62
462.777	1335.62
462.997	1391.62
463.217	1457.62
463.437	1504.62
463.657	1519.62
463.876	1488.62
464.096	1426.62
464.316	1337.62
464.536	1343.62
464.755	1317.62
464.975	1334.62
465.195	1258.62
465.414	1222.62
465.634	1182.62
465.854	1184.62
466.073	1164.62
466.293	1154.62
466.512	1158.62
466.732	1173.62
466.951	1229.62
467.171	1326.62
467.391	1268.62
467.61	1179.62
467.829	1182.62
468.049	1129.62
468.268	1138.62
468.488	1145.62
468.707	1146.62
468.927	1154.62
469.146	1135.62
469.365	1137.62
469.585	1133.62
469.804	1191.62
470.023	1162.62
470.243	1244.62
470.462	1232.62
470.681	1296.62
470.901	1414.62
471.12	1594.62
471.339	1596.62
471.558	1346.62
471.777	1233.62
471.997	1198.62
472.216	1188.62
472.435	1131.62
472.654	1121.62
472.873	1094.62
473.092	1149.62
473.311	1099.62
473.53	1180.62
473.749	1174.62
473.968	1198.62
474.187	1138.62
474.406	1117.62
474.625	1133.62
474.844	1156.62
475.063	1145.62
475.282	1121.62
475.501	1156.62
475.72	1167.62
475.939	1154.62
476.158	1175.62
476.377	1213.62
476.596	1180.62
476.814	1202.62
477.033	1187.62
477.252	1197.62
477.471	1235.62
477.69	1232.62
477.908	1292.62
478.127	1294.62
478.346	1271.62
478.564	1306.62
478.783	1344.62
479.002	1339.62
479.22	1359.62
479.439	1335.62
479.658	1284.62
479.876	1347.62
480.095	1348.62
480.313	1412.62
480.532	1413.62
480.751	1360.62
480.969	1360.62
481.188	1334.62
481.406	1321.62
481.624	1357.62
481.843	1325.62
482.061	1342.62
482.28	1341.62
482.498	1357.62
482.717	1352.62
482.935	1351.62
483.153	1376.62
483.372	1394.62
483.59	1453.62
483.808	1432.62
484.027	1456.62
484.245	1479.62
484.463	1685.62
484.681	1872.62
484.9	1736.62
485.118	1605.62
485.336	1566.62
485.554	1581.62
485.772	1689.62
485.99	1851.62
486.209	2025.62
486.427	1714.62
486.645	1529.62
486.863	1500.62
487.081	1454.62
487.299	1437.62
487.517	1416.62
487.735	1464.62
487.953	1486.62
488.171	1468.62
488.389	1446.62
488.607	1431.62
488.825	1421.62
489.043	1384.62
489.261	1389.62
489.479	1403.62
489.696	1384.62
489.914	1374.62
490.132	1407.62
490.35	1402.62
490.568	1429.62
490.786	1426.62
491.003	1480.62
491.221	1476.62
491.439	1472.62
491.657	1510.62
491.874	1524.62
492.092	1582.62
492.31	1539.62
492.527	1548.62
492.745	1542.62
492.963	1496.62
493.18	1492.62
493.398	1479.62
493.615	1501.62
493.833	1493.62
494.05	1479.62
494.268	1496.62
494.485	1480.62
494.703	1507.62
494.92	1502.62
495.138	1520.62
495.355	1497.62
495.573	1518.62
495.79	1496.62
496.008	1518.62
496.225	1557.62
496.442	1550.62
496.66	1600.62
496.877	1647.62
497.094	1631.62
497.312	1589.62
497.529	1583.62
497.746	1615.62
497.963	1617.62
498.181	1638.62
498.398	1714.62
498.615	1752.62
498.832	1798.62
499.049	1863.62
499.267	2011.62
499.484	2137.62
499.701	2132.62
499.918	2232.62
500.135	2380.62
500.352	2535.62
500.569	2493.62
500.786	2458.62
501.003	2380.62
501.22	2284.62
501.437	2165.62
501.654	2066.62
501.871	1974.62
502.088	1888.62
502.305	1831.62
502.522	1765.62
502.739	1733.62
502.956	1656.62
503.172	1640.62
503.389	1598.62
503.606	1555.62
503.823	1560.62
504.04	1542.62
504.256	1518.62
504.473	1551.62
504.69	1534.62
504.907	1496.62
505.123	1462.62
505.34	1435.62
505.557	1420.62
505.773	1388.62
505.99	1398.62
506.207	1376.62
506.423	1357.62
506.64	1362.62
506.856	1326.62
507.073	1321.62
507.289	1302.62
507.506	1297.62
507.722	1336.62
507.939	1301.62
508.155	1275.62
508.372	1268.62
508.588	1286.62
508.805	1255.62
509.021	1282.62
509.238	1311.62
509.454	1346.62
509.67	1415.62
509.887	1288.62
510.103	1288.62
510.319	1292.62
510.536	1257.62
510.752	1224.62
510.968	1227.62
511.184	1213.62
511.401	1220.62
511.617	1242.62
511.833	1222.62
512.049	1222.62
512.265	1227.62
512.481	1228.62
512.698	1201.62
512.914	1214.62
513.13	1214.62
513.346	1225.62
513.562	1194.62
513.778	1238.62
513.994	1261.62
514.21	1270.62
514.426	1302.62
514.642	1346.62
514.858	1248.62
515.074	1261.62
515.29	1250.62
515.506	1257.62
515.721	1239.62
515.937	1229.62
516.153	1240.62
516.369	1253.62
516.585	1283.62
516.801	1308.62
517.016	1323.62
517.232	1368.62
517.448	1341.62
517.664	1423.62
517.879	1414.62
518.095	1413.62
518.311	1407.62
518.527	1338.62
518.742	1334.62
518.958	1350.62
519.173	1369.62
519.389	1324.62
519.605	1272.62
519.82	1233.62
520.036	1253.62
520.251	1249.62
520.467	1241.62
520.682	1238.62
520.898	1190.62
521.113	1198.62
521.329	1172.62
521.544	1174.62
521.76	1206.62
521.975	1197.62
522.19	1179.62
522.406	1208.62
522.621	1220.62
522.836	1167.62
523.052	1181.62
523.267	1183.62
523.482	1199.62
523.698	1193.62
523.913	1148.62
524.128	1196.62
524.343	1173.62
524.559	1190.62
524.774	1158.62
524.989	1188.62
525.204	1182.62
525.419	1154.62
525.634	1158.62
525.849	1167.62
526.064	1169.62
526.28	1168.62
526.495	1179.62
526.71	1206.62
526.925	1179.62
527.14	1177.62
527.355	1163.62
527.57	1154.62
527.785	1161.62
527.999	1144.62
528.214	1179.62
528.429	1202.62
528.644	1233.62
528.859	1232.62
529.074	1226.62
529.289	1289.62
529.503	1284.62
529.718	1258.62
529.933	1221.62
530.148	1222.62
530.363	1226.62
530.577	1247.62
530.792	1222.62
531.007	1253.62
531.221	1269.62
531.436	1240.62
531.651	1259.62
531.865	1266.62
532.08	1278.62
532.295	1356.62
532.509	1387.62
532.724	1372.62
532.938	1394.62
533.153	1407.62
533.367	1516.62
533.582	1575.62
533.796	1555.62
534.011	1514.62
534.225	1449.62
534.44	1410.62
534.654	1426.62
534.868	1376.62
535.083	1356.62
535.297	1358.62
535.511	1322.62
535.726	1333.62
535.94	1296.62
536.154	1280.62
536.369	1270.62
536.583	1212.62
536.797	1214.62
537.011	1212.62
537.225	1195.62
537.44	1197.62
537.654	1206.62
537.868	1174.62
538.082	1195.62
538.296	1151.62
538.51	1146.62
538.724	1168.62
538.938	1170.62
539.153	1181.62
539.367	1175.62
539.581	1152.62
539.795	1106.62
540.009	1122.62
540.222	1121.62
540.436	1120.62
540.65	1117.62
540.864	1141.62
541.078	1180.62
541.292	1214.62
541.506	1477.62
541.72	1528.62
541.934	1337.62
542.147	1272.62
542.361	1221.62
542.575	1185.62
542.789	1144.62
543.002	1110.62
543.216	1088.62
543.43	1089.62
543.644	1090.62
543.857	1104.62
544.071	1124.62
544.285	1148.62
544.498	1146.62
544.712	1134.62
544.925	1126.62
545.139	1124.62
545.352	1120.62
545.566	1133.62
545.779	1152.62
545.993	1135.62
546.206	1153.62
546.42	1156.62
546.633	1120.62
546.847	1163.62
547.06	1138.62
547.274	1124.62
547.487	1162.62
547.7	1147.62
547.914	1132.62
548.127	1127.62
548.34	1134.62
548.554	1143.62
548.767	1149.62
548.98	1165.62
549.193	1148.62
549.407	1132.62
549.62	1138.62
549.833	1102.62
550.046	1164.62
550.259	1136.62
550.473	1160.62
550.686	1168.62
550.899	1173.62
551.112	1121.62
551.325	1106.62
551.538	1116.62
551.751	1121.62
551.964	1124.62
552.177	1147.62
552.39	1170.62
552.603	1193.62
552.816	1198.62
553.029	1201.62
553.242	1248.62
553.455	1207.62
553.667	1250.62
553.88	1246.62
554.093	1250.62
554.306	1243.62
554.519	1248.62
554.732	1262.62
554.944	1295.62
555.157	1297.62
555.37	1366.62
555.583	1392.62
555.795	1418.62
556.008	1469.62
556.221	1605.62
556.433	1699.62
556.646	1701.62
556.859	1657.62
557.071	1648.62
557.284	1617.62
557.496	1578.62
557.709	1529.62
557.921	1552.62
558.134	1543.62
558.346	1538.62
558.559	1582.62
558.771	1636.62
558.984	1790.62
559.196	1856.62
559.409	1808.62
559.621	1720.62
559.833	1606.62
560.046	1516.62
560.258	1445.62
560.47	1476.62
560.683	1381.62
560.895	1333.62
561.107	1314.62
561.32	1253.62
561.532	1230.62
561.744	1216.62
561.956	1212.62
562.168	1174.62
562.381	1148.62
562.593	1137.62
562.805	1145.62
563.017	1177.62
563.229	1183.62
563.441	1302.62
563.653	1150.62
563.865	1065.62
564.077	1080.62
564.289	1076.62
564.501	1027.62
564.713	1054.62
564.925	1037.62
565.137	1069.62
565.349	1052.62
565.561	1057.62
565.773	1049.62
565.985	1043.62
566.197	1086.62
566.408	1124.62
566.62	1129.62
566.832	1163.62
567.044	1162.62
567.255	1165.62
567.467	1174.62
567.679	1163.62
567.891	1221.62
568.102	1380.62
568.314	1597.62
568.526	1378.62
568.737	1174.62
568.949	1111.62
569.161	1030.62
569.372	984.62
569.584	982.62
569.795	927.62
570.007	940.62
570.218	939.62
570.43	958.62
570.641	912.62
570.853	869.62
571.064	874.62
571.276	894.62
571.487	840.62
571.698	848.62
571.91	841.62
572.121	829.62
572.333	796.62
572.544	823.62
572.755	881.62
572.966	1045.62
573.178	902.62
573.389	842.62
573.6	821.62
573.811	805.62
574.023	749.62
574.234	758.62
574.445	776.62
574.656	784.62
574.867	759.62
575.078	774.62
575.289	787.62
575.501	766.62
575.712	756.62
575.923	753.62
576.134	756.62
576.345	784.62
576.556	780.62
576.767	761.62
576.978	764.62
577.188	774.62
577.399	778.62
577.61	789.62
577.821	772.62
578.032	778.62
578.243	793.62
578.454	829.62
578.665	832.62
578.875	859.62
579.086	856.62
579.297	870.62
579.508	933.62
579.718	997.62
579.929	1104.62
580.14	1183.62
580.35	1280.62
580.561	1182.62
580.772	1071.62
580.982	1034.62
581.193	970.62
581.403	941.62
581.614	896.62
581.825	863.62
582.035	853.62
582.246	823.62
582.456	800.62
582.667	792.62
582.877	791.62
583.087	759.62
583.298	741.62
583.508	714.62
583.719	697.62
583.929	682.62
584.139	697.62
584.35	702.62
584.56	670.62
584.77	676.62
584.981	649.62
585.191	665.62
585.401	646.62
585.611	625.62
585.821	619.62
586.032	614.62
586.242	621.62
586.452	640.62
586.662	615.62
586.872	615.62
587.082	607.62
587.292	593.62
587.502	585.62
587.713	587.62
587.923	587.62
588.133	588.62
588.343	579.62
588.553	561.62
588.762	566.62
588.972	548.62
589.182	561.62
589.392	560.62
589.602	561.62
589.812	567.62
590.022	522.62
590.232	553.62
590.441	561.62
590.651	553.62
590.861	555.62
591.071	527.62
591.281	549.62
591.49	541.62
591.7	534.62
591.91	545.62
592.119	570.62
592.329	572.62
592.539	565.62
592.748	572.62
592.958	562.62
593.167	567.62
593.377	574.62
593.587	550.62
593.796	554.62
594.006	570.62
594.215	550.62
594.424	552.62
594.634	577.62
594.843	528.62
595.053	534.62
595.262	558.62
595.472	544.62
595.681	520.62
595.89	516.62
596.1	537.62
596.309	501.62
596.518	496.62
596.727	518.62
596.937	488.62
597.146	500.62
597.355	503.62
597.564	477.62
597.774	500.62
597.983	473.62
598.192	465.62
598.401	458.62
598.61	464.62
598.819	453.62
599.028	440.62
599.237	451.62
599.446	448.62
599.655	455.62
599.864	466.62
600.073	453.62
600.282	452.62
600.491	465.62
600.7	463.62
600.909	446.62
601.118	441.62
601.327	442.62
601.536	460.62
601.745	471.62
601.953	498.62
602.162	565.62
602.371	502.62
602.58	472.62
602.789	448.62
602.997	446.62
603.206	467.62
603.415	448.62
603.623	427.62
603.832	448.62
604.041	437.62
604.249	429.62
604.458	423.62
604.666	418.62
604.875	425.62
605.084	433.62
605.292	447.62
605.501	447.62
605.709	445.62
605.918	448.62
606.126	451.62
606.334	457.62
606.543	447.62
606.751	459.62
606.96	525.62
607.168	588.62
607.376	507.62
607.585	473.62
607.793	449.62
608.001	455.62
608.21	431.62
608.418	416.62
608.626	443.62
608.834	429.62
609.043	435.62
609.251	416.62
609.459	423.62
609.667	428.62
609.875	429.62
610.083	422.62
610.291	394.62
610.499	413.62
610.707	424.62
610.916	416.62
611.124	427.62
611.332	408.62
611.54	406.62
611.748	414.62
611.955	401.62
612.163	400.62
612.371	424.62
612.579	408.62
612.787	402.62
612.995	406.62
613.203	395.62
613.411	410.62
613.618	401.62
613.826	402.62
614.034	385.62
614.242	408.62
614.449	400.62
614.657	391.62
614.865	397.62
615.072	408.62
615.28	401.62
615.488	400.62
615.695	394.62
615.903	388.62
616.111	413.62
616.318	411.62
616.526	393.62
616.733	408.62
616.941	407.62
617.148	409.62
617.356	415.62
617.563	378.62
617.771	374.62
617.978	385.62
618.185	384.62
618.393	378.62
618.6	382.62
618.807	378.62
619.015	363.62
619.222	378.62
619.429	372.62
619.637	368.62
619.844	353.62
620.051	372.62
620.258	358.62
620.466	374.62
620.673	365.62
620.88	358.62
621.087	344.62
621.294	367.62
621.501	366.62
621.708	361.62
621.915	361.62
622.122	373.62
622.329	369.62
622.536	340.62
622.743	376.62
622.95	364.62
623.157	372.62
623.364	346.62
623.571	368.62
623.778	361.62
623.985	346.62
624.192	349.62
624.399	364.62
624.606	372.62
624.812	360.62
625.019	328.62
625.226	346.62
625.433	348.62
625.639	337.62
625.846	320.62
626.053	348.62
626.259	335.62
626.466	324.62
626.673	333.62
626.879	326.62
627.086	332.62
627.293	326.62
627.499	322.62
627.706	321.62
627.912	328.62
628.119	320.62
628.325	327.62
628.532	324.62
628.738	327.62
628.945	322.62
629.151	318.62
629.357	314.62
629.564	295.62
629.77	319.62
629.976	328.62
630.183	315.62
630.389	310.62
630.595	308.62
630.802	313.62
631.008	314.62
631.214	313.62
631.42	314.62
631.627	310.62
631.833	344.62
632.039	308.62
632.245	309.62
632.451	308.62
632.657	316.62
632.863	320.62
633.069	311.62
633.275	324.62
633.481	299.62
633.688	305.62
633.893	320.62
634.099	310.62
634.305	314.62
634.511	313.62
634.717	305.62
634.923	312.62
635.129	352.62
635.335	401.62
635.541	335.62
635.747	330.62
635.952	334.62
636.158	327.62
636.364	308.62
636.57	324.62
636.775	304.62
636.981	314.62
637.187	315.62
637.392	333.62
637.598	301.62
637.804	316.62
638.009	312.62
638.215	299.62
638.421	306.62
638.626	301.62
638.832	326.62
639.037	308.62
639.243	313.62
639.448	312.62
639.654	312.62
639.859	305.62
640.065	310.62
640.27	326.62
640.475	317.62
640.681	320.62
640.886	319.62
641.091	323.62
641.297	330.62
641.502	324.62
641.707	341.62
641.913	340.62
642.118	336.62
642.323	331.62
642.528	361.62
642.733	357.62
642.939	376.62
643.144	377.62
643.349	382.62
643.554	391.62
643.759	398.62
643.964	405.62
644.169	413.62
644.374	441.62
644.579	480.62
644.784	510.62
644.989	592.62
645.194	659.62
645.399	750.62
645.604	761.62
645.809	622.62
646.014	516.62
646.219	444.62
646.423	414.62
646.628	375.62
646.833	364.62
647.038	324.62
647.243	343.62
647.447	308.62
647.652	310.62
647.857	316.62
648.062	305.62
648.266	289.62
648.471	309.62
648.676	297.62
648.88	296.62
649.085	283.62
649.289	268.62
649.494	278.62
649.698	290.62
649.903	275.62
650.107	260.62
650.312	262.62
650.516	243.62
650.721	250.62
650.925	251.62
651.13	238.62
651.334	237.62
651.539	234.62
651.743	240.62
651.947	249.62
652.152	262.62
652.356	253.62
652.56	246.62
652.764	275.62
652.969	256.62
653.173	239.62
653.377	218.62
653.581	224.62
653.785	205.62
653.99	206.62
654.194	217.62
654.398	208.62
654.602	219.62
654.806	209.62
655.01	201.62
655.214	193.62
655.418	206.62
655.622	206.62
655.826	225.62
656.03	231.62
656.234	231.62
656.438	216.62
656.642	218.62
656.846	221.62
657.049	201.62
657.253	197.62
657.457	198.62
657.661	182.62
657.865	169.62
658.068	167.62
658.272	170.62
658.476	156.62
658.68	168.62
658.883	146.62
659.087	149.62
659.291	142.62
659.494	128.62
659.698	145.62
659.901	129.62
660.105	141.62
660.309	132.62
660.512	106.62
660.716	113.62
660.919	125.62
661.123	129.62
661.326	105.62
661.53	106.62
661.733	105.62
661.936	102.62
662.14	110.62
662.343	107.62
662.546	88.62
662.75	101.62
662.953	91.62
663.156	99.62
663.36	94.62
663.563	95.62
663.766	92.62
663.969	87.62
664.173	98.62
664.376	94.62
664.579	93.62
664.782	88.62
664.985	81.62
665.188	94.62
665.391	98.62
665.594	83.62
665.797	92.62
666	86.62
666.203	88.62
666.406	96.62
666.609	69.62
666.812	102.62
667.015	90.62
667.218	90.62
667.421	87.62
667.624	90.62
667.827	92.62
668.03	83.62
668.232	94.62
668.435	92.62
668.638	95.62
668.841	95.62
669.043	86.62
669.246	77.62
669.449	89.62
669.651	86.62
669.854	82.62
670.057	94.62
670.259	87.62
670.462	99.62
670.665	81.62
670.867	93.62
671.07	86.62
671.272	83.62
671.475	95.62
671.677	87.62
671.88	99.62
672.082	91.62
672.284	89.62
672.487	89.62
672.689	76.62
672.892	80.62
