Data from SnStandardFlinnAPT0064_LampEnergy5.5_LIBS07252019.E.O._I.C._HRD10591_15-17-16-492.txt Node
Date: Thu Jul 25 15:17:16 EDT 2019
User: cochatt
Spectrometer: HR+D1059
Trigger mode: 1
Integration Time (sec): 1.000000E-1
Scans to average: 1
Electric dark correction enabled: true
Nonlinearity correction enabled: false
Boxcar width: 0
XAxis mode: Wavelengths
Number of Pixels in Spectrum: 2048
>>>>>Begin Spectral Data<<<<<
223.165	-7.62
223.4	-7.62
223.635	-7.62
223.869	-9.62
224.104	-33.62
224.338	-17.62
224.573	-4.62
224.808	-18.62
225.042	-6.62
225.277	9.38
225.511	-11.62
225.746	1.38
225.98	0.38
226.215	15.38
226.449	21.38
226.683	19.38
226.918	21.38
227.152	21.38
227.387	32.38
227.621	44.38
227.856	41.38
228.09	39.38
228.324	47.38
228.559	60.38
228.793	85.38
229.027	144.38
229.262	182.38
229.496	157.38
229.73	161.38
229.964	167.38
230.199	147.38
230.433	182.38
230.667	172.38
230.901	174.38
231.136	160.38
231.37	192.38
231.604	178.38
231.838	205.38
232.072	241.38
232.306	250.38
232.541	232.38
232.775	215.38
233.009	220.38
233.243	208.38
233.477	229.38
233.711	265.38
233.945	283.38
234.179	241.38
234.413	221.38
234.647	214.38
234.881	229.38
235.115	241.38
235.349	287.38
235.583	357.38
235.817	453.38
236.051	455.38
236.285	321.38
236.519	266.38
236.753	256.38
236.987	232.38
237.221	252.38
237.455	255.38
237.689	237.38
237.922	224.38
238.156	224.38
238.39	233.38
238.624	245.38
238.858	258.38
239.091	247.38
239.325	241.38
239.559	231.38
239.793	253.38
240.027	266.38
240.26	274.38
240.494	276.38
240.728	280.38
240.961	280.38
241.195	308.38
241.429	335.38
241.662	322.38
241.896	357.38
242.13	408.38
242.363	528.38
242.597	718.38
242.83	684.38
243.064	680.38
243.298	790.38
243.531	666.38
243.765	424.38
243.998	345.38
244.232	318.38
244.465	306.38
244.699	304.38
244.932	312.38
245.166	311.38
245.399	303.38
245.633	292.38
245.866	310.38
246.099	304.38
246.333	318.38
246.566	311.38
246.8	279.38
247.033	320.38
247.266	308.38
247.5	289.38
247.733	300.38
247.966	328.38
248.2	363.38
248.433	386.38
248.666	442.38
248.899	406.38
249.133	358.38
249.366	404.38
249.599	423.38
249.832	479.38
250.066	472.38
250.299	381.38
250.532	374.38
250.765	377.38
250.998	356.38
251.231	350.38
251.465	342.38
251.698	333.38
251.931	341.38
252.164	343.38
252.397	355.38
252.63	350.38
252.863	374.38
253.096	346.38
253.329	362.38
253.562	370.38
253.795	361.38
254.028	357.38
254.261	371.38
254.494	390.38
254.727	482.38
254.96	546.38
255.193	556.38
255.426	432.38
255.659	393.38
255.892	410.38
256.124	392.38
256.357	408.38
256.59	408.38
256.823	433.38
257.056	471.38
257.289	547.38
257.521	636.38
257.754	532.38
257.987	424.38
258.22	405.38
258.452	411.38
258.685	430.38
258.918	429.38
259.151	452.38
259.383	487.38
259.616	531.38
259.849	536.38
260.081	493.38
260.314	458.38
260.547	438.38
260.779	447.38
261.012	450.38
261.244	457.38
261.477	429.38
261.71	466.38
261.942	458.38
262.175	451.38
262.407	467.38
262.64	471.38
262.872	499.38
263.105	523.38
263.337	548.38
263.57	566.38
263.802	580.38
264.035	605.38
264.267	638.38
264.499	612.38
264.732	644.38
264.964	665.38
265.197	665.38
265.429	644.38
265.661	668.38
265.894	711.38
266.126	788.38
266.358	843.38
266.591	828.38
266.823	697.38
267.055	660.38
267.287	605.38
267.52	604.38
267.752	601.38
267.984	578.38
268.216	583.38
268.448	571.38
268.681	580.38
268.913	566.38
269.145	560.38
269.377	554.38
269.609	573.38
269.841	578.38
270.073	620.38
270.306	700.38
270.538	957.38
270.77	1396.38
271.002	1676.38
271.234	1175.38
271.466	776.38
271.698	648.38
271.93	592.38
272.162	578.38
272.394	588.38
272.626	545.38
272.858	542.38
273.09	565.38
273.322	545.38
273.553	553.38
273.785	538.38
274.017	573.38
274.249	556.38
274.481	538.38
274.713	541.38
274.945	552.38
275.176	553.38
275.408	554.38
275.64	550.38
275.872	564.38
276.104	560.38
276.335	579.38
276.567	570.38
276.799	546.38
277.031	579.38
277.262	589.38
277.494	629.38
277.726	668.38
277.957	774.38
278.189	849.38
278.421	843.38
278.652	701.38
278.884	663.38
279.115	644.38
279.347	620.38
279.579	612.38
279.81	638.38
280.042	610.38
280.273	643.38
280.505	632.38
280.736	688.38
280.968	662.38
281.199	740.38
281.431	825.38
281.662	884.38
281.894	768.38
282.125	689.38
282.356	696.38
282.588	723.38
282.819	745.38
283.051	781.38
283.282	855.38
283.513	1050.38
283.745	1526.38
283.976	2442.38
284.207	3490.38
284.439	3148.38
284.67	1812.38
284.901	1469.38
285.132	1479.38
285.364	1404.38
285.595	1121.38
285.826	995.38
286.057	1213.38
286.288	1681.38
286.52	2239.38
286.751	2056.38
286.982	1261.38
287.213	962.38
287.444	825.38
287.675	814.38
287.906	760.38
288.138	750.38
288.369	741.38
288.6	744.38
288.831	734.38
289.062	738.38
289.293	732.38
289.524	730.38
289.755	742.38
289.986	727.38
290.217	749.38
290.448	750.38
290.679	761.38
290.91	779.38
291.141	803.38
291.371	858.38
291.602	848.38
291.833	781.38
292.064	737.38
292.295	734.38
292.526	699.38
292.757	694.38
292.987	688.38
293.218	713.38
293.449	698.38
293.68	705.38
293.91	694.38
294.141	689.38
294.372	679.38
294.603	677.38
294.833	695.38
295.064	691.38
295.295	697.38
295.525	697.38
295.756	663.38
295.987	688.38
296.217	700.38
296.448	714.38
296.679	706.38
296.909	696.38
297.14	674.38
297.37	694.38
297.601	690.38
297.831	718.38
298.062	708.38
298.292	737.38
298.523	735.38
298.753	732.38
298.984	750.38
299.214	776.38
299.445	746.38
299.675	777.38
299.905	803.38
300.136	838.38
300.366	921.38
300.597	1180.38
300.827	1628.38
301.057	2226.38
301.288	2173.38
301.518	1375.38
301.748	1057.38
301.979	987.38
302.209	961.38
302.439	970.38
302.669	1024.38
302.9	1222.38
303.13	1697.38
303.36	2532.38
303.59	3434.38
303.82	2969.38
304.051	1728.38
304.281	1223.38
304.511	1040.38
304.741	946.38
304.971	912.38
305.201	863.38
305.431	850.38
305.661	824.38
305.891	817.38
306.121	817.38
306.352	828.38
306.582	809.38
306.812	775.38
307.042	803.38
307.272	782.38
307.502	792.38
307.731	793.38
307.961	817.38
308.191	810.38
308.421	798.38
308.651	788.38
308.881	781.38
309.111	785.38
309.341	790.38
309.571	824.38
309.8	805.38
310.03	802.38
310.26	823.38
310.49	803.38
310.72	831.38
310.949	809.38
311.179	830.38
311.409	793.38
311.639	807.38
311.868	827.38
312.098	851.38
312.328	864.38
312.557	881.38
312.787	866.38
313.017	864.38
313.246	899.38
313.476	861.38
313.706	894.38
313.935	920.38
314.165	982.38
314.394	1035.38
314.624	991.38
314.853	961.38
315.083	911.38
315.312	934.38
315.542	960.38
315.771	940.38
316.001	951.38
316.23	984.38
316.46	1032.38
316.689	1124.38
316.919	1381.38
317.148	1964.38
317.377	3080.38
317.607	4535.38
317.836	4628.38
318.065	2702.38
318.295	1722.38
318.524	1358.38
318.753	1198.38
318.983	1124.38
319.212	1071.38
319.441	1030.38
319.67	1052.38
319.9	1035.38
320.129	992.38
320.358	1000.38
320.587	1018.38
320.816	1030.38
321.046	1001.38
321.275	997.38
321.504	1009.38
321.733	1006.38
321.962	1065.38
322.191	1062.38
322.42	1074.38
322.649	1029.38
322.878	1068.38
323.108	1088.38
323.337	1061.38
323.566	1091.38
323.795	1134.38
324.024	1144.38
324.253	1135.38
324.482	1189.38
324.71	1249.38
324.939	1313.38
325.168	1359.38
325.397	1459.38
325.626	1658.38
325.855	2350.38
326.084	3660.38
326.313	5510.38
326.542	5861.38
326.77	3626.38
326.999	2307.38
327.228	1962.38
327.457	1892.38
327.686	1852.38
327.914	1978.38
328.143	2201.38
328.372	2655.38
328.6	2874.38
328.829	2619.38
329.058	2254.38
329.287	2019.38
329.515	1870.38
329.744	1724.38
329.972	1661.38
330.201	1609.38
330.43	1525.38
330.658	1473.38
330.887	1487.38
331.115	1423.38
331.344	1443.38
331.572	1448.38
331.801	1420.38
332.03	1468.38
332.258	1448.38
332.486	1576.38
332.715	1747.38
332.943	2195.38
333.172	2677.38
333.4	2636.38
333.629	1991.38
333.857	1818.38
334.085	1851.38
334.314	1876.38
334.542	2081.38
334.771	2334.38
334.999	2828.38
335.227	3459.38
335.455	3825.38
335.684	3543.38
335.912	2976.38
336.14	2572.38
336.369	2257.38
336.597	2147.38
336.825	1964.38
337.053	1877.38
337.281	1713.38
337.51	1690.38
337.738	1602.38
337.966	1561.38
338.194	1507.38
338.422	1473.38
338.65	1438.38
338.878	1390.38
339.106	1381.38
339.334	1367.38
339.562	1304.38
339.79	1297.38
340.018	1281.38
340.246	1320.38
340.474	1295.38
340.702	1309.38
340.93	1272.38
341.158	1262.38
341.386	1267.38
341.614	1262.38
341.842	1251.38
342.07	1227.38
342.298	1200.38
342.526	1209.38
342.754	1189.38
342.981	1136.38
343.209	1205.38
343.437	1215.38
343.665	1211.38
343.893	1200.38
344.12	1241.38
344.348	1202.38
344.576	1189.38
344.804	1174.38
345.031	1161.38
345.259	1148.38
345.487	1132.38
345.714	1116.38
345.942	1070.38
346.17	1133.38
346.397	1117.38
346.625	1106.38
346.853	1089.38
347.08	1073.38
347.308	1077.38
347.535	1118.38
347.763	1088.38
347.99	1076.38
348.218	1074.38
348.445	1073.38
348.673	1054.38
348.9	1055.38
349.128	1077.38
349.355	1066.38
349.583	1068.38
349.81	1072.38
350.037	1070.38
350.265	1063.38
350.492	1028.38
350.72	1059.38
350.947	1058.38
351.174	1055.38
351.402	1063.38
351.629	1046.38
351.856	1047.38
352.083	1031.38
352.311	1024.38
352.538	1040.38
352.765	1101.38
352.992	1043.38
353.22	1047.38
353.447	1045.38
353.674	1032.38
353.901	1058.38
354.128	1034.38
354.355	1047.38
354.583	1063.38
354.81	1059.38
355.037	1086.38
355.264	1066.38
355.491	1078.38
355.718	1060.38
355.945	1056.38
356.172	1065.38
356.399	1052.38
356.626	1069.38
356.853	1080.38
357.08	1088.38
357.307	1073.38
357.534	1115.38
357.761	1117.38
357.988	1091.38
358.215	1085.38
358.441	1116.38
358.668	1145.38
358.895	1122.38
359.122	1112.38
359.349	1108.38
359.576	1070.38
359.802	1127.38
360.029	1085.38
360.256	1085.38
360.483	1107.38
360.709	1104.38
360.936	1110.38
361.163	1107.38
361.39	1133.38
361.616	1121.38
361.843	1115.38
362.07	1110.38
362.296	1138.38
362.523	1124.38
362.749	1095.38
362.976	1140.38
363.203	1100.38
363.429	1127.38
363.656	1123.38
363.882	1101.38
364.109	1119.38
364.335	1111.38
364.562	1090.38
364.788	1128.38
365.015	1150.38
365.241	1119.38
365.468	1194.38
365.694	1236.38
365.92	1225.38
366.147	1142.38
366.373	1099.38
366.599	1113.38
366.826	1107.38
367.052	1118.38
367.278	1146.38
367.505	1116.38
367.731	1153.38
367.957	1158.38
368.184	1125.38
368.41	1141.38
368.636	1179.38
368.862	1166.38
369.089	1163.38
369.315	1186.38
369.541	1171.38
369.767	1145.38
369.993	1149.38
370.219	1144.38
370.445	1134.38
370.672	1154.38
370.898	1167.38
371.124	1172.38
371.35	1176.38
371.576	1181.38
371.802	1199.38
372.028	1185.38
372.254	1202.38
372.48	1181.38
372.706	1237.38
372.932	1223.38
373.158	1199.38
373.384	1221.38
373.61	1212.38
373.835	1253.38
374.061	1229.38
374.287	1249.38
374.513	1217.38
374.739	1257.38
374.965	1237.38
375.191	1253.38
375.416	1284.38
375.642	1246.38
375.868	1228.38
376.094	1183.38
376.319	1222.38
376.545	1200.38
376.771	1185.38
376.997	1183.38
377.222	1192.38
377.448	1163.38
377.674	1187.38
377.899	1200.38
378.125	1230.38
378.35	1178.38
378.576	1191.38
378.802	1204.38
379.027	1228.38
379.253	1303.38
379.478	1332.38
379.704	1534.38
379.929	2214.38
380.155	3304.38
380.38	3464.38
380.606	2125.38
380.831	1548.38
381.057	1342.38
381.282	1270.38
381.507	1227.38
381.733	1211.38
381.958	1189.38
382.184	1212.38
382.409	1206.38
382.634	1203.38
382.86	1158.38
383.085	1153.38
383.31	1196.38
383.535	1173.38
383.761	1152.38
383.986	1160.38
384.211	1222.38
384.436	1217.38
384.662	1244.38
384.887	1249.38
385.112	1188.38
385.337	1226.38
385.562	1226.38
385.787	1192.38
386.013	1220.38
386.238	1241.38
386.463	1208.38
386.688	1224.38
386.913	1225.38
387.138	1218.38
387.363	1235.38
387.588	1241.38
387.813	1239.38
388.038	1224.38
388.263	1254.38
388.488	1231.38
388.713	1238.38
388.938	1207.38
389.163	1204.38
389.387	1191.38
389.612	1194.38
389.837	1224.38
390.062	1205.38
390.287	1244.38
390.512	1247.38
390.736	1265.38
390.961	1260.38
391.186	1278.38
391.411	1285.38
391.636	1295.38
391.86	1298.38
392.085	1309.38
392.31	1262.38
392.534	1246.38
392.759	1261.38
392.984	1232.38
393.208	1282.38
393.433	1281.38
393.658	1287.38
393.882	1256.38
394.107	1207.38
394.331	1225.38
394.556	1247.38
394.78	1251.38
395.005	1287.38
395.229	1247.38
395.454	1235.38
395.678	1288.38
395.903	1248.38
396.127	1274.38
396.352	1304.38
396.576	1270.38
396.801	1286.38
397.025	1318.38
397.249	1288.38
397.474	1301.38
397.698	1302.38
397.922	1333.38
398.147	1311.38
398.371	1360.38
398.595	1334.38
398.82	1376.38
399.044	1398.38
399.268	1500.38
399.492	1528.38
399.717	1612.38
399.941	1594.38
400.165	1532.38
400.389	1477.38
400.613	1435.38
400.837	1396.38
401.062	1391.38
401.286	1399.38
401.51	1361.38
401.734	1354.38
401.958	1363.38
402.182	1365.38
402.406	1317.38
402.63	1399.38
402.854	1398.38
403.078	1391.38
403.302	1361.38
403.526	1398.38
403.75	1428.38
403.974	1401.38
404.198	1372.38
404.422	1409.38
404.645	1392.38
404.869	1404.38
405.093	1426.38
405.317	1382.38
405.541	1416.38
405.765	1422.38
405.988	1446.38
406.212	1444.38
406.436	1395.38
406.66	1487.38
406.883	1463.38
407.107	1494.38
407.331	1508.38
407.555	1508.38
407.778	1496.38
408.002	1479.38
408.226	1477.38
408.449	1496.38
408.673	1471.38
408.896	1427.38
409.12	1438.38
409.344	1410.38
409.567	1363.38
409.791	1418.38
410.014	1400.38
410.238	1391.38
410.461	1417.38
410.685	1379.38
410.908	1411.38
411.132	1394.38
411.355	1340.38
411.578	1347.38
411.802	1365.38
412.025	1343.38
412.249	1336.38
412.472	1368.38
412.695	1352.38
412.919	1344.38
413.142	1339.38
413.365	1325.38
413.589	1341.38
413.812	1331.38
414.035	1321.38
414.258	1347.38
414.482	1340.38
414.705	1346.38
414.928	1338.38
415.151	1340.38
415.374	1334.38
415.597	1286.38
415.821	1280.38
416.044	1317.38
416.267	1270.38
416.49	1296.38
416.713	1266.38
416.936	1277.38
417.159	1212.38
417.382	1286.38
417.605	1254.38
417.828	1272.38
418.051	1301.38
418.274	1301.38
418.497	1287.38
418.72	1298.38
418.943	1316.38
419.166	1345.38
419.389	1423.38
419.611	1440.38
419.834	1380.38
420.057	1313.38
420.28	1326.38
420.503	1254.38
420.726	1257.38
420.948	1280.38
421.171	1310.38
421.394	1310.38
421.617	1270.38
421.839	1317.38
422.062	1303.38
422.285	1285.38
422.507	1308.38
422.73	1344.38
422.953	1306.38
423.175	1318.38
423.398	1334.38
423.621	1255.38
423.843	1258.38
424.066	1320.38
424.288	1282.38
424.511	1288.38
424.733	1289.38
424.956	1299.38
425.178	1305.38
425.401	1255.38
425.623	1306.38
425.846	1278.38
426.068	1255.38
426.291	1242.38
426.513	1250.38
426.735	1238.38
426.958	1188.38
427.18	1218.38
427.402	1232.38
427.625	1219.38
427.847	1187.38
428.069	1195.38
428.292	1232.38
428.514	1217.38
428.736	1191.38
428.958	1189.38
429.181	1196.38
429.403	1184.38
429.625	1178.38
429.847	1165.38
430.069	1206.38
430.292	1254.38
430.514	1295.38
430.736	1276.38
430.958	1196.38
431.18	1188.38
431.402	1163.38
431.624	1149.38
431.846	1163.38
432.068	1164.38
432.29	1126.38
432.512	1170.38
432.734	1193.38
432.956	1168.38
433.178	1191.38
433.4	1196.38
433.622	1221.38
433.844	1192.38
434.066	1190.38
434.287	1156.38
434.509	1234.38
434.731	1219.38
434.953	1232.38
435.175	1241.38
435.397	1228.38
435.618	1192.38
435.84	1202.38
436.062	1185.38
436.284	1161.38
436.505	1151.38
436.727	1168.38
436.949	1194.38
437.17	1196.38
437.392	1172.38
437.614	1200.38
437.835	1141.38
438.057	1107.38
438.278	1107.38
438.5	1148.38
438.721	1163.38
438.943	1196.38
439.165	1204.38
439.386	1217.38
439.608	1225.38
439.829	1195.38
440.05	1260.38
440.272	1293.38
440.493	1209.38
440.715	1229.38
440.936	1216.38
441.158	1243.38
441.379	1215.38
441.6	1264.38
441.822	1302.38
442.043	1379.38
442.264	1417.38
442.486	1317.38
442.707	1279.38
442.928	1268.38
443.149	1264.38
443.371	1248.38
443.592	1272.38
443.813	1278.38
444.034	1286.38
444.255	1294.38
444.476	1322.38
444.698	1364.38
444.919	1359.38
445.14	1477.38
445.361	1374.38
445.582	1309.38
445.803	1320.38
446.024	1248.38
446.245	1312.38
446.466	1276.38
446.687	1268.38
446.908	1224.38
447.129	1220.38
447.35	1196.38
447.571	1182.38
447.792	1160.38
448.013	1214.38
448.234	1183.38
448.455	1159.38
448.675	1167.38
448.896	1217.38
449.117	1230.38
449.338	1346.38
449.559	1426.38
449.779	1226.38
450	1172.38
450.221	1147.38
450.442	1160.38
450.662	1156.38
450.883	1144.38
451.104	1122.38
451.324	1135.38
451.545	1144.38
451.766	1132.38
451.986	1166.38
452.207	1253.38
452.428	1544.38
452.648	2150.38
452.869	1798.38
453.089	1301.38
453.31	1240.38
453.53	1258.38
453.751	1316.38
453.971	1374.38
454.192	1388.38
454.412	1183.38
454.633	1141.38
454.853	1081.38
455.073	1106.38
455.294	1076.38
455.514	1100.38
455.734	1061.38
455.955	1101.38
456.175	1085.38
456.395	1083.38
456.616	1093.38
456.836	1130.38
457.056	1084.38
457.276	1122.38
457.497	1180.38
457.717	1176.38
457.937	1117.38
458.157	1132.38
458.377	1108.38
458.598	1156.38
458.818	1174.38
459.038	1154.38
459.258	1140.38
459.478	1200.38
459.698	1194.38
459.918	1214.38
460.138	1254.38
460.358	1233.38
460.578	1248.38
460.798	1308.38
461.018	1296.38
461.238	1293.38
461.458	1310.38
461.678	1303.38
461.898	1328.38
462.118	1303.38
462.338	1358.38
462.558	1318.38
462.777	1382.38
462.997	1489.38
463.217	1486.38
463.437	1523.38
463.657	1565.38
463.876	1575.38
464.096	1473.38
464.316	1415.38
464.536	1373.38
464.755	1338.38
464.975	1334.38
465.195	1295.38
465.414	1272.38
465.634	1260.38
465.854	1226.38
466.073	1198.38
466.293	1172.38
466.512	1179.38
466.732	1212.38
466.951	1264.38
467.171	1317.38
467.391	1305.38
467.61	1242.38
467.829	1180.38
468.049	1186.38
468.268	1181.38
468.488	1184.38
468.707	1154.38
468.927	1142.38
469.146	1140.38
469.365	1152.38
469.585	1153.38
469.804	1223.38
470.023	1206.38
470.243	1228.38
470.462	1283.38
470.681	1308.38
470.901	1407.38
471.12	1669.38
471.339	1704.38
471.558	1412.38
471.777	1273.38
471.997	1210.38
472.216	1198.38
472.435	1198.38
472.654	1164.38
472.873	1136.38
473.092	1142.38
473.311	1155.38
473.53	1187.38
473.749	1177.38
473.968	1232.38
474.187	1180.38
474.406	1150.38
474.625	1181.38
474.844	1168.38
475.063	1201.38
475.282	1148.38
475.501	1168.38
475.72	1183.38
475.939	1235.38
476.158	1198.38
476.377	1213.38
476.596	1216.38
476.814	1233.38
477.033	1217.38
477.252	1231.38
477.471	1257.38
477.69	1286.38
477.908	1287.38
478.127	1336.38
478.346	1332.38
478.564	1346.38
478.783	1332.38
479.002	1348.38
479.22	1438.38
479.439	1374.38
479.658	1357.38
479.876	1369.38
480.095	1373.38
480.313	1425.38
480.532	1406.38
480.751	1412.38
480.969	1404.38
481.188	1360.38
481.406	1382.38
481.624	1366.38
481.843	1358.38
482.061	1406.38
482.28	1364.38
482.498	1377.38
482.717	1358.38
482.935	1374.38
483.153	1427.38
483.372	1442.38
483.59	1441.38
483.808	1463.38
484.027	1485.38
484.245	1577.38
484.463	1732.38
484.681	1972.38
484.9	1801.38
485.118	1652.38
485.336	1623.38
485.554	1618.38
485.772	1709.38
485.99	1968.38
486.209	2144.38
486.427	1755.38
486.645	1610.38
486.863	1564.38
487.081	1510.38
487.299	1450.38
487.517	1477.38
487.735	1525.38
487.953	1532.38
488.171	1490.38
488.389	1465.38
488.607	1459.38
488.825	1441.38
489.043	1418.38
489.261	1467.38
489.479	1429.38
489.696	1445.38
489.914	1450.38
490.132	1470.38
490.35	1459.38
490.568	1495.38
490.786	1497.38
491.003	1503.38
491.221	1532.38
491.439	1518.38
491.657	1502.38
491.874	1560.38
492.092	1538.38
492.31	1597.38
492.527	1588.38
492.745	1554.38
492.963	1494.38
493.18	1534.38
493.398	1516.38
493.615	1551.38
493.833	1511.38
494.05	1510.38
494.268	1560.38
494.485	1537.38
494.703	1552.38
494.92	1515.38
495.138	1518.38
495.355	1572.38
495.573	1556.38
495.79	1533.38
496.008	1513.38
496.225	1553.38
496.442	1589.38
496.66	1654.38
496.877	1709.38
497.094	1686.38
497.312	1666.38
497.529	1598.38
497.746	1667.38
497.963	1665.38
498.181	1706.38
498.398	1733.38
498.615	1798.38
498.832	1846.38
499.049	1941.38
499.267	2076.38
499.484	2229.38
499.701	2223.38
499.918	2318.38
500.135	2428.38
500.352	2527.38
500.569	2584.38
500.786	2573.38
501.003	2445.38
501.22	2355.38
501.437	2220.38
501.654	2100.38
501.871	2037.38
502.088	1968.38
502.305	1880.38
502.522	1825.38
502.739	1752.38
502.956	1670.38
503.172	1700.38
503.389	1638.38
503.606	1594.38
503.823	1619.38
504.04	1569.38
504.256	1554.38
504.473	1604.38
504.69	1547.38
504.907	1565.38
505.123	1489.38
505.34	1449.38
505.557	1473.38
505.773	1422.38
505.99	1426.38
506.207	1441.38
506.423	1397.38
506.64	1380.38
506.856	1351.38
507.073	1347.38
507.289	1368.38
507.506	1338.38
507.722	1335.38
507.939	1315.38
508.155	1279.38
508.372	1325.38
508.588	1317.38
508.805	1271.38
509.021	1293.38
509.238	1321.38
509.454	1366.38
509.67	1455.38
509.887	1334.38
510.103	1304.38
510.319	1335.38
510.536	1305.38
510.752	1301.38
510.968	1305.38
511.184	1288.38
511.401	1242.38
511.617	1241.38
511.833	1275.38
512.049	1240.38
512.265	1245.38
512.481	1229.38
512.698	1232.38
512.914	1230.38
513.13	1250.38
513.346	1220.38
513.562	1251.38
513.778	1232.38
513.994	1295.38
514.21	1302.38
514.426	1367.38
514.642	1400.38
514.858	1320.38
515.074	1314.38
515.29	1305.38
515.506	1267.38
515.721	1249.38
515.937	1284.38
516.153	1290.38
516.369	1275.38
516.585	1334.38
516.801	1338.38
517.016	1356.38
517.232	1406.38
517.448	1387.38
517.664	1435.38
517.879	1432.38
518.095	1396.38
518.311	1433.38
518.527	1396.38
518.742	1401.38
518.958	1392.38
519.173	1424.38
519.389	1359.38
519.605	1328.38
519.82	1301.38
520.036	1298.38
520.251	1296.38
520.467	1261.38
520.682	1226.38
520.898	1228.38
521.113	1210.38
521.329	1209.38
521.544	1229.38
521.76	1221.38
521.975	1220.38
522.19	1216.38
522.406	1191.38
522.621	1201.38
522.836	1233.38
523.052	1180.38
523.267	1188.38
523.482	1182.38
523.698	1220.38
523.913	1190.38
524.128	1186.38
524.343	1190.38
524.559	1203.38
524.774	1192.38
524.989	1196.38
525.204	1239.38
525.419	1230.38
525.634	1201.38
525.849	1211.38
526.064	1172.38
526.28	1183.38
526.495	1183.38
526.71	1205.38
526.925	1180.38
527.14	1211.38
527.355	1209.38
527.57	1184.38
527.785	1236.38
527.999	1184.38
528.214	1241.38
528.429	1256.38
528.644	1253.38
528.859	1236.38
529.074	1270.38
529.289	1333.38
529.503	1296.38
529.718	1288.38
529.933	1278.38
530.148	1271.38
530.363	1241.38
530.577	1248.38
530.792	1286.38
531.007	1267.38
531.221	1273.38
531.436	1286.38
531.651	1325.38
531.865	1312.38
532.08	1358.38
532.295	1367.38
532.509	1404.38
532.724	1435.38
532.938	1411.38
533.153	1456.38
533.367	1565.38
533.582	1606.38
533.796	1609.38
534.011	1530.38
534.225	1503.38
534.44	1435.38
534.654	1424.38
534.868	1434.38
535.083	1427.38
535.297	1419.38
535.511	1350.38
535.726	1340.38
535.94	1321.38
536.154	1298.38
536.369	1289.38
536.583	1267.38
536.797	1283.38
537.011	1238.38
537.225	1268.38
537.44	1206.38
537.654	1204.38
537.868	1208.38
538.082	1182.38
538.296	1198.38
538.51	1181.38
538.724	1229.38
538.938	1184.38
539.153	1162.38
539.367	1205.38
539.581	1189.38
539.795	1145.38
540.009	1160.38
540.222	1152.38
540.436	1189.38
540.65	1184.38
540.864	1175.38
541.078	1209.38
541.292	1285.38
541.506	1503.38
541.72	1609.38
541.934	1386.38
542.147	1313.38
542.361	1263.38
542.575	1209.38
542.789	1178.38
543.002	1129.38
543.216	1154.38
543.43	1141.38
543.644	1115.38
543.857	1116.38
544.071	1146.38
544.285	1134.38
544.498	1172.38
544.712	1171.38
544.925	1206.38
545.139	1155.38
545.352	1182.38
545.566	1188.38
545.779	1165.38
545.993	1174.38
546.206	1198.38
546.42	1207.38
546.633	1202.38
546.847	1194.38
547.06	1166.38
547.274	1188.38
547.487	1184.38
547.7	1198.38
547.914	1184.38
548.127	1143.38
548.34	1168.38
548.554	1162.38
548.767	1160.38
548.98	1181.38
549.193	1191.38
549.407	1202.38
549.62	1178.38
549.833	1181.38
550.046	1185.38
550.259	1173.38
550.473	1144.38
550.686	1164.38
550.899	1141.38
551.112	1148.38
551.325	1144.38
551.538	1153.38
551.751	1150.38
551.964	1130.38
552.177	1154.38
552.39	1196.38
552.603	1221.38
552.816	1251.38
553.029	1228.38
553.242	1268.38
553.455	1260.38
553.667	1272.38
553.88	1261.38
554.093	1264.38
554.306	1280.38
554.519	1329.38
554.732	1311.38
554.944	1347.38
555.157	1351.38
555.37	1370.38
555.583	1402.38
555.795	1419.38
556.008	1543.38
556.221	1673.38
556.433	1743.38
556.646	1751.38
556.859	1735.38
557.071	1662.38
557.284	1652.38
557.496	1595.38
557.709	1606.38
557.921	1553.38
558.134	1559.38
558.346	1590.38
558.559	1581.38
558.771	1657.38
558.984	1823.38
559.196	1892.38
559.409	1841.38
559.621	1740.38
559.833	1649.38
560.046	1550.38
560.258	1481.38
560.47	1445.38
560.683	1410.38
560.895	1344.38
561.107	1290.38
561.32	1270.38
561.532	1277.38
561.744	1264.38
561.956	1215.38
562.168	1202.38
562.381	1187.38
562.593	1186.38
562.805	1193.38
563.017	1214.38
563.229	1185.38
563.441	1335.38
563.653	1183.38
563.865	1081.38
564.077	1104.38
564.289	1082.38
564.501	1081.38
564.713	1087.38
564.925	1064.38
565.137	1043.38
565.349	1057.38
565.561	1108.38
565.773	1082.38
565.985	1098.38
566.197	1109.38
566.408	1119.38
566.62	1152.38
566.832	1186.38
567.044	1182.38
567.255	1197.38
567.467	1218.38
567.679	1208.38
567.891	1268.38
568.102	1435.38
568.314	1670.38
568.526	1414.38
568.737	1229.38
568.949	1110.38
569.161	1060.38
569.372	1013.38
569.584	1015.38
569.795	984.38
570.007	946.38
570.218	981.38
570.43	1001.38
570.641	943.38
570.853	904.38
571.064	892.38
571.276	898.38
571.487	869.38
571.698	824.38
571.91	850.38
572.121	838.38
572.333	844.38
572.544	856.38
572.755	924.38
572.966	1072.38
573.178	970.38
573.389	862.38
573.6	821.38
573.811	802.38
574.023	786.38
574.234	812.38
574.445	780.38
574.656	775.38
574.867	777.38
575.078	805.38
575.289	783.38
575.501	757.38
575.712	775.38
575.923	769.38
576.134	774.38
576.345	820.38
576.556	797.38
576.767	778.38
576.978	821.38
577.188	812.38
577.399	774.38
577.61	781.38
577.821	803.38
578.032	794.38
578.243	795.38
578.454	809.38
578.665	835.38
578.875	873.38
579.086	875.38
579.297	892.38
579.508	985.38
579.718	1009.38
579.929	1137.38
580.14	1296.38
580.35	1301.38
580.561	1241.38
580.772	1150.38
580.982	1084.38
581.193	1007.38
581.403	987.38
581.614	919.38
581.825	896.38
582.035	847.38
582.246	838.38
582.456	833.38
582.667	803.38
582.877	791.38
583.087	766.38
583.298	745.38
583.508	714.38
583.719	717.38
583.929	711.38
584.139	705.38
584.35	670.38
584.56	681.38
584.77	669.38
584.981	659.38
585.191	675.38
585.401	644.38
585.611	633.38
585.821	644.38
586.032	628.38
586.242	629.38
586.452	638.38
586.662	615.38
586.872	608.38
587.082	600.38
587.292	605.38
587.502	588.38
587.713	584.38
587.923	597.38
588.133	565.38
588.343	585.38
588.553	592.38
588.762	584.38
588.972	576.38
589.182	589.38
589.392	581.38
589.602	556.38
589.812	580.38
590.022	543.38
590.232	545.38
590.441	570.38
590.651	545.38
590.861	556.38
591.071	570.38
591.281	544.38
591.49	542.38
591.7	550.38
591.91	565.38
592.119	549.38
592.329	569.38
592.539	565.38
592.748	566.38
592.958	582.38
593.167	577.38
593.377	593.38
593.587	580.38
593.796	592.38
594.006	614.38
594.215	582.38
594.424	592.38
594.634	560.38
594.843	589.38
595.053	562.38
595.262	545.38
595.472	555.38
595.681	537.38
595.89	540.38
596.1	514.38
596.309	520.38
596.518	516.38
596.727	520.38
596.937	494.38
597.146	511.38
597.355	512.38
597.564	497.38
597.774	486.38
597.983	465.38
598.192	472.38
598.401	485.38
598.61	448.38
598.819	482.38
599.028	462.38
599.237	477.38
599.446	455.38
599.655	465.38
599.864	458.38
600.073	450.38
600.282	472.38
600.491	474.38
600.7	482.38
600.909	474.38
601.118	455.38
601.327	462.38
601.536	446.38
601.745	488.38
601.953	509.38
602.162	570.38
602.371	528.38
602.58	468.38
602.789	446.38
602.997	462.38
603.206	477.38
603.415	456.38
603.623	445.38
603.832	451.38
604.041	443.38
604.249	444.38
604.458	463.38
604.666	438.38
604.875	440.38
605.084	449.38
605.292	429.38
605.501	440.38
605.709	432.38
605.918	451.38
606.126	454.38
606.334	462.38
606.543	451.38
606.751	497.38
606.96	542.38
607.168	601.38
607.376	500.38
607.585	478.38
607.793	447.38
608.001	438.38
608.21	460.38
608.418	438.38
608.626	424.38
608.834	433.38
609.043	411.38
609.251	415.38
609.459	422.38
609.667	444.38
609.875	417.38
610.083	444.38
610.291	402.38
610.499	434.38
610.707	414.38
610.916	428.38
611.124	398.38
611.332	409.38
611.54	422.38
611.748	422.38
611.955	401.38
612.163	401.38
612.371	413.38
612.579	403.38
612.787	414.38
612.995	413.38
613.203	405.38
613.411	404.38
613.618	421.38
613.826	400.38
614.034	394.38
614.242	391.38
614.449	382.38
614.657	405.38
614.865	403.38
615.072	400.38
615.28	416.38
615.488	426.38
615.695	417.38
615.903	414.38
616.111	416.38
616.318	419.38
616.526	402.38
616.733	401.38
616.941	395.38
617.148	413.38
617.356	401.38
617.563	378.38
617.771	386.38
617.978	392.38
618.185	395.38
618.393	383.38
618.6	383.38
618.807	394.38
619.015	386.38
619.222	381.38
619.429	390.38
619.637	384.38
619.844	372.38
620.051	364.38
620.258	380.38
620.466	357.38
620.673	346.38
620.88	342.38
621.087	352.38
621.294	350.38
621.501	365.38
621.708	356.38
621.915	361.38
622.122	368.38
622.329	365.38
622.536	357.38
622.743	360.38
622.95	351.38
623.157	356.38
623.364	357.38
623.571	368.38
623.778	349.38
623.985	345.38
624.192	367.38
624.399	351.38
624.606	337.38
624.812	344.38
625.019	340.38
625.226	344.38
625.433	351.38
625.639	336.38
625.846	318.38
626.053	321.38
626.259	336.38
626.466	327.38
626.673	330.38
626.879	333.38
627.086	306.38
627.293	318.38
627.499	345.38
627.706	343.38
627.912	327.38
628.119	333.38
628.325	327.38
628.532	336.38
628.738	330.38
628.945	329.38
629.151	321.38
629.357	321.38
629.564	334.38
629.77	325.38
629.976	334.38
630.183	317.38
630.389	313.38
630.595	293.38
630.802	323.38
631.008	317.38
631.214	317.38
631.42	327.38
631.627	333.38
631.833	296.38
632.039	315.38
632.245	294.38
632.451	293.38
632.657	315.38
632.863	320.38
633.069	323.38
633.275	301.38
633.481	316.38
633.688	304.38
633.893	286.38
634.099	285.38
634.305	307.38
634.511	311.38
634.717	312.38
634.923	295.38
635.129	340.38
635.335	394.38
635.541	352.38
635.747	339.38
635.952	322.38
636.158	313.38
636.364	320.38
636.57	316.38
636.775	320.38
636.981	304.38
637.187	305.38
637.392	316.38
637.598	317.38
637.804	317.38
638.009	309.38
638.215	321.38
638.421	298.38
638.626	306.38
638.832	290.38
639.037	318.38
639.243	302.38
639.448	317.38
639.654	325.38
639.859	302.38
640.065	314.38
640.27	313.38
640.475	308.38
640.681	303.38
640.886	301.38
641.091	331.38
641.297	329.38
641.502	328.38
641.707	336.38
641.913	347.38
642.118	332.38
642.323	337.38
642.528	337.38
642.733	358.38
642.939	365.38
643.144	374.38
643.349	373.38
643.554	359.38
643.759	393.38
643.964	400.38
644.169	433.38
644.374	463.38
644.579	496.38
644.784	534.38
644.989	570.38
645.194	667.38
645.399	777.38
645.604	798.38
645.809	634.38
646.014	508.38
646.219	441.38
646.423	403.38
646.628	389.38
646.833	354.38
647.038	335.38
647.243	348.38
647.447	338.38
647.652	297.38
647.857	310.38
648.062	310.38
648.266	305.38
648.471	295.38
648.676	288.38
648.88	287.38
649.085	295.38
649.289	264.38
649.494	268.38
649.698	263.38
649.903	270.38
650.107	268.38
650.312	257.38
650.516	273.38
650.721	261.38
650.925	263.38
651.13	253.38
651.334	243.38
651.539	236.38
651.743	215.38
651.947	252.38
652.152	234.38
652.356	246.38
652.56	258.38
652.764	290.38
652.969	254.38
653.173	238.38
653.377	200.38
653.581	217.38
653.785	201.38
653.99	224.38
654.194	217.38
654.398	210.38
654.602	207.38
654.806	217.38
655.01	218.38
655.214	194.38
655.418	205.38
655.622	205.38
655.826	221.38
656.03	226.38
656.234	220.38
656.438	229.38
656.642	220.38
656.846	216.38
657.049	203.38
657.253	214.38
657.457	176.38
657.661	176.38
657.865	165.38
658.068	154.38
658.272	161.38
658.476	144.38
658.68	142.38
658.883	139.38
659.087	142.38
659.291	128.38
659.494	122.38
659.698	131.38
659.901	138.38
660.105	118.38
660.309	118.38
660.512	101.38
660.716	105.38
660.919	101.38
661.123	110.38
661.326	98.38
661.53	99.38
661.733	94.38
661.936	97.38
662.14	96.38
662.343	93.38
662.546	85.38
662.75	90.38
662.953	96.38
663.156	94.38
663.36	90.38
663.563	92.38
663.766	70.38
663.969	84.38
664.173	72.38
664.376	91.38
664.579	81.38
664.782	76.38
664.985	95.38
665.188	95.38
665.391	81.38
665.594	80.38
665.797	71.38
666	80.38
666.203	80.38
666.406	97.38
666.609	86.38
666.812	88.38
667.015	86.38
667.218	85.38
667.421	88.38
667.624	77.38
667.827	81.38
668.03	78.38
668.232	77.38
668.435	89.38
668.638	82.38
668.841	78.38
669.043	82.38
669.246	83.38
669.449	72.38
669.651	79.38
669.854	85.38
670.057	87.38
670.259	79.38
670.462	85.38
670.665	79.38
670.867	88.38
671.07	88.38
671.272	73.38
671.475	88.38
671.677	76.38
671.88	65.38
672.082	76.38
672.284	77.38
672.487	91.38
672.689	69.38
672.892	76.38
