Data from SnStandardFlinnAPT0064_LampEnergy5.5_LIBS07252019.E.O._I.C._HRD10591_15-16-37-491.txt Node
Date: Thu Jul 25 15:16:37 EDT 2019
User: cochatt
Spectrometer: HR+D1059
Trigger mode: 1
Integration Time (sec): 1.000000E-1
Scans to average: 1
Electric dark correction enabled: true
Nonlinearity correction enabled: false
Boxcar width: 0
XAxis mode: Wavelengths
Number of Pixels in Spectrum: 2048
>>>>>Begin Spectral Data<<<<<
223.165	-10.88
223.4	-10.88
223.635	-10.88
223.869	-17.88
224.104	-6.88
224.338	-19.88
224.573	-2.88
224.808	-19.88
225.042	-1.88
225.277	-8.88
225.511	9.12
225.746	-7.88
225.98	1.12
226.215	16.12
226.449	11.12
226.683	17.12
226.918	14.12
227.152	28.12
227.387	24.12
227.621	22.12
227.856	52.12
228.09	54.12
228.324	51.12
228.559	59.12
228.793	87.12
229.027	135.12
229.262	162.12
229.496	156.12
229.73	142.12
229.964	151.12
230.199	151.12
230.433	159.12
230.667	159.12
230.901	163.12
231.136	168.12
231.37	193.12
231.604	194.12
231.838	202.12
232.072	244.12
232.306	246.12
232.541	223.12
232.775	193.12
233.009	207.12
233.243	201.12
233.477	208.12
233.711	240.12
233.945	279.12
234.179	239.12
234.413	216.12
234.647	215.12
234.881	217.12
235.115	236.12
235.349	272.12
235.583	349.12
235.817	439.12
236.051	434.12
236.285	288.12
236.519	226.12
236.753	242.12
236.987	238.12
237.221	252.12
237.455	238.12
237.689	208.12
237.922	208.12
238.156	224.12
238.39	229.12
238.624	230.12
238.858	228.12
239.091	212.12
239.325	239.12
239.559	233.12
239.793	234.12
240.027	232.12
240.26	236.12
240.494	260.12
240.728	247.12
240.961	277.12
241.195	277.12
241.429	296.12
241.662	292.12
241.896	322.12
242.13	398.12
242.363	516.12
242.597	654.12
242.83	609.12
243.064	624.12
243.298	737.12
243.531	640.12
243.765	402.12
243.998	340.12
244.232	327.12
244.465	284.12
244.699	289.12
244.932	309.12
245.166	310.12
245.399	305.12
245.633	303.12
245.866	313.12
246.099	303.12
246.333	278.12
246.566	297.12
246.8	271.12
247.033	286.12
247.266	285.12
247.5	292.12
247.733	320.12
247.966	314.12
248.2	329.12
248.433	384.12
248.666	408.12
248.899	392.12
249.133	355.12
249.366	386.12
249.599	393.12
249.832	440.12
250.066	440.12
250.299	375.12
250.532	335.12
250.765	339.12
250.998	332.12
251.231	344.12
251.465	310.12
251.698	341.12
251.931	335.12
252.164	321.12
252.397	343.12
252.63	338.12
252.863	367.12
253.096	339.12
253.329	361.12
253.562	316.12
253.795	343.12
254.028	354.12
254.261	361.12
254.494	397.12
254.727	455.12
254.96	521.12
255.193	501.12
255.426	416.12
255.659	377.12
255.892	396.12
256.124	393.12
256.357	383.12
256.59	404.12
256.823	409.12
257.056	464.12
257.289	532.12
257.521	590.12
257.754	497.12
257.987	408.12
258.22	415.12
258.452	385.12
258.685	410.12
258.918	421.12
259.151	423.12
259.383	447.12
259.616	489.12
259.849	517.12
260.081	464.12
260.314	419.12
260.547	416.12
260.779	412.12
261.012	414.12
261.244	409.12
261.477	412.12
261.71	445.12
261.942	430.12
262.175	453.12
262.407	463.12
262.64	482.12
262.872	469.12
263.105	488.12
263.337	511.12
263.57	550.12
263.802	558.12
264.035	565.12
264.267	591.12
264.499	586.12
264.732	615.12
264.964	625.12
265.197	617.12
265.429	622.12
265.661	641.12
265.894	690.12
266.126	734.12
266.358	816.12
266.591	787.12
266.823	690.12
267.055	633.12
267.287	592.12
267.52	578.12
267.752	586.12
267.984	550.12
268.216	558.12
268.448	532.12
268.681	570.12
268.913	560.12
269.145	524.12
269.377	549.12
269.609	544.12
269.841	562.12
270.073	584.12
270.306	670.12
270.538	914.12
270.77	1296.12
271.002	1566.12
271.234	1118.12
271.466	736.12
271.698	615.12
271.93	588.12
272.162	554.12
272.394	547.12
272.626	520.12
272.858	533.12
273.09	538.12
273.322	559.12
273.553	536.12
273.785	544.12
274.017	492.12
274.249	525.12
274.481	536.12
274.713	522.12
274.945	529.12
275.176	532.12
275.408	547.12
275.64	557.12
275.872	532.12
276.104	547.12
276.335	559.12
276.567	545.12
276.799	560.12
277.031	570.12
277.262	567.12
277.494	589.12
277.726	633.12
277.957	730.12
278.189	818.12
278.421	765.12
278.652	711.12
278.884	706.12
279.115	613.12
279.347	610.12
279.579	590.12
279.81	592.12
280.042	597.12
280.273	611.12
280.505	629.12
280.736	636.12
280.968	649.12
281.199	728.12
281.431	810.12
281.662	821.12
281.894	714.12
282.125	677.12
282.356	681.12
282.588	695.12
282.819	695.12
283.051	768.12
283.282	820.12
283.513	1020.12
283.745	1467.12
283.976	2327.12
284.207	3255.12
284.439	2884.12
284.67	1744.12
284.901	1356.12
285.132	1364.12
285.364	1324.12
285.595	1041.12
285.826	960.12
286.057	1137.12
286.288	1533.12
286.52	2086.12
286.751	1886.12
286.982	1203.12
287.213	894.12
287.444	788.12
287.675	767.12
287.906	742.12
288.138	738.12
288.369	732.12
288.6	706.12
288.831	696.12
289.062	706.12
289.293	724.12
289.524	707.12
289.755	717.12
289.986	703.12
290.217	714.12
290.448	731.12
290.679	708.12
290.91	723.12
291.141	777.12
291.371	798.12
291.602	801.12
291.833	762.12
292.064	733.12
292.295	721.12
292.526	687.12
292.757	684.12
292.987	693.12
293.218	674.12
293.449	685.12
293.68	643.12
293.91	674.12
294.141	690.12
294.372	646.12
294.603	664.12
294.833	676.12
295.064	670.12
295.295	648.12
295.525	655.12
295.756	659.12
295.987	673.12
296.217	660.12
296.448	665.12
296.679	677.12
296.909	681.12
297.14	686.12
297.37	709.12
297.601	680.12
297.831	704.12
298.062	688.12
298.292	687.12
298.523	710.12
298.753	710.12
298.984	720.12
299.214	733.12
299.445	750.12
299.675	733.12
299.905	735.12
300.136	791.12
300.366	888.12
300.597	1122.12
300.827	1522.12
301.057	2036.12
301.288	2039.12
301.518	1308.12
301.748	1019.12
301.979	940.12
302.209	910.12
302.439	897.12
302.669	977.12
302.9	1152.12
303.13	1624.12
303.36	2372.12
303.59	3208.12
303.82	2744.12
304.051	1584.12
304.281	1199.12
304.511	988.12
304.741	931.12
304.971	864.12
305.201	848.12
305.431	794.12
305.661	824.12
305.891	812.12
306.121	807.12
306.352	798.12
306.582	772.12
306.812	782.12
307.042	781.12
307.272	753.12
307.502	776.12
307.731	771.12
307.961	794.12
308.191	780.12
308.421	783.12
308.651	773.12
308.881	788.12
309.111	778.12
309.341	772.12
309.571	782.12
309.8	795.12
310.03	806.12
310.26	790.12
310.49	808.12
310.72	787.12
310.949	812.12
311.179	809.12
311.409	808.12
311.639	807.12
311.868	804.12
312.098	823.12
312.328	812.12
312.557	842.12
312.787	851.12
313.017	830.12
313.246	834.12
313.476	842.12
313.706	874.12
313.935	926.12
314.165	940.12
314.394	977.12
314.624	956.12
314.853	897.12
315.083	896.12
315.312	909.12
315.542	928.12
315.771	941.12
316.001	942.12
316.23	944.12
316.46	986.12
316.689	1089.12
316.919	1294.12
317.148	1844.12
317.377	2834.12
317.607	4209.12
317.836	4304.12
318.065	2472.12
318.295	1610.12
318.524	1308.12
318.753	1157.12
318.983	1078.12
319.212	1040.12
319.441	1010.12
319.67	1015.12
319.9	980.12
320.129	967.12
320.358	969.12
320.587	986.12
320.816	988.12
321.046	975.12
321.275	969.12
321.504	1005.12
321.733	1021.12
321.962	1012.12
322.191	1017.12
322.42	1045.12
322.649	1029.12
322.878	1028.12
323.108	1029.12
323.337	1022.12
323.566	1051.12
323.795	1080.12
324.024	1099.12
324.253	1120.12
324.482	1149.12
324.71	1175.12
324.939	1237.12
325.168	1278.12
325.397	1308.12
325.626	1551.12
325.855	2193.12
326.084	3467.12
326.313	5170.12
326.542	5392.12
326.77	3391.12
326.999	2190.12
327.228	1881.12
327.457	1777.12
327.686	1797.12
327.914	1926.12
328.143	2193.12
328.372	2545.12
328.6	2683.12
328.829	2519.12
329.058	2163.12
329.287	1974.12
329.515	1808.12
329.744	1674.12
329.972	1607.12
330.201	1509.12
330.43	1518.12
330.658	1456.12
330.887	1454.12
331.115	1395.12
331.344	1395.12
331.572	1372.12
331.801	1424.12
332.03	1413.12
332.258	1426.12
332.486	1504.12
332.715	1703.12
332.943	2038.12
333.172	2505.12
333.4	2455.12
333.629	1911.12
333.857	1761.12
334.085	1769.12
334.314	1871.12
334.542	1977.12
334.771	2280.12
334.999	2736.12
335.227	3294.12
335.455	3700.12
335.684	3413.12
335.912	2896.12
336.14	2492.12
336.369	2228.12
336.597	2055.12
336.825	1912.12
337.053	1789.12
337.281	1686.12
337.51	1614.12
337.738	1508.12
337.966	1488.12
338.194	1430.12
338.422	1417.12
338.65	1361.12
338.878	1351.12
339.106	1306.12
339.334	1328.12
339.562	1284.12
339.79	1249.12
340.018	1257.12
340.246	1280.12
340.474	1255.12
340.702	1260.12
340.93	1290.12
341.158	1228.12
341.386	1215.12
341.614	1233.12
341.842	1216.12
342.07	1176.12
342.298	1188.12
342.526	1160.12
342.754	1122.12
342.981	1181.12
343.209	1173.12
343.437	1172.12
343.665	1168.12
343.893	1174.12
344.12	1185.12
344.348	1160.12
344.576	1154.12
344.804	1143.12
345.031	1120.12
345.259	1118.12
345.487	1119.12
345.714	1102.12
345.942	1090.12
346.17	1112.12
346.397	1081.12
346.625	1075.12
346.853	1055.12
347.08	1066.12
347.308	1055.12
347.535	1076.12
347.763	1078.12
347.99	1068.12
348.218	1077.12
348.445	1040.12
348.673	1036.12
348.9	992.12
349.128	1023.12
349.355	1038.12
349.583	1029.12
349.81	1041.12
350.037	1044.12
350.265	1033.12
350.492	1038.12
350.72	1029.12
350.947	1010.12
351.174	999.12
351.402	1034.12
351.629	1026.12
351.856	1005.12
352.083	1024.12
352.311	999.12
352.538	990.12
352.765	1012.12
352.992	1026.12
353.22	982.12
353.447	993.12
353.674	999.12
353.901	1043.12
354.128	1024.12
354.355	1020.12
354.583	1025.12
354.81	1026.12
355.037	1023.12
355.264	1030.12
355.491	1022.12
355.718	1012.12
355.945	1027.12
356.172	1030.12
356.399	1027.12
356.626	1049.12
356.853	1054.12
357.08	1070.12
357.307	1092.12
357.534	1064.12
357.761	1061.12
357.988	1061.12
358.215	1076.12
358.441	1049.12
358.668	1029.12
358.895	1035.12
359.122	1053.12
359.349	1068.12
359.576	1040.12
359.802	1069.12
360.029	1061.12
360.256	1083.12
360.483	1095.12
360.709	1096.12
360.936	1079.12
361.163	1084.12
361.39	1104.12
361.616	1070.12
361.843	1105.12
362.07	1091.12
362.296	1076.12
362.523	1096.12
362.749	1102.12
362.976	1079.12
363.203	1099.12
363.429	1077.12
363.656	1081.12
363.882	1090.12
364.109	1082.12
364.335	1058.12
364.562	1056.12
364.788	1113.12
365.015	1073.12
365.241	1108.12
365.468	1136.12
365.694	1200.12
365.92	1147.12
366.147	1096.12
366.373	1083.12
366.599	1119.12
366.826	1125.12
367.052	1094.12
367.278	1118.12
367.505	1117.12
367.731	1107.12
367.957	1101.12
368.184	1100.12
368.41	1133.12
368.636	1144.12
368.862	1137.12
369.089	1097.12
369.315	1111.12
369.541	1103.12
369.767	1096.12
369.993	1134.12
370.219	1087.12
370.445	1126.12
370.672	1142.12
370.898	1143.12
371.124	1129.12
371.35	1152.12
371.576	1145.12
371.802	1173.12
372.028	1172.12
372.254	1185.12
372.48	1211.12
372.706	1194.12
372.932	1184.12
373.158	1180.12
373.384	1201.12
373.61	1194.12
373.835	1158.12
374.061	1200.12
374.287	1203.12
374.513	1232.12
374.739	1234.12
374.965	1215.12
375.191	1253.12
375.416	1217.12
375.642	1198.12
375.868	1190.12
376.094	1180.12
376.319	1194.12
376.545	1191.12
376.771	1190.12
376.997	1144.12
377.222	1153.12
377.448	1154.12
377.674	1167.12
377.899	1170.12
378.125	1177.12
378.35	1168.12
378.576	1158.12
378.802	1173.12
379.027	1199.12
379.253	1219.12
379.478	1244.12
379.704	1471.12
379.929	2022.12
380.155	3077.12
380.38	3252.12
380.606	2048.12
380.831	1466.12
381.057	1315.12
381.282	1220.12
381.507	1180.12
381.733	1178.12
381.958	1198.12
382.184	1144.12
382.409	1159.12
382.634	1162.12
382.86	1152.12
383.085	1140.12
383.31	1184.12
383.535	1144.12
383.761	1152.12
383.986	1177.12
384.211	1188.12
384.436	1149.12
384.662	1195.12
384.887	1230.12
385.112	1185.12
385.337	1188.12
385.562	1167.12
385.787	1204.12
386.013	1220.12
386.238	1208.12
386.463	1192.12
386.688	1218.12
386.913	1218.12
387.138	1187.12
387.363	1211.12
387.588	1181.12
387.813	1174.12
388.038	1188.12
388.263	1153.12
388.488	1184.12
388.713	1182.12
388.938	1191.12
389.163	1202.12
389.387	1196.12
389.612	1193.12
389.837	1207.12
390.062	1207.12
390.287	1221.12
390.512	1146.12
390.736	1218.12
390.961	1239.12
391.186	1216.12
391.411	1261.12
391.636	1239.12
391.86	1285.12
392.085	1241.12
392.31	1234.12
392.534	1241.12
392.759	1238.12
392.984	1204.12
393.208	1240.12
393.433	1254.12
393.658	1207.12
393.882	1215.12
394.107	1252.12
394.331	1206.12
394.556	1215.12
394.78	1228.12
395.005	1230.12
395.229	1196.12
395.454	1235.12
395.678	1214.12
395.903	1238.12
396.127	1248.12
396.352	1221.12
396.576	1241.12
396.801	1229.12
397.025	1246.12
397.249	1310.12
397.474	1258.12
397.698	1265.12
397.922	1290.12
398.147	1291.12
398.371	1291.12
398.595	1347.12
398.82	1349.12
399.044	1407.12
399.268	1438.12
399.492	1540.12
399.717	1612.12
399.941	1570.12
400.165	1507.12
400.389	1452.12
400.613	1453.12
400.837	1358.12
401.062	1360.12
401.286	1359.12
401.51	1337.12
401.734	1310.12
401.958	1337.12
402.182	1361.12
402.406	1324.12
402.63	1352.12
402.854	1357.12
403.078	1362.12
403.302	1374.12
403.526	1363.12
403.75	1328.12
403.974	1395.12
404.198	1352.12
404.422	1396.12
404.645	1361.12
404.869	1374.12
405.093	1375.12
405.317	1367.12
405.541	1404.12
405.765	1437.12
405.988	1422.12
406.212	1405.12
406.436	1370.12
406.66	1412.12
406.883	1412.12
407.107	1462.12
407.331	1476.12
407.555	1464.12
407.778	1498.12
408.002	1458.12
408.226	1433.12
408.449	1439.12
408.673	1414.12
408.896	1404.12
409.12	1419.12
409.344	1383.12
409.567	1362.12
409.791	1382.12
410.014	1375.12
410.238	1324.12
410.461	1348.12
410.685	1360.12
410.908	1358.12
411.132	1334.12
411.355	1310.12
411.578	1336.12
411.802	1317.12
412.025	1325.12
412.249	1355.12
412.472	1355.12
412.695	1321.12
412.919	1298.12
413.142	1296.12
413.365	1304.12
413.589	1317.12
413.812	1278.12
414.035	1295.12
414.258	1269.12
414.482	1320.12
414.705	1293.12
414.928	1303.12
415.151	1281.12
415.374	1316.12
415.597	1276.12
415.821	1256.12
416.044	1244.12
416.267	1227.12
416.49	1250.12
416.713	1269.12
416.936	1264.12
417.159	1254.12
417.382	1250.12
417.605	1225.12
417.828	1264.12
418.051	1245.12
418.274	1261.12
418.497	1266.12
418.72	1310.12
418.943	1264.12
419.166	1348.12
419.389	1388.12
419.611	1359.12
419.834	1326.12
420.057	1301.12
420.28	1290.12
420.503	1264.12
420.726	1263.12
420.948	1254.12
421.171	1262.12
421.394	1269.12
421.617	1254.12
421.839	1249.12
422.062	1254.12
422.285	1249.12
422.507	1259.12
422.73	1265.12
422.953	1317.12
423.175	1298.12
423.398	1269.12
423.621	1274.12
423.843	1279.12
424.066	1266.12
424.288	1257.12
424.511	1272.12
424.733	1270.12
424.956	1209.12
425.178	1225.12
425.401	1254.12
425.623	1262.12
425.846	1217.12
426.068	1252.12
426.291	1198.12
426.513	1208.12
426.735	1191.12
426.958	1184.12
427.18	1183.12
427.402	1203.12
427.625	1191.12
427.847	1196.12
428.069	1178.12
428.292	1154.12
428.514	1205.12
428.736	1176.12
428.958	1158.12
429.181	1120.12
429.403	1142.12
429.625	1152.12
429.847	1140.12
430.069	1177.12
430.292	1200.12
430.514	1216.12
430.736	1241.12
430.958	1192.12
431.18	1144.12
431.402	1182.12
431.624	1158.12
431.846	1135.12
432.068	1136.12
432.29	1130.12
432.512	1130.12
432.734	1126.12
432.956	1113.12
433.178	1160.12
433.4	1144.12
433.622	1166.12
433.844	1192.12
434.066	1182.12
434.287	1132.12
434.509	1140.12
434.731	1211.12
434.953	1215.12
435.175	1221.12
435.397	1201.12
435.618	1188.12
435.84	1187.12
436.062	1107.12
436.284	1140.12
436.505	1121.12
436.727	1184.12
436.949	1162.12
437.17	1146.12
437.392	1138.12
437.614	1127.12
437.835	1093.12
438.057	1090.12
438.278	1098.12
438.5	1112.12
438.721	1171.12
438.943	1183.12
439.165	1210.12
439.386	1221.12
439.608	1205.12
439.829	1174.12
440.05	1221.12
440.272	1230.12
440.493	1205.12
440.715	1225.12
440.936	1210.12
441.158	1188.12
441.379	1198.12
441.6	1266.12
441.822	1290.12
442.043	1341.12
442.264	1374.12
442.486	1274.12
442.707	1290.12
442.928	1234.12
443.149	1258.12
443.371	1220.12
443.592	1241.12
443.813	1242.12
444.034	1214.12
444.255	1253.12
444.476	1266.12
444.698	1316.12
444.919	1299.12
445.14	1384.12
445.361	1335.12
445.582	1299.12
445.803	1226.12
446.024	1208.12
446.245	1214.12
446.466	1245.12
446.687	1216.12
446.908	1208.12
447.129	1212.12
447.35	1165.12
447.571	1180.12
447.792	1129.12
448.013	1160.12
448.234	1114.12
448.455	1138.12
448.675	1162.12
448.896	1149.12
449.117	1169.12
449.338	1274.12
449.559	1360.12
449.779	1218.12
450	1149.12
450.221	1127.12
450.442	1099.12
450.662	1111.12
450.883	1110.12
451.104	1127.12
451.324	1135.12
451.545	1109.12
451.766	1127.12
451.986	1112.12
452.207	1180.12
452.428	1454.12
452.648	1999.12
452.869	1720.12
453.089	1290.12
453.31	1214.12
453.53	1211.12
453.751	1248.12
453.971	1348.12
454.192	1303.12
454.412	1125.12
454.633	1098.12
454.853	1101.12
455.073	1097.12
455.294	1060.12
455.514	1028.12
455.734	1057.12
455.955	1051.12
456.175	1055.12
456.395	1040.12
456.616	1046.12
456.836	1089.12
457.056	1048.12
457.276	1069.12
457.497	1106.12
457.717	1141.12
457.937	1094.12
458.157	1101.12
458.377	1107.12
458.598	1122.12
458.818	1123.12
459.038	1101.12
459.258	1142.12
459.478	1146.12
459.698	1185.12
459.918	1174.12
460.138	1201.12
460.358	1184.12
460.578	1220.12
460.798	1221.12
461.018	1253.12
461.238	1238.12
461.458	1277.12
461.678	1263.12
461.898	1247.12
462.118	1313.12
462.338	1320.12
462.558	1347.12
462.777	1358.12
462.997	1398.12
463.217	1462.12
463.437	1497.12
463.657	1529.12
463.876	1488.12
464.096	1444.12
464.316	1383.12
464.536	1359.12
464.755	1332.12
464.975	1324.12
465.195	1249.12
465.414	1234.12
465.634	1158.12
465.854	1181.12
466.073	1176.12
466.293	1152.12
466.512	1168.12
466.732	1178.12
466.951	1260.12
467.171	1311.12
467.391	1324.12
467.61	1218.12
467.829	1165.12
468.049	1157.12
468.268	1115.12
468.488	1122.12
468.707	1124.12
468.927	1156.12
469.146	1116.12
469.365	1148.12
469.585	1178.12
469.804	1166.12
470.023	1182.12
470.243	1196.12
470.462	1253.12
470.681	1310.12
470.901	1422.12
471.12	1629.12
471.339	1652.12
471.558	1361.12
471.777	1258.12
471.997	1150.12
472.216	1144.12
472.435	1129.12
472.654	1130.12
472.873	1110.12
473.092	1152.12
473.311	1145.12
473.53	1124.12
473.749	1159.12
473.968	1184.12
474.187	1174.12
474.406	1118.12
474.625	1111.12
474.844	1150.12
475.063	1163.12
475.282	1148.12
475.501	1125.12
475.72	1147.12
475.939	1183.12
476.158	1184.12
476.377	1212.12
476.596	1204.12
476.814	1191.12
477.033	1178.12
477.252	1210.12
477.471	1240.12
477.69	1267.12
477.908	1271.12
478.127	1298.12
478.346	1299.12
478.564	1301.12
478.783	1332.12
479.002	1350.12
479.22	1357.12
479.439	1373.12
479.658	1337.12
479.876	1334.12
480.095	1335.12
480.313	1364.12
480.532	1413.12
480.751	1383.12
480.969	1348.12
481.188	1348.12
481.406	1327.12
481.624	1328.12
481.843	1320.12
482.061	1340.12
482.28	1342.12
482.498	1363.12
482.717	1324.12
482.935	1353.12
483.153	1383.12
483.372	1429.12
483.59	1434.12
483.808	1434.12
484.027	1453.12
484.245	1530.12
484.463	1698.12
484.681	1888.12
484.9	1734.12
485.118	1626.12
485.336	1572.12
485.554	1561.12
485.772	1657.12
485.99	1881.12
486.209	2078.12
486.427	1753.12
486.645	1554.12
486.863	1517.12
487.081	1493.12
487.299	1408.12
487.517	1410.12
487.735	1417.12
487.953	1495.12
488.171	1477.12
488.389	1427.12
488.607	1393.12
488.825	1410.12
489.043	1389.12
489.261	1414.12
489.479	1397.12
489.696	1410.12
489.914	1405.12
490.132	1423.12
490.35	1414.12
490.568	1450.12
490.786	1472.12
491.003	1497.12
491.221	1496.12
491.439	1495.12
491.657	1520.12
491.874	1525.12
492.092	1517.12
492.31	1551.12
492.527	1573.12
492.745	1511.12
492.963	1500.12
493.18	1471.12
493.398	1517.12
493.615	1509.12
493.833	1490.12
494.05	1518.12
494.268	1481.12
494.485	1484.12
494.703	1520.12
494.92	1497.12
495.138	1485.12
495.355	1493.12
495.573	1509.12
495.79	1513.12
496.008	1533.12
496.225	1538.12
496.442	1564.12
496.66	1549.12
496.877	1673.12
497.094	1645.12
497.312	1621.12
497.529	1601.12
497.746	1610.12
497.963	1623.12
498.181	1702.12
498.398	1717.12
498.615	1744.12
498.832	1822.12
499.049	1914.12
499.267	2030.12
499.484	2165.12
499.701	2164.12
499.918	2270.12
500.135	2428.12
500.352	2506.12
500.569	2550.12
500.786	2510.12
501.003	2420.12
501.22	2272.12
501.437	2187.12
501.654	2097.12
501.871	1975.12
502.088	1871.12
502.305	1809.12
502.522	1794.12
502.739	1752.12
502.956	1672.12
503.172	1637.12
503.389	1625.12
503.606	1588.12
503.823	1532.12
504.04	1548.12
504.256	1534.12
504.473	1501.12
504.69	1553.12
504.907	1532.12
505.123	1474.12
505.34	1454.12
505.557	1393.12
505.773	1367.12
505.99	1385.12
506.207	1328.12
506.423	1368.12
506.64	1346.12
506.856	1326.12
507.073	1308.12
507.289	1315.12
507.506	1294.12
507.722	1333.12
507.939	1300.12
508.155	1302.12
508.372	1285.12
508.588	1255.12
508.805	1272.12
509.021	1246.12
509.238	1276.12
509.454	1368.12
509.67	1416.12
509.887	1310.12
510.103	1276.12
510.319	1274.12
510.536	1284.12
510.752	1250.12
510.968	1237.12
511.184	1232.12
511.401	1230.12
511.617	1208.12
511.833	1192.12
512.049	1217.12
512.265	1190.12
512.481	1218.12
512.698	1208.12
512.914	1210.12
513.13	1194.12
513.346	1198.12
513.562	1193.12
513.778	1208.12
513.994	1242.12
514.21	1239.12
514.426	1302.12
514.642	1367.12
514.858	1267.12
515.074	1248.12
515.29	1240.12
515.506	1252.12
515.721	1277.12
515.937	1287.12
516.153	1261.12
516.369	1265.12
516.585	1282.12
516.801	1312.12
517.016	1352.12
517.232	1383.12
517.448	1368.12
517.664	1375.12
517.879	1346.12
518.095	1414.12
518.311	1365.12
518.527	1345.12
518.742	1350.12
518.958	1310.12
519.173	1383.12
519.389	1314.12
519.605	1333.12
519.82	1265.12
520.036	1244.12
520.251	1214.12
520.467	1243.12
520.682	1218.12
520.898	1197.12
521.113	1184.12
521.329	1233.12
521.544	1198.12
521.76	1210.12
521.975	1188.12
522.19	1173.12
522.406	1167.12
522.621	1158.12
522.836	1172.12
523.052	1177.12
523.267	1185.12
523.482	1155.12
523.698	1187.12
523.913	1167.12
524.128	1188.12
524.343	1176.12
524.559	1181.12
524.774	1159.12
524.989	1193.12
525.204	1166.12
525.419	1169.12
525.634	1145.12
525.849	1177.12
526.064	1158.12
526.28	1157.12
526.495	1136.12
526.71	1147.12
526.925	1170.12
527.14	1186.12
527.355	1153.12
527.57	1165.12
527.785	1167.12
527.999	1192.12
528.214	1172.12
528.429	1177.12
528.644	1227.12
528.859	1222.12
529.074	1247.12
529.289	1257.12
529.503	1282.12
529.718	1260.12
529.933	1220.12
530.148	1217.12
530.363	1255.12
530.577	1238.12
530.792	1219.12
531.007	1238.12
531.221	1231.12
531.436	1241.12
531.651	1268.12
531.865	1276.12
532.08	1280.12
532.295	1325.12
532.509	1398.12
532.724	1372.12
532.938	1416.12
533.153	1458.12
533.367	1503.12
533.582	1527.12
533.796	1539.12
534.011	1511.12
534.225	1497.12
534.44	1400.12
534.654	1422.12
534.868	1408.12
535.083	1343.12
535.297	1322.12
535.511	1331.12
535.726	1305.12
535.94	1310.12
536.154	1244.12
536.369	1270.12
536.583	1218.12
536.797	1236.12
537.011	1226.12
537.225	1220.12
537.44	1197.12
537.654	1190.12
537.868	1200.12
538.082	1151.12
538.296	1168.12
538.51	1147.12
538.724	1172.12
538.938	1163.12
539.153	1165.12
539.367	1132.12
539.581	1130.12
539.795	1135.12
540.009	1107.12
540.222	1103.12
540.436	1112.12
540.65	1147.12
540.864	1156.12
541.078	1153.12
541.292	1270.12
541.506	1493.12
541.72	1525.12
541.934	1341.12
542.147	1294.12
542.361	1216.12
542.575	1148.12
542.789	1141.12
543.002	1120.12
543.216	1097.12
543.43	1090.12
543.644	1090.12
543.857	1091.12
544.071	1118.12
544.285	1120.12
544.498	1126.12
544.712	1148.12
544.925	1130.12
545.139	1137.12
545.352	1124.12
545.566	1134.12
545.779	1152.12
545.993	1146.12
546.206	1160.12
546.42	1159.12
546.633	1135.12
546.847	1141.12
547.06	1129.12
547.274	1141.12
547.487	1133.12
547.7	1177.12
547.914	1169.12
548.127	1148.12
548.34	1154.12
548.554	1132.12
548.767	1130.12
548.98	1139.12
549.193	1164.12
549.407	1176.12
549.62	1188.12
549.833	1170.12
550.046	1150.12
550.259	1139.12
550.473	1122.12
550.686	1140.12
550.899	1126.12
551.112	1142.12
551.325	1143.12
551.538	1142.12
551.751	1136.12
551.964	1133.12
552.177	1152.12
552.39	1172.12
552.603	1187.12
552.816	1240.12
553.029	1225.12
553.242	1205.12
553.455	1244.12
553.667	1250.12
553.88	1273.12
554.093	1252.12
554.306	1277.12
554.519	1276.12
554.732	1264.12
554.944	1264.12
555.157	1299.12
555.37	1346.12
555.583	1355.12
555.795	1406.12
556.008	1528.12
556.221	1594.12
556.433	1674.12
556.646	1686.12
556.859	1629.12
557.071	1603.12
557.284	1542.12
557.496	1526.12
557.709	1540.12
557.921	1511.12
558.134	1528.12
558.346	1554.12
558.559	1590.12
558.771	1654.12
558.984	1778.12
559.196	1852.12
559.409	1800.12
559.621	1681.12
559.833	1586.12
560.046	1517.12
560.258	1473.12
560.47	1406.12
560.683	1347.12
560.895	1311.12
561.107	1294.12
561.32	1247.12
561.532	1216.12
561.744	1231.12
561.956	1177.12
562.168	1162.12
562.381	1178.12
562.593	1140.12
562.805	1154.12
563.017	1168.12
563.229	1182.12
563.441	1284.12
563.653	1151.12
563.865	1066.12
564.077	1056.12
564.289	1073.12
564.501	1059.12
564.713	1032.12
564.925	1003.12
565.137	1021.12
565.349	1038.12
565.561	1061.12
565.773	1068.12
565.985	1043.12
566.197	1097.12
566.408	1089.12
566.62	1126.12
566.832	1140.12
567.044	1169.12
567.255	1172.12
567.467	1166.12
567.679	1203.12
567.891	1258.12
568.102	1392.12
568.314	1584.12
568.526	1370.12
568.737	1215.12
568.949	1089.12
569.161	1045.12
569.372	960.12
569.584	963.12
569.795	904.12
570.007	950.12
570.218	948.12
570.43	976.12
570.641	916.12
570.853	898.12
571.064	910.12
571.276	876.12
571.487	886.12
571.698	863.12
571.91	841.12
572.121	821.12
572.333	815.12
572.544	810.12
572.755	883.12
572.966	1034.12
573.178	907.12
573.389	855.12
573.6	794.12
573.811	780.12
574.023	778.12
574.234	760.12
574.445	760.12
574.656	759.12
574.867	775.12
575.078	766.12
575.289	773.12
575.501	743.12
575.712	741.12
575.923	748.12
576.134	772.12
576.345	766.12
576.556	778.12
576.767	775.12
576.978	760.12
577.188	776.12
577.399	764.12
577.61	794.12
577.821	766.12
578.032	796.12
578.243	799.12
578.454	792.12
578.665	800.12
578.875	836.12
579.086	847.12
579.297	874.12
579.508	934.12
579.718	981.12
579.929	1102.12
580.14	1211.12
580.35	1252.12
580.561	1182.12
580.772	1092.12
580.982	1065.12
581.193	993.12
581.403	933.12
581.614	898.12
581.825	855.12
582.035	822.12
582.246	841.12
582.456	788.12
582.667	782.12
582.877	741.12
583.087	733.12
583.298	726.12
583.508	720.12
583.719	698.12
583.929	709.12
584.139	686.12
584.35	651.12
584.56	649.12
584.77	654.12
584.981	656.12
585.191	650.12
585.401	633.12
585.611	629.12
585.821	597.12
586.032	616.12
586.242	595.12
586.452	593.12
586.662	602.12
586.872	579.12
587.082	587.12
587.292	597.12
587.502	584.12
587.713	580.12
587.923	570.12
588.133	575.12
588.343	560.12
588.553	565.12
588.762	566.12
588.972	556.12
589.182	583.12
589.392	585.12
589.602	546.12
589.812	572.12
590.022	534.12
590.232	540.12
590.441	551.12
590.651	558.12
590.861	540.12
591.071	545.12
591.281	556.12
591.49	558.12
591.7	551.12
591.91	560.12
592.119	552.12
592.329	560.12
592.539	549.12
592.748	565.12
592.958	582.12
593.167	595.12
593.377	594.12
593.587	592.12
593.796	573.12
594.006	577.12
594.215	568.12
594.424	542.12
594.634	567.12
594.843	554.12
595.053	544.12
595.262	558.12
595.472	536.12
595.681	499.12
595.89	501.12
596.1	500.12
596.309	485.12
596.518	502.12
596.727	500.12
596.937	485.12
597.146	470.12
597.355	488.12
597.564	471.12
597.774	483.12
597.983	464.12
598.192	462.12
598.401	471.12
598.61	473.12
598.819	469.12
599.028	454.12
599.237	469.12
599.446	468.12
599.655	442.12
599.864	455.12
600.073	453.12
600.282	437.12
600.491	453.12
600.7	452.12
600.909	454.12
601.118	448.12
601.327	455.12
601.536	455.12
601.745	446.12
601.953	506.12
602.162	566.12
602.371	516.12
602.58	458.12
602.789	439.12
602.997	457.12
603.206	444.12
603.415	450.12
603.623	449.12
603.832	436.12
604.041	438.12
604.249	444.12
604.458	438.12
604.666	406.12
604.875	426.12
605.084	419.12
605.292	434.12
605.501	452.12
605.709	454.12
605.918	424.12
606.126	459.12
606.334	462.12
606.543	452.12
606.751	471.12
606.96	558.12
607.168	593.12
607.376	476.12
607.585	460.12
607.793	456.12
608.001	450.12
608.21	438.12
608.418	432.12
608.626	442.12
608.834	438.12
609.043	417.12
609.251	418.12
609.459	418.12
609.667	413.12
609.875	417.12
610.083	411.12
610.291	423.12
610.499	407.12
610.707	404.12
610.916	434.12
611.124	419.12
611.332	413.12
611.54	413.12
611.748	397.12
611.955	377.12
612.163	385.12
612.371	398.12
612.579	416.12
612.787	380.12
612.995	403.12
613.203	406.12
613.411	398.12
613.618	398.12
613.826	405.12
614.034	398.12
614.242	408.12
614.449	410.12
614.657	405.12
614.865	392.12
615.072	405.12
615.28	410.12
615.488	397.12
615.695	396.12
615.903	384.12
616.111	386.12
616.318	407.12
616.526	390.12
616.733	370.12
616.941	392.12
617.148	382.12
617.356	386.12
617.563	393.12
617.771	393.12
617.978	370.12
618.185	384.12
618.393	376.12
618.6	396.12
618.807	373.12
619.015	368.12
619.222	374.12
619.429	381.12
619.637	372.12
619.844	352.12
620.051	331.12
620.258	353.12
620.466	368.12
620.673	336.12
620.88	361.12
621.087	360.12
621.294	375.12
621.501	348.12
621.708	352.12
621.915	344.12
622.122	361.12
622.329	359.12
622.536	338.12
622.743	346.12
622.95	369.12
623.157	354.12
623.364	370.12
623.571	363.12
623.778	345.12
623.985	339.12
624.192	357.12
624.399	347.12
624.606	334.12
624.812	350.12
625.019	336.12
625.226	322.12
625.433	329.12
625.639	337.12
625.846	321.12
626.053	327.12
626.259	322.12
626.466	316.12
626.673	316.12
626.879	312.12
627.086	342.12
627.293	331.12
627.499	319.12
627.706	317.12
627.912	326.12
628.119	326.12
628.325	316.12
628.532	340.12
628.738	310.12
628.945	321.12
629.151	328.12
629.357	314.12
629.564	316.12
629.77	313.12
629.976	312.12
630.183	310.12
630.389	333.12
630.595	307.12
630.802	313.12
631.008	313.12
631.214	308.12
631.42	290.12
631.627	291.12
631.833	298.12
632.039	302.12
632.245	301.12
632.451	299.12
632.657	284.12
632.863	293.12
633.069	293.12
633.275	308.12
633.481	292.12
633.688	308.12
633.893	302.12
634.099	312.12
634.305	284.12
634.511	288.12
634.717	293.12
634.923	320.12
635.129	364.12
635.335	380.12
635.541	346.12
635.747	334.12
635.952	308.12
636.158	302.12
636.364	303.12
636.57	300.12
636.775	307.12
636.981	308.12
637.187	305.12
637.392	297.12
637.598	295.12
637.804	309.12
638.009	309.12
638.215	296.12
638.421	304.12
638.626	312.12
638.832	320.12
639.037	304.12
639.243	304.12
639.448	316.12
639.654	294.12
639.859	306.12
640.065	305.12
640.27	306.12
640.475	308.12
640.681	314.12
640.886	304.12
641.091	317.12
641.297	314.12
641.502	329.12
641.707	311.12
641.913	325.12
642.118	348.12
642.323	336.12
642.528	346.12
642.733	353.12
642.939	345.12
643.144	359.12
643.349	366.12
643.554	368.12
643.759	389.12
643.964	364.12
644.169	415.12
644.374	440.12
644.579	475.12
644.784	508.12
644.989	577.12
645.194	632.12
645.399	709.12
645.604	764.12
645.809	628.12
646.014	479.12
646.219	428.12
646.423	397.12
646.628	361.12
646.833	337.12
647.038	321.12
647.243	311.12
647.447	319.12
647.652	313.12
647.857	304.12
648.062	306.12
648.266	281.12
648.471	285.12
648.676	296.12
648.88	276.12
649.085	273.12
649.289	271.12
649.494	266.12
649.698	260.12
649.903	265.12
650.107	274.12
650.312	270.12
650.516	262.12
650.721	234.12
650.925	244.12
651.13	240.12
651.334	266.12
651.539	259.12
651.743	245.12
651.947	217.12
652.152	231.12
652.356	233.12
652.56	217.12
652.764	282.12
652.969	257.12
653.173	233.12
653.377	216.12
653.581	220.12
653.785	219.12
653.99	215.12
654.194	212.12
654.398	205.12
654.602	208.12
654.806	221.12
655.01	198.12
655.214	201.12
655.418	190.12
655.622	192.12
655.826	205.12
656.03	207.12
656.234	213.12
656.438	224.12
656.642	217.12
656.846	229.12
657.049	214.12
657.253	200.12
657.457	178.12
657.661	178.12
657.865	150.12
658.068	152.12
658.272	142.12
658.476	169.12
658.68	157.12
658.883	131.12
659.087	138.12
659.291	136.12
659.494	128.12
659.698	139.12
659.901	120.12
660.105	105.12
660.309	117.12
660.512	124.12
660.716	115.12
660.919	113.12
661.123	99.12
661.326	111.12
661.53	98.12
661.733	99.12
661.936	108.12
662.14	94.12
662.343	97.12
662.546	93.12
662.75	97.12
662.953	97.12
663.156	86.12
663.36	86.12
663.563	104.12
663.766	91.12
663.969	89.12
664.173	71.12
664.376	83.12
664.579	89.12
664.782	78.12
664.985	91.12
665.188	75.12
665.391	78.12
665.594	66.12
665.797	97.12
666	93.12
666.203	90.12
666.406	78.12
666.609	77.12
666.812	93.12
667.015	64.12
667.218	79.12
667.421	85.12
667.624	76.12
667.827	73.12
668.03	84.12
668.232	68.12
668.435	100.12
668.638	61.12
668.841	93.12
669.043	79.12
669.246	85.12
669.449	73.12
669.651	92.12
669.854	79.12
670.057	74.12
670.259	82.12
670.462	76.12
670.665	63.12
670.867	90.12
671.07	81.12
671.272	68.12
671.475	93.12
671.677	85.12
671.88	73.12
672.082	73.12
672.284	88.12
672.487	85.12
672.689	81.12
672.892	88.12
