Data from SnStandardFlinnAPT0064_LampEnergy5.5_LIBS07252019.E.O._I.C._HRD10591_15-17-22-492.txt Node
Date: Thu Jul 25 15:17:22 EDT 2019
User: cochatt
Spectrometer: HR+D1059
Trigger mode: 1
Integration Time (sec): 1.000000E-1
Scans to average: 1
Electric dark correction enabled: true
Nonlinearity correction enabled: false
Boxcar width: 0
XAxis mode: Wavelengths
Number of Pixels in Spectrum: 2048
>>>>>Begin Spectral Data<<<<<
223.165	-19.5
223.4	-19.5
223.635	-19.5
223.869	-13.5
224.104	-21.5
224.338	-6.5
224.573	-2.5
224.808	-23.5
225.042	-16.5
225.277	-5.5
225.511	2.5
225.746	3.5
225.98	6.5
226.215	5.5
226.449	18.5
226.683	20.5
226.918	21.5
227.152	30.5
227.387	23.5
227.621	35.5
227.856	46.5
228.09	65.5
228.324	51.5
228.559	52.5
228.793	87.5
229.027	167.5
229.262	168.5
229.496	154.5
229.73	173.5
229.964	161.5
230.199	169.5
230.433	175.5
230.667	179.5
230.901	155.5
231.136	171.5
231.37	207.5
231.604	189.5
231.838	223.5
232.072	266.5
232.306	279.5
232.541	249.5
232.775	208.5
233.009	213.5
233.243	221.5
233.477	230.5
233.711	281.5
233.945	308.5
234.179	278.5
234.413	236.5
234.647	234.5
234.881	239.5
235.115	250.5
235.349	306.5
235.583	390.5
235.817	492.5
236.051	473.5
236.285	331.5
236.519	272.5
236.753	257.5
236.987	267.5
237.221	276.5
237.455	271.5
237.689	211.5
237.922	235.5
238.156	230.5
238.39	246.5
238.624	264.5
238.858	240.5
239.091	232.5
239.325	249.5
239.559	247.5
239.793	246.5
240.027	271.5
240.26	257.5
240.494	273.5
240.728	285.5
240.961	307.5
241.195	305.5
241.429	330.5
241.662	317.5
241.896	352.5
242.13	423.5
242.363	571.5
242.597	745.5
242.83	691.5
243.064	694.5
243.298	821.5
243.531	689.5
243.765	453.5
243.998	371.5
244.232	339.5
244.465	319.5
244.699	318.5
244.932	323.5
245.166	315.5
245.399	326.5
245.633	312.5
245.866	341.5
246.099	305.5
246.333	292.5
246.566	302.5
246.8	316.5
247.033	320.5
247.266	301.5
247.5	307.5
247.733	332.5
247.966	305.5
248.2	339.5
248.433	390.5
248.666	443.5
248.899	418.5
249.133	388.5
249.366	386.5
249.599	437.5
249.832	487.5
250.066	474.5
250.299	391.5
250.532	375.5
250.765	348.5
250.998	357.5
251.231	355.5
251.465	370.5
251.698	355.5
251.931	363.5
252.164	342.5
252.397	362.5
252.63	362.5
252.863	391.5
253.096	355.5
253.329	364.5
253.562	375.5
253.795	357.5
254.028	387.5
254.261	371.5
254.494	418.5
254.727	471.5
254.96	549.5
255.193	539.5
255.426	428.5
255.659	409.5
255.892	389.5
256.124	414.5
256.357	414.5
256.59	418.5
256.823	443.5
257.056	507.5
257.289	564.5
257.521	654.5
257.754	519.5
257.987	453.5
258.22	428.5
258.452	407.5
258.685	434.5
258.918	430.5
259.151	469.5
259.383	497.5
259.616	559.5
259.849	588.5
260.081	514.5
260.314	453.5
260.547	443.5
260.779	459.5
261.012	454.5
261.244	450.5
261.477	478.5
261.71	488.5
261.942	470.5
262.175	469.5
262.407	471.5
262.64	498.5
262.872	495.5
263.105	538.5
263.337	562.5
263.57	596.5
263.802	602.5
264.035	600.5
264.267	599.5
264.499	644.5
264.732	665.5
264.964	686.5
265.197	677.5
265.429	673.5
265.661	695.5
265.894	729.5
266.126	802.5
266.358	874.5
266.591	834.5
266.823	732.5
267.055	665.5
267.287	638.5
267.52	636.5
267.752	605.5
267.984	596.5
268.216	572.5
268.448	597.5
268.681	582.5
268.913	579.5
269.145	575.5
269.377	571.5
269.609	586.5
269.841	591.5
270.073	627.5
270.306	723.5
270.538	959.5
270.77	1404.5
271.002	1769.5
271.234	1189.5
271.466	833.5
271.698	673.5
271.93	618.5
272.162	616.5
272.394	587.5
272.626	564.5
272.858	577.5
273.09	553.5
273.322	552.5
273.553	563.5
273.785	573.5
274.017	566.5
274.249	540.5
274.481	568.5
274.713	558.5
274.945	557.5
275.176	575.5
275.408	581.5
275.64	582.5
275.872	584.5
276.104	546.5
276.335	600.5
276.567	585.5
276.799	576.5
277.031	582.5
277.262	607.5
277.494	629.5
277.726	682.5
277.957	797.5
278.189	899.5
278.421	835.5
278.652	764.5
278.884	732.5
279.115	644.5
279.347	651.5
279.579	622.5
279.81	621.5
280.042	617.5
280.273	634.5
280.505	637.5
280.736	663.5
280.968	694.5
281.199	760.5
281.431	860.5
281.662	899.5
281.894	781.5
282.125	720.5
282.356	716.5
282.588	719.5
282.819	744.5
283.051	769.5
283.282	897.5
283.513	1105.5
283.745	1568.5
283.976	2556.5
284.207	3663.5
284.439	3166.5
284.67	1853.5
284.901	1500.5
285.132	1533.5
285.364	1449.5
285.595	1134.5
285.826	1037.5
286.057	1249.5
286.288	1687.5
286.52	2296.5
286.751	2106.5
286.982	1283.5
287.213	972.5
287.444	862.5
287.675	784.5
287.906	801.5
288.138	759.5
288.369	748.5
288.6	738.5
288.831	732.5
289.062	727.5
289.293	743.5
289.524	733.5
289.755	776.5
289.986	762.5
290.217	769.5
290.448	763.5
290.679	781.5
290.91	794.5
291.141	830.5
291.371	854.5
291.602	886.5
291.833	825.5
292.064	760.5
292.295	737.5
292.526	720.5
292.757	730.5
292.987	719.5
293.218	686.5
293.449	735.5
293.68	714.5
293.91	713.5
294.141	691.5
294.372	682.5
294.603	703.5
294.833	712.5
295.064	695.5
295.295	702.5
295.525	708.5
295.756	694.5
295.987	707.5
296.217	700.5
296.448	711.5
296.679	725.5
296.909	725.5
297.14	724.5
297.37	716.5
297.601	707.5
297.831	737.5
298.062	721.5
298.292	733.5
298.523	749.5
298.753	742.5
298.984	776.5
299.214	777.5
299.445	794.5
299.675	782.5
299.905	824.5
300.136	834.5
300.366	949.5
300.597	1218.5
300.827	1651.5
301.057	2223.5
301.288	2201.5
301.518	1419.5
301.748	1086.5
301.979	1005.5
302.209	967.5
302.439	989.5
302.669	1013.5
302.9	1284.5
303.13	1747.5
303.36	2625.5
303.59	3595.5
303.82	3058.5
304.051	1728.5
304.281	1270.5
304.511	1048.5
304.741	981.5
304.971	967.5
305.201	902.5
305.431	882.5
305.661	835.5
305.891	828.5
306.121	839.5
306.352	840.5
306.582	829.5
306.812	813.5
307.042	824.5
307.272	815.5
307.502	813.5
307.731	794.5
307.961	842.5
308.191	779.5
308.421	802.5
308.651	796.5
308.881	815.5
309.111	825.5
309.341	819.5
309.571	802.5
309.8	822.5
310.03	813.5
310.26	855.5
310.49	837.5
310.72	826.5
310.949	868.5
311.179	846.5
311.409	818.5
311.639	872.5
311.868	840.5
312.098	856.5
312.328	878.5
312.557	857.5
312.787	881.5
313.017	895.5
313.246	894.5
313.476	897.5
313.706	913.5
313.935	958.5
314.165	1027.5
314.394	1034.5
314.624	975.5
314.853	945.5
315.083	953.5
315.312	962.5
315.542	978.5
315.771	945.5
316.001	1004.5
316.23	998.5
316.46	1060.5
316.689	1152.5
316.919	1374.5
317.148	2061.5
317.377	3113.5
317.607	4727.5
317.836	4814.5
318.065	2716.5
318.295	1743.5
318.524	1383.5
318.753	1209.5
318.983	1151.5
319.212	1121.5
319.441	1098.5
319.67	1046.5
319.9	1036.5
320.129	1009.5
320.358	1011.5
320.587	993.5
320.816	1022.5
321.046	1007.5
321.275	1043.5
321.504	1037.5
321.733	1073.5
321.962	1092.5
322.191	1103.5
322.42	1097.5
322.649	1087.5
322.878	1111.5
323.108	1123.5
323.337	1103.5
323.566	1122.5
323.795	1149.5
324.024	1125.5
324.253	1196.5
324.482	1220.5
324.71	1292.5
324.939	1393.5
325.168	1357.5
325.397	1419.5
325.626	1695.5
325.855	2420.5
326.084	3733.5
326.313	5814.5
326.542	6136.5
326.77	3700.5
326.999	2361.5
327.228	1983.5
327.457	1901.5
327.686	1921.5
327.914	2029.5
328.143	2334.5
328.372	2769.5
328.6	2955.5
328.829	2701.5
329.058	2353.5
329.287	2071.5
329.515	1931.5
329.744	1777.5
329.972	1702.5
330.201	1613.5
330.43	1559.5
330.658	1550.5
330.887	1499.5
331.115	1471.5
331.344	1479.5
331.572	1452.5
331.801	1502.5
332.03	1489.5
332.258	1513.5
332.486	1606.5
332.715	1816.5
332.943	2222.5
333.172	2706.5
333.4	2665.5
333.629	2090.5
333.857	1857.5
334.085	1838.5
334.314	1937.5
334.542	2081.5
334.771	2392.5
334.999	2918.5
335.227	3557.5
335.455	4001.5
335.684	3600.5
335.912	3072.5
336.14	2623.5
336.369	2385.5
336.597	2170.5
336.825	2023.5
337.053	1885.5
337.281	1762.5
337.51	1737.5
337.738	1603.5
337.966	1590.5
338.194	1510.5
338.422	1489.5
338.65	1430.5
338.878	1442.5
339.106	1424.5
339.334	1405.5
339.562	1377.5
339.79	1339.5
340.018	1308.5
340.246	1322.5
340.474	1289.5
340.702	1315.5
340.93	1310.5
341.158	1323.5
341.386	1308.5
341.614	1276.5
341.842	1277.5
342.07	1227.5
342.298	1219.5
342.526	1222.5
342.754	1195.5
342.981	1200.5
343.209	1191.5
343.437	1205.5
343.665	1207.5
343.893	1258.5
344.12	1245.5
344.348	1218.5
344.576	1210.5
344.804	1208.5
345.031	1176.5
345.259	1141.5
345.487	1151.5
345.714	1114.5
345.942	1112.5
346.17	1096.5
346.397	1127.5
346.625	1129.5
346.853	1117.5
347.08	1132.5
347.308	1091.5
347.535	1109.5
347.763	1102.5
347.99	1122.5
348.218	1081.5
348.445	1103.5
348.673	1072.5
348.9	1075.5
349.128	1114.5
349.355	1069.5
349.583	1072.5
349.81	1114.5
350.037	1072.5
350.265	1086.5
350.492	1093.5
350.72	1053.5
350.947	1079.5
351.174	1068.5
351.402	1068.5
351.629	1070.5
351.856	1058.5
352.083	1073.5
352.311	1066.5
352.538	1042.5
352.765	1060.5
352.992	1054.5
353.22	1065.5
353.447	1053.5
353.674	1077.5
353.901	1062.5
354.128	1085.5
354.355	1093.5
354.583	1052.5
354.81	1069.5
355.037	1087.5
355.264	1079.5
355.491	1085.5
355.718	1095.5
355.945	1108.5
356.172	1108.5
356.399	1129.5
356.626	1078.5
356.853	1071.5
357.08	1113.5
357.307	1114.5
357.534	1109.5
357.761	1145.5
357.988	1120.5
358.215	1151.5
358.441	1105.5
358.668	1118.5
358.895	1156.5
359.122	1139.5
359.349	1142.5
359.576	1115.5
359.802	1134.5
360.029	1132.5
360.256	1149.5
360.483	1136.5
360.709	1176.5
360.936	1158.5
361.163	1128.5
361.39	1131.5
361.616	1113.5
361.843	1109.5
362.07	1131.5
362.296	1150.5
362.523	1157.5
362.749	1145.5
362.976	1145.5
363.203	1114.5
363.429	1124.5
363.656	1106.5
363.882	1114.5
364.109	1127.5
364.335	1116.5
364.562	1128.5
364.788	1150.5
365.015	1171.5
365.241	1163.5
365.468	1203.5
365.694	1246.5
365.92	1214.5
366.147	1170.5
366.373	1150.5
366.599	1149.5
366.826	1169.5
367.052	1160.5
367.278	1176.5
367.505	1171.5
367.731	1147.5
367.957	1164.5
368.184	1169.5
368.41	1120.5
368.636	1165.5
368.862	1179.5
369.089	1176.5
369.315	1142.5
369.541	1134.5
369.767	1173.5
369.993	1171.5
370.219	1140.5
370.445	1151.5
370.672	1155.5
370.898	1202.5
371.124	1172.5
371.35	1220.5
371.576	1221.5
371.802	1219.5
372.028	1226.5
372.254	1228.5
372.48	1238.5
372.706	1241.5
372.932	1222.5
373.158	1250.5
373.384	1246.5
373.61	1247.5
373.835	1240.5
374.061	1238.5
374.287	1235.5
374.513	1253.5
374.739	1271.5
374.965	1267.5
375.191	1243.5
375.416	1271.5
375.642	1258.5
375.868	1302.5
376.094	1207.5
376.319	1239.5
376.545	1252.5
376.771	1235.5
376.997	1225.5
377.222	1224.5
377.448	1213.5
377.674	1216.5
377.899	1189.5
378.125	1189.5
378.35	1226.5
378.576	1196.5
378.802	1265.5
379.027	1271.5
379.253	1301.5
379.478	1333.5
379.704	1533.5
379.929	2234.5
380.155	3393.5
380.38	3650.5
380.606	2162.5
380.831	1570.5
381.057	1390.5
381.282	1274.5
381.507	1249.5
381.733	1233.5
381.958	1209.5
382.184	1209.5
382.409	1193.5
382.634	1220.5
382.86	1191.5
383.085	1183.5
383.31	1175.5
383.535	1203.5
383.761	1229.5
383.986	1221.5
384.211	1219.5
384.436	1219.5
384.662	1253.5
384.887	1250.5
385.112	1221.5
385.337	1238.5
385.562	1259.5
385.787	1241.5
386.013	1262.5
386.238	1267.5
386.463	1253.5
386.688	1269.5
386.913	1201.5
387.138	1213.5
387.363	1206.5
387.588	1251.5
387.813	1242.5
388.038	1221.5
388.263	1222.5
388.488	1222.5
388.713	1240.5
388.938	1224.5
389.163	1238.5
389.387	1257.5
389.612	1231.5
389.837	1223.5
390.062	1244.5
390.287	1273.5
390.512	1293.5
390.736	1265.5
390.961	1300.5
391.186	1284.5
391.411	1293.5
391.636	1285.5
391.86	1324.5
392.085	1321.5
392.31	1297.5
392.534	1269.5
392.759	1269.5
392.984	1258.5
393.208	1276.5
393.433	1275.5
393.658	1286.5
393.882	1296.5
394.107	1255.5
394.331	1252.5
394.556	1239.5
394.78	1261.5
395.005	1262.5
395.229	1280.5
395.454	1291.5
395.678	1308.5
395.903	1306.5
396.127	1333.5
396.352	1270.5
396.576	1268.5
396.801	1296.5
397.025	1332.5
397.249	1324.5
397.474	1300.5
397.698	1299.5
397.922	1349.5
398.147	1331.5
398.371	1338.5
398.595	1404.5
398.82	1401.5
399.044	1421.5
399.268	1497.5
399.492	1619.5
399.717	1660.5
399.941	1656.5
400.165	1621.5
400.389	1542.5
400.613	1444.5
400.837	1411.5
401.062	1433.5
401.286	1387.5
401.51	1401.5
401.734	1382.5
401.958	1369.5
402.182	1410.5
402.406	1378.5
402.63	1387.5
402.854	1369.5
403.078	1380.5
403.302	1420.5
403.526	1396.5
403.75	1439.5
403.974	1431.5
404.198	1429.5
404.422	1496.5
404.645	1446.5
404.869	1465.5
405.093	1448.5
405.317	1404.5
405.541	1430.5
405.765	1464.5
405.988	1465.5
406.212	1448.5
406.436	1464.5
406.66	1499.5
406.883	1465.5
407.107	1532.5
407.331	1521.5
407.555	1533.5
407.778	1525.5
408.002	1530.5
408.226	1486.5
408.449	1513.5
408.673	1476.5
408.896	1499.5
409.12	1447.5
409.344	1451.5
409.567	1430.5
409.791	1442.5
410.014	1404.5
410.238	1429.5
410.461	1420.5
410.685	1423.5
410.908	1384.5
411.132	1372.5
411.355	1331.5
411.578	1367.5
411.802	1409.5
412.025	1399.5
412.249	1399.5
412.472	1368.5
412.695	1352.5
412.919	1372.5
413.142	1367.5
413.365	1333.5
413.589	1357.5
413.812	1346.5
414.035	1360.5
414.258	1326.5
414.482	1346.5
414.705	1361.5
414.928	1339.5
415.151	1336.5
415.374	1350.5
415.597	1349.5
415.821	1304.5
416.044	1289.5
416.267	1305.5
416.49	1295.5
416.713	1285.5
416.936	1330.5
417.159	1297.5
417.382	1304.5
417.605	1269.5
417.828	1295.5
418.051	1308.5
418.274	1301.5
418.497	1321.5
418.72	1362.5
418.943	1316.5
419.166	1368.5
419.389	1409.5
419.611	1446.5
419.834	1385.5
420.057	1362.5
420.28	1320.5
420.503	1305.5
420.726	1255.5
420.948	1317.5
421.171	1285.5
421.394	1286.5
421.617	1308.5
421.839	1329.5
422.062	1309.5
422.285	1279.5
422.507	1322.5
422.73	1317.5
422.953	1352.5
423.175	1374.5
423.398	1350.5
423.621	1268.5
423.843	1352.5
424.066	1333.5
424.288	1317.5
424.511	1285.5
424.733	1314.5
424.956	1273.5
425.178	1290.5
425.401	1262.5
425.623	1288.5
425.846	1259.5
426.068	1301.5
426.291	1264.5
426.513	1227.5
426.735	1233.5
426.958	1257.5
427.18	1258.5
427.402	1257.5
427.625	1249.5
427.847	1213.5
428.069	1205.5
428.292	1231.5
428.514	1203.5
428.736	1234.5
428.958	1226.5
429.181	1227.5
429.403	1182.5
429.625	1173.5
429.847	1195.5
430.069	1214.5
430.292	1277.5
430.514	1256.5
430.736	1311.5
430.958	1260.5
431.18	1209.5
431.402	1188.5
431.624	1196.5
431.846	1170.5
432.068	1166.5
432.29	1173.5
432.512	1186.5
432.734	1223.5
432.956	1190.5
433.178	1190.5
433.4	1204.5
433.622	1217.5
433.844	1222.5
434.066	1198.5
434.287	1207.5
434.509	1210.5
434.731	1215.5
434.953	1254.5
435.175	1251.5
435.397	1231.5
435.618	1206.5
435.84	1210.5
436.062	1205.5
436.284	1182.5
436.505	1194.5
436.727	1182.5
436.949	1219.5
437.17	1182.5
437.392	1177.5
437.614	1176.5
437.835	1141.5
438.057	1146.5
438.278	1140.5
438.5	1157.5
438.721	1149.5
438.943	1214.5
439.165	1234.5
439.386	1269.5
439.608	1284.5
439.829	1257.5
440.05	1267.5
440.272	1297.5
440.493	1250.5
440.715	1224.5
440.936	1254.5
441.158	1252.5
441.379	1286.5
441.6	1323.5
441.822	1335.5
442.043	1406.5
442.264	1431.5
442.486	1364.5
442.707	1336.5
442.928	1296.5
443.149	1323.5
443.371	1301.5
443.592	1302.5
443.813	1295.5
444.034	1300.5
444.255	1345.5
444.476	1365.5
444.698	1353.5
444.919	1402.5
445.14	1470.5
445.361	1390.5
445.582	1352.5
445.803	1349.5
446.024	1266.5
446.245	1275.5
446.466	1296.5
446.687	1268.5
446.908	1254.5
447.129	1232.5
447.35	1224.5
447.571	1230.5
447.792	1226.5
448.013	1221.5
448.234	1163.5
448.455	1182.5
448.675	1194.5
448.896	1237.5
449.117	1285.5
449.338	1355.5
449.559	1421.5
449.779	1277.5
450	1175.5
450.221	1196.5
450.442	1151.5
450.662	1169.5
450.883	1125.5
451.104	1140.5
451.324	1138.5
451.545	1154.5
451.766	1150.5
451.986	1159.5
452.207	1254.5
452.428	1535.5
452.648	2207.5
452.869	1852.5
453.089	1335.5
453.31	1266.5
453.53	1250.5
453.751	1326.5
453.971	1441.5
454.192	1405.5
454.412	1233.5
454.633	1133.5
454.853	1109.5
455.073	1103.5
455.294	1130.5
455.514	1078.5
455.734	1114.5
455.955	1120.5
456.175	1085.5
456.395	1070.5
456.616	1128.5
456.836	1118.5
457.056	1151.5
457.276	1123.5
457.497	1159.5
457.717	1198.5
457.937	1166.5
458.157	1156.5
458.377	1188.5
458.598	1171.5
458.818	1169.5
459.038	1182.5
459.258	1173.5
459.478	1189.5
459.698	1161.5
459.918	1208.5
460.138	1229.5
460.358	1249.5
460.578	1262.5
460.798	1292.5
461.018	1309.5
461.238	1301.5
461.458	1324.5
461.678	1310.5
461.898	1347.5
462.118	1312.5
462.338	1384.5
462.558	1399.5
462.777	1429.5
462.997	1462.5
463.217	1533.5
463.437	1545.5
463.657	1605.5
463.876	1557.5
464.096	1475.5
464.316	1451.5
464.536	1411.5
464.755	1398.5
464.975	1336.5
465.195	1351.5
465.414	1310.5
465.634	1243.5
465.854	1214.5
466.073	1226.5
466.293	1210.5
466.512	1193.5
466.732	1189.5
466.951	1311.5
467.171	1329.5
467.391	1340.5
467.61	1221.5
467.829	1209.5
468.049	1192.5
468.268	1180.5
468.488	1180.5
468.707	1169.5
468.927	1193.5
469.146	1186.5
469.365	1205.5
469.585	1198.5
469.804	1223.5
470.023	1246.5
470.243	1261.5
470.462	1313.5
470.681	1310.5
470.901	1481.5
471.12	1761.5
471.339	1774.5
471.558	1407.5
471.777	1301.5
471.997	1273.5
472.216	1219.5
472.435	1210.5
472.654	1206.5
472.873	1167.5
473.092	1145.5
473.311	1175.5
473.53	1194.5
473.749	1241.5
473.968	1221.5
474.187	1181.5
474.406	1186.5
474.625	1191.5
474.844	1173.5
475.063	1203.5
475.282	1205.5
475.501	1185.5
475.72	1217.5
475.939	1182.5
476.158	1255.5
476.377	1255.5
476.596	1254.5
476.814	1226.5
477.033	1243.5
477.252	1270.5
477.471	1291.5
477.69	1299.5
477.908	1286.5
478.127	1335.5
478.346	1370.5
478.564	1379.5
478.783	1394.5
479.002	1413.5
479.22	1369.5
479.439	1390.5
479.658	1391.5
479.876	1432.5
480.095	1415.5
480.313	1451.5
480.532	1454.5
480.751	1467.5
480.969	1428.5
481.188	1382.5
481.406	1419.5
481.624	1407.5
481.843	1406.5
482.061	1409.5
482.28	1413.5
482.498	1417.5
482.717	1413.5
482.935	1449.5
483.153	1390.5
483.372	1445.5
483.59	1493.5
483.808	1486.5
484.027	1541.5
484.245	1629.5
484.463	1804.5
484.681	2009.5
484.9	1789.5
485.118	1681.5
485.336	1640.5
485.554	1647.5
485.772	1750.5
485.99	2024.5
486.209	2209.5
486.427	1831.5
486.645	1605.5
486.863	1591.5
487.081	1531.5
487.299	1549.5
487.517	1498.5
487.735	1507.5
487.953	1519.5
488.171	1510.5
488.389	1496.5
488.607	1497.5
488.825	1454.5
489.043	1422.5
489.261	1441.5
489.479	1444.5
489.696	1514.5
489.914	1459.5
490.132	1472.5
490.35	1490.5
490.568	1505.5
490.786	1545.5
491.003	1543.5
491.221	1544.5
491.439	1508.5
491.657	1577.5
491.874	1551.5
492.092	1592.5
492.31	1642.5
492.527	1606.5
492.745	1562.5
492.963	1572.5
493.18	1576.5
493.398	1573.5
493.615	1543.5
493.833	1593.5
494.05	1580.5
494.268	1602.5
494.485	1565.5
494.703	1545.5
494.92	1578.5
495.138	1588.5
495.355	1563.5
495.573	1565.5
495.79	1569.5
496.008	1625.5
496.225	1572.5
496.442	1597.5
496.66	1641.5
496.877	1715.5
497.094	1721.5
497.312	1713.5
497.529	1680.5
497.746	1694.5
497.963	1685.5
498.181	1760.5
498.398	1793.5
498.615	1806.5
498.832	1906.5
499.049	1983.5
499.267	2134.5
499.484	2248.5
499.701	2277.5
499.918	2344.5
500.135	2455.5
500.352	2572.5
500.569	2618.5
500.786	2598.5
501.003	2579.5
501.22	2407.5
501.437	2270.5
501.654	2159.5
501.871	2079.5
502.088	1949.5
502.305	1908.5
502.522	1833.5
502.739	1805.5
502.956	1739.5
503.172	1710.5
503.389	1667.5
503.606	1659.5
503.823	1622.5
504.04	1597.5
504.256	1589.5
504.473	1585.5
504.69	1609.5
504.907	1606.5
505.123	1553.5
505.34	1507.5
505.557	1486.5
505.773	1468.5
505.99	1437.5
506.207	1440.5
506.423	1364.5
506.64	1380.5
506.856	1395.5
507.073	1389.5
507.289	1378.5
507.506	1372.5
507.722	1376.5
507.939	1368.5
508.155	1308.5
508.372	1331.5
508.588	1341.5
508.805	1331.5
509.021	1333.5
509.238	1344.5
509.454	1400.5
509.67	1482.5
509.887	1375.5
510.103	1380.5
510.319	1331.5
510.536	1328.5
510.752	1270.5
510.968	1281.5
511.184	1256.5
511.401	1263.5
511.617	1269.5
511.833	1246.5
512.049	1259.5
512.265	1260.5
512.481	1289.5
512.698	1256.5
512.914	1250.5
513.13	1230.5
513.346	1255.5
513.562	1257.5
513.778	1294.5
513.994	1300.5
514.21	1333.5
514.426	1363.5
514.642	1436.5
514.858	1345.5
515.074	1283.5
515.29	1298.5
515.506	1306.5
515.721	1321.5
515.937	1301.5
516.153	1292.5
516.369	1326.5
516.585	1345.5
516.801	1377.5
517.016	1364.5
517.232	1380.5
517.448	1446.5
517.664	1437.5
517.879	1412.5
518.095	1435.5
518.311	1435.5
518.527	1423.5
518.742	1421.5
518.958	1433.5
519.173	1449.5
519.389	1363.5
519.605	1347.5
519.82	1333.5
520.036	1322.5
520.251	1308.5
520.467	1295.5
520.682	1261.5
520.898	1259.5
521.113	1249.5
521.329	1273.5
521.544	1273.5
521.76	1270.5
521.975	1290.5
522.19	1224.5
522.406	1220.5
522.621	1227.5
522.836	1239.5
523.052	1239.5
523.267	1228.5
523.482	1193.5
523.698	1244.5
523.913	1220.5
524.128	1237.5
524.343	1231.5
524.559	1222.5
524.774	1213.5
524.989	1233.5
525.204	1234.5
525.419	1237.5
525.634	1210.5
525.849	1207.5
526.064	1205.5
526.28	1233.5
526.495	1206.5
526.71	1220.5
526.925	1285.5
527.14	1203.5
527.355	1220.5
527.57	1217.5
527.785	1250.5
527.999	1260.5
528.214	1251.5
528.429	1238.5
528.644	1262.5
528.859	1297.5
529.074	1277.5
529.289	1347.5
529.503	1319.5
529.718	1292.5
529.933	1306.5
530.148	1269.5
530.363	1319.5
530.577	1270.5
530.792	1286.5
531.007	1278.5
531.221	1314.5
531.436	1293.5
531.651	1326.5
531.865	1364.5
532.08	1362.5
532.295	1382.5
532.509	1465.5
532.724	1479.5
532.938	1455.5
533.153	1499.5
533.367	1598.5
533.582	1675.5
533.796	1643.5
534.011	1573.5
534.225	1573.5
534.44	1524.5
534.654	1495.5
534.868	1479.5
535.083	1436.5
535.297	1403.5
535.511	1390.5
535.726	1388.5
535.94	1365.5
536.154	1333.5
536.369	1329.5
536.583	1299.5
536.797	1271.5
537.011	1279.5
537.225	1245.5
537.44	1249.5
537.654	1225.5
537.868	1224.5
538.082	1244.5
538.296	1242.5
538.51	1211.5
538.724	1220.5
538.938	1186.5
539.153	1250.5
539.367	1211.5
539.581	1175.5
539.795	1161.5
540.009	1179.5
540.222	1176.5
540.436	1149.5
540.65	1193.5
540.864	1180.5
541.078	1218.5
541.292	1296.5
541.506	1568.5
541.72	1625.5
541.934	1443.5
542.147	1317.5
542.361	1260.5
542.575	1241.5
542.789	1198.5
543.002	1163.5
543.216	1148.5
543.43	1165.5
543.644	1161.5
543.857	1151.5
544.071	1147.5
544.285	1171.5
544.498	1196.5
544.712	1181.5
544.925	1170.5
545.139	1185.5
545.352	1166.5
545.566	1170.5
545.779	1198.5
545.993	1203.5
546.206	1220.5
546.42	1179.5
546.633	1198.5
546.847	1214.5
547.06	1177.5
547.274	1203.5
547.487	1214.5
547.7	1190.5
547.914	1196.5
548.127	1177.5
548.34	1220.5
548.554	1201.5
548.767	1186.5
548.98	1195.5
549.193	1170.5
549.407	1191.5
549.62	1221.5
549.833	1187.5
550.046	1182.5
550.259	1171.5
550.473	1188.5
550.686	1179.5
550.899	1210.5
551.112	1190.5
551.325	1166.5
551.538	1216.5
551.751	1151.5
551.964	1177.5
552.177	1173.5
552.39	1214.5
552.603	1249.5
552.816	1248.5
553.029	1245.5
553.242	1300.5
553.455	1307.5
553.667	1329.5
553.88	1318.5
554.093	1307.5
554.306	1292.5
554.519	1372.5
554.732	1361.5
554.944	1335.5
555.157	1387.5
555.37	1402.5
555.583	1433.5
555.795	1492.5
556.008	1592.5
556.221	1730.5
556.433	1795.5
556.646	1830.5
556.859	1743.5
557.071	1719.5
557.284	1666.5
557.496	1632.5
557.709	1618.5
557.921	1585.5
558.134	1582.5
558.346	1604.5
558.559	1653.5
558.771	1686.5
558.984	1860.5
559.196	1983.5
559.409	1916.5
559.621	1752.5
559.833	1692.5
560.046	1622.5
560.258	1533.5
560.47	1476.5
560.683	1418.5
560.895	1405.5
561.107	1354.5
561.32	1320.5
561.532	1285.5
561.744	1253.5
561.956	1223.5
562.168	1238.5
562.381	1211.5
562.593	1182.5
562.805	1221.5
563.017	1234.5
563.229	1201.5
563.441	1350.5
563.653	1193.5
563.865	1131.5
564.077	1102.5
564.289	1133.5
564.501	1107.5
564.713	1094.5
564.925	1070.5
565.137	1071.5
565.349	1110.5
565.561	1114.5
565.773	1095.5
565.985	1119.5
566.197	1134.5
566.408	1163.5
566.62	1179.5
566.832	1222.5
567.044	1178.5
567.255	1221.5
567.467	1208.5
567.679	1238.5
567.891	1275.5
568.102	1443.5
568.314	1713.5
568.526	1450.5
568.737	1265.5
568.949	1142.5
569.161	1047.5
569.372	999.5
569.584	974.5
569.795	972.5
570.007	997.5
570.218	986.5
570.43	1047.5
570.641	957.5
570.853	925.5
571.064	904.5
571.276	930.5
571.487	890.5
571.698	887.5
571.91	877.5
572.121	877.5
572.333	874.5
572.544	877.5
572.755	942.5
572.966	1073.5
573.178	959.5
573.389	895.5
573.6	815.5
573.811	819.5
574.023	796.5
574.234	798.5
574.445	787.5
574.656	800.5
574.867	803.5
575.078	812.5
575.289	808.5
575.501	794.5
575.712	779.5
575.923	776.5
576.134	786.5
576.345	795.5
576.556	813.5
576.767	787.5
576.978	801.5
577.188	781.5
577.399	784.5
577.61	819.5
577.821	800.5
578.032	811.5
578.243	828.5
578.454	840.5
578.665	841.5
578.875	853.5
579.086	917.5
579.297	908.5
579.508	984.5
579.718	1047.5
579.929	1149.5
580.14	1313.5
580.35	1351.5
580.561	1272.5
580.772	1173.5
580.982	1084.5
581.193	1043.5
581.403	968.5
581.614	953.5
581.825	912.5
582.035	889.5
582.246	861.5
582.456	847.5
582.667	833.5
582.877	792.5
583.087	798.5
583.298	769.5
583.508	729.5
583.719	701.5
583.929	705.5
584.139	704.5
584.35	674.5
584.56	718.5
584.77	699.5
584.981	677.5
585.191	672.5
585.401	642.5
585.611	669.5
585.821	661.5
586.032	637.5
586.242	659.5
586.452	633.5
586.662	644.5
586.872	613.5
587.082	626.5
587.292	631.5
587.502	599.5
587.713	615.5
587.923	614.5
588.133	582.5
588.343	598.5
588.553	582.5
588.762	580.5
588.972	601.5
589.182	591.5
589.392	587.5
589.602	575.5
589.812	582.5
590.022	564.5
590.232	590.5
590.441	574.5
590.651	577.5
590.861	569.5
591.071	564.5
591.281	574.5
591.49	573.5
591.7	561.5
591.91	556.5
592.119	535.5
592.329	582.5
592.539	558.5
592.748	558.5
592.958	583.5
593.167	575.5
593.377	585.5
593.587	618.5
593.796	573.5
594.006	603.5
594.215	605.5
594.424	592.5
594.634	594.5
594.843	602.5
595.053	566.5
595.262	560.5
595.472	543.5
595.681	553.5
595.89	548.5
596.1	524.5
596.309	518.5
596.518	515.5
596.727	545.5
596.937	543.5
597.146	526.5
597.355	492.5
597.564	490.5
597.774	507.5
597.983	500.5
598.192	477.5
598.401	479.5
598.61	490.5
598.819	467.5
599.028	469.5
599.237	476.5
599.446	487.5
599.655	481.5
599.864	470.5
600.073	499.5
600.282	459.5
600.491	481.5
600.7	465.5
600.909	461.5
601.118	471.5
601.327	479.5
601.536	486.5
601.745	490.5
601.953	544.5
602.162	619.5
602.371	541.5
602.58	491.5
602.789	459.5
602.997	454.5
603.206	458.5
603.415	453.5
603.623	455.5
603.832	451.5
604.041	468.5
604.249	438.5
604.458	469.5
604.666	443.5
604.875	431.5
605.084	419.5
605.292	447.5
605.501	439.5
605.709	456.5
605.918	476.5
606.126	463.5
606.334	494.5
606.543	461.5
606.751	515.5
606.96	563.5
607.168	611.5
607.376	517.5
607.585	493.5
607.793	459.5
608.001	456.5
608.21	457.5
608.418	442.5
608.626	438.5
608.834	452.5
609.043	435.5
609.251	430.5
609.459	417.5
609.667	438.5
609.875	410.5
610.083	438.5
610.291	424.5
610.499	423.5
610.707	446.5
610.916	419.5
611.124	429.5
611.332	404.5
611.54	390.5
611.748	433.5
611.955	414.5
612.163	424.5
612.371	430.5
612.579	431.5
612.787	438.5
612.995	419.5
613.203	394.5
613.411	401.5
613.618	415.5
613.826	428.5
614.034	413.5
614.242	412.5
614.449	428.5
614.657	423.5
614.865	423.5
615.072	415.5
615.28	414.5
615.488	411.5
615.695	401.5
615.903	419.5
616.111	426.5
616.318	420.5
616.526	413.5
616.733	409.5
616.941	414.5
617.148	406.5
617.356	397.5
617.563	389.5
617.771	404.5
617.978	399.5
618.185	404.5
618.393	404.5
618.6	397.5
618.807	393.5
619.015	404.5
619.222	389.5
619.429	388.5
619.637	373.5
619.844	387.5
620.051	363.5
620.258	366.5
620.466	377.5
620.673	382.5
620.88	351.5
621.087	362.5
621.294	343.5
621.501	385.5
621.708	365.5
621.915	371.5
622.122	375.5
622.329	372.5
622.536	351.5
622.743	379.5
622.95	371.5
623.157	361.5
623.364	360.5
623.571	360.5
623.778	375.5
623.985	371.5
624.192	360.5
624.399	343.5
624.606	346.5
624.812	373.5
625.019	359.5
625.226	343.5
625.433	337.5
625.639	349.5
625.846	343.5
626.053	341.5
626.259	337.5
626.466	335.5
626.673	331.5
626.879	319.5
627.086	327.5
627.293	339.5
627.499	351.5
627.706	348.5
627.912	345.5
628.119	350.5
628.325	344.5
628.532	334.5
628.738	345.5
628.945	344.5
629.151	331.5
629.357	343.5
629.564	348.5
629.77	333.5
629.976	334.5
630.183	326.5
630.389	336.5
630.595	334.5
630.802	329.5
631.008	311.5
631.214	313.5
631.42	315.5
631.627	324.5
631.833	297.5
632.039	296.5
632.245	294.5
632.451	310.5
632.657	309.5
632.863	312.5
633.069	317.5
633.275	337.5
633.481	308.5
633.688	310.5
633.893	309.5
634.099	304.5
634.305	324.5
634.511	317.5
634.717	318.5
634.923	337.5
635.129	359.5
635.335	412.5
635.541	355.5
635.747	331.5
635.952	337.5
636.158	324.5
636.364	314.5
636.57	310.5
636.775	310.5
636.981	305.5
637.187	313.5
637.392	307.5
637.598	309.5
637.804	329.5
638.009	325.5
638.215	312.5
638.421	308.5
638.626	308.5
638.832	330.5
639.037	291.5
639.243	305.5
639.448	321.5
639.654	336.5
639.859	332.5
640.065	319.5
640.27	337.5
640.475	317.5
640.681	324.5
640.886	338.5
641.091	343.5
641.297	353.5
641.502	328.5
641.707	341.5
641.913	340.5
642.118	350.5
642.323	371.5
642.528	351.5
642.733	351.5
642.939	348.5
643.144	382.5
643.349	387.5
643.554	397.5
643.759	393.5
643.964	410.5
644.169	421.5
644.374	465.5
644.579	496.5
644.784	530.5
644.989	591.5
645.194	681.5
645.399	805.5
645.604	848.5
645.809	649.5
646.014	517.5
646.219	465.5
646.423	427.5
646.628	384.5
646.833	371.5
647.038	342.5
647.243	349.5
647.447	339.5
647.652	322.5
647.857	297.5
648.062	321.5
648.266	294.5
648.471	322.5
648.676	308.5
648.88	289.5
649.085	294.5
649.289	273.5
649.494	270.5
649.698	268.5
649.903	282.5
650.107	280.5
650.312	241.5
650.516	278.5
650.721	261.5
650.925	257.5
651.13	265.5
651.334	265.5
651.539	242.5
651.743	239.5
651.947	239.5
652.152	245.5
652.356	226.5
652.56	244.5
652.764	283.5
652.969	259.5
653.173	263.5
653.377	234.5
653.581	229.5
653.785	235.5
653.99	230.5
654.194	211.5
654.398	210.5
654.602	212.5
654.806	219.5
655.01	198.5
655.214	212.5
655.418	211.5
655.622	202.5
655.826	203.5
656.03	221.5
656.234	234.5
656.438	242.5
656.642	228.5
656.846	217.5
657.049	234.5
657.253	219.5
657.457	191.5
657.661	175.5
657.865	181.5
658.068	161.5
658.272	169.5
658.476	163.5
658.68	166.5
658.883	155.5
659.087	150.5
659.291	149.5
659.494	131.5
659.698	124.5
659.901	119.5
660.105	129.5
660.309	123.5
660.512	125.5
660.716	125.5
660.919	121.5
661.123	106.5
661.326	109.5
661.53	102.5
661.733	107.5
661.936	93.5
662.14	112.5
662.343	116.5
662.546	96.5
662.75	86.5
662.953	98.5
663.156	90.5
663.36	73.5
663.563	85.5
663.766	95.5
663.969	89.5
664.173	85.5
664.376	98.5
664.579	84.5
664.782	93.5
664.985	86.5
665.188	86.5
665.391	86.5
665.594	86.5
665.797	92.5
666	85.5
666.203	85.5
666.406	71.5
666.609	84.5
666.812	84.5
667.015	88.5
667.218	83.5
667.421	87.5
667.624	85.5
667.827	89.5
668.03	75.5
668.232	82.5
668.435	101.5
668.638	79.5
668.841	94.5
669.043	103.5
669.246	85.5
669.449	98.5
669.651	89.5
669.854	79.5
670.057	86.5
670.259	91.5
670.462	91.5
670.665	91.5
670.867	95.5
671.07	82.5
671.272	89.5
671.475	92.5
671.677	94.5
671.88	95.5
672.082	100.5
672.284	80.5
672.487	71.5
672.689	84.5
672.892	82.5
