Data from SnStandardFlinnAPT0064_LampEnergy5.5_LIBS07252019.E.O._I.C._HRD10591_15-15-47-491.txt Node
Date: Thu Jul 25 15:15:47 EDT 2019
User: cochatt
Spectrometer: HR+D1059
Trigger mode: 1
Integration Time (sec): 1.000000E-1
Scans to average: 1
Electric dark correction enabled: true
Nonlinearity correction enabled: false
Boxcar width: 0
XAxis mode: Wavelengths
Number of Pixels in Spectrum: 2048
>>>>>Begin Spectral Data<<<<<
223.165	-14.12
223.4	-14.12
223.635	-14.12
223.869	-13.12
224.104	-8.12
224.338	-13.12
224.573	-13.12
224.808	-20.12
225.042	-1.12
225.277	-17.12
225.511	-3.12
225.746	-1.12
225.98	6.88
226.215	6.88
226.449	9.88
226.683	19.88
226.918	30.88
227.152	29.88
227.387	25.88
227.621	23.88
227.856	59.88
228.09	53.88
228.324	54.88
228.559	56.88
228.793	86.88
229.027	144.88
229.262	176.88
229.496	143.88
229.73	158.88
229.964	148.88
230.199	158.88
230.433	163.88
230.667	164.88
230.901	159.88
231.136	167.88
231.37	159.88
231.604	184.88
231.838	193.88
232.072	233.88
232.306	239.88
232.541	182.88
232.775	186.88
233.009	202.88
233.243	213.88
233.477	202.88
233.711	212.88
233.945	255.88
234.179	225.88
234.413	209.88
234.647	196.88
234.881	216.88
235.115	231.88
235.349	259.88
235.583	332.88
235.817	390.88
236.051	379.88
236.285	257.88
236.519	222.88
236.753	221.88
236.987	234.88
237.221	242.88
237.455	216.88
237.689	215.88
237.922	225.88
238.156	204.88
238.39	204.88
238.624	230.88
238.858	235.88
239.091	235.88
239.325	227.88
239.559	229.88
239.793	238.88
240.027	231.88
240.26	225.88
240.494	251.88
240.728	253.88
240.961	263.88
241.195	269.88
241.429	286.88
241.662	303.88
241.896	320.88
242.13	369.88
242.363	474.88
242.597	583.88
242.83	588.88
243.064	589.88
243.298	676.88
243.531	562.88
243.765	386.88
243.998	310.88
244.232	296.88
244.465	288.88
244.699	299.88
244.932	291.88
245.166	300.88
245.399	299.88
245.633	304.88
245.866	289.88
246.099	292.88
246.333	278.88
246.566	297.88
246.8	289.88
247.033	280.88
247.266	277.88
247.5	301.88
247.733	285.88
247.966	298.88
248.2	330.88
248.433	350.88
248.666	380.88
248.899	375.88
249.133	369.88
249.366	375.88
249.599	391.88
249.832	422.88
250.066	420.88
250.299	348.88
250.532	341.88
250.765	323.88
250.998	325.88
251.231	324.88
251.465	325.88
251.698	341.88
251.931	342.88
252.164	329.88
252.397	346.88
252.63	312.88
252.863	336.88
253.096	332.88
253.329	348.88
253.562	347.88
253.795	348.88
254.028	346.88
254.261	359.88
254.494	386.88
254.727	430.88
254.96	458.88
255.193	475.88
255.426	401.88
255.659	385.88
255.892	352.88
256.124	368.88
256.357	361.88
256.59	380.88
256.823	410.88
257.056	442.88
257.289	490.88
257.521	529.88
257.754	460.88
257.987	402.88
258.22	391.88
258.452	374.88
258.685	387.88
258.918	414.88
259.151	415.88
259.383	450.88
259.616	472.88
259.849	484.88
260.081	456.88
260.314	416.88
260.547	390.88
260.779	411.88
261.012	395.88
261.244	412.88
261.477	421.88
261.71	435.88
261.942	428.88
262.175	456.88
262.407	434.88
262.64	472.88
262.872	486.88
263.105	518.88
263.337	519.88
263.57	531.88
263.802	558.88
264.035	562.88
264.267	573.88
264.499	566.88
264.732	605.88
264.964	595.88
265.197	598.88
265.429	619.88
265.661	618.88
265.894	665.88
266.126	713.88
266.358	763.88
266.591	755.88
266.823	657.88
267.055	646.88
267.287	571.88
267.52	577.88
267.752	550.88
267.984	552.88
268.216	564.88
268.448	515.88
268.681	544.88
268.913	537.88
269.145	528.88
269.377	538.88
269.609	530.88
269.841	555.88
270.073	594.88
270.306	660.88
270.538	846.88
270.77	1168.88
271.002	1377.88
271.234	1017.88
271.466	716.88
271.698	634.88
271.93	559.88
272.162	567.88
272.394	532.88
272.626	519.88
272.858	537.88
273.09	509.88
273.322	507.88
273.553	534.88
273.785	512.88
274.017	512.88
274.249	523.88
274.481	514.88
274.713	509.88
274.945	516.88
275.176	510.88
275.408	517.88
275.64	555.88
275.872	518.88
276.104	536.88
276.335	539.88
276.567	523.88
276.799	526.88
277.031	541.88
277.262	563.88
277.494	552.88
277.726	610.88
277.957	695.88
278.189	746.88
278.421	715.88
278.652	660.88
278.884	653.88
279.115	597.88
279.347	598.88
279.579	585.88
279.81	569.88
280.042	572.88
280.273	568.88
280.505	586.88
280.736	612.88
280.968	634.88
281.199	690.88
281.431	742.88
281.662	735.88
281.894	679.88
282.125	637.88
282.356	662.88
282.588	650.88
282.819	674.88
283.051	666.88
283.282	768.88
283.513	927.88
283.745	1323.88
283.976	2038.88
284.207	2826.88
284.439	2534.88
284.67	1575.88
284.901	1272.88
285.132	1257.88
285.364	1198.88
285.595	983.88
285.826	919.88
286.057	1091.88
286.288	1372.88
286.52	1838.88
286.751	1678.88
286.982	1095.88
287.213	840.88
287.444	763.88
287.675	724.88
287.906	694.88
288.138	699.88
288.369	671.88
288.6	684.88
288.831	674.88
289.062	678.88
289.293	716.88
289.524	707.88
289.755	708.88
289.986	722.88
290.217	696.88
290.448	723.88
290.679	690.88
290.91	713.88
291.141	715.88
291.371	756.88
291.602	768.88
291.833	736.88
292.064	668.88
292.295	716.88
292.526	670.88
292.757	680.88
292.987	656.88
293.218	661.88
293.449	653.88
293.68	655.88
293.91	651.88
294.141	658.88
294.372	640.88
294.603	642.88
294.833	665.88
295.064	674.88
295.295	632.88
295.525	644.88
295.756	641.88
295.987	644.88
296.217	679.88
296.448	654.88
296.679	650.88
296.909	646.88
297.14	639.88
297.37	687.88
297.601	687.88
297.831	671.88
298.062	655.88
298.292	655.88
298.523	686.88
298.753	716.88
298.984	692.88
299.214	687.88
299.445	723.88
299.675	721.88
299.905	724.88
300.136	759.88
300.366	853.88
300.597	1048.88
300.827	1354.88
301.057	1789.88
301.288	1778.88
301.518	1191.88
301.748	972.88
301.979	904.88
302.209	864.88
302.439	884.88
302.669	896.88
302.9	1080.88
303.13	1490.88
303.36	2044.88
303.59	2726.88
303.82	2377.88
304.051	1467.88
304.281	1110.88
304.511	936.88
304.741	875.88
304.971	847.88
305.201	811.88
305.431	811.88
305.661	785.88
305.891	751.88
306.121	766.88
306.352	760.88
306.582	728.88
306.812	733.88
307.042	781.88
307.272	776.88
307.502	768.88
307.731	751.88
307.961	746.88
308.191	764.88
308.421	726.88
308.651	748.88
308.881	732.88
309.111	771.88
309.341	743.88
309.571	742.88
309.8	783.88
310.03	768.88
310.26	765.88
310.49	786.88
310.72	751.88
310.949	767.88
311.179	801.88
311.409	792.88
311.639	788.88
311.868	807.88
312.098	808.88
312.328	801.88
312.557	792.88
312.787	798.88
313.017	822.88
313.246	823.88
313.476	815.88
313.706	850.88
313.935	874.88
314.165	882.88
314.394	910.88
314.624	884.88
314.853	871.88
315.083	855.88
315.312	870.88
315.542	872.88
315.771	889.88
316.001	876.88
316.23	936.88
316.46	978.88
316.689	1046.88
316.919	1194.88
317.148	1677.88
317.377	2496.88
317.607	3622.88
317.836	3743.88
318.065	2257.88
318.295	1534.88
318.524	1238.88
318.753	1114.88
318.983	1071.88
319.212	1004.88
319.441	985.88
319.67	976.88
319.9	954.88
320.129	933.88
320.358	942.88
320.587	930.88
320.816	947.88
321.046	937.88
321.275	928.88
321.504	958.88
321.733	972.88
321.962	985.88
322.191	974.88
322.42	986.88
322.649	982.88
322.878	971.88
323.108	987.88
323.337	995.88
323.566	1048.88
323.795	1030.88
324.024	1058.88
324.253	1056.88
324.482	1094.88
324.71	1172.88
324.939	1224.88
325.168	1216.88
325.397	1282.88
325.626	1479.88
325.855	2006.88
326.084	3039.88
326.313	4465.88
326.542	4740.88
326.77	3038.88
326.999	2086.88
327.228	1759.88
327.457	1714.88
327.686	1714.88
327.914	1825.88
328.143	2113.88
328.372	2378.88
328.6	2588.88
328.829	2428.88
329.058	2112.88
329.287	1924.88
329.515	1732.88
329.744	1646.88
329.972	1544.88
330.201	1455.88
330.43	1444.88
330.658	1395.88
330.887	1393.88
331.115	1346.88
331.344	1358.88
331.572	1359.88
331.801	1383.88
332.03	1327.88
332.258	1372.88
332.486	1452.88
332.715	1564.88
332.943	1947.88
333.172	2254.88
333.4	2268.88
333.629	1852.88
333.857	1732.88
334.085	1676.88
334.314	1749.88
334.542	1914.88
334.771	2175.88
334.999	2566.88
335.227	3126.88
335.455	3504.88
335.684	3243.88
335.912	2752.88
336.14	2442.88
336.369	2174.88
336.597	2036.88
336.825	1868.88
337.053	1732.88
337.281	1651.88
337.51	1599.88
337.738	1538.88
337.966	1434.88
338.194	1406.88
338.422	1379.88
338.65	1368.88
338.878	1331.88
339.106	1318.88
339.334	1282.88
339.562	1267.88
339.79	1232.88
340.018	1227.88
340.246	1216.88
340.474	1217.88
340.702	1203.88
340.93	1203.88
341.158	1205.88
341.386	1222.88
341.614	1181.88
341.842	1185.88
342.07	1161.88
342.298	1147.88
342.526	1115.88
342.754	1107.88
342.981	1111.88
343.209	1084.88
343.437	1107.88
343.665	1142.88
343.893	1160.88
344.12	1124.88
344.348	1139.88
344.576	1113.88
344.804	1114.88
345.031	1076.88
345.259	1093.88
345.487	1052.88
345.714	1018.88
345.942	1034.88
346.17	1031.88
346.397	1032.88
346.625	1031.88
346.853	1054.88
347.08	986.88
347.308	1014.88
347.535	1028.88
347.763	1063.88
347.99	1036.88
348.218	1017.88
348.445	1015.88
348.673	1002.88
348.9	1016.88
349.128	1010.88
349.355	1013.88
349.583	1002.88
349.81	1011.88
350.037	998.88
350.265	969.88
350.492	965.88
350.72	1003.88
350.947	982.88
351.174	1011.88
351.402	983.88
351.629	988.88
351.856	980.88
352.083	994.88
352.311	995.88
352.538	987.88
352.765	990.88
352.992	981.88
353.22	990.88
353.447	1002.88
353.674	974.88
353.901	999.88
354.128	998.88
354.355	983.88
354.583	995.88
354.81	990.88
355.037	998.88
355.264	1027.88
355.491	999.88
355.718	962.88
355.945	996.88
356.172	1002.88
356.399	1014.88
356.626	1018.88
356.853	1042.88
357.08	1044.88
357.307	1047.88
357.534	1055.88
357.761	1011.88
357.988	1042.88
358.215	1036.88
358.441	1043.88
358.668	1034.88
358.895	1012.88
359.122	1054.88
359.349	1035.88
359.576	1042.88
359.802	1059.88
360.029	1023.88
360.256	1042.88
360.483	1026.88
360.709	1054.88
360.936	1071.88
361.163	1053.88
361.39	1058.88
361.616	1049.88
361.843	1061.88
362.07	1076.88
362.296	1051.88
362.523	1042.88
362.749	1043.88
362.976	1047.88
363.203	1027.88
363.429	1046.88
363.656	1054.88
363.882	1043.88
364.109	1039.88
364.335	1060.88
364.562	1058.88
364.788	1033.88
365.015	1037.88
365.241	1077.88
365.468	1117.88
365.694	1114.88
365.92	1089.88
366.147	1058.88
366.373	1061.88
366.599	1107.88
366.826	1072.88
367.052	1087.88
367.278	1078.88
367.505	1071.88
367.731	1093.88
367.957	1087.88
368.184	1104.88
368.41	1107.88
368.636	1116.88
368.862	1107.88
369.089	1073.88
369.315	1091.88
369.541	1100.88
369.767	1107.88
369.993	1113.88
370.219	1093.88
370.445	1072.88
370.672	1097.88
370.898	1078.88
371.124	1119.88
371.35	1150.88
371.576	1129.88
371.802	1114.88
372.028	1120.88
372.254	1107.88
372.48	1158.88
372.706	1156.88
372.932	1131.88
373.158	1138.88
373.384	1170.88
373.61	1141.88
373.835	1164.88
374.061	1154.88
374.287	1176.88
374.513	1167.88
374.739	1207.88
374.965	1215.88
375.191	1192.88
375.416	1204.88
375.642	1188.88
375.868	1143.88
376.094	1148.88
376.319	1150.88
376.545	1158.88
376.771	1105.88
376.997	1154.88
377.222	1174.88
377.448	1130.88
377.674	1120.88
377.899	1144.88
378.125	1109.88
378.35	1148.88
378.576	1105.88
378.802	1164.88
379.027	1143.88
379.253	1169.88
379.478	1243.88
379.704	1343.88
379.929	1846.88
380.155	2654.88
380.38	2858.88
380.606	1854.88
380.831	1396.88
381.057	1252.88
381.282	1193.88
381.507	1146.88
381.733	1181.88
381.958	1124.88
382.184	1135.88
382.409	1142.88
382.634	1143.88
382.86	1074.88
383.085	1114.88
383.31	1141.88
383.535	1129.88
383.761	1107.88
383.986	1116.88
384.211	1142.88
384.436	1125.88
384.662	1172.88
384.887	1144.88
385.112	1135.88
385.337	1176.88
385.562	1186.88
385.787	1168.88
386.013	1191.88
386.238	1145.88
386.463	1126.88
386.688	1168.88
386.913	1163.88
387.138	1176.88
387.363	1157.88
387.588	1148.88
387.813	1145.88
388.038	1137.88
388.263	1171.88
388.488	1202.88
388.713	1180.88
388.938	1158.88
389.163	1159.88
389.387	1187.88
389.612	1163.88
389.837	1182.88
390.062	1174.88
390.287	1152.88
390.512	1192.88
390.736	1185.88
390.961	1170.88
391.186	1226.88
391.411	1211.88
391.636	1215.88
391.86	1228.88
392.085	1250.88
392.31	1203.88
392.534	1198.88
392.759	1201.88
392.984	1183.88
393.208	1164.88
393.433	1195.88
393.658	1155.88
393.882	1160.88
394.107	1132.88
394.331	1179.88
394.556	1195.88
394.78	1227.88
395.005	1177.88
395.229	1184.88
395.454	1184.88
395.678	1203.88
395.903	1206.88
396.127	1206.88
396.352	1215.88
396.576	1208.88
396.801	1219.88
397.025	1231.88
397.249	1218.88
397.474	1230.88
397.698	1189.88
397.922	1234.88
398.147	1234.88
398.371	1278.88
398.595	1246.88
398.82	1300.88
399.044	1371.88
399.268	1432.88
399.492	1520.88
399.717	1543.88
399.941	1526.88
400.165	1474.88
400.389	1457.88
400.613	1365.88
400.837	1314.88
401.062	1330.88
401.286	1301.88
401.51	1295.88
401.734	1296.88
401.958	1262.88
402.182	1298.88
402.406	1288.88
402.63	1318.88
402.854	1334.88
403.078	1320.88
403.302	1296.88
403.526	1316.88
403.75	1323.88
403.974	1321.88
404.198	1328.88
404.422	1327.88
404.645	1316.88
404.869	1325.88
405.093	1348.88
405.317	1370.88
405.541	1369.88
405.765	1387.88
405.988	1375.88
406.212	1361.88
406.436	1356.88
406.66	1418.88
406.883	1414.88
407.107	1426.88
407.331	1446.88
407.555	1477.88
407.778	1442.88
408.002	1395.88
408.226	1438.88
408.449	1422.88
408.673	1420.88
408.896	1355.88
409.12	1332.88
409.344	1360.88
409.567	1333.88
409.791	1336.88
410.014	1327.88
410.238	1334.88
410.461	1330.88
410.685	1306.88
410.908	1312.88
411.132	1302.88
411.355	1283.88
411.578	1318.88
411.802	1293.88
412.025	1280.88
412.249	1268.88
412.472	1310.88
412.695	1283.88
412.919	1266.88
413.142	1238.88
413.365	1275.88
413.589	1265.88
413.812	1242.88
414.035	1263.88
414.258	1306.88
414.482	1269.88
414.705	1268.88
414.928	1265.88
415.151	1253.88
415.374	1242.88
415.597	1256.88
415.821	1246.88
416.044	1242.88
416.267	1240.88
416.49	1215.88
416.713	1221.88
416.936	1224.88
417.159	1222.88
417.382	1203.88
417.605	1176.88
417.828	1192.88
418.051	1227.88
418.274	1263.88
418.497	1247.88
418.72	1237.88
418.943	1240.88
419.166	1268.88
419.389	1347.88
419.611	1348.88
419.834	1323.88
420.057	1249.88
420.28	1244.88
420.503	1226.88
420.726	1212.88
420.948	1232.88
421.171	1200.88
421.394	1224.88
421.617	1220.88
421.839	1249.88
422.062	1254.88
422.285	1167.88
422.507	1225.88
422.73	1237.88
422.953	1228.88
423.175	1263.88
423.398	1242.88
423.621	1214.88
423.843	1216.88
424.066	1233.88
424.288	1238.88
424.511	1208.88
424.733	1216.88
424.956	1214.88
425.178	1267.88
425.401	1208.88
425.623	1218.88
425.846	1184.88
426.068	1167.88
426.291	1175.88
426.513	1178.88
426.735	1168.88
426.958	1154.88
427.18	1150.88
427.402	1163.88
427.625	1167.88
427.847	1164.88
428.069	1140.88
428.292	1179.88
428.514	1160.88
428.736	1158.88
428.958	1159.88
429.181	1148.88
429.403	1139.88
429.625	1108.88
429.847	1137.88
430.069	1150.88
430.292	1135.88
430.514	1199.88
430.736	1182.88
430.958	1144.88
431.18	1144.88
431.402	1146.88
431.624	1122.88
431.846	1118.88
432.068	1100.88
432.29	1113.88
432.512	1114.88
432.734	1135.88
432.956	1136.88
433.178	1134.88
433.4	1121.88
433.622	1148.88
433.844	1100.88
434.066	1134.88
434.287	1122.88
434.509	1144.88
434.731	1170.88
434.953	1182.88
435.175	1183.88
435.397	1143.88
435.618	1172.88
435.84	1158.88
436.062	1116.88
436.284	1086.88
436.505	1133.88
436.727	1110.88
436.949	1136.88
437.17	1127.88
437.392	1100.88
437.614	1099.88
437.835	1045.88
438.057	1073.88
438.278	1074.88
438.5	1129.88
438.721	1104.88
438.943	1110.88
439.165	1152.88
439.386	1156.88
439.608	1158.88
439.829	1172.88
440.05	1163.88
440.272	1187.88
440.493	1170.88
440.715	1157.88
440.936	1155.88
441.158	1183.88
441.379	1191.88
441.6	1237.88
441.822	1258.88
442.043	1303.88
442.264	1297.88
442.486	1234.88
442.707	1216.88
442.928	1206.88
443.149	1225.88
443.371	1176.88
443.592	1228.88
443.813	1223.88
444.034	1200.88
444.255	1243.88
444.476	1274.88
444.698	1323.88
444.919	1313.88
445.14	1348.88
445.361	1306.88
445.582	1274.88
445.803	1200.88
446.024	1190.88
446.245	1230.88
446.466	1202.88
446.687	1188.88
446.908	1180.88
447.129	1180.88
447.35	1150.88
447.571	1128.88
447.792	1119.88
448.013	1097.88
448.234	1096.88
448.455	1099.88
448.675	1121.88
448.896	1139.88
449.117	1136.88
449.338	1271.88
449.559	1282.88
449.779	1159.88
450	1123.88
450.221	1062.88
450.442	1075.88
450.662	1086.88
450.883	1062.88
451.104	1093.88
451.324	1103.88
451.545	1096.88
451.766	1094.88
451.986	1096.88
452.207	1142.88
452.428	1340.88
452.648	1795.88
452.869	1567.88
453.089	1206.88
453.31	1156.88
453.53	1182.88
453.751	1186.88
453.971	1239.88
454.192	1218.88
454.412	1126.88
454.633	1048.88
454.853	1043.88
455.073	1006.88
455.294	1039.88
455.514	1003.88
455.734	1030.88
455.955	1028.88
456.175	1023.88
456.395	1011.88
456.616	1032.88
456.836	1011.88
457.056	1046.88
457.276	1016.88
457.497	1098.88
457.717	1056.88
457.937	1081.88
458.157	1069.88
458.377	1099.88
458.598	1067.88
458.818	1115.88
459.038	1115.88
459.258	1098.88
459.478	1113.88
459.698	1090.88
459.918	1142.88
460.138	1169.88
460.358	1187.88
460.578	1200.88
460.798	1202.88
461.018	1234.88
461.238	1205.88
461.458	1206.88
461.678	1220.88
461.898	1262.88
462.118	1263.88
462.338	1291.88
462.558	1295.88
462.777	1338.88
462.997	1360.88
463.217	1368.88
463.437	1446.88
463.657	1424.88
463.876	1412.88
464.096	1366.88
464.316	1315.88
464.536	1315.88
464.755	1311.88
464.975	1239.88
465.195	1241.88
465.414	1219.88
465.634	1166.88
465.854	1156.88
466.073	1139.88
466.293	1134.88
466.512	1118.88
466.732	1123.88
466.951	1174.88
467.171	1220.88
467.391	1198.88
467.61	1111.88
467.829	1098.88
468.049	1072.88
468.268	1074.88
468.488	1092.88
468.707	1103.88
468.927	1121.88
469.146	1103.88
469.365	1116.88
469.585	1099.88
469.804	1146.88
470.023	1144.88
470.243	1160.88
470.462	1195.88
470.681	1262.88
470.901	1326.88
471.12	1515.88
471.339	1522.88
471.558	1287.88
471.777	1198.88
471.997	1182.88
472.216	1170.88
472.435	1087.88
472.654	1107.88
472.873	1081.88
473.092	1114.88
473.311	1119.88
473.53	1115.88
473.749	1139.88
473.968	1175.88
474.187	1131.88
474.406	1094.88
474.625	1109.88
474.844	1120.88
475.063	1114.88
475.282	1104.88
475.501	1123.88
475.72	1123.88
475.939	1139.88
476.158	1150.88
476.377	1160.88
476.596	1134.88
476.814	1147.88
477.033	1130.88
477.252	1198.88
477.471	1198.88
477.69	1217.88
477.908	1227.88
478.127	1280.88
478.346	1252.88
478.564	1300.88
478.783	1304.88
479.002	1310.88
479.22	1289.88
479.439	1312.88
479.658	1299.88
479.876	1315.88
480.095	1296.88
480.313	1330.88
480.532	1376.88
480.751	1322.88
480.969	1297.88
481.188	1279.88
481.406	1284.88
481.624	1336.88
481.843	1333.88
482.061	1301.88
482.28	1292.88
482.498	1300.88
482.717	1299.88
482.935	1314.88
483.153	1319.88
483.372	1387.88
483.59	1394.88
483.808	1412.88
484.027	1394.88
484.245	1468.88
484.463	1615.88
484.681	1756.88
484.9	1620.88
485.118	1522.88
485.336	1495.88
485.554	1518.88
485.772	1640.88
485.99	1780.88
486.209	1941.88
486.427	1623.88
486.645	1488.88
486.863	1479.88
487.081	1481.88
487.299	1403.88
487.517	1413.88
487.735	1427.88
487.953	1433.88
488.171	1442.88
488.389	1416.88
488.607	1408.88
488.825	1393.88
489.043	1355.88
489.261	1373.88
489.479	1351.88
489.696	1359.88
489.914	1409.88
490.132	1378.88
490.35	1425.88
490.568	1376.88
490.786	1426.88
491.003	1419.88
491.221	1471.88
491.439	1449.88
491.657	1440.88
491.874	1456.88
492.092	1483.88
492.31	1496.88
492.527	1475.88
492.745	1451.88
492.963	1452.88
493.18	1460.88
493.398	1487.88
493.615	1478.88
493.833	1451.88
494.05	1487.88
494.268	1462.88
494.485	1448.88
494.703	1459.88
494.92	1432.88
495.138	1457.88
495.355	1470.88
495.573	1486.88
495.79	1492.88
496.008	1476.88
496.225	1464.88
496.442	1511.88
496.66	1548.88
496.877	1613.88
497.094	1584.88
497.312	1556.88
497.529	1542.88
497.746	1580.88
497.963	1595.88
498.181	1612.88
498.398	1657.88
498.615	1698.88
498.832	1744.88
499.049	1860.88
499.267	1940.88
499.484	2074.88
499.701	2152.88
499.918	2224.88
500.135	2357.88
500.352	2465.88
500.569	2486.88
500.786	2437.88
501.003	2387.88
501.22	2249.88
501.437	2156.88
501.654	2043.88
501.871	1902.88
502.088	1834.88
502.305	1787.88
502.522	1746.88
502.739	1728.88
502.956	1649.88
503.172	1588.88
503.389	1560.88
503.606	1548.88
503.823	1524.88
504.04	1487.88
504.256	1514.88
504.473	1478.88
504.69	1492.88
504.907	1472.88
505.123	1473.88
505.34	1413.88
505.557	1370.88
505.773	1373.88
505.99	1364.88
506.207	1342.88
506.423	1337.88
506.64	1294.88
506.856	1303.88
507.073	1270.88
507.289	1272.88
507.506	1250.88
507.722	1271.88
507.939	1285.88
508.155	1243.88
508.372	1276.88
508.588	1272.88
508.805	1227.88
509.021	1244.88
509.238	1256.88
509.454	1292.88
509.67	1347.88
509.887	1253.88
510.103	1250.88
510.319	1257.88
510.536	1239.88
510.752	1204.88
510.968	1248.88
511.184	1191.88
511.401	1178.88
511.617	1194.88
511.833	1183.88
512.049	1178.88
512.265	1174.88
512.481	1175.88
512.698	1180.88
512.914	1203.88
513.13	1198.88
513.346	1187.88
513.562	1178.88
513.778	1208.88
513.994	1221.88
514.21	1187.88
514.426	1246.88
514.642	1288.88
514.858	1217.88
515.074	1216.88
515.29	1225.88
515.506	1191.88
515.721	1204.88
515.937	1230.88
516.153	1210.88
516.369	1281.88
516.585	1279.88
516.801	1312.88
517.016	1291.88
517.232	1322.88
517.448	1315.88
517.664	1322.88
517.879	1363.88
518.095	1330.88
518.311	1362.88
518.527	1302.88
518.742	1330.88
518.958	1317.88
519.173	1351.88
519.389	1290.88
519.605	1224.88
519.82	1239.88
520.036	1228.88
520.251	1218.88
520.467	1201.88
520.682	1154.88
520.898	1211.88
521.113	1157.88
521.329	1135.88
521.544	1163.88
521.76	1170.88
521.975	1190.88
522.19	1163.88
522.406	1148.88
522.621	1151.88
522.836	1150.88
523.052	1129.88
523.267	1140.88
523.482	1128.88
523.698	1136.88
523.913	1135.88
524.128	1127.88
524.343	1142.88
524.559	1159.88
524.774	1169.88
524.989	1152.88
525.204	1139.88
525.419	1112.88
525.634	1130.88
525.849	1167.88
526.064	1147.88
526.28	1139.88
526.495	1140.88
526.71	1140.88
526.925	1103.88
527.14	1154.88
527.355	1131.88
527.57	1162.88
527.785	1107.88
527.999	1164.88
528.214	1138.88
528.429	1179.88
528.644	1182.88
528.859	1202.88
529.074	1182.88
529.289	1205.88
529.503	1237.88
529.718	1247.88
529.933	1212.88
530.148	1216.88
530.363	1186.88
530.577	1182.88
530.792	1219.88
531.007	1198.88
531.221	1199.88
531.436	1223.88
531.651	1237.88
531.865	1227.88
532.08	1238.88
532.295	1291.88
532.509	1312.88
532.724	1340.88
532.938	1343.88
533.153	1335.88
533.367	1455.88
533.582	1471.88
533.796	1481.88
534.011	1462.88
534.225	1443.88
534.44	1349.88
534.654	1384.88
534.868	1330.88
535.083	1356.88
535.297	1281.88
535.511	1300.88
535.726	1237.88
535.94	1280.88
536.154	1248.88
536.369	1216.88
536.583	1180.88
536.797	1211.88
537.011	1194.88
537.225	1171.88
537.44	1186.88
537.654	1179.88
537.868	1145.88
538.082	1163.88
538.296	1144.88
538.51	1128.88
538.724	1148.88
538.938	1117.88
539.153	1150.88
539.367	1130.88
539.581	1147.88
539.795	1130.88
540.009	1126.88
540.222	1089.88
540.436	1111.88
540.65	1110.88
540.864	1120.88
541.078	1140.88
541.292	1208.88
541.506	1377.88
541.72	1419.88
541.934	1304.88
542.147	1277.88
542.361	1171.88
542.575	1176.88
542.789	1123.88
543.002	1095.88
543.216	1085.88
543.43	1055.88
543.644	1049.88
543.857	1091.88
544.071	1104.88
544.285	1106.88
544.498	1095.88
544.712	1101.88
544.925	1120.88
545.139	1107.88
545.352	1116.88
545.566	1098.88
545.779	1096.88
545.993	1104.88
546.206	1108.88
546.42	1107.88
546.633	1122.88
546.847	1107.88
547.06	1115.88
547.274	1113.88
547.487	1112.88
547.7	1146.88
547.914	1098.88
548.127	1123.88
548.34	1126.88
548.554	1103.88
548.767	1118.88
548.98	1097.88
549.193	1104.88
549.407	1123.88
549.62	1105.88
549.833	1135.88
550.046	1111.88
550.259	1097.88
550.473	1093.88
550.686	1127.88
550.899	1127.88
551.112	1115.88
551.325	1090.88
551.538	1097.88
551.751	1098.88
551.964	1074.88
552.177	1131.88
552.39	1146.88
552.603	1155.88
552.816	1182.88
553.029	1171.88
553.242	1197.88
553.455	1206.88
553.667	1234.88
553.88	1228.88
554.093	1186.88
554.306	1231.88
554.519	1262.88
554.732	1248.88
554.944	1280.88
555.157	1284.88
555.37	1291.88
555.583	1335.88
555.795	1385.88
556.008	1446.88
556.221	1534.88
556.433	1610.88
556.646	1627.88
556.859	1576.88
557.071	1539.88
557.284	1510.88
557.496	1506.88
557.709	1460.88
557.921	1509.88
558.134	1510.88
558.346	1501.88
558.559	1524.88
558.771	1556.88
558.984	1642.88
559.196	1732.88
559.409	1696.88
559.621	1627.88
559.833	1534.88
560.046	1483.88
560.258	1404.88
560.47	1390.88
560.683	1310.88
560.895	1252.88
561.107	1241.88
561.32	1212.88
561.532	1188.88
561.744	1154.88
561.956	1188.88
562.168	1169.88
562.381	1111.88
562.593	1150.88
562.805	1136.88
563.017	1122.88
563.229	1100.88
563.441	1202.88
563.653	1101.88
563.865	1065.88
564.077	1015.88
564.289	1013.88
564.501	1000.88
564.713	1036.88
564.925	995.88
565.137	1028.88
565.349	999.88
565.561	1057.88
565.773	1034.88
565.985	1049.88
566.197	1055.88
566.408	1100.88
566.62	1067.88
566.832	1150.88
567.044	1172.88
567.255	1126.88
567.467	1143.88
567.679	1148.88
567.891	1237.88
568.102	1330.88
568.314	1492.88
568.526	1308.88
568.737	1174.88
568.949	1056.88
569.161	1024.88
569.372	969.88
569.584	955.88
569.795	915.88
570.007	914.88
570.218	914.88
570.43	936.88
570.641	890.88
570.853	863.88
571.064	867.88
571.276	870.88
571.487	841.88
571.698	841.88
571.91	807.88
572.121	838.88
572.333	802.88
572.544	792.88
572.755	844.88
572.966	968.88
573.178	866.88
573.389	809.88
573.6	795.88
573.811	769.88
574.023	769.88
574.234	780.88
574.445	770.88
574.656	725.88
574.867	778.88
575.078	729.88
575.289	750.88
575.501	780.88
575.712	727.88
575.923	728.88
576.134	754.88
576.345	756.88
576.556	777.88
576.767	753.88
576.978	768.88
577.188	737.88
577.399	781.88
577.61	723.88
577.821	751.88
578.032	790.88
578.243	778.88
578.454	780.88
578.665	785.88
578.875	798.88
579.086	831.88
579.297	856.88
579.508	912.88
579.718	974.88
579.929	1035.88
580.14	1114.88
580.35	1158.88
580.561	1145.88
580.772	1065.88
580.982	1016.88
581.193	934.88
581.403	940.88
581.614	881.88
581.825	848.88
582.035	857.88
582.246	800.88
582.456	771.88
582.667	762.88
582.877	755.88
583.087	735.88
583.298	720.88
583.508	694.88
583.719	683.88
583.929	692.88
584.139	638.88
584.35	650.88
584.56	665.88
584.77	644.88
584.981	633.88
585.191	613.88
585.401	610.88
585.611	612.88
585.821	630.88
586.032	609.88
586.242	588.88
586.452	607.88
586.662	600.88
586.872	579.88
587.082	590.88
587.292	554.88
587.502	586.88
587.713	575.88
587.923	561.88
588.133	573.88
588.343	590.88
588.553	544.88
588.762	564.88
588.972	550.88
589.182	576.88
589.392	543.88
589.602	535.88
589.812	540.88
590.022	536.88
590.232	527.88
590.441	541.88
590.651	544.88
590.861	521.88
591.071	535.88
591.281	524.88
591.49	510.88
591.7	553.88
591.91	554.88
592.119	543.88
592.329	530.88
592.539	572.88
592.748	555.88
592.958	550.88
593.167	545.88
593.377	567.88
593.587	569.88
593.796	555.88
594.006	549.88
594.215	550.88
594.424	562.88
594.634	561.88
594.843	533.88
595.053	547.88
595.262	517.88
595.472	528.88
595.681	522.88
595.89	510.88
596.1	505.88
596.309	499.88
596.518	492.88
596.727	483.88
596.937	470.88
597.146	465.88
597.355	475.88
597.564	473.88
597.774	472.88
597.983	459.88
598.192	458.88
598.401	464.88
598.61	442.88
598.819	432.88
599.028	445.88
599.237	459.88
599.446	443.88
599.655	441.88
599.864	445.88
600.073	432.88
600.282	421.88
600.491	447.88
600.7	454.88
600.909	451.88
601.118	451.88
601.327	427.88
601.536	434.88
601.745	444.88
601.953	471.88
602.162	537.88
602.371	505.88
602.58	466.88
602.789	462.88
602.997	444.88
603.206	454.88
603.415	456.88
603.623	453.88
603.832	431.88
604.041	439.88
604.249	415.88
604.458	408.88
604.666	414.88
604.875	419.88
605.084	422.88
605.292	418.88
605.501	410.88
605.709	439.88
605.918	442.88
606.126	430.88
606.334	429.88
606.543	436.88
606.751	452.88
606.96	498.88
607.168	581.88
607.376	488.88
607.585	467.88
607.793	438.88
608.001	433.88
608.21	435.88
608.418	431.88
608.626	421.88
608.834	426.88
609.043	425.88
609.251	422.88
609.459	397.88
609.667	421.88
609.875	398.88
610.083	389.88
610.291	413.88
610.499	414.88
610.707	411.88
610.916	409.88
611.124	394.88
611.332	417.88
611.54	415.88
611.748	400.88
611.955	415.88
612.163	416.88
612.371	392.88
612.579	393.88
612.787	385.88
612.995	387.88
613.203	417.88
613.411	383.88
613.618	392.88
613.826	387.88
614.034	400.88
614.242	388.88
614.449	381.88
614.657	395.88
614.865	401.88
615.072	395.88
615.28	393.88
615.488	375.88
615.695	405.88
615.903	372.88
616.111	398.88
616.318	396.88
616.526	397.88
616.733	386.88
616.941	395.88
617.148	392.88
617.356	370.88
617.563	368.88
617.771	380.88
617.978	373.88
618.185	377.88
618.393	388.88
618.6	401.88
618.807	373.88
619.015	388.88
619.222	361.88
619.429	367.88
619.637	384.88
619.844	360.88
620.051	371.88
620.258	362.88
620.466	364.88
620.673	346.88
620.88	340.88
621.087	349.88
621.294	361.88
621.501	356.88
621.708	355.88
621.915	336.88
622.122	347.88
622.329	331.88
622.536	343.88
622.743	342.88
622.95	355.88
623.157	346.88
623.364	374.88
623.571	330.88
623.778	343.88
623.985	340.88
624.192	348.88
624.399	345.88
624.606	339.88
624.812	351.88
625.019	341.88
625.226	339.88
625.433	335.88
625.639	337.88
625.846	317.88
626.053	297.88
626.259	318.88
626.466	326.88
626.673	325.88
626.879	331.88
627.086	314.88
627.293	331.88
627.499	329.88
627.706	345.88
627.912	323.88
628.119	328.88
628.325	315.88
628.532	319.88
628.738	330.88
628.945	328.88
629.151	319.88
629.357	334.88
629.564	303.88
629.77	315.88
629.976	324.88
630.183	304.88
630.389	316.88
630.595	306.88
630.802	311.88
631.008	296.88
631.214	319.88
631.42	305.88
631.627	315.88
631.833	306.88
632.039	303.88
632.245	295.88
632.451	304.88
632.657	318.88
632.863	306.88
633.069	299.88
633.275	295.88
633.481	313.88
633.688	308.88
633.893	294.88
634.099	291.88
634.305	304.88
634.511	296.88
634.717	297.88
634.923	307.88
635.129	338.88
635.335	366.88
635.541	329.88
635.747	338.88
635.952	310.88
636.158	306.88
636.364	293.88
636.57	310.88
636.775	297.88
636.981	305.88
637.187	294.88
637.392	291.88
637.598	298.88
637.804	297.88
638.009	304.88
638.215	311.88
638.421	270.88
638.626	284.88
638.832	295.88
639.037	287.88
639.243	283.88
639.448	300.88
639.654	290.88
639.859	289.88
640.065	305.88
640.27	298.88
640.475	297.88
640.681	319.88
640.886	306.88
641.091	285.88
641.297	318.88
641.502	331.88
641.707	317.88
641.913	322.88
642.118	316.88
642.323	323.88
642.528	314.88
642.733	338.88
642.939	350.88
643.144	341.88
643.349	373.88
643.554	354.88
643.759	380.88
643.964	396.88
644.169	409.88
644.374	448.88
644.579	459.88
644.784	512.88
644.989	540.88
645.194	624.88
645.399	712.88
645.604	690.88
645.809	581.88
646.014	472.88
646.219	424.88
646.423	396.88
646.628	360.88
646.833	343.88
647.038	329.88
647.243	310.88
647.447	321.88
647.652	319.88
647.857	305.88
648.062	282.88
648.266	304.88
648.471	290.88
648.676	279.88
648.88	267.88
649.085	274.88
649.289	263.88
649.494	276.88
649.698	277.88
649.903	265.88
650.107	263.88
650.312	258.88
650.516	264.88
650.721	240.88
650.925	243.88
651.13	250.88
651.334	246.88
651.539	235.88
651.743	236.88
651.947	228.88
652.152	233.88
652.356	230.88
652.56	241.88
652.764	249.88
652.969	244.88
653.173	239.88
653.377	213.88
653.581	217.88
653.785	210.88
653.99	207.88
654.194	205.88
654.398	199.88
654.602	223.88
654.806	190.88
655.01	198.88
655.214	205.88
655.418	210.88
655.622	206.88
655.826	190.88
656.03	247.88
656.234	232.88
656.438	227.88
656.642	226.88
656.846	227.88
657.049	223.88
657.253	207.88
657.457	208.88
657.661	172.88
657.865	168.88
658.068	163.88
658.272	166.88
658.476	145.88
658.68	159.88
658.883	133.88
659.087	126.88
659.291	127.88
659.494	118.88
659.698	122.88
659.901	118.88
660.105	126.88
660.309	121.88
660.512	124.88
660.716	117.88
660.919	128.88
661.123	110.88
661.326	106.88
661.53	93.88
661.733	99.88
661.936	99.88
662.14	85.88
662.343	110.88
662.546	91.88
662.75	90.88
662.953	104.88
663.156	84.88
663.36	96.88
663.563	77.88
663.766	88.88
663.969	93.88
664.173	90.88
664.376	91.88
664.579	91.88
664.782	81.88
664.985	95.88
665.188	93.88
665.391	81.88
665.594	87.88
665.797	81.88
666	97.88
666.203	89.88
666.406	83.88
666.609	87.88
666.812	69.88
667.015	74.88
667.218	90.88
667.421	90.88
667.624	87.88
667.827	82.88
668.03	84.88
668.232	80.88
668.435	89.88
668.638	87.88
668.841	92.88
669.043	87.88
669.246	80.88
669.449	79.88
669.651	76.88
669.854	81.88
670.057	73.88
670.259	71.88
670.462	76.88
670.665	83.88
670.867	69.88
671.07	83.88
671.272	72.88
671.475	85.88
671.677	86.88
671.88	84.88
672.082	76.88
672.284	79.88
672.487	80.88
672.689	76.88
672.892	76.88
