Data from SnStandardFlinnAPT0064_LampEnergy5.5_LIBS07252019.E.O._I.C._HRD10591_15-15-28-491.txt Node
Date: Thu Jul 25 15:15:28 EDT 2019
User: cochatt
Spectrometer: HR+D1059
Trigger mode: 1
Integration Time (sec): 1.000000E-1
Scans to average: 1
Electric dark correction enabled: true
Nonlinearity correction enabled: false
Boxcar width: 0
XAxis mode: Wavelengths
Number of Pixels in Spectrum: 2048
>>>>>Begin Spectral Data<<<<<
223.165	-14.25
223.4	-14.25
223.635	-14.25
223.869	-8.25
224.104	-23.25
224.338	-19.25
224.573	-10.25
224.808	-9.25
225.042	-18.25
225.277	-16.25
225.511	-14.25
225.746	-10.25
225.98	26.75
226.215	17.75
226.449	16.75
226.683	18.75
226.918	23.75
227.152	39.75
227.387	29.75
227.621	40.75
227.856	42.75
228.09	55.75
228.324	58.75
228.559	53.75
228.793	74.75
229.027	130.75
229.262	144.75
229.496	156.75
229.73	156.75
229.964	143.75
230.199	164.75
230.433	151.75
230.667	175.75
230.901	161.75
231.136	174.75
231.37	171.75
231.604	182.75
231.838	194.75
232.072	230.75
232.306	250.75
232.541	205.75
232.775	194.75
233.009	203.75
233.243	207.75
233.477	228.75
233.711	228.75
233.945	248.75
234.179	228.75
234.413	214.75
234.647	215.75
234.881	226.75
235.115	224.75
235.349	245.75
235.583	324.75
235.817	370.75
236.051	375.75
236.285	283.75
236.519	247.75
236.753	238.75
236.987	246.75
237.221	243.75
237.455	237.75
237.689	213.75
237.922	221.75
238.156	220.75
238.39	233.75
238.624	224.75
238.858	217.75
239.091	211.75
239.325	238.75
239.559	245.75
239.793	238.75
240.027	237.75
240.26	260.75
240.494	239.75
240.728	254.75
240.961	276.75
241.195	291.75
241.429	274.75
241.662	299.75
241.896	315.75
242.13	365.75
242.363	435.75
242.597	548.75
242.83	556.75
243.064	571.75
243.298	661.75
243.531	550.75
243.765	402.75
243.998	317.75
244.232	298.75
244.465	279.75
244.699	267.75
244.932	277.75
245.166	284.75
245.399	296.75
245.633	297.75
245.866	294.75
246.099	288.75
246.333	283.75
246.566	284.75
246.8	270.75
247.033	286.75
247.266	283.75
247.5	288.75
247.733	273.75
247.966	300.75
248.2	329.75
248.433	351.75
248.666	395.75
248.899	356.75
249.133	345.75
249.366	360.75
249.599	388.75
249.832	393.75
250.066	415.75
250.299	358.75
250.532	336.75
250.765	335.75
250.998	326.75
251.231	325.75
251.465	350.75
251.698	325.75
251.931	341.75
252.164	339.75
252.397	345.75
252.63	344.75
252.863	341.75
253.096	343.75
253.329	339.75
253.562	325.75
253.795	317.75
254.028	332.75
254.261	356.75
254.494	393.75
254.727	406.75
254.96	466.75
255.193	468.75
255.426	405.75
255.659	372.75
255.892	372.75
256.124	345.75
256.357	396.75
256.59	380.75
256.823	403.75
257.056	441.75
257.289	483.75
257.521	542.75
257.754	491.75
257.987	407.75
258.22	387.75
258.452	385.75
258.685	421.75
258.918	405.75
259.151	408.75
259.383	453.75
259.616	469.75
259.849	501.75
260.081	452.75
260.314	418.75
260.547	402.75
260.779	410.75
261.012	421.75
261.244	407.75
261.477	415.75
261.71	424.75
261.942	447.75
262.175	452.75
262.407	451.75
262.64	460.75
262.872	489.75
263.105	515.75
263.337	543.75
263.57	546.75
263.802	539.75
264.035	589.75
264.267	564.75
264.499	592.75
264.732	619.75
264.964	630.75
265.197	596.75
265.429	608.75
265.661	615.75
265.894	664.75
266.126	724.75
266.358	759.75
266.591	722.75
266.823	668.75
267.055	614.75
267.287	614.75
267.52	566.75
267.752	567.75
267.984	557.75
268.216	560.75
268.448	543.75
268.681	538.75
268.913	528.75
269.145	524.75
269.377	535.75
269.609	517.75
269.841	525.75
270.073	571.75
270.306	617.75
270.538	796.75
270.77	1113.75
271.002	1347.75
271.234	954.75
271.466	698.75
271.698	607.75
271.93	564.75
272.162	559.75
272.394	546.75
272.626	544.75
272.858	525.75
273.09	523.75
273.322	511.75
273.553	514.75
273.785	532.75
274.017	533.75
274.249	529.75
274.481	516.75
274.713	515.75
274.945	516.75
275.176	507.75
275.408	523.75
275.64	514.75
275.872	513.75
276.104	527.75
276.335	517.75
276.567	552.75
276.799	533.75
277.031	524.75
277.262	546.75
277.494	559.75
277.726	610.75
277.957	681.75
278.189	761.75
278.421	732.75
278.652	647.75
278.884	634.75
279.115	602.75
279.347	582.75
279.579	562.75
279.81	554.75
280.042	558.75
280.273	558.75
280.505	591.75
280.736	592.75
280.968	639.75
281.199	686.75
281.431	710.75
281.662	743.75
281.894	681.75
282.125	661.75
282.356	657.75
282.588	662.75
282.819	654.75
283.051	708.75
283.282	786.75
283.513	950.75
283.745	1251.75
283.976	1948.75
284.207	2643.75
284.439	2442.75
284.67	1517.75
284.901	1234.75
285.132	1202.75
285.364	1157.75
285.595	950.75
285.826	913.75
286.057	1034.75
286.288	1310.75
286.52	1725.75
286.751	1610.75
286.982	1083.75
287.213	847.75
287.444	776.75
287.675	727.75
287.906	723.75
288.138	696.75
288.369	657.75
288.6	670.75
288.831	694.75
289.062	685.75
289.293	680.75
289.524	693.75
289.755	723.75
289.986	676.75
290.217	677.75
290.448	680.75
290.679	718.75
290.91	695.75
291.141	701.75
291.371	716.75
291.602	773.75
291.833	720.75
292.064	704.75
292.295	675.75
292.526	656.75
292.757	645.75
292.987	668.75
293.218	656.75
293.449	669.75
293.68	669.75
293.91	663.75
294.141	652.75
294.372	626.75
294.603	642.75
294.833	638.75
295.064	662.75
295.295	649.75
295.525	651.75
295.756	640.75
295.987	632.75
296.217	636.75
296.448	635.75
296.679	670.75
296.909	665.75
297.14	651.75
297.37	681.75
297.601	678.75
297.831	646.75
298.062	659.75
298.292	687.75
298.523	687.75
298.753	682.75
298.984	688.75
299.214	704.75
299.445	713.75
299.675	688.75
299.905	721.75
300.136	766.75
300.366	832.75
300.597	1016.75
300.827	1320.75
301.057	1714.75
301.288	1710.75
301.518	1178.75
301.748	926.75
301.979	870.75
302.209	870.75
302.439	897.75
302.669	901.75
302.9	1074.75
303.13	1400.75
303.36	1990.75
303.59	2592.75
303.82	2310.75
304.051	1448.75
304.281	1091.75
304.511	933.75
304.741	869.75
304.971	856.75
305.201	815.75
305.431	804.75
305.661	783.75
305.891	754.75
306.121	756.75
306.352	741.75
306.582	756.75
306.812	738.75
307.042	775.75
307.272	754.75
307.502	749.75
307.731	783.75
307.961	741.75
308.191	712.75
308.421	744.75
308.651	730.75
308.881	733.75
309.111	745.75
309.341	758.75
309.571	761.75
309.8	754.75
310.03	771.75
310.26	764.75
310.49	786.75
310.72	776.75
310.949	816.75
311.179	784.75
311.409	798.75
311.639	799.75
311.868	787.75
312.098	802.75
312.328	818.75
312.557	831.75
312.787	802.75
313.017	798.75
313.246	816.75
313.476	804.75
313.706	845.75
313.935	878.75
314.165	922.75
314.394	910.75
314.624	908.75
314.853	872.75
315.083	877.75
315.312	871.75
315.542	873.75
315.771	884.75
316.001	916.75
316.23	870.75
316.46	940.75
316.689	1000.75
316.919	1194.75
317.148	1602.75
317.377	2393.75
317.607	3460.75
317.836	3594.75
318.065	2182.75
318.295	1493.75
318.524	1237.75
318.753	1109.75
318.983	1027.75
319.212	982.75
319.441	954.75
319.67	967.75
319.9	932.75
320.129	946.75
320.358	932.75
320.587	935.75
320.816	936.75
321.046	929.75
321.275	946.75
321.504	956.75
321.733	966.75
321.962	973.75
322.191	999.75
322.42	990.75
322.649	1009.75
322.878	980.75
323.108	995.75
323.337	1038.75
323.566	1032.75
323.795	1065.75
324.024	1026.75
324.253	1055.75
324.482	1082.75
324.71	1148.75
324.939	1198.75
325.168	1219.75
325.397	1260.75
325.626	1420.75
325.855	1973.75
326.084	2876.75
326.313	4268.75
326.542	4477.75
326.77	2955.75
326.999	2063.75
327.228	1765.75
327.457	1721.75
327.686	1716.75
327.914	1777.75
328.143	2031.75
328.372	2342.75
328.6	2503.75
328.829	2330.75
329.058	2100.75
329.287	1906.75
329.515	1748.75
329.744	1665.75
329.972	1543.75
330.201	1477.75
330.43	1431.75
330.658	1370.75
330.887	1379.75
331.115	1388.75
331.344	1397.75
331.572	1323.75
331.801	1351.75
332.03	1340.75
332.258	1385.75
332.486	1460.75
332.715	1588.75
332.943	1827.75
333.172	2194.75
333.4	2198.75
333.629	1804.75
333.857	1678.75
334.085	1657.75
334.314	1778.75
334.542	1919.75
334.771	2185.75
334.999	2557.75
335.227	3004.75
335.455	3328.75
335.684	3152.75
335.912	2798.75
336.14	2430.75
336.369	2173.75
336.597	1993.75
336.825	1874.75
337.053	1762.75
337.281	1631.75
337.51	1600.75
337.738	1498.75
337.966	1472.75
338.194	1409.75
338.422	1371.75
338.65	1331.75
338.878	1334.75
339.106	1306.75
339.334	1263.75
339.562	1279.75
339.79	1210.75
340.018	1239.75
340.246	1249.75
340.474	1232.75
340.702	1241.75
340.93	1237.75
341.158	1214.75
341.386	1230.75
341.614	1181.75
341.842	1199.75
342.07	1125.75
342.298	1133.75
342.526	1149.75
342.754	1102.75
342.981	1103.75
343.209	1116.75
343.437	1129.75
343.665	1145.75
343.893	1165.75
344.12	1171.75
344.348	1142.75
344.576	1127.75
344.804	1098.75
345.031	1091.75
345.259	1086.75
345.487	1048.75
345.714	1053.75
345.942	1035.75
346.17	1033.75
346.397	1055.75
346.625	1037.75
346.853	1035.75
347.08	1010.75
347.308	1050.75
347.535	1023.75
347.763	1020.75
347.99	1018.75
348.218	1003.75
348.445	1012.75
348.673	1009.75
348.9	1026.75
349.128	987.75
349.355	1014.75
349.583	1010.75
349.81	1023.75
350.037	989.75
350.265	970.75
350.492	989.75
350.72	991.75
350.947	991.75
351.174	983.75
351.402	999.75
351.629	976.75
351.856	998.75
352.083	974.75
352.311	984.75
352.538	990.75
352.765	982.75
352.992	977.75
353.22	976.75
353.447	983.75
353.674	965.75
353.901	996.75
354.128	971.75
354.355	973.75
354.583	998.75
354.81	1006.75
355.037	992.75
355.264	985.75
355.491	1014.75
355.718	1019.75
355.945	1000.75
356.172	1014.75
356.399	994.75
356.626	1009.75
356.853	1016.75
357.08	1052.75
357.307	1026.75
357.534	1040.75
357.761	1053.75
357.988	1047.75
358.215	1046.75
358.441	1052.75
358.668	1012.75
358.895	1050.75
359.122	1034.75
359.349	1031.75
359.576	1036.75
359.802	1041.75
360.029	1052.75
360.256	1027.75
360.483	1062.75
360.709	1031.75
360.936	1053.75
361.163	1066.75
361.39	1054.75
361.616	1081.75
361.843	1046.75
362.07	1030.75
362.296	1048.75
362.523	1052.75
362.749	1067.75
362.976	1037.75
363.203	1047.75
363.429	1067.75
363.656	1030.75
363.882	1055.75
364.109	1066.75
364.335	1024.75
364.562	1034.75
364.788	1034.75
365.015	1043.75
365.241	1069.75
365.468	1103.75
365.694	1127.75
365.92	1091.75
366.147	1079.75
366.373	1058.75
366.599	1075.75
366.826	1086.75
367.052	1068.75
367.278	1074.75
367.505	1061.75
367.731	1082.75
367.957	1052.75
368.184	1082.75
368.41	1084.75
368.636	1091.75
368.862	1110.75
369.089	1068.75
369.315	1079.75
369.541	1080.75
369.767	1094.75
369.993	1083.75
370.219	1089.75
370.445	1092.75
370.672	1131.75
370.898	1105.75
371.124	1111.75
371.35	1126.75
371.576	1139.75
371.802	1117.75
372.028	1118.75
372.254	1122.75
372.48	1156.75
372.706	1131.75
372.932	1142.75
373.158	1123.75
373.384	1134.75
373.61	1142.75
373.835	1186.75
374.061	1150.75
374.287	1171.75
374.513	1154.75
374.739	1174.75
374.965	1170.75
375.191	1192.75
375.416	1186.75
375.642	1188.75
375.868	1169.75
376.094	1144.75
376.319	1139.75
376.545	1149.75
376.771	1144.75
376.997	1144.75
377.222	1131.75
377.448	1144.75
377.674	1124.75
377.899	1147.75
378.125	1121.75
378.35	1141.75
378.576	1127.75
378.802	1111.75
379.027	1149.75
379.253	1166.75
379.478	1234.75
379.704	1351.75
379.929	1796.75
380.155	2575.75
380.38	2725.75
380.606	1799.75
380.831	1373.75
381.057	1268.75
381.282	1194.75
381.507	1170.75
381.733	1135.75
381.958	1161.75
382.184	1135.75
382.409	1142.75
382.634	1127.75
382.86	1136.75
383.085	1127.75
383.31	1110.75
383.535	1105.75
383.761	1114.75
383.986	1135.75
384.211	1148.75
384.436	1167.75
384.662	1151.75
384.887	1184.75
385.112	1159.75
385.337	1156.75
385.562	1167.75
385.787	1171.75
386.013	1180.75
386.238	1162.75
386.463	1188.75
386.688	1167.75
386.913	1124.75
387.138	1166.75
387.363	1146.75
387.588	1154.75
387.813	1148.75
388.038	1186.75
388.263	1168.75
388.488	1169.75
388.713	1161.75
388.938	1159.75
389.163	1137.75
389.387	1135.75
389.612	1154.75
389.837	1154.75
390.062	1151.75
390.287	1171.75
390.512	1152.75
390.736	1171.75
390.961	1232.75
391.186	1209.75
391.411	1230.75
391.636	1234.75
391.86	1218.75
392.085	1238.75
392.31	1182.75
392.534	1181.75
392.759	1200.75
392.984	1197.75
393.208	1180.75
393.433	1159.75
393.658	1156.75
393.882	1156.75
394.107	1193.75
394.331	1175.75
394.556	1195.75
394.78	1194.75
395.005	1203.75
395.229	1152.75
395.454	1216.75
395.678	1226.75
395.903	1216.75
396.127	1227.75
396.352	1157.75
396.576	1205.75
396.801	1173.75
397.025	1215.75
397.249	1204.75
397.474	1213.75
397.698	1238.75
397.922	1250.75
398.147	1219.75
398.371	1240.75
398.595	1310.75
398.82	1317.75
399.044	1360.75
399.268	1383.75
399.492	1470.75
399.717	1556.75
399.941	1520.75
400.165	1477.75
400.389	1419.75
400.613	1386.75
400.837	1369.75
401.062	1332.75
401.286	1314.75
401.51	1282.75
401.734	1283.75
401.958	1290.75
402.182	1327.75
402.406	1304.75
402.63	1286.75
402.854	1316.75
403.078	1325.75
403.302	1283.75
403.526	1338.75
403.75	1342.75
403.974	1352.75
404.198	1359.75
404.422	1357.75
404.645	1339.75
404.869	1347.75
405.093	1346.75
405.317	1331.75
405.541	1348.75
405.765	1359.75
405.988	1363.75
406.212	1368.75
406.436	1335.75
406.66	1357.75
406.883	1383.75
407.107	1416.75
407.331	1457.75
407.555	1448.75
407.778	1455.75
408.002	1455.75
408.226	1439.75
408.449	1419.75
408.673	1361.75
408.896	1379.75
409.12	1335.75
409.344	1394.75
409.567	1336.75
409.791	1379.75
410.014	1333.75
410.238	1334.75
410.461	1302.75
410.685	1311.75
410.908	1326.75
411.132	1318.75
411.355	1311.75
411.578	1258.75
411.802	1292.75
412.025	1289.75
412.249	1280.75
412.472	1275.75
412.695	1270.75
412.919	1239.75
413.142	1246.75
413.365	1257.75
413.589	1288.75
413.812	1252.75
414.035	1254.75
414.258	1301.75
414.482	1261.75
414.705	1263.75
414.928	1274.75
415.151	1248.75
415.374	1228.75
415.597	1233.75
415.821	1240.75
416.044	1192.75
416.267	1195.75
416.49	1221.75
416.713	1208.75
416.936	1250.75
417.159	1209.75
417.382	1222.75
417.605	1181.75
417.828	1181.75
418.051	1240.75
418.274	1194.75
418.497	1257.75
418.72	1255.75
418.943	1237.75
419.166	1235.75
419.389	1346.75
419.611	1330.75
419.834	1284.75
420.057	1280.75
420.28	1232.75
420.503	1197.75
420.726	1212.75
420.948	1193.75
421.171	1229.75
421.394	1199.75
421.617	1209.75
421.839	1244.75
422.062	1232.75
422.285	1230.75
422.507	1219.75
422.73	1220.75
422.953	1224.75
423.175	1258.75
423.398	1248.75
423.621	1275.75
423.843	1223.75
424.066	1280.75
424.288	1238.75
424.511	1230.75
424.733	1210.75
424.956	1207.75
425.178	1223.75
425.401	1213.75
425.623	1243.75
425.846	1192.75
426.068	1190.75
426.291	1214.75
426.513	1186.75
426.735	1148.75
426.958	1194.75
427.18	1183.75
427.402	1152.75
427.625	1171.75
427.847	1167.75
428.069	1123.75
428.292	1152.75
428.514	1114.75
428.736	1131.75
428.958	1117.75
429.181	1119.75
429.403	1109.75
429.625	1117.75
429.847	1155.75
430.069	1164.75
430.292	1159.75
430.514	1200.75
430.736	1213.75
430.958	1169.75
431.18	1147.75
431.402	1148.75
431.624	1133.75
431.846	1114.75
432.068	1114.75
432.29	1107.75
432.512	1093.75
432.734	1115.75
432.956	1116.75
433.178	1126.75
433.4	1158.75
433.622	1131.75
433.844	1146.75
434.066	1128.75
434.287	1130.75
434.509	1147.75
434.731	1148.75
434.953	1157.75
435.175	1181.75
435.397	1201.75
435.618	1167.75
435.84	1145.75
436.062	1105.75
436.284	1135.75
436.505	1108.75
436.727	1145.75
436.949	1114.75
437.17	1133.75
437.392	1111.75
437.614	1075.75
437.835	1074.75
438.057	1086.75
438.278	1083.75
438.5	1099.75
438.721	1099.75
438.943	1132.75
439.165	1149.75
439.386	1178.75
439.608	1144.75
439.829	1181.75
440.05	1207.75
440.272	1208.75
440.493	1167.75
440.715	1176.75
440.936	1156.75
441.158	1222.75
441.379	1197.75
441.6	1228.75
441.822	1227.75
442.043	1282.75
442.264	1315.75
442.486	1239.75
442.707	1182.75
442.928	1219.75
443.149	1214.75
443.371	1185.75
443.592	1197.75
443.813	1211.75
444.034	1210.75
444.255	1211.75
444.476	1268.75
444.698	1310.75
444.919	1324.75
445.14	1371.75
445.361	1297.75
445.582	1225.75
445.803	1221.75
446.024	1209.75
446.245	1199.75
446.466	1204.75
446.687	1202.75
446.908	1166.75
447.129	1194.75
447.35	1138.75
447.571	1126.75
447.792	1101.75
448.013	1135.75
448.234	1107.75
448.455	1124.75
448.675	1132.75
448.896	1143.75
449.117	1170.75
449.338	1213.75
449.559	1261.75
449.779	1130.75
450	1083.75
450.221	1076.75
450.442	1087.75
450.662	1064.75
450.883	1060.75
451.104	1049.75
451.324	1048.75
451.545	1079.75
451.766	1076.75
451.986	1082.75
452.207	1130.75
452.428	1312.75
452.648	1730.75
452.869	1548.75
453.089	1222.75
453.31	1188.75
453.53	1165.75
453.751	1182.75
453.971	1242.75
454.192	1228.75
454.412	1098.75
454.633	1078.75
454.853	1020.75
455.073	1056.75
455.294	1051.75
455.514	1014.75
455.734	1046.75
455.955	1022.75
456.175	1042.75
456.395	1033.75
456.616	1044.75
456.836	1038.75
457.056	1044.75
457.276	1066.75
457.497	1087.75
457.717	1092.75
457.937	1077.75
458.157	1062.75
458.377	1077.75
458.598	1090.75
458.818	1099.75
459.038	1104.75
459.258	1095.75
459.478	1119.75
459.698	1119.75
459.918	1146.75
460.138	1154.75
460.358	1190.75
460.578	1220.75
460.798	1223.75
461.018	1222.75
461.238	1262.75
461.458	1214.75
461.678	1214.75
461.898	1226.75
462.118	1279.75
462.338	1308.75
462.558	1262.75
462.777	1337.75
462.997	1388.75
463.217	1417.75
463.437	1400.75
463.657	1414.75
463.876	1428.75
464.096	1367.75
464.316	1340.75
464.536	1331.75
464.755	1306.75
464.975	1287.75
465.195	1206.75
465.414	1205.75
465.634	1152.75
465.854	1162.75
466.073	1139.75
466.293	1127.75
466.512	1134.75
466.732	1172.75
466.951	1182.75
467.171	1206.75
467.391	1210.75
467.61	1151.75
467.829	1113.75
468.049	1111.75
468.268	1108.75
468.488	1081.75
468.707	1094.75
468.927	1073.75
469.146	1110.75
469.365	1118.75
469.585	1152.75
469.804	1124.75
470.023	1127.75
470.243	1186.75
470.462	1203.75
470.681	1230.75
470.901	1334.75
471.12	1500.75
471.339	1513.75
471.558	1271.75
471.777	1199.75
471.997	1158.75
472.216	1097.75
472.435	1114.75
472.654	1092.75
472.873	1092.75
473.092	1118.75
473.311	1107.75
473.53	1109.75
473.749	1156.75
473.968	1145.75
474.187	1125.75
474.406	1102.75
474.625	1133.75
474.844	1145.75
475.063	1090.75
475.282	1110.75
475.501	1132.75
475.72	1114.75
475.939	1109.75
476.158	1131.75
476.377	1165.75
476.596	1153.75
476.814	1194.75
477.033	1164.75
477.252	1187.75
477.471	1179.75
477.69	1246.75
477.908	1218.75
478.127	1282.75
478.346	1252.75
478.564	1294.75
478.783	1282.75
479.002	1293.75
479.22	1302.75
479.439	1344.75
479.658	1289.75
479.876	1318.75
480.095	1317.75
480.313	1324.75
480.532	1385.75
480.751	1321.75
480.969	1351.75
481.188	1308.75
481.406	1277.75
481.624	1309.75
481.843	1311.75
482.061	1287.75
482.28	1289.75
482.498	1287.75
482.717	1297.75
482.935	1358.75
483.153	1350.75
483.372	1385.75
483.59	1401.75
483.808	1394.75
484.027	1398.75
484.245	1452.75
484.463	1608.75
484.681	1716.75
484.9	1612.75
485.118	1528.75
485.336	1532.75
485.554	1511.75
485.772	1614.75
485.99	1765.75
486.209	1855.75
486.427	1622.75
486.645	1500.75
486.863	1448.75
487.081	1417.75
487.299	1410.75
487.517	1415.75
487.735	1455.75
487.953	1452.75
488.171	1466.75
488.389	1418.75
488.607	1384.75
488.825	1378.75
489.043	1353.75
489.261	1363.75
489.479	1350.75
489.696	1371.75
489.914	1350.75
490.132	1354.75
490.35	1398.75
490.568	1383.75
490.786	1432.75
491.003	1421.75
491.221	1443.75
491.439	1432.75
491.657	1481.75
491.874	1464.75
492.092	1477.75
492.31	1558.75
492.527	1541.75
492.745	1521.75
492.963	1482.75
493.18	1481.75
493.398	1478.75
493.615	1448.75
493.833	1491.75
494.05	1478.75
494.268	1453.75
494.485	1448.75
494.703	1466.75
494.92	1478.75
495.138	1454.75
495.355	1460.75
495.573	1499.75
495.79	1518.75
496.008	1483.75
496.225	1523.75
496.442	1519.75
496.66	1533.75
496.877	1565.75
497.094	1619.75
497.312	1572.75
497.529	1579.75
497.746	1573.75
497.963	1618.75
498.181	1602.75
498.398	1626.75
498.615	1709.75
498.832	1770.75
499.049	1823.75
499.267	1947.75
499.484	2077.75
499.701	2131.75
499.918	2222.75
500.135	2328.75
500.352	2529.75
500.569	2512.75
500.786	2489.75
501.003	2414.75
501.22	2272.75
501.437	2143.75
501.654	2030.75
501.871	1949.75
502.088	1868.75
502.305	1796.75
502.522	1740.75
502.739	1725.75
502.956	1657.75
503.172	1607.75
503.389	1574.75
503.606	1555.75
503.823	1549.75
504.04	1552.75
504.256	1487.75
504.473	1518.75
504.69	1512.75
504.907	1460.75
505.123	1443.75
505.34	1422.75
505.557	1376.75
505.773	1371.75
505.99	1350.75
506.207	1324.75
506.423	1297.75
506.64	1293.75
506.856	1308.75
507.073	1314.75
507.289	1283.75
507.506	1231.75
507.722	1261.75
507.939	1279.75
508.155	1275.75
508.372	1266.75
508.588	1216.75
508.805	1284.75
509.021	1238.75
509.238	1242.75
509.454	1273.75
509.67	1325.75
509.887	1261.75
510.103	1243.75
510.319	1227.75
510.536	1229.75
510.752	1187.75
510.968	1234.75
511.184	1220.75
511.401	1195.75
511.617	1177.75
511.833	1195.75
512.049	1163.75
512.265	1196.75
512.481	1190.75
512.698	1171.75
512.914	1161.75
513.13	1200.75
513.346	1182.75
513.562	1202.75
513.778	1202.75
513.994	1239.75
514.21	1212.75
514.426	1246.75
514.642	1301.75
514.858	1231.75
515.074	1240.75
515.29	1206.75
515.506	1207.75
515.721	1207.75
515.937	1228.75
516.153	1181.75
516.369	1239.75
516.585	1236.75
516.801	1262.75
517.016	1322.75
517.232	1305.75
517.448	1333.75
517.664	1356.75
517.879	1330.75
518.095	1320.75
518.311	1331.75
518.527	1331.75
518.742	1303.75
518.958	1331.75
519.173	1348.75
519.389	1296.75
519.605	1260.75
519.82	1248.75
520.036	1198.75
520.251	1187.75
520.467	1217.75
520.682	1192.75
520.898	1174.75
521.113	1205.75
521.329	1174.75
521.544	1167.75
521.76	1156.75
521.975	1190.75
522.19	1175.75
522.406	1172.75
522.621	1168.75
522.836	1143.75
523.052	1171.75
523.267	1150.75
523.482	1169.75
523.698	1149.75
523.913	1123.75
524.128	1170.75
524.343	1122.75
524.559	1168.75
524.774	1128.75
524.989	1148.75
525.204	1178.75
525.419	1136.75
525.634	1124.75
525.849	1160.75
526.064	1154.75
526.28	1143.75
526.495	1159.75
526.71	1161.75
526.925	1153.75
527.14	1123.75
527.355	1122.75
527.57	1147.75
527.785	1163.75
527.999	1151.75
528.214	1176.75
528.429	1157.75
528.644	1206.75
528.859	1224.75
529.074	1226.75
529.289	1227.75
529.503	1238.75
529.718	1253.75
529.933	1223.75
530.148	1197.75
530.363	1207.75
530.577	1191.75
530.792	1197.75
531.007	1214.75
531.221	1216.75
531.436	1243.75
531.651	1213.75
531.865	1242.75
532.08	1247.75
532.295	1254.75
532.509	1337.75
532.724	1352.75
532.938	1323.75
533.153	1348.75
533.367	1470.75
533.582	1458.75
533.796	1488.75
534.011	1411.75
534.225	1374.75
534.44	1383.75
534.654	1358.75
534.868	1348.75
535.083	1302.75
535.297	1306.75
535.511	1287.75
535.726	1288.75
535.94	1229.75
536.154	1257.75
536.369	1241.75
536.583	1192.75
536.797	1195.75
537.011	1210.75
537.225	1164.75
537.44	1146.75
537.654	1154.75
537.868	1162.75
538.082	1172.75
538.296	1144.75
538.51	1123.75
538.724	1142.75
538.938	1146.75
539.153	1133.75
539.367	1145.75
539.581	1127.75
539.795	1116.75
540.009	1122.75
540.222	1083.75
540.436	1082.75
540.65	1103.75
540.864	1116.75
541.078	1171.75
541.292	1191.75
541.506	1360.75
541.72	1437.75
541.934	1280.75
542.147	1240.75
542.361	1189.75
542.575	1128.75
542.789	1136.75
543.002	1105.75
543.216	1088.75
543.43	1080.75
543.644	1067.75
543.857	1118.75
544.071	1112.75
544.285	1147.75
544.498	1139.75
544.712	1101.75
544.925	1107.75
545.139	1116.75
545.352	1146.75
545.566	1104.75
545.779	1131.75
545.993	1113.75
546.206	1104.75
546.42	1147.75
546.633	1118.75
546.847	1115.75
547.06	1125.75
547.274	1142.75
547.487	1132.75
547.7	1126.75
547.914	1093.75
548.127	1123.75
548.34	1129.75
548.554	1090.75
548.767	1101.75
548.98	1120.75
549.193	1155.75
549.407	1106.75
549.62	1119.75
549.833	1123.75
550.046	1125.75
550.259	1145.75
550.473	1108.75
550.686	1110.75
550.899	1106.75
551.112	1122.75
551.325	1114.75
551.538	1102.75
551.751	1075.75
551.964	1083.75
552.177	1114.75
552.39	1144.75
552.603	1172.75
552.816	1142.75
553.029	1183.75
553.242	1214.75
553.455	1181.75
553.667	1227.75
553.88	1206.75
554.093	1224.75
554.306	1185.75
554.519	1237.75
554.732	1220.75
554.944	1246.75
555.157	1259.75
555.37	1325.75
555.583	1338.75
555.795	1375.75
556.008	1403.75
556.221	1504.75
556.433	1518.75
556.646	1552.75
556.859	1532.75
557.071	1518.75
557.284	1497.75
557.496	1473.75
557.709	1438.75
557.921	1475.75
558.134	1460.75
558.346	1455.75
558.559	1505.75
558.771	1534.75
558.984	1597.75
559.196	1680.75
559.409	1666.75
559.621	1557.75
559.833	1524.75
560.046	1453.75
560.258	1414.75
560.47	1383.75
560.683	1345.75
560.895	1296.75
561.107	1264.75
561.32	1204.75
561.532	1223.75
561.744	1179.75
561.956	1172.75
562.168	1146.75
562.381	1127.75
562.593	1116.75
562.805	1100.75
563.017	1111.75
563.229	1130.75
563.441	1203.75
563.653	1106.75
563.865	1076.75
564.077	1067.75
564.289	1026.75
564.501	1017.75
564.713	1012.75
564.925	1002.75
565.137	1016.75
565.349	1026.75
565.561	1018.75
565.773	1029.75
565.985	1050.75
566.197	1077.75
566.408	1079.75
566.62	1095.75
566.832	1138.75
567.044	1150.75
567.255	1141.75
567.467	1123.75
567.679	1160.75
567.891	1229.75
568.102	1314.75
568.314	1471.75
568.526	1254.75
568.737	1162.75
568.949	1052.75
569.161	1029.75
569.372	958.75
569.584	939.75
569.795	924.75
570.007	920.75
570.218	935.75
570.43	949.75
570.641	888.75
570.853	860.75
571.064	859.75
571.276	853.75
571.487	833.75
571.698	827.75
571.91	802.75
572.121	811.75
572.333	804.75
572.544	814.75
572.755	839.75
572.966	953.75
573.178	854.75
573.389	824.75
573.6	754.75
573.811	772.75
574.023	760.75
574.234	793.75
574.445	745.75
574.656	749.75
574.867	750.75
575.078	755.75
575.289	724.75
575.501	747.75
575.712	723.75
575.923	727.75
576.134	731.75
576.345	760.75
576.556	764.75
576.767	764.75
576.978	765.75
577.188	759.75
577.399	730.75
577.61	765.75
577.821	765.75
578.032	747.75
578.243	774.75
578.454	776.75
578.665	788.75
578.875	784.75
579.086	824.75
579.297	855.75
579.508	908.75
579.718	975.75
579.929	1020.75
580.14	1111.75
580.35	1136.75
580.561	1119.75
580.772	1018.75
580.982	990.75
581.193	931.75
581.403	913.75
581.614	875.75
581.825	842.75
582.035	819.75
582.246	800.75
582.456	798.75
582.667	771.75
582.877	758.75
583.087	730.75
583.298	721.75
583.508	674.75
583.719	646.75
583.929	664.75
584.139	684.75
584.35	631.75
584.56	662.75
584.77	675.75
584.981	625.75
585.191	614.75
585.401	621.75
585.611	605.75
585.821	629.75
586.032	623.75
586.242	591.75
586.452	595.75
586.662	611.75
586.872	596.75
587.082	577.75
587.292	590.75
587.502	572.75
587.713	588.75
587.923	568.75
588.133	574.75
588.343	545.75
588.553	550.75
588.762	541.75
588.972	534.75
589.182	558.75
589.392	558.75
589.602	539.75
589.812	570.75
590.022	549.75
590.232	529.75
590.441	548.75
590.651	550.75
590.861	540.75
591.071	555.75
591.281	529.75
591.49	546.75
591.7	534.75
591.91	544.75
592.119	547.75
592.329	534.75
592.539	540.75
592.748	541.75
592.958	563.75
593.167	566.75
593.377	572.75
593.587	578.75
593.796	537.75
594.006	550.75
594.215	556.75
594.424	585.75
594.634	585.75
594.843	542.75
595.053	531.75
595.262	544.75
595.472	515.75
595.681	498.75
595.89	511.75
596.1	503.75
596.309	502.75
596.518	476.75
596.727	481.75
596.937	486.75
597.146	515.75
597.355	475.75
597.564	470.75
597.774	453.75
597.983	462.75
598.192	452.75
598.401	442.75
598.61	438.75
598.819	461.75
599.028	452.75
599.237	428.75
599.446	450.75
599.655	454.75
599.864	457.75
600.073	430.75
600.282	451.75
600.491	443.75
600.7	422.75
600.909	446.75
601.118	447.75
601.327	451.75
601.536	447.75
601.745	458.75
601.953	485.75
602.162	549.75
602.371	470.75
602.58	457.75
602.789	436.75
602.997	442.75
603.206	450.75
603.415	446.75
603.623	431.75
603.832	437.75
604.041	430.75
604.249	444.75
604.458	418.75
604.666	427.75
604.875	428.75
605.084	410.75
605.292	393.75
605.501	454.75
605.709	428.75
605.918	440.75
606.126	436.75
606.334	438.75
606.543	426.75
606.751	461.75
606.96	516.75
607.168	535.75
607.376	480.75
607.585	463.75
607.793	448.75
608.001	448.75
608.21	427.75
608.418	432.75
608.626	415.75
608.834	429.75
609.043	423.75
609.251	415.75
609.459	397.75
609.667	427.75
609.875	413.75
610.083	414.75
610.291	417.75
610.499	408.75
610.707	413.75
610.916	412.75
611.124	419.75
611.332	410.75
611.54	402.75
611.748	395.75
611.955	393.75
612.163	398.75
612.371	386.75
612.579	408.75
612.787	394.75
612.995	404.75
613.203	410.75
613.411	389.75
613.618	383.75
613.826	398.75
614.034	386.75
614.242	386.75
614.449	390.75
614.657	387.75
614.865	392.75
615.072	384.75
615.28	400.75
615.488	381.75
615.695	384.75
615.903	395.75
616.111	380.75
616.318	407.75
616.526	410.75
616.733	382.75
616.941	389.75
617.148	379.75
617.356	391.75
617.563	367.75
617.771	372.75
617.978	380.75
618.185	384.75
618.393	356.75
618.6	386.75
618.807	372.75
619.015	392.75
619.222	363.75
619.429	348.75
619.637	372.75
619.844	373.75
620.051	381.75
620.258	369.75
620.466	366.75
620.673	337.75
620.88	352.75
621.087	360.75
621.294	353.75
621.501	343.75
621.708	360.75
621.915	361.75
622.122	358.75
622.329	376.75
622.536	353.75
622.743	364.75
622.95	342.75
623.157	335.75
623.364	348.75
623.571	358.75
623.778	354.75
623.985	357.75
624.192	334.75
624.399	335.75
624.606	338.75
624.812	334.75
625.019	330.75
625.226	340.75
625.433	345.75
625.639	329.75
625.846	314.75
626.053	318.75
626.259	322.75
626.466	320.75
626.673	318.75
626.879	311.75
627.086	322.75
627.293	331.75
627.499	331.75
627.706	330.75
627.912	322.75
628.119	328.75
628.325	327.75
628.532	325.75
628.738	331.75
628.945	313.75
629.151	327.75
629.357	315.75
629.564	331.75
629.77	319.75
629.976	310.75
630.183	308.75
630.389	316.75
630.595	300.75
630.802	306.75
631.008	322.75
631.214	308.75
631.42	301.75
631.627	309.75
631.833	304.75
632.039	298.75
632.245	300.75
632.451	319.75
632.657	315.75
632.863	319.75
633.069	305.75
633.275	301.75
633.481	292.75
633.688	303.75
633.893	301.75
634.099	304.75
634.305	295.75
634.511	308.75
634.717	307.75
634.923	302.75
635.129	340.75
635.335	361.75
635.541	326.75
635.747	312.75
635.952	306.75
636.158	304.75
636.364	290.75
636.57	294.75
636.775	320.75
636.981	324.75
637.187	312.75
637.392	315.75
637.598	292.75
637.804	304.75
638.009	312.75
638.215	301.75
638.421	294.75
638.626	299.75
638.832	288.75
639.037	296.75
639.243	287.75
639.448	284.75
639.654	310.75
639.859	320.75
640.065	311.75
640.27	300.75
640.475	304.75
640.681	300.75
640.886	308.75
641.091	309.75
641.297	309.75
641.502	313.75
641.707	313.75
641.913	317.75
642.118	339.75
642.323	333.75
642.528	324.75
642.733	356.75
642.939	355.75
643.144	362.75
643.349	351.75
643.554	365.75
643.759	374.75
643.964	404.75
644.169	386.75
644.374	430.75
644.579	455.75
644.784	464.75
644.989	539.75
645.194	574.75
645.399	656.75
645.604	661.75
645.809	580.75
646.014	478.75
646.219	416.75
646.423	391.75
646.628	346.75
646.833	358.75
647.038	323.75
647.243	316.75
647.447	312.75
647.652	302.75
647.857	313.75
648.062	304.75
648.266	293.75
648.471	282.75
648.676	298.75
648.88	277.75
649.085	277.75
649.289	282.75
649.494	269.75
649.698	270.75
649.903	266.75
650.107	269.75
650.312	246.75
650.516	251.75
650.721	270.75
650.925	230.75
651.13	243.75
651.334	206.75
651.539	228.75
651.743	230.75
651.947	234.75
652.152	239.75
652.356	250.75
652.56	226.75
652.764	265.75
652.969	263.75
653.173	218.75
653.377	232.75
653.581	219.75
653.785	217.75
653.99	199.75
654.194	214.75
654.398	209.75
654.602	210.75
654.806	196.75
655.01	215.75
655.214	212.75
655.418	205.75
655.622	225.75
655.826	217.75
656.03	224.75
656.234	227.75
656.438	236.75
656.642	221.75
656.846	221.75
657.049	197.75
657.253	187.75
657.457	192.75
657.661	185.75
657.865	181.75
658.068	167.75
658.272	165.75
658.476	168.75
658.68	170.75
658.883	147.75
659.087	140.75
659.291	145.75
659.494	135.75
659.698	140.75
659.901	121.75
660.105	124.75
660.309	114.75
660.512	110.75
660.716	123.75
660.919	134.75
661.123	102.75
661.326	107.75
661.53	106.75
661.733	121.75
661.936	106.75
662.14	102.75
662.343	100.75
662.546	103.75
662.75	106.75
662.953	101.75
663.156	81.75
663.36	96.75
663.563	85.75
663.766	91.75
663.969	88.75
664.173	82.75
664.376	90.75
664.579	88.75
664.782	105.75
664.985	88.75
665.188	83.75
665.391	94.75
665.594	87.75
665.797	74.75
666	80.75
666.203	82.75
666.406	92.75
666.609	81.75
666.812	92.75
667.015	74.75
667.218	86.75
667.421	82.75
667.624	76.75
667.827	86.75
668.03	74.75
668.232	76.75
668.435	94.75
668.638	74.75
668.841	83.75
669.043	91.75
669.246	83.75
669.449	80.75
669.651	91.75
669.854	75.75
670.057	87.75
670.259	82.75
670.462	87.75
670.665	80.75
670.867	74.75
671.07	89.75
671.272	88.75
671.475	80.75
671.677	79.75
671.88	85.75
672.082	83.75
672.284	94.75
672.487	88.75
672.689	83.75
672.892	90.75
