Data from SnStandardFlinnAPT0064_LampEnergy5.5_LIBS07252019.E.O._I.C._HRD10591_15-17-11-492.txt Node
Date: Thu Jul 25 15:17:11 EDT 2019
User: cochatt
Spectrometer: HR+D1059
Trigger mode: 1
Integration Time (sec): 1.000000E-1
Scans to average: 1
Electric dark correction enabled: true
Nonlinearity correction enabled: false
Boxcar width: 0
XAxis mode: Wavelengths
Number of Pixels in Spectrum: 2048
>>>>>Begin Spectral Data<<<<<
223.165	-32.5
223.4	-32.5
223.635	-32.5
223.869	-23.5
224.104	-10.5
224.338	-6.5
224.573	-5.5
224.808	-16.5
225.042	-14.5
225.277	-9.5
225.511	2.5
225.746	-1.5
225.98	19.5
226.215	17.5
226.449	22.5
226.683	12.5
226.918	27.5
227.152	18.5
227.387	51.5
227.621	44.5
227.856	41.5
228.09	52.5
228.324	41.5
228.559	58.5
228.793	74.5
229.027	159.5
229.262	174.5
229.496	153.5
229.73	147.5
229.964	159.5
230.199	166.5
230.433	190.5
230.667	166.5
230.901	171.5
231.136	182.5
231.37	172.5
231.604	199.5
231.838	212.5
232.072	236.5
232.306	271.5
232.541	234.5
232.775	216.5
233.009	200.5
233.243	218.5
233.477	218.5
233.711	257.5
233.945	276.5
234.179	235.5
234.413	224.5
234.647	224.5
234.881	237.5
235.115	250.5
235.349	280.5
235.583	343.5
235.817	439.5
236.051	464.5
236.285	303.5
236.519	254.5
236.753	236.5
236.987	243.5
237.221	268.5
237.455	233.5
237.689	229.5
237.922	230.5
238.156	207.5
238.39	226.5
238.624	243.5
238.858	226.5
239.091	232.5
239.325	213.5
239.559	251.5
239.793	241.5
240.027	255.5
240.26	241.5
240.494	245.5
240.728	266.5
240.961	273.5
241.195	309.5
241.429	317.5
241.662	292.5
241.896	351.5
242.13	415.5
242.363	533.5
242.597	682.5
242.83	652.5
243.064	672.5
243.298	786.5
243.531	668.5
243.765	403.5
243.998	339.5
244.232	305.5
244.465	299.5
244.699	299.5
244.932	317.5
245.166	297.5
245.399	292.5
245.633	317.5
245.866	327.5
246.099	297.5
246.333	296.5
246.566	303.5
246.8	295.5
247.033	290.5
247.266	299.5
247.5	284.5
247.733	295.5
247.966	319.5
248.2	332.5
248.433	371.5
248.666	411.5
248.899	406.5
249.133	371.5
249.366	392.5
249.599	434.5
249.832	468.5
250.066	452.5
250.299	395.5
250.532	335.5
250.765	347.5
250.998	336.5
251.231	342.5
251.465	358.5
251.698	328.5
251.931	341.5
252.164	336.5
252.397	335.5
252.63	348.5
252.863	352.5
253.096	350.5
253.329	332.5
253.562	344.5
253.795	367.5
254.028	352.5
254.261	370.5
254.494	385.5
254.727	434.5
254.96	551.5
255.193	529.5
255.426	428.5
255.659	386.5
255.892	403.5
256.124	405.5
256.357	389.5
256.59	409.5
256.823	417.5
257.056	494.5
257.289	544.5
257.521	607.5
257.754	503.5
257.987	439.5
258.22	399.5
258.452	391.5
258.685	412.5
258.918	424.5
259.151	448.5
259.383	464.5
259.616	486.5
259.849	542.5
260.081	470.5
260.314	423.5
260.547	421.5
260.779	407.5
261.012	425.5
261.244	433.5
261.477	437.5
261.71	454.5
261.942	450.5
262.175	464.5
262.407	471.5
262.64	491.5
262.872	483.5
263.105	502.5
263.337	524.5
263.57	552.5
263.802	583.5
264.035	581.5
264.267	571.5
264.499	597.5
264.732	630.5
264.964	644.5
265.197	624.5
265.429	635.5
265.661	636.5
265.894	672.5
266.126	748.5
266.358	865.5
266.591	814.5
266.823	690.5
267.055	632.5
267.287	619.5
267.52	579.5
267.752	571.5
267.984	571.5
268.216	554.5
268.448	564.5
268.681	571.5
268.913	534.5
269.145	568.5
269.377	557.5
269.609	548.5
269.841	553.5
270.073	602.5
270.306	696.5
270.538	923.5
270.77	1349.5
271.002	1607.5
271.234	1130.5
271.466	716.5
271.698	657.5
271.93	598.5
272.162	578.5
272.394	561.5
272.626	550.5
272.858	546.5
273.09	551.5
273.322	538.5
273.553	523.5
273.785	553.5
274.017	536.5
274.249	547.5
274.481	531.5
274.713	529.5
274.945	534.5
275.176	518.5
275.408	527.5
275.64	528.5
275.872	524.5
276.104	554.5
276.335	562.5
276.567	554.5
276.799	565.5
277.031	564.5
277.262	575.5
277.494	601.5
277.726	642.5
277.957	758.5
278.189	836.5
278.421	779.5
278.652	727.5
278.884	704.5
279.115	622.5
279.347	630.5
279.579	599.5
279.81	625.5
280.042	578.5
280.273	596.5
280.505	620.5
280.736	645.5
280.968	656.5
281.199	730.5
281.431	814.5
281.662	839.5
281.894	746.5
282.125	721.5
282.356	690.5
282.588	682.5
282.819	726.5
283.051	756.5
283.282	860.5
283.513	1044.5
283.745	1487.5
283.976	2380.5
284.207	3390.5
284.439	3008.5
284.67	1740.5
284.901	1443.5
285.132	1413.5
285.364	1379.5
285.595	1088.5
285.826	996.5
286.057	1163.5
286.288	1615.5
286.52	2138.5
286.751	1974.5
286.982	1234.5
287.213	923.5
287.444	823.5
287.675	759.5
287.906	737.5
288.138	721.5
288.369	702.5
288.6	687.5
288.831	688.5
289.062	715.5
289.293	708.5
289.524	712.5
289.755	731.5
289.986	731.5
290.217	737.5
290.448	746.5
290.679	748.5
290.91	753.5
291.141	756.5
291.371	822.5
291.602	864.5
291.833	791.5
292.064	741.5
292.295	689.5
292.526	679.5
292.757	690.5
292.987	694.5
293.218	660.5
293.449	664.5
293.68	681.5
293.91	664.5
294.141	673.5
294.372	677.5
294.603	693.5
294.833	684.5
295.064	692.5
295.295	667.5
295.525	698.5
295.756	669.5
295.987	660.5
296.217	695.5
296.448	682.5
296.679	680.5
296.909	686.5
297.14	706.5
297.37	697.5
297.601	698.5
297.831	674.5
298.062	724.5
298.292	691.5
298.523	729.5
298.753	712.5
298.984	723.5
299.214	733.5
299.445	714.5
299.675	766.5
299.905	743.5
300.136	793.5
300.366	889.5
300.597	1126.5
300.827	1563.5
301.057	2164.5
301.288	2103.5
301.518	1368.5
301.748	1011.5
301.979	940.5
302.209	930.5
302.439	938.5
302.669	975.5
302.9	1204.5
303.13	1639.5
303.36	2511.5
303.59	3313.5
303.82	2934.5
304.051	1657.5
304.281	1189.5
304.511	966.5
304.741	928.5
304.971	906.5
305.201	862.5
305.431	828.5
305.661	818.5
305.891	826.5
306.121	812.5
306.352	787.5
306.582	781.5
306.812	758.5
307.042	780.5
307.272	776.5
307.502	771.5
307.731	782.5
307.961	766.5
308.191	761.5
308.421	777.5
308.651	785.5
308.881	755.5
309.111	787.5
309.341	779.5
309.571	792.5
309.8	788.5
310.03	820.5
310.26	785.5
310.49	800.5
310.72	800.5
310.949	786.5
311.179	814.5
311.409	826.5
311.639	841.5
311.868	817.5
312.098	837.5
312.328	827.5
312.557	824.5
312.787	820.5
313.017	839.5
313.246	838.5
313.476	850.5
313.706	902.5
313.935	919.5
314.165	949.5
314.394	995.5
314.624	960.5
314.853	920.5
315.083	915.5
315.312	931.5
315.542	914.5
315.771	959.5
316.001	926.5
316.23	972.5
316.46	1011.5
316.689	1083.5
316.919	1346.5
317.148	1952.5
317.377	2942.5
317.607	4423.5
317.836	4547.5
318.065	2610.5
318.295	1632.5
318.524	1295.5
318.753	1131.5
318.983	1074.5
319.212	1033.5
319.441	1009.5
319.67	1007.5
319.9	1001.5
320.129	979.5
320.358	992.5
320.587	984.5
320.816	981.5
321.046	978.5
321.275	1015.5
321.504	1000.5
321.733	1012.5
321.962	1025.5
322.191	1019.5
322.42	1055.5
322.649	1047.5
322.878	1022.5
323.108	1056.5
323.337	1056.5
323.566	1090.5
323.795	1091.5
324.024	1113.5
324.253	1123.5
324.482	1163.5
324.71	1223.5
324.939	1286.5
325.168	1328.5
325.397	1351.5
325.626	1604.5
325.855	2288.5
326.084	3604.5
326.313	5404.5
326.542	5676.5
326.77	3484.5
326.999	2255.5
327.228	1908.5
327.457	1790.5
327.686	1822.5
327.914	1946.5
328.143	2204.5
328.372	2597.5
328.6	2800.5
328.829	2556.5
329.058	2230.5
329.287	2010.5
329.515	1830.5
329.744	1726.5
329.972	1634.5
330.201	1544.5
330.43	1494.5
330.658	1454.5
330.887	1442.5
331.115	1415.5
331.344	1402.5
331.572	1409.5
331.801	1417.5
332.03	1413.5
332.258	1451.5
332.486	1546.5
332.715	1755.5
332.943	2123.5
333.172	2578.5
333.4	2582.5
333.629	1959.5
333.857	1802.5
334.085	1771.5
334.314	1870.5
334.542	1986.5
334.771	2315.5
334.999	2719.5
335.227	3394.5
335.455	3711.5
335.684	3410.5
335.912	2864.5
336.14	2499.5
336.369	2238.5
336.597	2054.5
336.825	1912.5
337.053	1793.5
337.281	1715.5
337.51	1629.5
337.738	1578.5
337.966	1513.5
338.194	1458.5
338.422	1441.5
338.65	1401.5
338.878	1371.5
339.106	1326.5
339.334	1330.5
339.562	1282.5
339.79	1301.5
340.018	1259.5
340.246	1251.5
340.474	1256.5
340.702	1255.5
340.93	1248.5
341.158	1285.5
341.386	1250.5
341.614	1259.5
341.842	1223.5
342.07	1200.5
342.298	1170.5
342.526	1147.5
342.754	1151.5
342.981	1168.5
343.209	1138.5
343.437	1144.5
343.665	1176.5
343.893	1168.5
344.12	1212.5
344.348	1168.5
344.576	1161.5
344.804	1143.5
345.031	1122.5
345.259	1098.5
345.487	1080.5
345.714	1077.5
345.942	1073.5
346.17	1073.5
346.397	1096.5
346.625	1091.5
346.853	1045.5
347.08	1070.5
347.308	1071.5
347.535	1062.5
347.763	1061.5
347.99	1080.5
348.218	1032.5
348.445	1057.5
348.673	1061.5
348.9	1048.5
349.128	1060.5
349.355	1039.5
349.583	1023.5
349.81	1042.5
350.037	1040.5
350.265	1054.5
350.492	1024.5
350.72	998.5
350.947	1010.5
351.174	1022.5
351.402	1027.5
351.629	1043.5
351.856	1006.5
352.083	1042.5
352.311	1040.5
352.538	1028.5
352.765	1016.5
352.992	1023.5
353.22	979.5
353.447	999.5
353.674	1028.5
353.901	1049.5
354.128	1017.5
354.355	1026.5
354.583	1027.5
354.81	1024.5
355.037	1027.5
355.264	1038.5
355.491	1048.5
355.718	1030.5
355.945	1040.5
356.172	1053.5
356.399	1043.5
356.626	1046.5
356.853	1068.5
357.08	1059.5
357.307	1091.5
357.534	1079.5
357.761	1099.5
357.988	1087.5
358.215	1092.5
358.441	1107.5
358.668	1064.5
358.895	1082.5
359.122	1078.5
359.349	1087.5
359.576	1095.5
359.802	1087.5
360.029	1068.5
360.256	1080.5
360.483	1086.5
360.709	1090.5
360.936	1083.5
361.163	1080.5
361.39	1082.5
361.616	1098.5
361.843	1108.5
362.07	1093.5
362.296	1076.5
362.523	1112.5
362.749	1103.5
362.976	1115.5
363.203	1074.5
363.429	1074.5
363.656	1104.5
363.882	1081.5
364.109	1083.5
364.335	1066.5
364.562	1106.5
364.788	1089.5
365.015	1070.5
365.241	1106.5
365.468	1175.5
365.694	1225.5
365.92	1158.5
366.147	1116.5
366.373	1103.5
366.599	1121.5
366.826	1116.5
367.052	1100.5
367.278	1136.5
367.505	1122.5
367.731	1138.5
367.957	1096.5
368.184	1124.5
368.41	1113.5
368.636	1156.5
368.862	1119.5
369.089	1131.5
369.315	1145.5
369.541	1127.5
369.767	1124.5
369.993	1119.5
370.219	1128.5
370.445	1140.5
370.672	1128.5
370.898	1129.5
371.124	1112.5
371.35	1156.5
371.576	1185.5
371.802	1163.5
372.028	1184.5
372.254	1168.5
372.48	1179.5
372.706	1177.5
372.932	1207.5
373.158	1182.5
373.384	1195.5
373.61	1191.5
373.835	1200.5
374.061	1205.5
374.287	1211.5
374.513	1210.5
374.739	1254.5
374.965	1206.5
375.191	1233.5
375.416	1219.5
375.642	1220.5
375.868	1202.5
376.094	1189.5
376.319	1204.5
376.545	1203.5
376.771	1201.5
376.997	1156.5
377.222	1155.5
377.448	1177.5
377.674	1173.5
377.899	1157.5
378.125	1159.5
378.35	1185.5
378.576	1190.5
378.802	1179.5
379.027	1172.5
379.253	1245.5
379.478	1298.5
379.704	1501.5
379.929	2150.5
380.155	3162.5
380.38	3466.5
380.606	2123.5
380.831	1479.5
381.057	1312.5
381.282	1230.5
381.507	1196.5
381.733	1211.5
381.958	1174.5
382.184	1179.5
382.409	1156.5
382.634	1141.5
382.86	1168.5
383.085	1163.5
383.31	1134.5
383.535	1139.5
383.761	1158.5
383.986	1153.5
384.211	1175.5
384.436	1200.5
384.662	1156.5
384.887	1223.5
385.112	1210.5
385.337	1208.5
385.562	1200.5
385.787	1190.5
386.013	1202.5
386.238	1212.5
386.463	1171.5
386.688	1218.5
386.913	1178.5
387.138	1189.5
387.363	1196.5
387.588	1203.5
387.813	1193.5
388.038	1222.5
388.263	1190.5
388.488	1187.5
388.713	1174.5
388.938	1217.5
389.163	1179.5
389.387	1205.5
389.612	1190.5
389.837	1196.5
390.062	1230.5
390.287	1190.5
390.512	1204.5
390.736	1194.5
390.961	1246.5
391.186	1215.5
391.411	1234.5
391.636	1237.5
391.86	1286.5
392.085	1282.5
392.31	1269.5
392.534	1236.5
392.759	1241.5
392.984	1253.5
393.208	1241.5
393.433	1284.5
393.658	1263.5
393.882	1241.5
394.107	1224.5
394.331	1201.5
394.556	1214.5
394.78	1226.5
395.005	1235.5
395.229	1242.5
395.454	1246.5
395.678	1256.5
395.903	1272.5
396.127	1243.5
396.352	1218.5
396.576	1244.5
396.801	1256.5
397.025	1271.5
397.249	1270.5
397.474	1280.5
397.698	1238.5
397.922	1264.5
398.147	1262.5
398.371	1290.5
398.595	1337.5
398.82	1337.5
399.044	1396.5
399.268	1450.5
399.492	1523.5
399.717	1539.5
399.941	1572.5
400.165	1551.5
400.389	1447.5
400.613	1406.5
400.837	1366.5
401.062	1334.5
401.286	1315.5
401.51	1320.5
401.734	1303.5
401.958	1343.5
402.182	1330.5
402.406	1331.5
402.63	1328.5
402.854	1360.5
403.078	1339.5
403.302	1332.5
403.526	1354.5
403.75	1359.5
403.974	1410.5
404.198	1381.5
404.422	1354.5
404.645	1365.5
404.869	1352.5
405.093	1369.5
405.317	1328.5
405.541	1367.5
405.765	1391.5
405.988	1382.5
406.212	1386.5
406.436	1391.5
406.66	1403.5
406.883	1408.5
407.107	1424.5
407.331	1484.5
407.555	1507.5
407.778	1439.5
408.002	1479.5
408.226	1428.5
408.449	1480.5
408.673	1446.5
408.896	1404.5
409.12	1355.5
409.344	1404.5
409.567	1380.5
409.791	1385.5
410.014	1387.5
410.238	1347.5
410.461	1371.5
410.685	1370.5
410.908	1393.5
411.132	1335.5
411.355	1323.5
411.578	1294.5
411.802	1335.5
412.025	1312.5
412.249	1326.5
412.472	1326.5
412.695	1303.5
412.919	1298.5
413.142	1276.5
413.365	1327.5
413.589	1302.5
413.812	1256.5
414.035	1295.5
414.258	1297.5
414.482	1305.5
414.705	1285.5
414.928	1295.5
415.151	1306.5
415.374	1326.5
415.597	1270.5
415.821	1230.5
416.044	1250.5
416.267	1280.5
416.49	1253.5
416.713	1220.5
416.936	1277.5
417.159	1237.5
417.382	1249.5
417.605	1255.5
417.828	1226.5
418.051	1254.5
418.274	1252.5
418.497	1273.5
418.72	1300.5
418.943	1298.5
419.166	1337.5
419.389	1414.5
419.611	1402.5
419.834	1310.5
420.057	1306.5
420.28	1267.5
420.503	1232.5
420.726	1255.5
420.948	1250.5
421.171	1259.5
421.394	1263.5
421.617	1284.5
421.839	1284.5
422.062	1274.5
422.285	1257.5
422.507	1247.5
422.73	1283.5
422.953	1282.5
423.175	1298.5
423.398	1310.5
423.621	1272.5
423.843	1264.5
424.066	1289.5
424.288	1237.5
424.511	1252.5
424.733	1239.5
424.956	1243.5
425.178	1241.5
425.401	1245.5
425.623	1270.5
425.846	1219.5
426.068	1228.5
426.291	1214.5
426.513	1190.5
426.735	1194.5
426.958	1182.5
427.18	1199.5
427.402	1172.5
427.625	1177.5
427.847	1168.5
428.069	1156.5
428.292	1202.5
428.514	1187.5
428.736	1184.5
428.958	1186.5
429.181	1147.5
429.403	1138.5
429.625	1155.5
429.847	1151.5
430.069	1172.5
430.292	1218.5
430.514	1218.5
430.736	1234.5
430.958	1203.5
431.18	1142.5
431.402	1176.5
431.624	1119.5
431.846	1117.5
432.068	1144.5
432.29	1132.5
432.512	1130.5
432.734	1150.5
432.956	1153.5
433.178	1180.5
433.4	1173.5
433.622	1178.5
433.844	1171.5
434.066	1140.5
434.287	1135.5
434.509	1192.5
434.731	1182.5
434.953	1191.5
435.175	1163.5
435.397	1206.5
435.618	1152.5
435.84	1138.5
436.062	1163.5
436.284	1118.5
436.505	1152.5
436.727	1158.5
436.949	1145.5
437.17	1191.5
437.392	1122.5
437.614	1126.5
437.835	1112.5
438.057	1097.5
438.278	1090.5
438.5	1110.5
438.721	1156.5
438.943	1191.5
439.165	1175.5
439.386	1207.5
439.608	1222.5
439.829	1194.5
440.05	1239.5
440.272	1246.5
440.493	1222.5
440.715	1200.5
440.936	1195.5
441.158	1182.5
441.379	1225.5
441.6	1236.5
441.822	1314.5
442.043	1333.5
442.264	1369.5
442.486	1296.5
442.707	1260.5
442.928	1214.5
443.149	1222.5
443.371	1215.5
443.592	1208.5
443.813	1258.5
444.034	1268.5
444.255	1257.5
444.476	1302.5
444.698	1306.5
444.919	1305.5
445.14	1406.5
445.361	1337.5
445.582	1282.5
445.803	1237.5
446.024	1257.5
446.245	1250.5
446.466	1250.5
446.687	1235.5
446.908	1231.5
447.129	1159.5
447.35	1190.5
447.571	1187.5
447.792	1148.5
448.013	1131.5
448.234	1128.5
448.455	1170.5
448.675	1150.5
448.896	1174.5
449.117	1205.5
449.338	1283.5
449.559	1366.5
449.779	1223.5
450	1156.5
450.221	1123.5
450.442	1117.5
450.662	1103.5
450.883	1127.5
451.104	1099.5
451.324	1108.5
451.545	1127.5
451.766	1101.5
451.986	1118.5
452.207	1191.5
452.428	1440.5
452.648	2036.5
452.869	1766.5
453.089	1282.5
453.31	1225.5
453.53	1208.5
453.751	1264.5
453.971	1366.5
454.192	1351.5
454.412	1154.5
454.633	1110.5
454.853	1080.5
455.073	1053.5
455.294	1063.5
455.514	1040.5
455.734	1063.5
455.955	1033.5
456.175	1051.5
456.395	1063.5
456.616	1035.5
456.836	1054.5
457.056	1062.5
457.276	1060.5
457.497	1120.5
457.717	1129.5
457.937	1112.5
458.157	1101.5
458.377	1095.5
458.598	1110.5
458.818	1137.5
459.038	1130.5
459.258	1148.5
459.478	1158.5
459.698	1131.5
459.918	1160.5
460.138	1176.5
460.358	1227.5
460.578	1223.5
460.798	1242.5
461.018	1243.5
461.238	1268.5
461.458	1235.5
461.678	1251.5
461.898	1265.5
462.118	1319.5
462.338	1303.5
462.558	1353.5
462.777	1358.5
462.997	1381.5
463.217	1473.5
463.437	1504.5
463.657	1506.5
463.876	1477.5
464.096	1411.5
464.316	1380.5
464.536	1322.5
464.755	1368.5
464.975	1318.5
465.195	1245.5
465.414	1218.5
465.634	1235.5
465.854	1182.5
466.073	1188.5
466.293	1158.5
466.512	1158.5
466.732	1159.5
466.951	1229.5
467.171	1286.5
467.391	1263.5
467.61	1186.5
467.829	1155.5
468.049	1133.5
468.268	1142.5
468.488	1136.5
468.707	1115.5
468.927	1143.5
469.146	1108.5
469.365	1153.5
469.585	1188.5
469.804	1177.5
470.023	1183.5
470.243	1200.5
470.462	1236.5
470.681	1292.5
470.901	1407.5
471.12	1622.5
471.339	1646.5
471.558	1377.5
471.777	1238.5
471.997	1168.5
472.216	1169.5
472.435	1134.5
472.654	1121.5
472.873	1098.5
473.092	1135.5
473.311	1144.5
473.53	1162.5
473.749	1161.5
473.968	1191.5
474.187	1145.5
474.406	1139.5
474.625	1140.5
474.844	1146.5
475.063	1145.5
475.282	1158.5
475.501	1152.5
475.72	1174.5
475.939	1145.5
476.158	1171.5
476.377	1200.5
476.596	1199.5
476.814	1216.5
477.033	1180.5
477.252	1187.5
477.471	1202.5
477.69	1259.5
477.908	1268.5
478.127	1297.5
478.346	1307.5
478.564	1336.5
478.783	1337.5
479.002	1336.5
479.22	1358.5
479.439	1355.5
479.658	1340.5
479.876	1342.5
480.095	1387.5
480.313	1406.5
480.532	1388.5
480.751	1358.5
480.969	1371.5
481.188	1357.5
481.406	1338.5
481.624	1325.5
481.843	1336.5
482.061	1317.5
482.28	1328.5
482.498	1342.5
482.717	1361.5
482.935	1381.5
483.153	1396.5
483.372	1390.5
483.59	1415.5
483.808	1435.5
484.027	1461.5
484.245	1516.5
484.463	1718.5
484.681	1920.5
484.9	1701.5
485.118	1588.5
485.336	1578.5
485.554	1615.5
485.772	1716.5
485.99	1898.5
486.209	2100.5
486.427	1730.5
486.645	1553.5
486.863	1539.5
487.081	1472.5
487.299	1450.5
487.517	1441.5
487.735	1471.5
487.953	1484.5
488.171	1460.5
488.389	1455.5
488.607	1416.5
488.825	1397.5
489.043	1393.5
489.261	1381.5
489.479	1397.5
489.696	1430.5
489.914	1435.5
490.132	1424.5
490.35	1436.5
490.568	1417.5
490.786	1448.5
491.003	1459.5
491.221	1475.5
491.439	1461.5
491.657	1520.5
491.874	1481.5
492.092	1560.5
492.31	1552.5
492.527	1547.5
492.745	1514.5
492.963	1532.5
493.18	1494.5
493.398	1485.5
493.615	1479.5
493.833	1493.5
494.05	1494.5
494.268	1493.5
494.485	1501.5
494.703	1495.5
494.92	1478.5
495.138	1482.5
495.355	1516.5
495.573	1501.5
495.79	1512.5
496.008	1528.5
496.225	1530.5
496.442	1500.5
496.66	1588.5
496.877	1631.5
497.094	1654.5
497.312	1589.5
497.529	1610.5
497.746	1623.5
497.963	1646.5
498.181	1674.5
498.398	1679.5
498.615	1746.5
498.832	1791.5
499.049	1904.5
499.267	2034.5
499.484	2144.5
499.701	2155.5
499.918	2208.5
500.135	2367.5
500.352	2443.5
500.569	2466.5
500.786	2438.5
501.003	2451.5
501.22	2304.5
501.437	2170.5
501.654	2048.5
501.871	1997.5
502.088	1863.5
502.305	1818.5
502.522	1747.5
502.739	1744.5
502.956	1660.5
503.172	1619.5
503.389	1547.5
503.606	1589.5
503.823	1533.5
504.04	1529.5
504.256	1504.5
504.473	1545.5
504.69	1528.5
504.907	1510.5
505.123	1503.5
505.34	1462.5
505.557	1430.5
505.773	1403.5
505.99	1418.5
506.207	1376.5
506.423	1364.5
506.64	1359.5
506.856	1343.5
507.073	1294.5
507.289	1318.5
507.506	1306.5
507.722	1316.5
507.939	1314.5
508.155	1281.5
508.372	1290.5
508.588	1285.5
508.805	1277.5
509.021	1305.5
509.238	1321.5
509.454	1336.5
509.67	1426.5
509.887	1308.5
510.103	1303.5
510.319	1267.5
510.536	1281.5
510.752	1255.5
510.968	1266.5
511.184	1237.5
511.401	1222.5
511.617	1210.5
511.833	1220.5
512.049	1185.5
512.265	1221.5
512.481	1206.5
512.698	1195.5
512.914	1227.5
513.13	1218.5
513.346	1210.5
513.562	1209.5
513.778	1253.5
513.994	1231.5
514.21	1276.5
514.426	1323.5
514.642	1359.5
514.858	1268.5
515.074	1286.5
515.29	1247.5
515.506	1229.5
515.721	1255.5
515.937	1270.5
516.153	1248.5
516.369	1314.5
516.585	1268.5
516.801	1310.5
517.016	1339.5
517.232	1361.5
517.448	1391.5
517.664	1377.5
517.879	1362.5
518.095	1371.5
518.311	1355.5
518.527	1341.5
518.742	1338.5
518.958	1355.5
519.173	1335.5
519.389	1345.5
519.605	1290.5
519.82	1246.5
520.036	1268.5
520.251	1228.5
520.467	1242.5
520.682	1202.5
520.898	1206.5
521.113	1192.5
521.329	1198.5
521.544	1229.5
521.76	1162.5
521.975	1185.5
522.19	1162.5
522.406	1217.5
522.621	1178.5
522.836	1193.5
523.052	1214.5
523.267	1144.5
523.482	1166.5
523.698	1179.5
523.913	1192.5
524.128	1147.5
524.343	1168.5
524.559	1200.5
524.774	1180.5
524.989	1203.5
525.204	1191.5
525.419	1179.5
525.634	1185.5
525.849	1185.5
526.064	1150.5
526.28	1159.5
526.495	1159.5
526.71	1165.5
526.925	1165.5
527.14	1173.5
527.355	1158.5
527.57	1158.5
527.785	1161.5
527.999	1175.5
528.214	1195.5
528.429	1226.5
528.644	1210.5
528.859	1278.5
529.074	1278.5
529.289	1264.5
529.503	1271.5
529.718	1288.5
529.933	1245.5
530.148	1226.5
530.363	1234.5
530.577	1254.5
530.792	1215.5
531.007	1218.5
531.221	1221.5
531.436	1232.5
531.651	1262.5
531.865	1282.5
532.08	1302.5
532.295	1330.5
532.509	1428.5
532.724	1411.5
532.938	1405.5
533.153	1434.5
533.367	1548.5
533.582	1557.5
533.796	1577.5
534.011	1536.5
534.225	1451.5
534.44	1430.5
534.654	1398.5
534.868	1398.5
535.083	1353.5
535.297	1355.5
535.511	1343.5
535.726	1342.5
535.94	1323.5
536.154	1286.5
536.369	1234.5
536.583	1251.5
536.797	1230.5
537.011	1216.5
537.225	1207.5
537.44	1194.5
537.654	1205.5
537.868	1202.5
538.082	1149.5
538.296	1166.5
538.51	1179.5
538.724	1154.5
538.938	1158.5
539.153	1165.5
539.367	1182.5
539.581	1162.5
539.795	1148.5
540.009	1146.5
540.222	1116.5
540.436	1138.5
540.65	1129.5
540.864	1150.5
541.078	1172.5
541.292	1224.5
541.506	1520.5
541.72	1546.5
541.934	1359.5
542.147	1266.5
542.361	1207.5
542.575	1162.5
542.789	1168.5
543.002	1101.5
543.216	1096.5
543.43	1108.5
543.644	1110.5
543.857	1102.5
544.071	1129.5
544.285	1152.5
544.498	1152.5
544.712	1157.5
544.925	1147.5
545.139	1119.5
545.352	1122.5
545.566	1152.5
545.779	1152.5
545.993	1138.5
546.206	1178.5
546.42	1180.5
546.633	1130.5
546.847	1142.5
547.06	1136.5
547.274	1158.5
547.487	1182.5
547.7	1151.5
547.914	1100.5
548.127	1132.5
548.34	1114.5
548.554	1114.5
548.767	1137.5
548.98	1129.5
549.193	1112.5
549.407	1159.5
549.62	1140.5
549.833	1173.5
550.046	1195.5
550.259	1123.5
550.473	1136.5
550.686	1138.5
550.899	1140.5
551.112	1149.5
551.325	1137.5
551.538	1154.5
551.751	1108.5
551.964	1104.5
552.177	1155.5
552.39	1155.5
552.603	1206.5
552.816	1215.5
553.029	1208.5
553.242	1257.5
553.455	1234.5
553.667	1228.5
553.88	1246.5
554.093	1262.5
554.306	1272.5
554.519	1270.5
554.732	1283.5
554.944	1308.5
555.157	1312.5
555.37	1328.5
555.583	1395.5
555.795	1426.5
556.008	1486.5
556.221	1660.5
556.433	1692.5
556.646	1720.5
556.859	1658.5
557.071	1627.5
557.284	1657.5
557.496	1566.5
557.709	1513.5
557.921	1538.5
558.134	1525.5
558.346	1514.5
558.559	1584.5
558.771	1643.5
558.984	1734.5
559.196	1835.5
559.409	1796.5
559.621	1695.5
559.833	1614.5
560.046	1512.5
560.258	1470.5
560.47	1428.5
560.683	1370.5
560.895	1348.5
561.107	1289.5
561.32	1294.5
561.532	1202.5
561.744	1184.5
561.956	1198.5
562.168	1188.5
562.381	1158.5
562.593	1160.5
562.805	1180.5
563.017	1150.5
563.229	1212.5
563.441	1308.5
563.653	1120.5
563.865	1062.5
564.077	1056.5
564.289	1029.5
564.501	1024.5
564.713	1071.5
564.925	1051.5
565.137	1059.5
565.349	1073.5
565.561	1042.5
565.773	1044.5
565.985	1063.5
566.197	1065.5
566.408	1075.5
566.62	1137.5
566.832	1158.5
567.044	1183.5
567.255	1148.5
567.467	1173.5
567.679	1174.5
567.891	1267.5
568.102	1410.5
568.314	1639.5
568.526	1401.5
568.737	1199.5
568.949	1084.5
569.161	1007.5
569.372	986.5
569.584	973.5
569.795	952.5
570.007	956.5
570.218	971.5
570.43	1006.5
570.641	906.5
570.853	888.5
571.064	887.5
571.276	883.5
571.487	839.5
571.698	839.5
571.91	836.5
572.121	830.5
572.333	803.5
572.544	857.5
572.755	913.5
572.966	1070.5
573.178	952.5
573.389	804.5
573.6	783.5
573.811	809.5
574.023	782.5
574.234	775.5
574.445	778.5
574.656	780.5
574.867	766.5
575.078	765.5
575.289	744.5
575.501	764.5
575.712	768.5
575.923	750.5
576.134	759.5
576.345	775.5
576.556	777.5
576.767	757.5
576.978	759.5
577.188	816.5
577.399	772.5
577.61	747.5
577.821	761.5
578.032	780.5
578.243	788.5
578.454	801.5
578.665	818.5
578.875	828.5
579.086	862.5
579.297	891.5
579.508	944.5
579.718	998.5
579.929	1109.5
580.14	1235.5
580.35	1249.5
580.561	1185.5
580.772	1076.5
580.982	1036.5
581.193	983.5
581.403	947.5
581.614	896.5
581.825	892.5
582.035	840.5
582.246	812.5
582.456	822.5
582.667	807.5
582.877	791.5
583.087	756.5
583.298	730.5
583.508	702.5
583.719	698.5
583.929	702.5
584.139	683.5
584.35	660.5
584.56	642.5
584.77	666.5
584.981	656.5
585.191	643.5
585.401	631.5
585.611	637.5
585.821	651.5
586.032	626.5
586.242	614.5
586.452	600.5
586.662	595.5
586.872	602.5
587.082	590.5
587.292	583.5
587.502	580.5
587.713	586.5
587.923	544.5
588.133	561.5
588.343	560.5
588.553	569.5
588.762	567.5
588.972	559.5
589.182	579.5
589.392	581.5
589.602	565.5
589.812	537.5
590.022	537.5
590.232	556.5
590.441	530.5
590.651	534.5
590.861	523.5
591.071	538.5
591.281	536.5
591.49	541.5
591.7	548.5
591.91	534.5
592.119	535.5
592.329	534.5
592.539	549.5
592.748	563.5
592.958	563.5
593.167	574.5
593.377	578.5
593.587	576.5
593.796	578.5
594.006	598.5
594.215	555.5
594.424	585.5
594.634	558.5
594.843	578.5
595.053	543.5
595.262	531.5
595.472	512.5
595.681	513.5
595.89	523.5
596.1	516.5
596.309	505.5
596.518	498.5
596.727	501.5
596.937	503.5
597.146	497.5
597.355	495.5
597.564	504.5
597.774	502.5
597.983	479.5
598.192	460.5
598.401	465.5
598.61	454.5
598.819	451.5
599.028	430.5
599.237	448.5
599.446	436.5
599.655	456.5
599.864	449.5
600.073	463.5
600.282	456.5
600.491	430.5
600.7	444.5
600.909	470.5
601.118	472.5
601.327	452.5
601.536	447.5
601.745	475.5
601.953	538.5
602.162	602.5
602.371	503.5
602.58	447.5
602.789	462.5
602.997	461.5
603.206	455.5
603.415	453.5
603.623	443.5
603.832	452.5
604.041	452.5
604.249	428.5
604.458	454.5
604.666	421.5
604.875	425.5
605.084	425.5
605.292	447.5
605.501	432.5
605.709	451.5
605.918	451.5
606.126	469.5
606.334	434.5
606.543	458.5
606.751	472.5
606.96	536.5
607.168	575.5
607.376	498.5
607.585	478.5
607.793	439.5
608.001	443.5
608.21	450.5
608.418	435.5
608.626	424.5
608.834	411.5
609.043	431.5
609.251	421.5
609.459	423.5
609.667	452.5
609.875	416.5
610.083	423.5
610.291	417.5
610.499	408.5
610.707	376.5
610.916	411.5
611.124	423.5
611.332	404.5
611.54	397.5
611.748	411.5
611.955	388.5
612.163	396.5
612.371	410.5
612.579	396.5
612.787	393.5
612.995	391.5
613.203	395.5
613.411	404.5
613.618	395.5
613.826	382.5
614.034	403.5
614.242	401.5
614.449	396.5
614.657	388.5
614.865	401.5
615.072	397.5
615.28	414.5
615.488	394.5
615.695	400.5
615.903	388.5
616.111	410.5
616.318	403.5
616.526	377.5
616.733	386.5
616.941	382.5
617.148	388.5
617.356	407.5
617.563	401.5
617.771	396.5
617.978	380.5
618.185	391.5
618.393	384.5
618.6	387.5
618.807	377.5
619.015	375.5
619.222	386.5
619.429	374.5
619.637	370.5
619.844	374.5
620.051	375.5
620.258	355.5
620.466	346.5
620.673	359.5
620.88	361.5
621.087	366.5
621.294	352.5
621.501	342.5
621.708	350.5
621.915	364.5
622.122	362.5
622.329	357.5
622.536	360.5
622.743	352.5
622.95	350.5
623.157	344.5
623.364	353.5
623.571	360.5
623.778	374.5
623.985	349.5
624.192	327.5
624.399	332.5
624.606	348.5
624.812	326.5
625.019	330.5
625.226	348.5
625.433	342.5
625.639	341.5
625.846	336.5
626.053	330.5
626.259	322.5
626.466	323.5
626.673	324.5
626.879	297.5
627.086	327.5
627.293	347.5
627.499	324.5
627.706	337.5
627.912	332.5
628.119	330.5
628.325	342.5
628.532	322.5
628.738	335.5
628.945	283.5
629.151	326.5
629.357	319.5
629.564	321.5
629.77	319.5
629.976	324.5
630.183	302.5
630.389	306.5
630.595	322.5
630.802	314.5
631.008	318.5
631.214	313.5
631.42	318.5
631.627	296.5
631.833	292.5
632.039	304.5
632.245	294.5
632.451	320.5
632.657	314.5
632.863	302.5
633.069	303.5
633.275	299.5
633.481	283.5
633.688	307.5
633.893	296.5
634.099	302.5
634.305	305.5
634.511	311.5
634.717	307.5
634.923	326.5
635.129	342.5
635.335	386.5
635.541	338.5
635.747	335.5
635.952	307.5
636.158	327.5
636.364	319.5
636.57	307.5
636.775	297.5
636.981	298.5
637.187	311.5
637.392	321.5
637.598	320.5
637.804	331.5
638.009	322.5
638.215	320.5
638.421	309.5
638.626	317.5
638.832	304.5
639.037	310.5
639.243	309.5
639.448	311.5
639.654	322.5
639.859	314.5
640.065	308.5
640.27	310.5
640.475	322.5
640.681	313.5
640.886	316.5
641.091	326.5
641.297	326.5
641.502	319.5
641.707	345.5
641.913	342.5
642.118	339.5
642.323	346.5
642.528	349.5
642.733	344.5
642.939	366.5
643.144	361.5
643.349	357.5
643.554	369.5
643.759	370.5
643.964	408.5
644.169	430.5
644.374	420.5
644.579	473.5
644.784	517.5
644.989	541.5
645.194	654.5
645.399	743.5
645.604	820.5
645.809	632.5
646.014	513.5
646.219	430.5
646.423	407.5
646.628	363.5
646.833	356.5
647.038	318.5
647.243	330.5
647.447	321.5
647.652	295.5
647.857	311.5
648.062	307.5
648.266	296.5
648.471	296.5
648.676	284.5
648.88	275.5
649.085	281.5
649.289	283.5
649.494	273.5
649.698	296.5
649.903	266.5
650.107	254.5
650.312	274.5
650.516	259.5
650.721	243.5
650.925	244.5
651.13	233.5
651.334	229.5
651.539	247.5
651.743	230.5
651.947	238.5
652.152	229.5
652.356	235.5
652.56	254.5
652.764	274.5
652.969	247.5
653.173	239.5
653.377	236.5
653.581	226.5
653.785	216.5
653.99	213.5
654.194	228.5
654.398	192.5
654.602	203.5
654.806	220.5
655.01	216.5
655.214	218.5
655.418	202.5
655.622	198.5
655.826	219.5
656.03	209.5
656.234	210.5
656.438	229.5
656.642	226.5
656.846	229.5
657.049	214.5
657.253	203.5
657.457	182.5
657.661	171.5
657.865	166.5
658.068	166.5
658.272	167.5
658.476	149.5
658.68	151.5
658.883	147.5
659.087	139.5
659.291	140.5
659.494	138.5
659.698	124.5
659.901	132.5
660.105	129.5
660.309	117.5
660.512	112.5
660.716	108.5
660.919	92.5
661.123	114.5
661.326	96.5
661.53	112.5
661.733	114.5
661.936	113.5
662.14	103.5
662.343	104.5
662.546	93.5
662.75	94.5
662.953	94.5
663.156	95.5
663.36	84.5
663.563	79.5
663.766	79.5
663.969	90.5
664.173	97.5
664.376	85.5
664.579	81.5
664.782	80.5
664.985	86.5
665.188	82.5
665.391	87.5
665.594	79.5
665.797	87.5
666	89.5
666.203	84.5
666.406	94.5
666.609	83.5
666.812	79.5
667.015	89.5
667.218	92.5
667.421	82.5
667.624	81.5
667.827	91.5
668.03	81.5
668.232	73.5
668.435	78.5
668.638	87.5
668.841	90.5
669.043	87.5
669.246	85.5
669.449	86.5
669.651	85.5
669.854	87.5
670.057	86.5
670.259	79.5
670.462	71.5
670.665	90.5
670.867	90.5
671.07	96.5
671.272	93.5
671.475	88.5
671.677	84.5
671.88	82.5
672.082	80.5
672.284	84.5
672.487	88.5
672.689	82.5
672.892	84.5
