Data from SnStandardFlinnAPT0064_LampEnergy10_LIBS07252019.E.O._I.C._HRD10591_15-22-22-494.txt Node
Date: Thu Jul 25 15:22:22 EDT 2019
User: cochatt
Spectrometer: HR+D1059
Trigger mode: 1
Integration Time (sec): 1.000000E-1
Scans to average: 1
Electric dark correction enabled: true
Nonlinearity correction enabled: false
Boxcar width: 0
XAxis mode: Wavelengths
Number of Pixels in Spectrum: 2048
>>>>>Begin Spectral Data<<<<<
223.165	-20.19
223.4	-20.19
223.635	-20.19
223.869	-26.19
224.104	-17.19
224.338	-6.19
224.573	-13.19
224.808	-16.19
225.042	-2.19
225.277	-5.19
225.511	4.81
225.746	12.81
225.98	6.81
226.215	4.81
226.449	22.81
226.683	2.81
226.918	24.81
227.152	26.81
227.387	37.81
227.621	44.81
227.856	52.81
228.09	45.81
228.324	48.81
228.559	44.81
228.793	119.81
229.027	302.81
229.262	357.81
229.496	313.81
229.73	301.81
229.964	298.81
230.199	285.81
230.433	292.81
230.667	308.81
230.901	312.81
231.136	315.81
231.37	341.81
231.604	400.81
231.838	452.81
232.072	503.81
232.306	554.81
232.541	466.81
232.775	398.81
233.009	392.81
233.243	418.81
233.477	455.81
233.711	517.81
233.945	565.81
234.179	522.81
234.413	440.81
234.647	424.81
234.881	447.81
235.115	509.81
235.349	601.81
235.583	767.81
235.817	1004.81
236.051	983.81
236.285	657.81
236.519	525.81
236.753	489.81
236.987	502.81
237.221	550.81
237.455	519.81
237.689	450.81
237.922	435.81
238.156	454.81
238.39	482.81
238.624	485.81
238.858	485.81
239.091	489.81
239.325	483.81
239.559	491.81
239.793	519.81
240.027	499.81
240.26	534.81
240.494	541.81
240.728	574.81
240.961	590.81
241.195	628.81
241.429	671.81
241.662	684.81
241.896	784.81
242.13	935.81
242.363	1234.81
242.597	1562.81
242.83	1501.81
243.064	1524.81
243.298	1776.81
243.531	1495.81
243.765	931.81
243.998	757.81
244.232	675.81
244.465	671.81
244.699	628.81
244.932	639.81
245.166	640.81
245.399	654.81
245.633	645.81
245.866	639.81
246.099	644.81
246.333	655.81
246.566	632.81
246.8	621.81
247.033	638.81
247.266	612.81
247.5	633.81
247.733	674.81
247.966	701.81
248.2	743.81
248.433	848.81
248.666	968.81
248.899	945.81
249.133	840.81
249.366	853.81
249.599	913.81
249.832	1051.81
250.066	1052.81
250.299	860.81
250.532	768.81
250.765	738.81
250.998	742.81
251.231	714.81
251.465	732.81
251.698	712.81
251.931	722.81
252.164	723.81
252.397	746.81
252.63	777.81
252.863	769.81
253.096	785.81
253.329	760.81
253.562	761.81
253.795	779.81
254.028	793.81
254.261	784.81
254.494	889.81
254.727	1005.81
254.96	1211.81
255.193	1238.81
255.426	933.81
255.659	845.81
255.892	840.81
256.124	826.81
256.357	868.81
256.59	906.81
256.823	932.81
257.056	1111.81
257.289	1310.81
257.521	1473.81
257.754	1176.81
257.987	939.81
258.22	906.81
258.452	917.81
258.685	914.81
258.918	924.81
259.151	970.81
259.383	1084.81
259.616	1193.81
259.849	1283.81
260.081	1062.81
260.314	969.81
260.547	944.81
260.779	921.81
261.012	920.81
261.244	948.81
261.477	978.81
261.71	982.81
261.942	983.81
262.175	1008.81
262.407	1064.81
262.64	1048.81
262.872	1087.81
263.105	1147.81
263.337	1173.81
263.57	1261.81
263.802	1293.81
264.035	1278.81
264.267	1338.81
264.499	1385.81
264.732	1422.81
264.964	1414.81
265.197	1407.81
265.429	1429.81
265.661	1448.81
265.894	1552.81
266.126	1732.81
266.358	1958.81
266.591	1872.81
266.823	1562.81
267.055	1452.81
267.287	1370.81
267.52	1317.81
267.752	1300.81
267.984	1266.81
268.216	1274.81
268.448	1226.81
268.681	1187.81
268.913	1208.81
269.145	1219.81
269.377	1220.81
269.609	1217.81
269.841	1237.81
270.073	1368.81
270.306	1561.81
270.538	2122.81
270.77	3147.81
271.002	3878.81
271.234	2714.81
271.466	1806.81
271.698	1497.81
271.93	1359.81
272.162	1291.81
272.394	1236.81
272.626	1266.81
272.858	1228.81
273.09	1202.81
273.322	1189.81
273.553	1176.81
273.785	1198.81
274.017	1170.81
274.249	1181.81
274.481	1188.81
274.713	1190.81
274.945	1179.81
275.176	1186.81
275.408	1204.81
275.64	1188.81
275.872	1221.81
276.104	1211.81
276.335	1236.81
276.567	1256.81
276.799	1274.81
277.031	1260.81
277.262	1329.81
277.494	1371.81
277.726	1524.81
277.957	1794.81
278.189	2093.81
278.421	1928.81
278.652	1721.81
278.884	1612.81
279.115	1506.81
279.347	1402.81
279.579	1357.81
279.81	1383.81
280.042	1372.81
280.273	1406.81
280.505	1437.81
280.736	1466.81
280.968	1554.81
281.199	1744.81
281.431	2037.81
281.662	2109.81
281.894	1761.81
282.125	1605.81
282.356	1586.81
282.588	1650.81
282.819	1650.81
283.051	1766.81
283.282	1950.81
283.513	2416.81
283.745	3570.81
283.976	5640.81
284.207	8073.81
284.439	7269.81
284.67	4369.81
284.901	3640.81
285.132	3632.81
285.364	3512.81
285.595	2651.81
285.826	2345.81
286.057	2749.81
286.288	3803.81
286.52	5177.81
286.751	4769.81
286.982	2960.81
287.213	2185.81
287.444	1886.81
287.675	1849.81
287.906	1742.81
288.138	1686.81
288.369	1623.81
288.6	1670.81
288.831	1627.81
289.062	1655.81
289.293	1647.81
289.524	1628.81
289.755	1659.81
289.986	1648.81
290.217	1672.81
290.448	1698.81
290.679	1692.81
290.91	1748.81
291.141	1858.81
291.371	1981.81
291.602	2112.81
291.833	1893.81
292.064	1729.81
292.295	1642.81
292.526	1646.81
292.757	1597.81
292.987	1586.81
293.218	1535.81
293.449	1547.81
293.68	1563.81
293.91	1579.81
294.141	1554.81
294.372	1524.81
294.603	1578.81
294.833	1538.81
295.064	1539.81
295.295	1532.81
295.525	1517.81
295.756	1546.81
295.987	1520.81
296.217	1565.81
296.448	1512.81
296.679	1546.81
296.909	1564.81
297.14	1591.81
297.37	1577.81
297.601	1573.81
297.831	1607.81
298.062	1612.81
298.292	1596.81
298.523	1632.81
298.753	1674.81
298.984	1666.81
299.214	1735.81
299.445	1727.81
299.675	1757.81
299.905	1829.81
300.136	1924.81
300.366	2128.81
300.597	2733.81
300.827	3840.81
301.057	5194.81
301.288	5183.81
301.518	3261.81
301.748	2514.81
301.979	2326.81
302.209	2202.81
302.439	2221.81
302.669	2427.81
302.9	2892.81
303.13	4116.81
303.36	6198.81
303.59	8106.81
303.82	7028.81
304.051	4066.81
304.281	2966.81
304.511	2473.81
304.741	2244.81
304.971	2131.81
305.201	2047.81
305.431	1908.81
305.661	1923.81
305.891	1850.81
306.121	1865.81
306.352	1824.81
306.582	1796.81
306.812	1820.81
307.042	1857.81
307.272	1812.81
307.502	1804.81
307.731	1764.81
307.961	1804.81
308.191	1782.81
308.421	1742.81
308.651	1756.81
308.881	1777.81
309.111	1795.81
309.341	1795.81
309.571	1773.81
309.8	1822.81
310.03	1845.81
310.26	1846.81
310.49	1806.81
310.72	1838.81
310.949	1842.81
311.179	1868.81
311.409	1877.81
311.639	1915.81
311.868	1868.81
312.098	1901.81
312.328	1918.81
312.557	1917.81
312.787	1932.81
313.017	1930.81
313.246	1960.81
313.476	1976.81
313.706	2031.81
313.935	2207.81
314.165	2306.81
314.394	2436.81
314.624	2336.81
314.853	2144.81
315.083	2144.81
315.312	2170.81
315.542	2131.81
315.771	2202.81
316.001	2199.81
316.23	2276.81
316.46	2416.81
316.689	2614.81
316.919	3171.81
317.148	4620.81
317.377	7079.81
317.607	10496.81
317.836	10746.81
318.065	6389.81
318.295	4102.81
318.524	3322.81
318.753	2899.81
318.983	2676.81
319.212	2517.81
319.441	2452.81
319.67	2398.81
319.9	2343.81
320.129	2336.81
320.358	2263.81
320.587	2268.81
320.816	2313.81
321.046	2352.81
321.275	2305.81
321.504	2320.81
321.733	2356.81
321.962	2430.81
322.191	2477.81
322.42	2446.81
322.649	2474.81
322.878	2445.81
323.108	2410.81
323.337	2512.81
323.566	2515.81
323.795	2568.81
324.024	2621.81
324.253	2666.81
324.482	2813.81
324.71	2969.81
324.939	3145.81
325.168	3224.81
325.397	3335.81
325.626	3922.81
325.855	5536.81
326.084	8728.81
326.313	12720.81
326.542	13312.81
326.77	8793.81
326.999	5775.81
327.228	4762.81
327.457	4550.81
327.686	4641.81
327.914	5028.81
328.143	5791.81
328.372	6867.81
328.6	7589.81
328.829	6627.81
329.058	5618.81
329.287	4976.81
329.515	4465.81
329.744	4086.81
329.972	3924.81
330.201	3757.81
330.43	3684.81
330.658	3570.81
330.887	3519.81
331.115	3501.81
331.344	3399.81
331.572	3442.81
331.801	3460.81
332.03	3492.81
332.258	3457.81
332.486	3643.81
332.715	4225.81
332.943	5289.81
333.172	6570.81
333.4	6501.81
333.629	4862.81
333.857	4347.81
334.085	4404.81
334.314	4593.81
334.542	4998.81
334.771	5884.81
334.999	7176.81
335.227	9051.81
335.455	10142.81
335.684	9076.81
335.912	7418.81
336.14	6264.81
336.369	5537.81
336.597	5068.81
336.825	4704.81
337.053	4396.81
337.281	4146.81
337.51	3974.81
337.738	3758.81
337.966	3609.81
338.194	3504.81
338.422	3382.81
338.65	3300.81
338.878	3235.81
339.106	3176.81
339.334	3173.81
339.562	3121.81
339.79	3025.81
340.018	3005.81
340.246	2979.81
340.474	2980.81
340.702	2952.81
340.93	2985.81
341.158	2925.81
341.386	2988.81
341.614	2939.81
341.842	2870.81
342.07	2850.81
342.298	2760.81
342.526	2748.81
342.754	2725.81
342.981	2673.81
343.209	2626.81
343.437	2686.81
343.665	2754.81
343.893	2755.81
344.12	2827.81
344.348	2759.81
344.576	2705.81
344.804	2656.81
345.031	2648.81
345.259	2596.81
345.487	2514.81
345.714	2557.81
345.942	2553.81
346.17	2511.81
346.397	2530.81
346.625	2509.81
346.853	2510.81
347.08	2495.81
347.308	2460.81
347.535	2502.81
347.763	2483.81
347.99	2440.81
348.218	2429.81
348.445	2469.81
348.673	2422.81
348.9	2413.81
349.128	2425.81
349.355	2416.81
349.583	2424.81
349.81	2442.81
350.037	2382.81
350.265	2362.81
350.492	2379.81
350.72	2355.81
350.947	2330.81
351.174	2360.81
351.402	2377.81
351.629	2400.81
351.856	2330.81
352.083	2408.81
352.311	2343.81
352.538	2403.81
352.765	2364.81
352.992	2336.81
353.22	2296.81
353.447	2363.81
353.674	2356.81
353.901	2387.81
354.128	2403.81
354.355	2362.81
354.583	2348.81
354.81	2383.81
355.037	2404.81
355.264	2434.81
355.491	2392.81
355.718	2429.81
355.945	2394.81
356.172	2428.81
356.399	2436.81
356.626	2472.81
356.853	2469.81
357.08	2456.81
357.307	2546.81
357.534	2540.81
357.761	2578.81
357.988	2544.81
358.215	2494.81
358.441	2486.81
358.668	2531.81
358.895	2476.81
359.122	2482.81
359.349	2488.81
359.576	2501.81
359.802	2476.81
360.029	2508.81
360.256	2534.81
360.483	2491.81
360.709	2518.81
360.936	2518.81
361.163	2551.81
361.39	2549.81
361.616	2584.81
361.843	2530.81
362.07	2537.81
362.296	2516.81
362.523	2501.81
362.749	2539.81
362.976	2560.81
363.203	2487.81
363.429	2497.81
363.656	2540.81
363.882	2540.81
364.109	2483.81
364.335	2468.81
364.562	2522.81
364.788	2507.81
365.015	2562.81
365.241	2628.81
365.468	2763.81
365.694	2895.81
365.92	2784.81
366.147	2531.81
366.373	2602.81
366.599	2576.81
366.826	2609.81
367.052	2544.81
367.278	2583.81
367.505	2574.81
367.731	2594.81
367.957	2572.81
368.184	2592.81
368.41	2650.81
368.636	2599.81
368.862	2619.81
369.089	2610.81
369.315	2628.81
369.541	2592.81
369.767	2602.81
369.993	2637.81
370.219	2581.81
370.445	2630.81
370.672	2660.81
370.898	2616.81
371.124	2669.81
371.35	2720.81
371.576	2658.81
371.802	2719.81
372.028	2686.81
372.254	2757.81
372.48	2736.81
372.706	2818.81
372.932	2788.81
373.158	2713.81
373.384	2719.81
373.61	2722.81
373.835	2786.81
374.061	2725.81
374.287	2796.81
374.513	2809.81
374.739	2840.81
374.965	2865.81
375.191	2866.81
375.416	2887.81
375.642	2843.81
375.868	2796.81
376.094	2760.81
376.319	2737.81
376.545	2764.81
376.771	2747.81
376.997	2708.81
377.222	2712.81
377.448	2710.81
377.674	2742.81
377.899	2745.81
378.125	2728.81
378.35	2660.81
378.576	2685.81
378.802	2671.81
379.027	2829.81
379.253	2876.81
379.478	2986.81
379.704	3628.81
379.929	5243.81
380.155	7918.81
380.38	8532.81
380.606	5180.81
380.831	3598.81
381.057	3168.81
381.282	2923.81
381.507	2822.81
381.733	2730.81
381.958	2740.81
382.184	2682.81
382.409	2690.81
382.634	2648.81
382.86	2653.81
383.085	2615.81
383.31	2631.81
383.535	2637.81
383.761	2651.81
383.986	2685.81
384.211	2690.81
384.436	2720.81
384.662	2730.81
384.887	2761.81
385.112	2744.81
385.337	2775.81
385.562	2757.81
385.787	2760.81
386.013	2760.81
386.238	2785.81
386.463	2775.81
386.688	2792.81
386.913	2727.81
387.138	2727.81
387.363	2710.81
387.588	2698.81
387.813	2736.81
388.038	2717.81
388.263	2701.81
388.488	2748.81
388.713	2757.81
388.938	2712.81
389.163	2700.81
389.387	2754.81
389.612	2690.81
389.837	2691.81
390.062	2781.81
390.287	2767.81
390.512	2786.81
390.736	2825.81
390.961	2834.81
391.186	2849.81
391.411	2871.81
391.636	2888.81
391.86	2896.81
392.085	2868.81
392.31	2872.81
392.534	2783.81
392.759	2842.81
392.984	2830.81
393.208	2840.81
393.433	2816.81
393.658	2822.81
393.882	2773.81
394.107	2728.81
394.331	2759.81
394.556	2792.81
394.78	2838.81
395.005	2828.81
395.229	2843.81
395.454	2806.81
395.678	2885.81
395.903	2846.81
396.127	2839.81
396.352	2826.81
396.576	2850.81
396.801	2881.81
397.025	2902.81
397.249	2883.81
397.474	2944.81
397.698	2921.81
397.922	2979.81
398.147	2941.81
398.371	2941.81
398.595	3021.81
398.82	3042.81
399.044	3176.81
399.268	3271.81
399.492	3518.81
399.717	3604.81
399.941	3594.81
400.165	3492.81
400.389	3389.81
400.613	3236.81
400.837	3122.81
401.062	3102.81
401.286	3084.81
401.51	2998.81
401.734	3033.81
401.958	3049.81
402.182	3043.81
402.406	3032.81
402.63	3043.81
402.854	3068.81
403.078	3064.81
403.302	3050.81
403.526	3139.81
403.75	3123.81
403.974	3168.81
404.198	3148.81
404.422	3140.81
404.645	3179.81
404.869	3139.81
405.093	3169.81
405.317	3148.81
405.541	3162.81
405.765	3239.81
405.988	3244.81
406.212	3218.81
406.436	3202.81
406.66	3291.81
406.883	3233.81
407.107	3384.81
407.331	3418.81
407.555	3425.81
407.778	3414.81
408.002	3430.81
408.226	3340.81
408.449	3391.81
408.673	3265.81
408.896	3222.81
409.12	3176.81
409.344	3194.81
409.567	3126.81
409.791	3143.81
410.014	3128.81
410.238	3079.81
410.461	3115.81
410.685	3128.81
410.908	3094.81
411.132	3047.81
411.355	2987.81
411.578	3053.81
411.802	3070.81
412.025	2987.81
412.249	3034.81
412.472	3063.81
412.695	2942.81
412.919	2958.81
413.142	2938.81
413.365	2930.81
413.589	2988.81
413.812	2949.81
414.035	2961.81
414.258	2953.81
414.482	2996.81
414.705	2972.81
414.928	2992.81
415.151	2976.81
415.374	2915.81
415.597	2912.81
415.821	2854.81
416.044	2832.81
416.267	2830.81
416.49	2793.81
416.713	2829.81
416.936	2848.81
417.159	2830.81
417.382	2789.81
417.605	2745.81
417.828	2838.81
418.051	2854.81
418.274	2873.81
418.497	2853.81
418.72	2948.81
418.943	2888.81
419.166	3040.81
419.389	3200.81
419.611	3150.81
419.834	3017.81
420.057	2937.81
420.28	2882.81
420.503	2865.81
420.726	2866.81
420.948	2808.81
421.171	2802.81
421.394	2837.81
421.617	2824.81
421.839	2864.81
422.062	2875.81
422.285	2823.81
422.507	2887.81
422.73	2924.81
422.953	2931.81
423.175	2956.81
423.398	2917.81
423.621	2830.81
423.843	2869.81
424.066	2870.81
424.288	2830.81
424.511	2828.81
424.733	2826.81
424.956	2790.81
425.178	2779.81
425.401	2793.81
425.623	2780.81
425.846	2702.81
426.068	2763.81
426.291	2747.81
426.513	2717.81
426.735	2705.81
426.958	2738.81
427.18	2695.81
427.402	2719.81
427.625	2666.81
427.847	2672.81
428.069	2672.81
428.292	2644.81
428.514	2624.81
428.736	2589.81
428.958	2694.81
429.181	2627.81
429.403	2570.81
429.625	2630.81
429.847	2608.81
430.069	2658.81
430.292	2746.81
430.514	2846.81
430.736	2826.81
430.958	2674.81
431.18	2628.81
431.402	2575.81
431.624	2555.81
431.846	2550.81
432.068	2522.81
432.29	2615.81
432.512	2591.81
432.734	2604.81
432.956	2586.81
433.178	2598.81
433.4	2604.81
433.622	2632.81
433.844	2636.81
434.066	2599.81
434.287	2613.81
434.509	2645.81
434.731	2691.81
434.953	2642.81
435.175	2726.81
435.397	2709.81
435.618	2638.81
435.84	2641.81
436.062	2594.81
436.284	2598.81
436.505	2552.81
436.727	2578.81
436.949	2562.81
437.17	2574.81
437.392	2553.81
437.614	2514.81
437.835	2463.81
438.057	2530.81
438.278	2527.81
438.5	2460.81
438.721	2573.81
438.943	2681.81
439.165	2674.81
439.386	2710.81
439.608	2690.81
439.829	2679.81
440.05	2780.81
440.272	2868.81
440.493	2710.81
440.715	2672.81
440.936	2708.81
441.158	2737.81
441.379	2747.81
441.6	2850.81
441.822	2921.81
442.043	3069.81
442.264	3150.81
442.486	2920.81
442.707	2788.81
442.928	2824.81
443.149	2789.81
443.371	2791.81
443.592	2827.81
443.813	2816.81
444.034	2824.81
444.255	2843.81
444.476	2901.81
444.698	2952.81
444.919	3032.81
445.14	3119.81
445.361	2891.81
445.582	2849.81
445.803	2807.81
446.024	2770.81
446.245	2778.81
446.466	2754.81
446.687	2704.81
446.908	2700.81
447.129	2645.81
447.35	2612.81
447.571	2627.81
447.792	2566.81
448.013	2567.81
448.234	2531.81
448.455	2557.81
448.675	2596.81
448.896	2641.81
449.117	2776.81
449.338	2969.81
449.559	3040.81
449.779	2740.81
450	2592.81
450.221	2562.81
450.442	2531.81
450.662	2496.81
450.883	2502.81
451.104	2518.81
451.324	2558.81
451.545	2490.81
451.766	2536.81
451.986	2518.81
452.207	2820.81
452.428	3645.81
452.648	5346.81
452.869	4488.81
453.089	3060.81
453.31	2876.81
453.53	2912.81
453.751	2964.81
453.971	3156.81
454.192	3051.81
454.412	2638.81
454.633	2538.81
454.853	2437.81
455.073	2420.81
455.294	2421.81
455.514	2405.81
455.734	2390.81
455.955	2336.81
456.175	2425.81
456.395	2367.81
456.616	2375.81
456.836	2417.81
457.056	2410.81
457.276	2482.81
457.497	2567.81
457.717	2613.81
457.937	2562.81
458.157	2487.81
458.377	2556.81
458.598	2559.81
458.818	2586.81
459.038	2562.81
459.258	2549.81
459.478	2613.81
459.698	2650.81
459.918	2662.81
460.138	2679.81
460.358	2806.81
460.578	2757.81
460.798	2841.81
461.018	2863.81
461.238	2782.81
461.458	2829.81
461.678	2827.81
461.898	2974.81
462.118	2934.81
462.338	3040.81
462.558	3051.81
462.777	3109.81
462.997	3194.81
463.217	3368.81
463.437	3501.81
463.657	3527.81
463.876	3542.81
464.096	3306.81
464.316	3147.81
464.536	3137.81
464.755	3060.81
464.975	2992.81
465.195	2879.81
465.414	2848.81
465.634	2725.81
465.854	2683.81
466.073	2655.81
466.293	2613.81
466.512	2632.81
466.732	2663.81
466.951	2755.81
467.171	2925.81
467.391	2894.81
467.61	2650.81
467.829	2572.81
468.049	2588.81
468.268	2519.81
468.488	2501.81
468.707	2505.81
468.927	2522.81
469.146	2506.81
469.365	2582.81
469.585	2575.81
469.804	2666.81
470.023	2715.81
470.243	2765.81
470.462	2804.81
470.681	2962.81
470.901	3251.81
471.12	3724.81
471.339	3810.81
471.558	3109.81
471.777	2836.81
471.997	2693.81
472.216	2677.81
472.435	2636.81
472.654	2583.81
472.873	2542.81
473.092	2606.81
473.311	2573.81
473.53	2579.81
473.749	2638.81
473.968	2763.81
474.187	2583.81
474.406	2540.81
474.625	2542.81
474.844	2547.81
475.063	2596.81
475.282	2628.81
475.501	2616.81
475.72	2606.81
475.939	2638.81
476.158	2702.81
476.377	2680.81
476.596	2686.81
476.814	2665.81
477.033	2714.81
477.252	2777.81
477.471	2792.81
477.69	2824.81
477.908	2866.81
478.127	2928.81
478.346	2936.81
478.564	2967.81
478.783	2946.81
479.002	2978.81
479.22	3063.81
479.439	3113.81
479.658	3101.81
479.876	3072.81
480.095	3096.81
480.313	3185.81
480.532	3167.81
480.751	3186.81
480.969	3124.81
481.188	3146.81
481.406	3110.81
481.624	3053.81
481.843	3148.81
482.061	3148.81
482.28	3087.81
482.498	3073.81
482.717	3080.81
482.935	3115.81
483.153	3225.81
483.372	3174.81
483.59	3234.81
483.808	3332.81
484.027	3405.81
484.245	3545.81
484.463	4077.81
484.681	4519.81
484.9	4028.81
485.118	3778.81
485.336	3665.81
485.554	3739.81
485.772	3947.81
485.99	4456.81
486.209	4916.81
486.427	4046.81
486.645	3635.81
486.863	3477.81
487.081	3415.81
487.299	3398.81
487.517	3342.81
487.735	3365.81
487.953	3338.81
488.171	3322.81
488.389	3242.81
488.607	3230.81
488.825	3261.81
489.043	3199.81
489.261	3189.81
489.479	3219.81
489.696	3217.81
489.914	3159.81
490.132	3284.81
490.35	3288.81
490.568	3262.81
490.786	3307.81
491.003	3266.81
491.221	3335.81
491.439	3366.81
491.657	3322.81
491.874	3327.81
492.092	3393.81
492.31	3393.81
492.527	3430.81
492.745	3336.81
492.963	3312.81
493.18	3384.81
493.398	3360.81
493.615	3381.81
493.833	3341.81
494.05	3398.81
494.268	3376.81
494.485	3382.81
494.703	3412.81
494.92	3413.81
495.138	3369.81
495.355	3362.81
495.573	3379.81
495.79	3400.81
496.008	3451.81
496.225	3448.81
496.442	3520.81
496.66	3606.81
496.877	3821.81
497.094	3782.81
497.312	3649.81
497.529	3660.81
497.746	3669.81
497.963	3775.81
498.181	3866.81
498.398	3865.81
498.615	4030.81
498.832	4135.81
499.049	4386.81
499.267	4732.81
499.484	5055.81
499.701	4960.81
499.918	5091.81
500.135	5322.81
500.352	5577.81
500.569	5732.81
500.786	5683.81
501.003	5504.81
501.22	5232.81
501.437	5012.81
501.654	4700.81
501.871	4504.81
502.088	4340.81
502.305	4215.81
502.522	4088.81
502.739	3968.81
502.956	3856.81
503.172	3726.81
503.389	3626.81
503.606	3586.81
503.823	3576.81
504.04	3523.81
504.256	3537.81
504.473	3500.81
504.69	3485.81
504.907	3501.81
505.123	3432.81
505.34	3315.81
505.557	3249.81
505.773	3194.81
505.99	3154.81
506.207	3111.81
506.423	3082.81
506.64	3104.81
506.856	2999.81
507.073	3026.81
507.289	3033.81
507.506	3001.81
507.722	2978.81
507.939	2956.81
508.155	2908.81
508.372	2931.81
508.588	2946.81
508.805	2937.81
509.021	2926.81
509.238	2984.81
509.454	3128.81
509.67	3335.81
509.887	3084.81
510.103	2965.81
510.319	2946.81
510.536	2892.81
510.752	2908.81
510.968	2877.81
511.184	2847.81
511.401	2853.81
511.617	2816.81
511.833	2781.81
512.049	2753.81
512.265	2763.81
512.481	2813.81
512.698	2763.81
512.914	2819.81
513.13	2813.81
513.346	2785.81
513.562	2764.81
513.778	2812.81
513.994	2908.81
514.21	2980.81
514.426	3153.81
514.642	3269.81
514.858	2961.81
515.074	2901.81
515.29	2830.81
515.506	2842.81
515.721	2844.81
515.937	2907.81
516.153	2884.81
516.369	2919.81
516.585	2937.81
516.801	2989.81
517.016	3014.81
517.232	3114.81
517.448	3104.81
517.664	3167.81
517.879	3237.81
518.095	3177.81
518.311	3200.81
518.527	3118.81
518.742	3096.81
518.958	3142.81
519.173	3218.81
519.389	3083.81
519.605	2977.81
519.82	2939.81
520.036	2915.81
520.251	2785.81
520.467	2824.81
520.682	2795.81
520.898	2748.81
521.113	2728.81
521.329	2728.81
521.544	2738.81
521.76	2818.81
521.975	2744.81
522.19	2775.81
522.406	2742.81
522.621	2694.81
522.836	2713.81
523.052	2736.81
523.267	2729.81
523.482	2685.81
523.698	2641.81
523.913	2677.81
524.128	2644.81
524.343	2641.81
524.559	2648.81
524.774	2676.81
524.989	2684.81
525.204	2653.81
525.419	2635.81
525.634	2600.81
525.849	2685.81
526.064	2648.81
526.28	2679.81
526.495	2653.81
526.71	2693.81
526.925	2715.81
527.14	2698.81
527.355	2661.81
527.57	2694.81
527.785	2761.81
527.999	2710.81
528.214	2730.81
528.429	2763.81
528.644	2802.81
528.859	2819.81
529.074	2864.81
529.289	2861.81
529.503	2881.81
529.718	2866.81
529.933	2826.81
530.148	2880.81
530.363	2858.81
530.577	2845.81
530.792	2883.81
531.007	2885.81
531.221	2909.81
531.436	2944.81
531.651	2932.81
531.865	2962.81
532.08	3014.81
532.295	3123.81
532.509	3318.81
532.724	3326.81
532.938	3371.81
533.153	3508.81
533.367	3722.81
533.582	3924.81
533.796	3883.81
534.011	3716.81
534.225	3511.81
534.44	3393.81
534.654	3323.81
534.868	3301.81
535.083	3200.81
535.297	3115.81
535.511	3102.81
535.726	3058.81
535.94	3010.81
536.154	2969.81
536.369	2912.81
536.583	2888.81
536.797	2832.81
537.011	2770.81
537.225	2776.81
537.44	2806.81
537.654	2765.81
537.868	2738.81
538.082	2670.81
538.296	2683.81
538.51	2656.81
538.724	2686.81
538.938	2641.81
539.153	2653.81
539.367	2638.81
539.581	2612.81
539.795	2563.81
540.009	2560.81
540.222	2538.81
540.436	2569.81
540.65	2610.81
540.864	2626.81
541.078	2644.81
541.292	2769.81
541.506	3273.81
541.72	3419.81
541.934	2967.81
542.147	2809.81
542.361	2641.81
542.575	2610.81
542.789	2541.81
543.002	2497.81
543.216	2473.81
543.43	2483.81
543.644	2443.81
543.857	2471.81
544.071	2534.81
544.285	2483.81
544.498	2527.81
544.712	2462.81
544.925	2500.81
545.139	2501.81
545.352	2508.81
545.566	2485.81
545.779	2518.81
545.993	2529.81
546.206	2528.81
546.42	2487.81
546.633	2528.81
546.847	2488.81
547.06	2460.81
547.274	2538.81
547.487	2522.81
547.7	2536.81
547.914	2509.81
548.127	2480.81
548.34	2503.81
548.554	2465.81
548.767	2486.81
548.98	2529.81
549.193	2484.81
549.407	2533.81
549.62	2530.81
549.833	2540.81
550.046	2538.81
550.259	2524.81
550.473	2472.81
550.686	2482.81
550.899	2490.81
551.112	2515.81
551.325	2436.81
551.538	2515.81
551.751	2497.81
551.964	2526.81
552.177	2555.81
552.39	2582.81
552.603	2672.81
552.816	2661.81
553.029	2632.81
553.242	2707.81
553.455	2789.81
553.667	2761.81
553.88	2772.81
554.093	2758.81
554.306	2815.81
554.519	2834.81
554.732	2881.81
554.944	2889.81
555.157	2997.81
555.37	3072.81
555.583	3192.81
555.795	3371.81
556.008	3617.81
556.221	4080.81
556.433	4434.81
556.646	4425.81
556.859	4108.81
557.071	3986.81
557.284	3897.81
557.496	3730.81
557.709	3662.81
557.921	3585.81
558.134	3542.81
558.346	3579.81
558.559	3730.81
558.771	4026.81
558.984	4410.81
559.196	4747.81
559.409	4520.81
559.621	4083.81
559.833	3886.81
560.046	3662.81
560.258	3446.81
560.47	3282.81
560.683	3132.81
560.895	3034.81
561.107	2954.81
561.32	2824.81
561.532	2773.81
561.744	2704.81
561.956	2678.81
562.168	2670.81
562.381	2615.81
562.593	2536.81
562.805	2603.81
563.017	2660.81
563.229	2682.81
563.441	3136.81
563.653	2604.81
563.865	2450.81
564.077	2396.81
564.289	2334.81
564.501	2329.81
564.713	2318.81
564.925	2298.81
565.137	2317.81
565.349	2293.81
565.561	2359.81
565.773	2338.81
565.985	2367.81
566.197	2410.81
566.408	2461.81
566.62	2518.81
566.832	2527.81
567.044	2550.81
567.255	2589.81
567.467	2582.81
567.679	2642.81
567.891	2783.81
568.102	3108.81
568.314	3624.81
568.526	3144.81
568.737	2684.81
568.949	2439.81
569.161	2326.81
569.372	2216.81
569.584	2134.81
569.795	2103.81
570.007	2078.81
570.218	2148.81
570.43	2267.81
570.641	2038.81
570.853	1949.81
571.064	1976.81
571.276	1936.81
571.487	1870.81
571.698	1853.81
571.91	1837.81
572.121	1858.81
572.333	1860.81
572.544	1848.81
572.755	1997.81
572.966	2314.81
573.178	2056.81
573.389	1896.81
573.6	1787.81
573.811	1774.81
574.023	1750.81
574.234	1736.81
574.445	1708.81
574.656	1684.81
574.867	1723.81
575.078	1694.81
575.289	1668.81
575.501	1702.81
575.712	1661.81
575.923	1658.81
576.134	1702.81
576.345	1673.81
576.556	1693.81
576.767	1704.81
576.978	1690.81
577.188	1691.81
577.399	1704.81
577.61	1698.81
577.821	1710.81
578.032	1749.81
578.243	1761.81
578.454	1783.81
578.665	1830.81
578.875	1897.81
579.086	1929.81
579.297	2034.81
579.508	2152.81
579.718	2350.81
579.929	2734.81
580.14	3228.81
580.35	3237.81
580.561	2873.81
580.772	2686.81
580.982	2448.81
581.193	2281.81
581.403	2136.81
581.614	2022.81
581.825	1912.81
582.035	1892.81
582.246	1828.81
582.456	1745.81
582.667	1716.81
582.877	1722.81
583.087	1688.81
583.298	1626.81
583.508	1601.81
583.719	1546.81
583.929	1525.81
584.139	1481.81
584.35	1467.81
584.56	1434.81
584.77	1443.81
584.981	1412.81
585.191	1429.81
585.401	1393.81
585.611	1366.81
585.821	1345.81
586.032	1340.81
586.242	1323.81
586.452	1314.81
586.662	1303.81
586.872	1298.81
587.082	1295.81
587.292	1273.81
587.502	1298.81
587.713	1228.81
587.923	1216.81
588.133	1240.81
588.343	1203.81
588.553	1191.81
588.762	1182.81
588.972	1208.81
589.182	1228.81
589.392	1210.81
589.602	1186.81
589.812	1218.81
590.022	1176.81
590.232	1152.81
590.441	1187.81
590.651	1155.81
590.861	1172.81
591.071	1168.81
591.281	1183.81
591.49	1173.81
591.7	1153.81
591.91	1198.81
592.119	1147.81
592.329	1132.81
592.539	1162.81
592.748	1175.81
592.958	1220.81
593.167	1208.81
593.377	1206.81
593.587	1240.81
593.796	1204.81
594.006	1208.81
594.215	1178.81
594.424	1206.81
594.634	1218.81
594.843	1177.81
595.053	1156.81
595.262	1129.81
595.472	1140.81
595.681	1106.81
595.89	1066.81
596.1	1082.81
596.309	1036.81
596.518	1022.81
596.727	1051.81
596.937	1026.81
597.146	1016.81
597.355	1017.81
597.564	998.81
597.774	972.81
597.983	945.81
598.192	983.81
598.401	952.81
598.61	957.81
598.819	998.81
599.028	956.81
599.237	981.81
599.446	960.81
599.655	967.81
599.864	914.81
600.073	933.81
600.282	922.81
600.491	933.81
600.7	944.81
600.909	922.81
601.118	899.81
601.327	953.81
601.536	930.81
601.745	953.81
601.953	1038.81
602.162	1194.81
602.371	1067.81
602.58	966.81
602.789	934.81
602.997	924.81
603.206	930.81
603.415	901.81
603.623	928.81
603.832	923.81
604.041	896.81
604.249	904.81
604.458	882.81
604.666	861.81
604.875	836.81
605.084	902.81
605.292	884.81
605.501	898.81
605.709	891.81
605.918	903.81
606.126	897.81
606.334	922.81
606.543	910.81
606.751	1010.81
606.96	1112.81
607.168	1216.81
607.376	1074.81
607.585	968.81
607.793	931.81
608.001	890.81
608.21	884.81
608.418	874.81
608.626	873.81
608.834	850.81
609.043	840.81
609.251	825.81
609.459	825.81
609.667	838.81
609.875	848.81
610.083	830.81
610.291	809.81
610.499	801.81
610.707	846.81
610.916	812.81
611.124	805.81
611.332	821.81
611.54	806.81
611.748	838.81
611.955	800.81
612.163	800.81
612.371	795.81
612.579	793.81
612.787	783.81
612.995	793.81
613.203	791.81
613.411	774.81
613.618	760.81
613.826	774.81
614.034	777.81
614.242	759.81
614.449	785.81
614.657	777.81
614.865	784.81
615.072	803.81
615.28	777.81
615.488	780.81
615.695	781.81
615.903	771.81
616.111	772.81
616.318	757.81
616.526	757.81
616.733	786.81
616.941	739.81
617.148	788.81
617.356	788.81
617.563	779.81
617.771	764.81
617.978	731.81
618.185	723.81
618.393	750.81
618.6	746.81
618.807	752.81
619.015	768.81
619.222	725.81
619.429	732.81
619.637	719.81
619.844	698.81
620.051	717.81
620.258	685.81
620.466	692.81
620.673	694.81
620.88	700.81
621.087	676.81
621.294	704.81
621.501	680.81
621.708	664.81
621.915	697.81
622.122	694.81
622.329	695.81
622.536	709.81
622.743	697.81
622.95	697.81
623.157	665.81
623.364	686.81
623.571	690.81
623.778	666.81
623.985	680.81
624.192	654.81
624.399	640.81
624.606	678.81
624.812	658.81
625.019	666.81
625.226	646.81
625.433	664.81
625.639	652.81
625.846	606.81
626.053	634.81
626.259	620.81
626.466	633.81
626.673	624.81
626.879	618.81
627.086	614.81
627.293	618.81
627.499	632.81
627.706	637.81
627.912	663.81
628.119	646.81
628.325	629.81
628.532	654.81
628.738	613.81
628.945	625.81
629.151	594.81
629.357	610.81
629.564	608.81
629.77	619.81
629.976	586.81
630.183	589.81
630.389	594.81
630.595	596.81
630.802	594.81
631.008	611.81
631.214	585.81
631.42	598.81
631.627	591.81
631.833	608.81
632.039	576.81
632.245	604.81
632.451	600.81
632.657	576.81
632.863	588.81
633.069	585.81
633.275	564.81
633.481	577.81
633.688	561.81
633.893	594.81
634.099	575.81
634.305	589.81
634.511	565.81
634.717	577.81
634.923	600.81
635.129	675.81
635.335	788.81
635.541	696.81
635.747	619.81
635.952	636.81
636.158	590.81
636.364	587.81
636.57	600.81
636.775	589.81
636.981	610.81
637.187	596.81
637.392	560.81
637.598	576.81
637.804	576.81
638.009	593.81
638.215	592.81
638.421	572.81
638.626	572.81
638.832	595.81
639.037	561.81
639.243	606.81
639.448	595.81
639.654	588.81
639.859	597.81
640.065	610.81
640.27	601.81
640.475	611.81
640.681	601.81
640.886	596.81
641.091	588.81
641.297	628.81
641.502	612.81
641.707	637.81
641.913	654.81
642.118	634.81
642.323	640.81
642.528	652.81
642.733	658.81
642.939	672.81
643.144	701.81
643.349	730.81
643.554	752.81
643.759	766.81
643.964	815.81
644.169	870.81
644.374	933.81
644.579	1012.81
644.784	1098.81
644.989	1256.81
645.194	1492.81
645.399	1872.81
645.604	2052.81
645.809	1487.81
646.014	1154.81
646.219	924.81
646.423	827.81
646.628	739.81
646.833	698.81
647.038	661.81
647.243	645.81
647.447	609.81
647.652	585.81
647.857	581.81
648.062	573.81
648.266	552.81
648.471	568.81
648.676	550.81
648.88	552.81
649.085	517.81
649.289	522.81
649.494	504.81
649.698	507.81
649.903	487.81
650.107	453.81
650.312	480.81
650.516	462.81
650.721	461.81
650.925	473.81
651.13	439.81
651.334	429.81
651.539	436.81
651.743	422.81
651.947	422.81
652.152	417.81
652.356	412.81
652.56	428.81
652.764	520.81
652.969	456.81
653.173	423.81
653.377	394.81
653.581	381.81
653.785	388.81
653.99	361.81
654.194	363.81
654.398	347.81
654.602	351.81
654.806	349.81
655.01	372.81
655.214	340.81
655.418	359.81
655.622	348.81
655.826	345.81
656.03	360.81
656.234	352.81
656.438	377.81
656.642	365.81
656.846	363.81
657.049	344.81
657.253	320.81
657.457	310.81
657.661	279.81
657.865	264.81
658.068	256.81
658.272	252.81
658.476	235.81
658.68	236.81
658.883	203.81
659.087	186.81
659.291	205.81
659.494	181.81
659.698	181.81
659.901	173.81
660.105	188.81
660.309	176.81
660.512	167.81
660.716	163.81
660.919	142.81
661.123	169.81
661.326	149.81
661.53	127.81
661.733	129.81
661.936	137.81
662.14	111.81
662.343	118.81
662.546	122.81
662.75	123.81
662.953	110.81
663.156	99.81
663.36	93.81
663.563	99.81
663.766	101.81
663.969	104.81
664.173	93.81
664.376	94.81
664.579	94.81
664.782	91.81
664.985	85.81
665.188	80.81
665.391	102.81
665.594	91.81
665.797	83.81
666	100.81
666.203	82.81
666.406	87.81
666.609	100.81
666.812	99.81
667.015	92.81
667.218	81.81
667.421	77.81
667.624	78.81
667.827	92.81
668.03	82.81
668.232	95.81
668.435	80.81
668.638	91.81
668.841	79.81
669.043	78.81
669.246	75.81
669.449	72.81
669.651	77.81
669.854	74.81
670.057	90.81
670.259	93.81
670.462	89.81
670.665	77.81
670.867	89.81
671.07	81.81
671.272	91.81
671.475	108.81
671.677	84.81
671.88	74.81
672.082	78.81
672.284	90.81
672.487	95.81
672.689	96.81
672.892	92.81
