Data from SnStandardFlinnAPT0064_LampEnergy10_LIBS07252019.E.O._I.C._HRD10591_15-22-25-495.txt Node
Date: Thu Jul 25 15:22:25 EDT 2019
User: cochatt
Spectrometer: HR+D1059
Trigger mode: 1
Integration Time (sec): 1.000000E-1
Scans to average: 1
Electric dark correction enabled: true
Nonlinearity correction enabled: false
Boxcar width: 0
XAxis mode: Wavelengths
Number of Pixels in Spectrum: 2048
>>>>>Begin Spectral Data<<<<<
223.165	-14.31
223.4	-14.31
223.635	-14.31
223.869	-9.31
224.104	-18.31
224.338	-22.31
224.573	-8.31
224.808	-12.31
225.042	-14.31
225.277	4.69
225.511	-13.31
225.746	7.69
225.98	5.69
226.215	4.69
226.449	14.69
226.683	21.69
226.918	25.69
227.152	27.69
227.387	36.69
227.621	26.69
227.856	50.69
228.09	44.69
228.324	51.69
228.559	61.69
228.793	127.69
229.027	313.69
229.262	309.69
229.496	295.69
229.73	294.69
229.964	295.69
230.199	322.69
230.433	295.69
230.667	337.69
230.901	323.69
231.136	327.69
231.37	345.69
231.604	381.69
231.838	454.69
232.072	538.69
232.306	565.69
232.541	421.69
232.775	413.69
233.009	405.69
233.243	392.69
233.477	458.69
233.711	506.69
233.945	575.69
234.179	505.69
234.413	450.69
234.647	437.69
234.881	463.69
235.115	496.69
235.349	613.69
235.583	744.69
235.817	988.69
236.051	937.69
236.285	639.69
236.519	512.69
236.753	503.69
236.987	489.69
237.221	527.69
237.455	505.69
237.689	450.69
237.922	442.69
238.156	439.69
238.39	467.69
238.624	501.69
238.858	463.69
239.091	482.69
239.325	482.69
239.559	491.69
239.793	523.69
240.027	510.69
240.26	534.69
240.494	536.69
240.728	595.69
240.961	591.69
241.195	643.69
241.429	657.69
241.662	693.69
241.896	775.69
242.13	917.69
242.363	1178.69
242.597	1533.69
242.83	1470.69
243.064	1451.69
243.298	1715.69
243.531	1435.69
243.765	932.69
243.998	753.69
244.232	686.69
244.465	681.69
244.699	664.69
244.932	651.69
245.166	665.69
245.399	691.69
245.633	671.69
245.866	695.69
246.099	678.69
246.333	645.69
246.566	653.69
246.8	637.69
247.033	634.69
247.266	656.69
247.5	661.69
247.733	660.69
247.966	708.69
248.2	736.69
248.433	840.69
248.666	991.69
248.899	952.69
249.133	828.69
249.366	843.69
249.599	928.69
249.832	1068.69
250.066	1060.69
250.299	840.69
250.532	767.69
250.765	771.69
250.998	758.69
251.231	734.69
251.465	738.69
251.698	753.69
251.931	746.69
252.164	735.69
252.397	746.69
252.63	782.69
252.863	791.69
253.096	789.69
253.329	775.69
253.562	792.69
253.795	784.69
254.028	799.69
254.261	795.69
254.494	868.69
254.727	981.69
254.96	1213.69
255.193	1211.69
255.426	949.69
255.659	865.69
255.892	861.69
256.124	851.69
256.357	893.69
256.59	928.69
256.823	996.69
257.056	1088.69
257.289	1351.69
257.521	1465.69
257.754	1185.69
257.987	945.69
258.22	918.69
258.452	907.69
258.685	907.69
258.918	940.69
259.151	1005.69
259.383	1075.69
259.616	1210.69
259.849	1273.69
260.081	1093.69
260.314	976.69
260.547	945.69
260.779	930.69
261.012	978.69
261.244	985.69
261.477	967.69
261.71	965.69
261.942	1006.69
262.175	1009.69
262.407	1049.69
262.64	1049.69
262.872	1084.69
263.105	1156.69
263.337	1225.69
263.57	1292.69
263.802	1295.69
264.035	1300.69
264.267	1373.69
264.499	1400.69
264.732	1429.69
264.964	1464.69
265.197	1444.69
265.429	1451.69
265.661	1474.69
265.894	1619.69
266.126	1734.69
266.358	1967.69
266.591	1896.69
266.823	1627.69
267.055	1458.69
267.287	1402.69
267.52	1306.69
267.752	1316.69
267.984	1320.69
268.216	1279.69
268.448	1284.69
268.681	1244.69
268.913	1220.69
269.145	1223.69
269.377	1238.69
269.609	1267.69
269.841	1281.69
270.073	1341.69
270.306	1532.69
270.538	2041.69
270.77	3080.69
271.002	3764.69
271.234	2727.69
271.466	1832.69
271.698	1483.69
271.93	1388.69
272.162	1323.69
272.394	1269.69
272.626	1259.69
272.858	1185.69
273.09	1222.69
273.322	1204.69
273.553	1176.69
273.785	1219.69
274.017	1182.69
274.249	1193.69
274.481	1195.69
274.713	1193.69
274.945	1209.69
275.176	1214.69
275.408	1210.69
275.64	1209.69
275.872	1217.69
276.104	1271.69
276.335	1289.69
276.567	1237.69
276.799	1299.69
277.031	1293.69
277.262	1317.69
277.494	1404.69
277.726	1567.69
277.957	1850.69
278.189	2065.69
278.421	1951.69
278.652	1720.69
278.884	1663.69
279.115	1482.69
279.347	1442.69
279.579	1405.69
279.81	1385.69
280.042	1380.69
280.273	1414.69
280.505	1433.69
280.736	1478.69
280.968	1596.69
281.199	1746.69
281.431	1986.69
281.662	2075.69
281.894	1809.69
282.125	1590.69
282.356	1614.69
282.588	1648.69
282.819	1707.69
283.051	1818.69
283.282	1975.69
283.513	2389.69
283.745	3501.69
283.976	5460.69
284.207	7596.69
284.439	6957.69
284.67	4403.69
284.901	3593.69
285.132	3640.69
285.364	3541.69
285.595	2670.69
285.826	2380.69
286.057	2797.69
286.288	3702.69
286.52	5017.69
286.751	4693.69
286.982	2928.69
287.213	2221.69
287.444	1940.69
287.675	1838.69
287.906	1755.69
288.138	1710.69
288.369	1693.69
288.6	1676.69
288.831	1642.69
289.062	1642.69
289.293	1666.69
289.524	1727.69
289.755	1722.69
289.986	1731.69
290.217	1710.69
290.448	1727.69
290.679	1717.69
290.91	1771.69
291.141	1880.69
291.371	2056.69
291.602	2144.69
291.833	1959.69
292.064	1757.69
292.295	1708.69
292.526	1672.69
292.757	1637.69
292.987	1605.69
293.218	1570.69
293.449	1610.69
293.68	1556.69
293.91	1607.69
294.141	1563.69
294.372	1537.69
294.603	1572.69
294.833	1580.69
295.064	1582.69
295.295	1563.69
295.525	1543.69
295.756	1566.69
295.987	1551.69
296.217	1563.69
296.448	1590.69
296.679	1582.69
296.909	1587.69
297.14	1585.69
297.37	1637.69
297.601	1651.69
297.831	1598.69
298.062	1628.69
298.292	1650.69
298.523	1699.69
298.753	1721.69
298.984	1687.69
299.214	1748.69
299.445	1744.69
299.675	1766.69
299.905	1815.69
300.136	1882.69
300.366	2099.69
300.597	2677.69
300.827	3701.69
301.057	5077.69
301.288	5013.69
301.518	3258.69
301.748	2529.69
301.979	2326.69
302.209	2245.69
302.439	2269.69
302.669	2444.69
302.9	2921.69
303.13	4041.69
303.36	6007.69
303.59	7950.69
303.82	6823.69
304.051	4095.69
304.281	2965.69
304.511	2479.69
304.741	2246.69
304.971	2165.69
305.201	2075.69
305.431	1985.69
305.661	1925.69
305.891	1877.69
306.121	1902.69
306.352	1892.69
306.582	1863.69
306.812	1785.69
307.042	1857.69
307.272	1827.69
307.502	1816.69
307.731	1827.69
307.961	1815.69
308.191	1788.69
308.421	1797.69
308.651	1795.69
308.881	1802.69
309.111	1818.69
309.341	1835.69
309.571	1850.69
309.8	1835.69
310.03	1844.69
310.26	1862.69
310.49	1858.69
310.72	1890.69
310.949	1884.69
311.179	1912.69
311.409	1887.69
311.639	1939.69
311.868	1905.69
312.098	1916.69
312.328	1969.69
312.557	2010.69
312.787	1957.69
313.017	1996.69
313.246	2035.69
313.476	2009.69
313.706	2117.69
313.935	2188.69
314.165	2423.69
314.394	2505.69
314.624	2343.69
314.853	2154.69
315.083	2168.69
315.312	2174.69
315.542	2220.69
315.771	2201.69
316.001	2213.69
316.23	2317.69
316.46	2426.69
316.689	2635.69
316.919	3113.69
317.148	4531.69
317.377	6955.69
317.607	10092.69
317.836	10412.69
318.065	6352.69
318.295	4180.69
318.524	3346.69
318.753	2963.69
318.983	2713.69
319.212	2567.69
319.441	2500.69
319.67	2436.69
319.9	2391.69
320.129	2355.69
320.358	2309.69
320.587	2372.69
320.816	2324.69
321.046	2350.69
321.275	2323.69
321.504	2374.69
321.733	2449.69
321.962	2447.69
322.191	2521.69
322.42	2529.69
322.649	2497.69
322.878	2504.69
323.108	2480.69
323.337	2569.69
323.566	2569.69
323.795	2616.69
324.024	2629.69
324.253	2714.69
324.482	2851.69
324.71	3011.69
324.939	3148.69
325.168	3243.69
325.397	3350.69
325.626	3950.69
325.855	5444.69
326.084	8444.69
326.313	12301.69
326.542	13035.69
326.77	8715.69
326.999	5784.69
327.228	4853.69
327.457	4602.69
327.686	4709.69
327.914	5053.69
328.143	5777.69
328.372	6925.69
328.6	7598.69
328.829	6800.69
329.058	5735.69
329.287	5040.69
329.515	4659.69
329.744	4214.69
329.972	4073.69
330.201	3845.69
330.43	3743.69
330.658	3587.69
330.887	3567.69
331.115	3532.69
331.344	3503.69
331.572	3469.69
331.801	3493.69
332.03	3520.69
332.258	3575.69
332.486	3769.69
332.715	4305.69
332.943	5251.69
333.172	6492.69
333.4	6345.69
333.629	4933.69
333.857	4450.69
334.085	4451.69
334.314	4694.69
334.542	5070.69
334.771	5900.69
334.999	7267.69
335.227	9163.69
335.455	10255.69
335.684	9155.69
335.912	7522.69
336.14	6374.69
336.369	5625.69
336.597	5123.69
336.825	4793.69
337.053	4435.69
337.281	4169.69
337.51	4002.69
337.738	3863.69
337.966	3698.69
338.194	3529.69
338.422	3515.69
338.65	3417.69
338.878	3383.69
339.106	3263.69
339.334	3209.69
339.562	3153.69
339.79	3055.69
340.018	3124.69
340.246	3043.69
340.474	3025.69
340.702	3034.69
340.93	3024.69
341.158	3043.69
341.386	3000.69
341.614	2965.69
341.842	2882.69
342.07	2833.69
342.298	2874.69
342.526	2789.69
342.754	2771.69
342.981	2737.69
343.209	2715.69
343.437	2750.69
343.665	2819.69
343.893	2861.69
344.12	2869.69
344.348	2818.69
344.576	2749.69
344.804	2749.69
345.031	2634.69
345.259	2623.69
345.487	2646.69
345.714	2575.69
345.942	2577.69
346.17	2556.69
346.397	2543.69
346.625	2538.69
346.853	2489.69
347.08	2516.69
347.308	2550.69
347.535	2549.69
347.763	2513.69
347.99	2522.69
348.218	2486.69
348.445	2464.69
348.673	2449.69
348.9	2490.69
349.128	2510.69
349.355	2440.69
349.583	2435.69
349.81	2442.69
350.037	2424.69
350.265	2404.69
350.492	2359.69
350.72	2423.69
350.947	2427.69
351.174	2434.69
351.402	2439.69
351.629	2428.69
351.856	2428.69
352.083	2427.69
352.311	2414.69
352.538	2393.69
352.765	2386.69
352.992	2347.69
353.22	2337.69
353.447	2372.69
353.674	2393.69
353.901	2385.69
354.128	2461.69
354.355	2433.69
354.583	2434.69
354.81	2447.69
355.037	2465.69
355.264	2431.69
355.491	2412.69
355.718	2465.69
355.945	2427.69
356.172	2463.69
356.399	2489.69
356.626	2466.69
356.853	2541.69
357.08	2531.69
357.307	2514.69
357.534	2598.69
357.761	2551.69
357.988	2602.69
358.215	2581.69
358.441	2554.69
358.668	2547.69
358.895	2574.69
359.122	2551.69
359.349	2565.69
359.576	2561.69
359.802	2559.69
360.029	2531.69
360.256	2565.69
360.483	2552.69
360.709	2542.69
360.936	2557.69
361.163	2575.69
361.39	2590.69
361.616	2589.69
361.843	2574.69
362.07	2612.69
362.296	2581.69
362.523	2583.69
362.749	2613.69
362.976	2554.69
363.203	2587.69
363.429	2572.69
363.656	2551.69
363.882	2595.69
364.109	2522.69
364.335	2515.69
364.562	2568.69
364.788	2545.69
365.015	2638.69
365.241	2689.69
365.468	2796.69
365.694	2914.69
365.92	2828.69
366.147	2681.69
366.373	2613.69
366.599	2586.69
366.826	2619.69
367.052	2598.69
367.278	2646.69
367.505	2644.69
367.731	2634.69
367.957	2606.69
368.184	2631.69
368.41	2667.69
368.636	2678.69
368.862	2659.69
369.089	2661.69
369.315	2721.69
369.541	2627.69
369.767	2689.69
369.993	2670.69
370.219	2597.69
370.445	2685.69
370.672	2693.69
370.898	2694.69
371.124	2704.69
371.35	2669.69
371.576	2684.69
371.802	2763.69
372.028	2760.69
372.254	2772.69
372.48	2783.69
372.706	2836.69
372.932	2791.69
373.158	2852.69
373.384	2779.69
373.61	2788.69
373.835	2836.69
374.061	2819.69
374.287	2883.69
374.513	2850.69
374.739	2953.69
374.965	2924.69
375.191	2918.69
375.416	2923.69
375.642	2853.69
375.868	2903.69
376.094	2837.69
376.319	2819.69
376.545	2777.69
376.771	2785.69
376.997	2787.69
377.222	2777.69
377.448	2763.69
377.674	2752.69
377.899	2723.69
378.125	2805.69
378.35	2746.69
378.576	2743.69
378.802	2760.69
379.027	2875.69
379.253	2875.69
379.478	3045.69
379.704	3575.69
379.929	5177.69
380.155	7841.69
380.38	8445.69
380.606	5199.69
380.831	3649.69
381.057	3255.69
381.282	3005.69
381.507	2899.69
381.733	2801.69
381.958	2749.69
382.184	2739.69
382.409	2723.69
382.634	2731.69
382.86	2668.69
383.085	2703.69
383.31	2672.69
383.535	2690.69
383.761	2729.69
383.986	2727.69
384.211	2750.69
384.436	2800.69
384.662	2781.69
384.887	2798.69
385.112	2793.69
385.337	2796.69
385.562	2789.69
385.787	2825.69
386.013	2781.69
386.238	2758.69
386.463	2804.69
386.688	2882.69
386.913	2786.69
387.138	2813.69
387.363	2778.69
387.588	2789.69
387.813	2773.69
388.038	2756.69
388.263	2799.69
388.488	2775.69
388.713	2746.69
388.938	2755.69
389.163	2785.69
389.387	2805.69
389.612	2769.69
389.837	2784.69
390.062	2760.69
390.287	2808.69
390.512	2792.69
390.736	2869.69
390.961	2929.69
391.186	2854.69
391.411	2942.69
391.636	2953.69
391.86	3022.69
392.085	2985.69
392.31	2859.69
392.534	2909.69
392.759	2865.69
392.984	2782.69
393.208	2879.69
393.433	2896.69
393.658	2929.69
393.882	2821.69
394.107	2798.69
394.331	2784.69
394.556	2865.69
394.78	2838.69
395.005	2830.69
395.229	2868.69
395.454	2931.69
395.678	2943.69
395.903	2887.69
396.127	2904.69
396.352	2893.69
396.576	2855.69
396.801	2866.69
397.025	2916.69
397.249	2949.69
397.474	2907.69
397.698	2924.69
397.922	2977.69
398.147	2913.69
398.371	2997.69
398.595	3065.69
398.82	3129.69
399.044	3191.69
399.268	3390.69
399.492	3586.69
399.717	3681.69
399.941	3663.69
400.165	3576.69
400.389	3413.69
400.613	3273.69
400.837	3178.69
401.062	3185.69
401.286	3137.69
401.51	3095.69
401.734	3067.69
401.958	3132.69
402.182	3082.69
402.406	3102.69
402.63	3144.69
402.854	3155.69
403.078	3132.69
403.302	3162.69
403.526	3219.69
403.75	3186.69
403.974	3229.69
404.198	3137.69
404.422	3219.69
404.645	3221.69
404.869	3145.69
405.093	3194.69
405.317	3229.69
405.541	3302.69
405.765	3296.69
405.988	3260.69
406.212	3303.69
406.436	3289.69
406.66	3329.69
406.883	3319.69
407.107	3446.69
407.331	3505.69
407.555	3480.69
407.778	3452.69
408.002	3414.69
408.226	3421.69
408.449	3360.69
408.673	3286.69
408.896	3266.69
409.12	3222.69
409.344	3256.69
409.567	3172.69
409.791	3201.69
410.014	3198.69
410.238	3087.69
410.461	3177.69
410.685	3158.69
410.908	3078.69
411.132	3162.69
411.355	3029.69
411.578	3136.69
411.802	3075.69
412.025	3058.69
412.249	3063.69
412.472	3080.69
412.695	3107.69
412.919	2988.69
413.142	3034.69
413.365	3022.69
413.589	2995.69
413.812	3035.69
414.035	2999.69
414.258	3034.69
414.482	3065.69
414.705	3012.69
414.928	3009.69
415.151	3021.69
415.374	2966.69
415.597	2976.69
415.821	2891.69
416.044	2907.69
416.267	2909.69
416.49	2902.69
416.713	2872.69
416.936	2878.69
417.159	2875.69
417.382	2842.69
417.605	2804.69
417.828	2892.69
418.051	2916.69
418.274	2873.69
418.497	2897.69
418.72	2977.69
418.943	2896.69
419.166	3060.69
419.389	3215.69
419.611	3159.69
419.834	3053.69
420.057	3016.69
420.28	2936.69
420.503	2874.69
420.726	2887.69
420.948	2906.69
421.171	2907.69
421.394	2913.69
421.617	2904.69
421.839	2845.69
422.062	2945.69
422.285	2858.69
422.507	2976.69
422.73	2939.69
422.953	2991.69
423.175	2957.69
423.398	2946.69
423.621	2892.69
423.843	2925.69
424.066	2900.69
424.288	2908.69
424.511	2890.69
424.733	2881.69
424.956	2854.69
425.178	2823.69
425.401	2891.69
425.623	2863.69
425.846	2763.69
426.068	2805.69
426.291	2735.69
426.513	2743.69
426.735	2762.69
426.958	2761.69
427.18	2715.69
427.402	2725.69
427.625	2713.69
427.847	2645.69
428.069	2677.69
428.292	2676.69
428.514	2654.69
428.736	2681.69
428.958	2686.69
429.181	2622.69
429.403	2665.69
429.625	2624.69
429.847	2627.69
430.069	2692.69
430.292	2829.69
430.514	2887.69
430.736	2837.69
430.958	2675.69
431.18	2640.69
431.402	2605.69
431.624	2588.69
431.846	2616.69
432.068	2582.69
432.29	2673.69
432.512	2628.69
432.734	2679.69
432.956	2678.69
433.178	2631.69
433.4	2650.69
433.622	2648.69
433.844	2665.69
434.066	2637.69
434.287	2681.69
434.509	2658.69
434.731	2713.69
434.953	2782.69
435.175	2741.69
435.397	2800.69
435.618	2689.69
435.84	2701.69
436.062	2607.69
436.284	2634.69
436.505	2612.69
436.727	2652.69
436.949	2650.69
437.17	2626.69
437.392	2596.69
437.614	2609.69
437.835	2517.69
438.057	2578.69
438.278	2523.69
438.5	2576.69
438.721	2619.69
438.943	2705.69
439.165	2725.69
439.386	2709.69
439.608	2695.69
439.829	2751.69
440.05	2793.69
440.272	2869.69
440.493	2755.69
440.715	2733.69
440.936	2754.69
441.158	2782.69
441.379	2803.69
441.6	2924.69
441.822	2949.69
442.043	3038.69
442.264	3193.69
442.486	2939.69
442.707	2878.69
442.928	2828.69
443.149	2823.69
443.371	2810.69
443.592	2818.69
443.813	2840.69
444.034	2847.69
444.255	2900.69
444.476	2971.69
444.698	3027.69
444.919	3070.69
445.14	3141.69
445.361	3008.69
445.582	2926.69
445.803	2840.69
446.024	2841.69
446.245	2807.69
446.466	2781.69
446.687	2735.69
446.908	2746.69
447.129	2681.69
447.35	2631.69
447.571	2676.69
447.792	2575.69
448.013	2571.69
448.234	2553.69
448.455	2609.69
448.675	2661.69
448.896	2705.69
449.117	2778.69
449.338	2989.69
449.559	3066.69
449.779	2856.69
450	2627.69
450.221	2569.69
450.442	2551.69
450.662	2554.69
450.883	2511.69
451.104	2570.69
451.324	2509.69
451.545	2529.69
451.766	2563.69
451.986	2636.69
452.207	2832.69
452.428	3651.69
452.648	5439.69
452.869	4552.69
453.089	3137.69
453.31	2936.69
453.53	2966.69
453.751	3020.69
453.971	3116.69
454.192	3070.69
454.412	2673.69
454.633	2497.69
454.853	2501.69
455.073	2459.69
455.294	2459.69
455.514	2451.69
455.734	2444.69
455.955	2369.69
456.175	2459.69
456.395	2414.69
456.616	2427.69
456.836	2539.69
457.056	2541.69
457.276	2517.69
457.497	2684.69
457.717	2584.69
457.937	2573.69
458.157	2603.69
458.377	2585.69
458.598	2546.69
458.818	2650.69
459.038	2630.69
459.258	2583.69
459.478	2657.69
459.698	2693.69
459.918	2665.69
460.138	2677.69
460.358	2803.69
460.578	2786.69
460.798	2908.69
461.018	2868.69
461.238	2847.69
461.458	2925.69
461.678	2932.69
461.898	2979.69
462.118	2985.69
462.338	3007.69
462.558	3097.69
462.777	3135.69
462.997	3301.69
463.217	3398.69
463.437	3499.69
463.657	3589.69
463.876	3534.69
464.096	3430.69
464.316	3230.69
464.536	3157.69
464.755	3069.69
464.975	3003.69
465.195	2918.69
465.414	2830.69
465.634	2732.69
465.854	2741.69
466.073	2689.69
466.293	2657.69
466.512	2650.69
466.732	2728.69
466.951	2868.69
467.171	2969.69
467.391	2900.69
467.61	2697.69
467.829	2668.69
468.049	2655.69
468.268	2595.69
468.488	2589.69
468.707	2578.69
468.927	2569.69
469.146	2550.69
469.365	2615.69
469.585	2649.69
469.804	2694.69
470.023	2734.69
470.243	2814.69
470.462	2839.69
470.681	2949.69
470.901	3289.69
471.12	3695.69
471.339	3713.69
471.558	3146.69
471.777	2860.69
471.997	2786.69
472.216	2710.69
472.435	2651.69
472.654	2642.69
472.873	2609.69
473.092	2631.69
473.311	2644.69
473.53	2615.69
473.749	2695.69
473.968	2792.69
474.187	2638.69
474.406	2596.69
474.625	2664.69
474.844	2618.69
475.063	2643.69
475.282	2642.69
475.501	2640.69
475.72	2668.69
475.939	2670.69
476.158	2701.69
476.377	2773.69
476.596	2745.69
476.814	2705.69
477.033	2766.69
477.252	2789.69
477.471	2842.69
477.69	2838.69
477.908	2940.69
478.127	2927.69
478.346	2920.69
478.564	3002.69
478.783	3004.69
479.002	3073.69
479.22	3061.69
479.439	3138.69
479.658	3129.69
479.876	3144.69
480.095	3183.69
480.313	3222.69
480.532	3251.69
480.751	3226.69
480.969	3180.69
481.188	3104.69
481.406	3130.69
481.624	3135.69
481.843	3196.69
482.061	3166.69
482.28	3174.69
482.498	3141.69
482.717	3133.69
482.935	3183.69
483.153	3244.69
483.372	3245.69
483.59	3291.69
483.808	3327.69
484.027	3441.69
484.245	3561.69
484.463	4033.69
484.681	4516.69
484.9	4110.69
485.118	3829.69
485.336	3729.69
485.554	3800.69
485.772	4051.69
485.99	4489.69
486.209	4724.69
486.427	4030.69
486.645	3699.69
486.863	3545.69
487.081	3503.69
487.299	3425.69
487.517	3329.69
487.735	3419.69
487.953	3395.69
488.171	3341.69
488.389	3278.69
488.607	3292.69
488.825	3301.69
489.043	3262.69
489.261	3189.69
489.479	3239.69
489.696	3304.69
489.914	3294.69
490.132	3318.69
490.35	3308.69
490.568	3329.69
490.786	3369.69
491.003	3418.69
491.221	3424.69
491.439	3384.69
491.657	3363.69
491.874	3402.69
492.092	3407.69
492.31	3471.69
492.527	3418.69
492.745	3394.69
492.963	3385.69
493.18	3439.69
493.398	3369.69
493.615	3406.69
493.833	3401.69
494.05	3432.69
494.268	3450.69
494.485	3499.69
494.703	3460.69
494.92	3428.69
495.138	3422.69
495.355	3426.69
495.573	3429.69
495.79	3487.69
496.008	3483.69
496.225	3480.69
496.442	3554.69
496.66	3706.69
496.877	3864.69
497.094	3807.69
497.312	3674.69
497.529	3727.69
497.746	3705.69
497.963	3840.69
498.181	3897.69
498.398	3975.69
498.615	4119.69
498.832	4230.69
499.049	4495.69
499.267	4818.69
499.484	5094.69
499.701	5065.69
499.918	5128.69
500.135	5509.69
500.352	5760.69
500.569	5803.69
500.786	5662.69
501.003	5617.69
501.22	5324.69
501.437	5003.69
501.654	4755.69
501.871	4574.69
502.088	4429.69
502.305	4235.69
502.522	4120.69
502.739	4069.69
502.956	3878.69
503.172	3817.69
503.389	3775.69
503.606	3685.69
503.823	3587.69
504.04	3610.69
504.256	3599.69
504.473	3573.69
504.69	3513.69
504.907	3532.69
505.123	3450.69
505.34	3386.69
505.557	3302.69
505.773	3233.69
505.99	3271.69
506.207	3132.69
506.423	3130.69
506.64	3139.69
506.856	3055.69
507.073	3084.69
507.289	3031.69
507.506	2995.69
507.722	3035.69
507.939	3045.69
508.155	2988.69
508.372	3000.69
508.588	2950.69
508.805	2979.69
509.021	2956.69
509.238	3021.69
509.454	3167.69
509.67	3340.69
509.887	3107.69
510.103	3009.69
510.319	2986.69
510.536	2994.69
510.752	2926.69
510.968	2938.69
511.184	2860.69
511.401	2911.69
511.617	2833.69
511.833	2861.69
512.049	2842.69
512.265	2857.69
512.481	2815.69
512.698	2788.69
512.914	2807.69
513.13	2851.69
513.346	2826.69
513.562	2863.69
513.778	2899.69
513.994	2917.69
514.21	2973.69
514.426	3159.69
514.642	3235.69
514.858	3015.69
515.074	2934.69
515.29	2875.69
515.506	2885.69
515.721	2939.69
515.937	2921.69
516.153	2980.69
516.369	2974.69
516.585	3050.69
516.801	3036.69
517.016	3138.69
517.232	3093.69
517.448	3219.69
517.664	3247.69
517.879	3274.69
518.095	3244.69
518.311	3211.69
518.527	3174.69
518.742	3170.69
518.958	3209.69
519.173	3292.69
519.389	3127.69
519.605	3034.69
519.82	2974.69
520.036	2956.69
520.251	2898.69
520.467	2821.69
520.682	2854.69
520.898	2836.69
521.113	2801.69
521.329	2778.69
521.544	2857.69
521.76	2777.69
521.975	2819.69
522.19	2834.69
522.406	2761.69
522.621	2695.69
522.836	2712.69
523.052	2813.69
523.267	2761.69
523.482	2665.69
523.698	2725.69
523.913	2711.69
524.128	2733.69
524.343	2759.69
524.559	2675.69
524.774	2709.69
524.989	2728.69
525.204	2699.69
525.419	2719.69
525.634	2716.69
525.849	2723.69
526.064	2665.69
526.28	2731.69
526.495	2733.69
526.71	2719.69
526.925	2722.69
527.14	2742.69
527.355	2744.69
527.57	2713.69
527.785	2763.69
527.999	2786.69
528.214	2778.69
528.429	2794.69
528.644	2855.69
528.859	2807.69
529.074	2885.69
529.289	2932.69
529.503	2935.69
529.718	2894.69
529.933	2866.69
530.148	2837.69
530.363	2913.69
530.577	2923.69
530.792	2921.69
531.007	2927.69
531.221	2942.69
531.436	2992.69
531.651	3017.69
531.865	3038.69
532.08	3086.69
532.295	3132.69
532.509	3389.69
532.724	3405.69
532.938	3391.69
533.153	3554.69
533.367	3751.69
533.582	4002.69
533.796	3918.69
534.011	3757.69
534.225	3627.69
534.44	3436.69
534.654	3395.69
534.868	3327.69
535.083	3223.69
535.297	3206.69
535.511	3148.69
535.726	3061.69
535.94	3045.69
536.154	2966.69
536.369	2921.69
536.583	2911.69
536.797	2893.69
537.011	2876.69
537.225	2843.69
537.44	2837.69
537.654	2807.69
537.868	2775.69
538.082	2698.69
538.296	2713.69
538.51	2714.69
538.724	2707.69
538.938	2728.69
539.153	2686.69
539.367	2703.69
539.581	2667.69
539.795	2594.69
540.009	2653.69
540.222	2619.69
540.436	2609.69
540.65	2601.69
540.864	2598.69
541.078	2708.69
541.292	2830.69
541.506	3332.69
541.72	3471.69
541.934	3036.69
542.147	2880.69
542.361	2683.69
542.575	2653.69
542.789	2645.69
543.002	2563.69
543.216	2516.69
543.43	2534.69
543.644	2473.69
543.857	2509.69
544.071	2558.69
544.285	2577.69
544.498	2521.69
544.712	2517.69
544.925	2586.69
545.139	2573.69
545.352	2555.69
545.566	2541.69
545.779	2533.69
545.993	2526.69
546.206	2599.69
546.42	2537.69
546.633	2548.69
546.847	2564.69
547.06	2539.69
547.274	2533.69
547.487	2565.69
547.7	2546.69
547.914	2541.69
548.127	2535.69
548.34	2510.69
548.554	2504.69
548.767	2579.69
548.98	2533.69
549.193	2540.69
549.407	2522.69
549.62	2565.69
549.833	2549.69
550.046	2575.69
550.259	2525.69
550.473	2481.69
550.686	2580.69
550.899	2540.69
551.112	2524.69
551.325	2494.69
551.538	2532.69
551.751	2454.69
551.964	2549.69
552.177	2599.69
552.39	2624.69
552.603	2695.69
552.816	2715.69
553.029	2713.69
553.242	2790.69
553.455	2835.69
553.667	2843.69
553.88	2845.69
554.093	2817.69
554.306	2851.69
554.519	2887.69
554.732	2876.69
554.944	2943.69
555.157	3060.69
555.37	3097.69
555.583	3256.69
555.795	3369.69
556.008	3635.69
556.221	4070.69
556.433	4371.69
556.646	4361.69
556.859	4185.69
557.071	3994.69
557.284	3857.69
557.496	3735.69
557.709	3727.69
557.921	3635.69
558.134	3664.69
558.346	3655.69
558.559	3816.69
558.771	4013.69
558.984	4373.69
559.196	4734.69
559.409	4477.69
559.621	4183.69
559.833	3911.69
560.046	3680.69
560.258	3437.69
560.47	3366.69
560.683	3213.69
560.895	3077.69
561.107	3034.69
561.32	2841.69
561.532	2794.69
561.744	2726.69
561.956	2646.69
562.168	2655.69
562.381	2621.69
562.593	2613.69
562.805	2700.69
563.017	2713.69
563.229	2767.69
563.441	3185.69
563.653	2671.69
563.865	2487.69
564.077	2469.69
564.289	2391.69
564.501	2350.69
564.713	2327.69
564.925	2338.69
565.137	2335.69
565.349	2332.69
565.561	2331.69
565.773	2322.69
565.985	2410.69
566.197	2474.69
566.408	2474.69
566.62	2487.69
566.832	2586.69
567.044	2588.69
567.255	2587.69
567.467	2584.69
567.679	2697.69
567.891	2795.69
568.102	3103.69
568.314	3557.69
568.526	3091.69
568.737	2685.69
568.949	2473.69
569.161	2348.69
569.372	2257.69
569.584	2159.69
569.795	2154.69
570.007	2161.69
570.218	2163.69
570.43	2265.69
570.641	2047.69
570.853	1975.69
571.064	1993.69
571.276	1969.69
571.487	1948.69
571.698	1879.69
571.91	1870.69
572.121	1863.69
572.333	1871.69
572.544	1860.69
572.755	1975.69
572.966	2303.69
573.178	2124.69
573.389	1898.69
573.6	1828.69
573.811	1825.69
574.023	1778.69
574.234	1754.69
574.445	1761.69
574.656	1727.69
574.867	1697.69
575.078	1729.69
575.289	1672.69
575.501	1716.69
575.712	1703.69
575.923	1701.69
576.134	1685.69
576.345	1722.69
576.556	1732.69
576.767	1692.69
576.978	1709.69
577.188	1671.69
577.399	1718.69
577.61	1717.69
577.821	1729.69
578.032	1783.69
578.243	1819.69
578.454	1850.69
578.665	1866.69
578.875	1870.69
579.086	1938.69
579.297	2061.69
579.508	2190.69
579.718	2365.69
579.929	2746.69
580.14	3214.69
580.35	3235.69
580.561	2989.69
580.772	2694.69
580.982	2462.69
581.193	2316.69
581.403	2175.69
581.614	2071.69
581.825	1994.69
582.035	1937.69
582.246	1819.69
582.456	1782.69
582.667	1815.69
582.877	1759.69
583.087	1733.69
583.298	1658.69
583.508	1576.69
583.719	1552.69
583.929	1541.69
584.139	1511.69
584.35	1476.69
584.56	1483.69
584.77	1428.69
584.981	1443.69
585.191	1391.69
585.401	1376.69
585.611	1401.69
585.821	1363.69
586.032	1348.69
586.242	1358.69
586.452	1348.69
586.662	1362.69
586.872	1288.69
587.082	1290.69
587.292	1276.69
587.502	1282.69
587.713	1251.69
587.923	1234.69
588.133	1256.69
588.343	1242.69
588.553	1255.69
588.762	1256.69
588.972	1205.69
589.182	1242.69
589.392	1204.69
589.602	1186.69
589.812	1207.69
590.022	1171.69
590.232	1210.69
590.441	1184.69
590.651	1185.69
590.861	1162.69
591.071	1187.69
591.281	1201.69
591.49	1191.69
591.7	1206.69
591.91	1196.69
592.119	1189.69
592.329	1185.69
592.539	1194.69
592.748	1219.69
592.958	1198.69
593.167	1203.69
593.377	1201.69
593.587	1250.69
593.796	1242.69
594.006	1247.69
594.215	1219.69
594.424	1242.69
594.634	1197.69
594.843	1222.69
595.053	1172.69
595.262	1158.69
595.472	1140.69
595.681	1120.69
595.89	1127.69
596.1	1079.69
596.309	1085.69
596.518	1060.69
596.727	1058.69
596.937	1028.69
597.146	1035.69
597.355	1039.69
597.564	1027.69
597.774	1015.69
597.983	993.69
598.192	979.69
598.401	993.69
598.61	974.69
598.819	994.69
599.028	966.69
599.237	960.69
599.446	975.69
599.655	967.69
599.864	934.69
600.073	957.69
600.282	930.69
600.491	970.69
600.7	958.69
600.909	937.69
601.118	943.69
601.327	953.69
601.536	966.69
601.745	981.69
601.953	1078.69
602.162	1206.69
602.371	1057.69
602.58	973.69
602.789	923.69
602.997	925.69
603.206	941.69
603.415	923.69
603.623	897.69
603.832	922.69
604.041	892.69
604.249	911.69
604.458	884.69
604.666	893.69
604.875	920.69
605.084	889.69
605.292	898.69
605.501	917.69
605.709	894.69
605.918	927.69
606.126	925.69
606.334	909.69
606.543	907.69
606.751	990.69
606.96	1127.69
607.168	1211.69
607.376	1069.69
607.585	957.69
607.793	917.69
608.001	908.69
608.21	887.69
608.418	871.69
608.626	868.69
608.834	857.69
609.043	892.69
609.251	864.69
609.459	830.69
609.667	843.69
609.875	852.69
610.083	844.69
610.291	822.69
610.499	827.69
610.707	817.69
610.916	807.69
611.124	817.69
611.332	819.69
611.54	804.69
611.748	832.69
611.955	810.69
612.163	800.69
612.371	793.69
612.579	797.69
612.787	812.69
612.995	796.69
613.203	804.69
613.411	770.69
613.618	805.69
613.826	789.69
614.034	784.69
614.242	797.69
614.449	769.69
614.657	805.69
614.865	766.69
615.072	806.69
615.28	830.69
615.488	806.69
615.695	817.69
615.903	775.69
616.111	776.69
616.318	806.69
616.526	804.69
616.733	790.69
616.941	776.69
617.148	797.69
617.356	785.69
617.563	794.69
617.771	759.69
617.978	744.69
618.185	750.69
618.393	778.69
618.6	724.69
618.807	767.69
619.015	746.69
619.222	760.69
619.429	737.69
619.637	724.69
619.844	734.69
620.051	715.69
620.258	733.69
620.466	714.69
620.673	717.69
620.88	690.69
621.087	702.69
621.294	705.69
621.501	702.69
621.708	707.69
621.915	712.69
622.122	714.69
622.329	702.69
622.536	703.69
622.743	714.69
622.95	702.69
623.157	708.69
623.364	691.69
623.571	687.69
623.778	677.69
623.985	689.69
624.192	690.69
624.399	699.69
624.606	655.69
624.812	695.69
625.019	679.69
625.226	659.69
625.433	647.69
625.639	648.69
625.846	657.69
626.053	641.69
626.259	636.69
626.466	645.69
626.673	633.69
626.879	622.69
627.086	621.69
627.293	632.69
627.499	647.69
627.706	621.69
627.912	636.69
628.119	643.69
628.325	606.69
628.532	631.69
628.738	612.69
628.945	621.69
629.151	635.69
629.357	618.69
629.564	613.69
629.77	606.69
629.976	597.69
630.183	606.69
630.389	619.69
630.595	607.69
630.802	589.69
631.008	607.69
631.214	589.69
631.42	585.69
631.627	606.69
631.833	610.69
632.039	572.69
632.245	571.69
632.451	580.69
632.657	585.69
632.863	599.69
633.069	590.69
633.275	586.69
633.481	593.69
633.688	583.69
633.893	573.69
634.099	583.69
634.305	575.69
634.511	585.69
634.717	574.69
634.923	592.69
635.129	693.69
635.335	757.69
635.541	693.69
635.747	641.69
635.952	605.69
636.158	602.69
636.364	597.69
636.57	586.69
636.775	580.69
636.981	563.69
637.187	582.69
637.392	587.69
637.598	582.69
637.804	587.69
638.009	605.69
638.215	604.69
638.421	567.69
638.626	593.69
638.832	584.69
639.037	596.69
639.243	597.69
639.448	605.69
639.654	594.69
639.859	622.69
640.065	608.69
640.27	617.69
640.475	616.69
640.681	613.69
640.886	611.69
641.091	631.69
641.297	631.69
641.502	631.69
641.707	639.69
641.913	623.69
642.118	646.69
642.323	669.69
642.528	689.69
642.733	715.69
642.939	692.69
643.144	671.69
643.349	735.69
643.554	758.69
643.759	789.69
643.964	845.69
644.169	879.69
644.374	919.69
644.579	1014.69
644.784	1131.69
644.989	1249.69
645.194	1520.69
645.399	1869.69
645.604	1947.69
645.809	1497.69
646.014	1142.69
646.219	940.69
646.423	844.69
646.628	762.69
646.833	710.69
647.038	666.69
647.243	639.69
647.447	618.69
647.652	620.69
647.857	594.69
648.062	591.69
648.266	546.69
648.471	563.69
648.676	542.69
648.88	548.69
649.085	542.69
649.289	543.69
649.494	510.69
649.698	530.69
649.903	497.69
650.107	479.69
650.312	489.69
650.516	467.69
650.721	482.69
650.925	462.69
651.13	473.69
651.334	459.69
651.539	454.69
651.743	430.69
651.947	413.69
652.152	428.69
652.356	430.69
652.56	461.69
652.764	494.69
652.969	470.69
653.173	445.69
653.377	405.69
653.581	388.69
653.785	398.69
653.99	379.69
654.194	354.69
654.398	370.69
654.602	349.69
654.806	363.69
655.01	338.69
655.214	341.69
655.418	326.69
655.622	348.69
655.826	341.69
656.03	364.69
656.234	373.69
656.438	397.69
656.642	391.69
656.846	362.69
657.049	364.69
657.253	331.69
657.457	305.69
657.661	279.69
657.865	292.69
658.068	254.69
658.272	243.69
658.476	245.69
658.68	220.69
658.883	213.69
659.087	219.69
659.291	192.69
659.494	196.69
659.698	198.69
659.901	188.69
660.105	187.69
660.309	165.69
660.512	158.69
660.716	153.69
660.919	156.69
661.123	169.69
661.326	139.69
661.53	143.69
661.733	130.69
661.936	125.69
662.14	125.69
662.343	112.69
662.546	124.69
662.75	119.69
662.953	105.69
663.156	106.69
663.36	98.69
663.563	101.69
663.766	105.69
663.969	100.69
664.173	95.69
664.376	89.69
664.579	83.69
664.782	87.69
664.985	88.69
665.188	88.69
665.391	86.69
665.594	85.69
665.797	91.69
666	97.69
666.203	85.69
666.406	97.69
666.609	89.69
666.812	95.69
667.015	83.69
667.218	90.69
667.421	83.69
667.624	93.69
667.827	101.69
668.03	78.69
668.232	105.69
668.435	79.69
668.638	75.69
668.841	88.69
669.043	95.69
669.246	93.69
669.449	90.69
669.651	96.69
669.854	81.69
670.057	99.69
670.259	86.69
670.462	89.69
670.665	97.69
670.867	96.69
671.07	90.69
671.272	71.69
671.475	85.69
671.677	72.69
671.88	82.69
672.082	83.69
672.284	86.69
672.487	105.69
672.689	94.69
672.892	76.69
