Data from SnStandardFlinnAPT0064_LampEnergy5.5_LIBS07252019.E.O._I.C._HRD10591_15-15-56-491.txt Node
Date: Thu Jul 25 15:15:56 EDT 2019
User: cochatt
Spectrometer: HR+D1059
Trigger mode: 1
Integration Time (sec): 1.000000E-1
Scans to average: 1
Electric dark correction enabled: true
Nonlinearity correction enabled: false
Boxcar width: 0
XAxis mode: Wavelengths
Number of Pixels in Spectrum: 2048
>>>>>Begin Spectral Data<<<<<
223.165	-11.75
223.4	-11.75
223.635	-11.75
223.869	-26.75
224.104	-15.75
224.338	-15.75
224.573	-19.75
224.808	-10.75
225.042	-0.75
225.277	-6.75
225.511	2.25
225.746	7.25
225.98	14.25
226.215	9.25
226.449	11.25
226.683	9.25
226.918	27.25
227.152	27.25
227.387	35.25
227.621	32.25
227.856	53.25
228.09	48.25
228.324	58.25
228.559	60.25
228.793	85.25
229.027	146.25
229.262	158.25
229.496	153.25
229.73	144.25
229.964	149.25
230.199	154.25
230.433	153.25
230.667	182.25
230.901	170.25
231.136	176.25
231.37	169.25
231.604	186.25
231.838	194.25
232.072	233.25
232.306	233.25
232.541	219.25
232.775	200.25
233.009	223.25
233.243	201.25
233.477	199.25
233.711	253.25
233.945	260.25
234.179	243.25
234.413	207.25
234.647	211.25
234.881	216.25
235.115	272.25
235.349	262.25
235.583	328.25
235.817	410.25
236.051	399.25
236.285	278.25
236.519	219.25
236.753	226.25
236.987	228.25
237.221	239.25
237.455	259.25
237.689	226.25
237.922	220.25
238.156	228.25
238.39	229.25
238.624	228.25
238.858	214.25
239.091	219.25
239.325	230.25
239.559	241.25
239.793	244.25
240.027	233.25
240.26	249.25
240.494	249.25
240.728	248.25
240.961	274.25
241.195	286.25
241.429	278.25
241.662	318.25
241.896	322.25
242.13	388.25
242.363	486.25
242.597	607.25
242.83	588.25
243.064	581.25
243.298	681.25
243.531	595.25
243.765	404.25
243.998	323.25
244.232	300.25
244.465	305.25
244.699	291.25
244.932	287.25
245.166	283.25
245.399	302.25
245.633	299.25
245.866	313.25
246.099	300.25
246.333	296.25
246.566	303.25
246.8	278.25
247.033	296.25
247.266	309.25
247.5	288.25
247.733	320.25
247.966	310.25
248.2	345.25
248.433	361.25
248.666	386.25
248.899	362.25
249.133	328.25
249.366	353.25
249.599	397.25
249.832	431.25
250.066	430.25
250.299	372.25
250.532	333.25
250.765	310.25
250.998	336.25
251.231	327.25
251.465	329.25
251.698	319.25
251.931	334.25
252.164	315.25
252.397	346.25
252.63	345.25
252.863	351.25
253.096	349.25
253.329	331.25
253.562	341.25
253.795	339.25
254.028	346.25
254.261	343.25
254.494	364.25
254.727	420.25
254.96	489.25
255.193	480.25
255.426	414.25
255.659	380.25
255.892	365.25
256.124	377.25
256.357	372.25
256.59	402.25
256.823	403.25
257.056	459.25
257.289	520.25
257.521	562.25
257.754	466.25
257.987	407.25
258.22	409.25
258.452	395.25
258.685	417.25
258.918	387.25
259.151	410.25
259.383	448.25
259.616	505.25
259.849	521.25
260.081	452.25
260.314	417.25
260.547	418.25
260.779	428.25
261.012	414.25
261.244	417.25
261.477	417.25
261.71	434.25
261.942	428.25
262.175	446.25
262.407	451.25
262.64	467.25
262.872	488.25
263.105	512.25
263.337	529.25
263.57	560.25
263.802	584.25
264.035	575.25
264.267	554.25
264.499	589.25
264.732	617.25
264.964	616.25
265.197	619.25
265.429	638.25
265.661	650.25
265.894	680.25
266.126	739.25
266.358	787.25
266.591	762.25
266.823	695.25
267.055	641.25
267.287	612.25
267.52	601.25
267.752	574.25
267.984	583.25
268.216	571.25
268.448	578.25
268.681	535.25
268.913	538.25
269.145	553.25
269.377	523.25
269.609	555.25
269.841	563.25
270.073	564.25
270.306	681.25
270.538	874.25
270.77	1200.25
271.002	1409.25
271.234	1042.25
271.466	738.25
271.698	638.25
271.93	576.25
272.162	570.25
272.394	542.25
272.626	548.25
272.858	519.25
273.09	545.25
273.322	554.25
273.553	527.25
273.785	540.25
274.017	533.25
274.249	530.25
274.481	508.25
274.713	500.25
274.945	513.25
275.176	522.25
275.408	515.25
275.64	516.25
275.872	518.25
276.104	545.25
276.335	562.25
276.567	547.25
276.799	542.25
277.031	550.25
277.262	574.25
277.494	567.25
277.726	620.25
277.957	720.25
278.189	787.25
278.421	765.25
278.652	680.25
278.884	660.25
279.115	614.25
279.347	610.25
279.579	596.25
279.81	589.25
280.042	587.25
280.273	580.25
280.505	631.25
280.736	627.25
280.968	655.25
281.199	676.25
281.431	756.25
281.662	772.25
281.894	666.25
282.125	684.25
282.356	691.25
282.588	682.25
282.819	667.25
283.051	743.25
283.282	793.25
283.513	956.25
283.745	1343.25
283.976	2101.25
284.207	2917.25
284.439	2642.25
284.67	1638.25
284.901	1308.25
285.132	1286.25
285.364	1217.25
285.595	965.25
285.826	920.25
286.057	1057.25
286.288	1445.25
286.52	1881.25
286.751	1764.25
286.982	1142.25
287.213	852.25
287.444	778.25
287.675	754.25
287.906	728.25
288.138	699.25
288.369	710.25
288.6	667.25
288.831	680.25
289.062	692.25
289.293	686.25
289.524	691.25
289.755	704.25
289.986	703.25
290.217	702.25
290.448	719.25
290.679	713.25
290.91	714.25
291.141	748.25
291.371	772.25
291.602	787.25
291.833	714.25
292.064	689.25
292.295	699.25
292.526	696.25
292.757	672.25
292.987	654.25
293.218	669.25
293.449	686.25
293.68	679.25
293.91	660.25
294.141	660.25
294.372	636.25
294.603	661.25
294.833	650.25
295.064	671.25
295.295	648.25
295.525	646.25
295.756	646.25
295.987	659.25
296.217	688.25
296.448	640.25
296.679	674.25
296.909	683.25
297.14	679.25
297.37	685.25
297.601	664.25
297.831	658.25
298.062	692.25
298.292	681.25
298.523	710.25
298.753	683.25
298.984	688.25
299.214	721.25
299.445	723.25
299.675	742.25
299.905	784.25
300.136	794.25
300.366	864.25
300.597	1058.25
300.827	1422.25
301.057	1872.25
301.288	1787.25
301.518	1250.25
301.748	1011.25
301.979	894.25
302.209	851.25
302.439	907.25
302.669	918.25
302.9	1106.25
303.13	1465.25
303.36	2106.25
303.59	2830.25
303.82	2456.25
304.051	1512.25
304.281	1142.25
304.511	960.25
304.741	906.25
304.971	858.25
305.201	866.25
305.431	831.25
305.661	784.25
305.891	774.25
306.121	771.25
306.352	770.25
306.582	748.25
306.812	747.25
307.042	763.25
307.272	763.25
307.502	751.25
307.731	747.25
307.961	768.25
308.191	731.25
308.421	764.25
308.651	770.25
308.881	768.25
309.111	773.25
309.341	758.25
309.571	785.25
309.8	805.25
310.03	792.25
310.26	780.25
310.49	806.25
310.72	790.25
310.949	786.25
311.179	803.25
311.409	782.25
311.639	827.25
311.868	803.25
312.098	807.25
312.328	800.25
312.557	826.25
312.787	815.25
313.017	817.25
313.246	838.25
313.476	840.25
313.706	878.25
313.935	882.25
314.165	897.25
314.394	945.25
314.624	934.25
314.853	880.25
315.083	858.25
315.312	883.25
315.542	862.25
315.771	920.25
316.001	924.25
316.23	935.25
316.46	976.25
316.689	1048.25
316.919	1231.25
317.148	1704.25
317.377	2574.25
317.607	3767.25
317.836	3889.25
318.065	2309.25
318.295	1570.25
318.524	1265.25
318.753	1156.25
318.983	1047.25
319.212	1006.25
319.441	993.25
319.67	988.25
319.9	946.25
320.129	971.25
320.358	958.25
320.587	944.25
320.816	975.25
321.046	958.25
321.275	957.25
321.504	970.25
321.733	970.25
321.962	999.25
322.191	1027.25
322.42	995.25
322.649	973.25
322.878	996.25
323.108	1024.25
323.337	1032.25
323.566	1009.25
323.795	1064.25
324.024	1064.25
324.253	1092.25
324.482	1087.25
324.71	1171.25
324.939	1246.25
325.168	1268.25
325.397	1323.25
325.626	1503.25
325.855	2086.25
326.084	3136.25
326.313	4616.25
326.542	4902.25
326.77	3188.25
326.999	2143.25
327.228	1800.25
327.457	1725.25
327.686	1764.25
327.914	1862.25
328.143	2142.25
328.372	2464.25
328.6	2627.25
328.829	2444.25
329.058	2178.25
329.287	1946.25
329.515	1800.25
329.744	1678.25
329.972	1584.25
330.201	1508.25
330.43	1471.25
330.658	1425.25
330.887	1391.25
331.115	1369.25
331.344	1383.25
331.572	1362.25
331.801	1381.25
332.03	1388.25
332.258	1403.25
332.486	1486.25
332.715	1625.25
332.943	1951.25
333.172	2332.25
333.4	2302.25
333.629	1881.25
333.857	1747.25
334.085	1712.25
334.314	1834.25
334.542	1933.25
334.771	2258.25
334.999	2691.25
335.227	3167.25
335.455	3529.25
335.684	3299.25
335.912	2861.25
336.14	2487.25
336.369	2213.25
336.597	2040.25
336.825	1885.25
337.053	1768.25
337.281	1665.25
337.51	1620.25
337.738	1543.25
337.966	1432.25
338.194	1421.25
338.422	1414.25
338.65	1370.25
338.878	1339.25
339.106	1289.25
339.334	1273.25
339.562	1263.25
339.79	1219.25
340.018	1228.25
340.246	1207.25
340.474	1232.25
340.702	1234.25
340.93	1246.25
341.158	1227.25
341.386	1229.25
341.614	1229.25
341.842	1214.25
342.07	1174.25
342.298	1177.25
342.526	1150.25
342.754	1126.25
342.981	1152.25
343.209	1115.25
343.437	1129.25
343.665	1140.25
343.893	1154.25
344.12	1180.25
344.348	1136.25
344.576	1129.25
344.804	1138.25
345.031	1088.25
345.259	1095.25
345.487	1072.25
345.714	1089.25
345.942	1060.25
346.17	1075.25
346.397	1055.25
346.625	1046.25
346.853	1033.25
347.08	1025.25
347.308	1035.25
347.535	1050.25
347.763	1027.25
347.99	1058.25
348.218	1044.25
348.445	1013.25
348.673	1034.25
348.9	1036.25
349.128	1011.25
349.355	1022.25
349.583	1016.25
349.81	1029.25
350.037	1023.25
350.265	1007.25
350.492	978.25
350.72	1024.25
350.947	1024.25
351.174	997.25
351.402	1027.25
351.629	982.25
351.856	1008.25
352.083	1008.25
352.311	992.25
352.538	998.25
352.765	1011.25
352.992	1001.25
353.22	981.25
353.447	995.25
353.674	981.25
353.901	1022.25
354.128	1001.25
354.355	1013.25
354.583	1018.25
354.81	991.25
355.037	1042.25
355.264	1004.25
355.491	1038.25
355.718	1031.25
355.945	1050.25
356.172	1011.25
356.399	1026.25
356.626	1028.25
356.853	1045.25
357.08	1050.25
357.307	1081.25
357.534	1010.25
357.761	1050.25
357.988	1036.25
358.215	1046.25
358.441	1060.25
358.668	1062.25
358.895	1077.25
359.122	1052.25
359.349	1046.25
359.576	1053.25
359.802	1087.25
360.029	1090.25
360.256	1057.25
360.483	1065.25
360.709	1070.25
360.936	1074.25
361.163	1080.25
361.39	1067.25
361.616	1084.25
361.843	1074.25
362.07	1086.25
362.296	1071.25
362.523	1076.25
362.749	1119.25
362.976	1068.25
363.203	1064.25
363.429	1063.25
363.656	1063.25
363.882	1103.25
364.109	1051.25
364.335	1055.25
364.562	1078.25
364.788	1075.25
365.015	1070.25
365.241	1072.25
365.468	1109.25
365.694	1152.25
365.92	1125.25
366.147	1093.25
366.373	1061.25
366.599	1103.25
366.826	1098.25
367.052	1098.25
367.278	1106.25
367.505	1106.25
367.731	1090.25
367.957	1105.25
368.184	1110.25
368.41	1121.25
368.636	1088.25
368.862	1114.25
369.089	1124.25
369.315	1121.25
369.541	1104.25
369.767	1106.25
369.993	1112.25
370.219	1097.25
370.445	1083.25
370.672	1115.25
370.898	1139.25
371.124	1131.25
371.35	1164.25
371.576	1128.25
371.802	1144.25
372.028	1155.25
372.254	1130.25
372.48	1150.25
372.706	1172.25
372.932	1148.25
373.158	1173.25
373.384	1161.25
373.61	1154.25
373.835	1156.25
374.061	1160.25
374.287	1202.25
374.513	1211.25
374.739	1203.25
374.965	1213.25
375.191	1216.25
375.416	1239.25
375.642	1202.25
375.868	1202.25
376.094	1183.25
376.319	1175.25
376.545	1191.25
376.771	1159.25
376.997	1162.25
377.222	1150.25
377.448	1147.25
377.674	1148.25
377.899	1125.25
378.125	1138.25
378.35	1160.25
378.576	1132.25
378.802	1163.25
379.027	1187.25
379.253	1186.25
379.478	1246.25
379.704	1433.25
379.929	1931.25
380.155	2781.25
380.38	2903.25
380.606	1886.25
380.831	1402.25
381.057	1302.25
381.282	1202.25
381.507	1160.25
381.733	1168.25
381.958	1154.25
382.184	1168.25
382.409	1156.25
382.634	1153.25
382.86	1148.25
383.085	1146.25
383.31	1165.25
383.535	1176.25
383.761	1179.25
383.986	1158.25
384.211	1168.25
384.436	1150.25
384.662	1179.25
384.887	1186.25
385.112	1168.25
385.337	1157.25
385.562	1130.25
385.787	1171.25
386.013	1188.25
386.238	1174.25
386.463	1198.25
386.688	1191.25
386.913	1148.25
387.138	1187.25
387.363	1176.25
387.588	1171.25
387.813	1200.25
388.038	1160.25
388.263	1162.25
388.488	1192.25
388.713	1166.25
388.938	1165.25
389.163	1183.25
389.387	1188.25
389.612	1149.25
389.837	1174.25
390.062	1151.25
390.287	1185.25
390.512	1208.25
390.736	1198.25
390.961	1210.25
391.186	1181.25
391.411	1234.25
391.636	1214.25
391.86	1259.25
392.085	1249.25
392.31	1269.25
392.534	1224.25
392.759	1204.25
392.984	1201.25
393.208	1201.25
393.433	1219.25
393.658	1190.25
393.882	1223.25
394.107	1183.25
394.331	1186.25
394.556	1205.25
394.78	1138.25
395.005	1227.25
395.229	1186.25
395.454	1221.25
395.678	1208.25
395.903	1215.25
396.127	1223.25
396.352	1168.25
396.576	1222.25
396.801	1240.25
397.025	1195.25
397.249	1229.25
397.474	1246.25
397.698	1251.25
397.922	1235.25
398.147	1245.25
398.371	1282.25
398.595	1286.25
398.82	1297.25
399.044	1354.25
399.268	1424.25
399.492	1518.25
399.717	1594.25
399.941	1580.25
400.165	1531.25
400.389	1460.25
400.613	1369.25
400.837	1376.25
401.062	1363.25
401.286	1344.25
401.51	1311.25
401.734	1273.25
401.958	1305.25
402.182	1341.25
402.406	1302.25
402.63	1344.25
402.854	1334.25
403.078	1338.25
403.302	1331.25
403.526	1360.25
403.75	1339.25
403.974	1365.25
404.198	1362.25
404.422	1339.25
404.645	1374.25
404.869	1361.25
405.093	1334.25
405.317	1316.25
405.541	1400.25
405.765	1370.25
405.988	1360.25
406.212	1374.25
406.436	1370.25
406.66	1414.25
406.883	1388.25
407.107	1413.25
407.331	1445.25
407.555	1490.25
407.778	1485.25
408.002	1427.25
408.226	1412.25
408.449	1430.25
408.673	1414.25
408.896	1389.25
409.12	1371.25
409.344	1387.25
409.567	1370.25
409.791	1352.25
410.014	1335.25
410.238	1345.25
410.461	1374.25
410.685	1311.25
410.908	1336.25
411.132	1308.25
411.355	1272.25
411.578	1312.25
411.802	1334.25
412.025	1323.25
412.249	1311.25
412.472	1323.25
412.695	1296.25
412.919	1284.25
413.142	1293.25
413.365	1283.25
413.589	1299.25
413.812	1243.25
414.035	1265.25
414.258	1259.25
414.482	1266.25
414.705	1264.25
414.928	1272.25
415.151	1259.25
415.374	1231.25
415.597	1232.25
415.821	1234.25
416.044	1227.25
416.267	1253.25
416.49	1244.25
416.713	1240.25
416.936	1225.25
417.159	1216.25
417.382	1211.25
417.605	1214.25
417.828	1236.25
418.051	1245.25
418.274	1242.25
418.497	1253.25
418.72	1267.25
418.943	1241.25
419.166	1320.25
419.389	1377.25
419.611	1345.25
419.834	1349.25
420.057	1304.25
420.28	1273.25
420.503	1250.25
420.726	1234.25
420.948	1206.25
421.171	1215.25
421.394	1278.25
421.617	1275.25
421.839	1250.25
422.062	1261.25
422.285	1227.25
422.507	1269.25
422.73	1252.25
422.953	1241.25
423.175	1259.25
423.398	1279.25
423.621	1211.25
423.843	1256.25
424.066	1253.25
424.288	1248.25
424.511	1215.25
424.733	1249.25
424.956	1235.25
425.178	1224.25
425.401	1227.25
425.623	1248.25
425.846	1228.25
426.068	1238.25
426.291	1193.25
426.513	1202.25
426.735	1150.25
426.958	1183.25
427.18	1159.25
427.402	1139.25
427.625	1187.25
427.847	1130.25
428.069	1136.25
428.292	1153.25
428.514	1152.25
428.736	1158.25
428.958	1161.25
429.181	1120.25
429.403	1112.25
429.625	1123.25
429.847	1145.25
430.069	1158.25
430.292	1174.25
430.514	1188.25
430.736	1201.25
430.958	1147.25
431.18	1152.25
431.402	1156.25
431.624	1121.25
431.846	1128.25
432.068	1127.25
432.29	1109.25
432.512	1104.25
432.734	1139.25
432.956	1152.25
433.178	1137.25
433.4	1148.25
433.622	1150.25
433.844	1154.25
434.066	1142.25
434.287	1120.25
434.509	1144.25
434.731	1158.25
434.953	1175.25
435.175	1174.25
435.397	1205.25
435.618	1138.25
435.84	1136.25
436.062	1091.25
436.284	1102.25
436.505	1120.25
436.727	1140.25
436.949	1136.25
437.17	1126.25
437.392	1125.25
437.614	1100.25
437.835	1100.25
438.057	1065.25
438.278	1075.25
438.5	1116.25
438.721	1119.25
438.943	1167.25
439.165	1190.25
439.386	1187.25
439.608	1158.25
439.829	1174.25
440.05	1205.25
440.272	1210.25
440.493	1168.25
440.715	1173.25
440.936	1185.25
441.158	1193.25
441.379	1193.25
441.6	1237.25
441.822	1266.25
442.043	1288.25
442.264	1334.25
442.486	1279.25
442.707	1235.25
442.928	1245.25
443.149	1241.25
443.371	1185.25
443.592	1225.25
443.813	1227.25
444.034	1236.25
444.255	1264.25
444.476	1280.25
444.698	1292.25
444.919	1320.25
445.14	1358.25
445.361	1305.25
445.582	1262.25
445.803	1222.25
446.024	1212.25
446.245	1226.25
446.466	1200.25
446.687	1187.25
446.908	1203.25
447.129	1205.25
447.35	1183.25
447.571	1145.25
447.792	1150.25
448.013	1105.25
448.234	1108.25
448.455	1123.25
448.675	1151.25
448.896	1172.25
449.117	1177.25
449.338	1224.25
449.559	1302.25
449.779	1191.25
450	1132.25
450.221	1106.25
450.442	1065.25
450.662	1098.25
450.883	1084.25
451.104	1074.25
451.324	1061.25
451.545	1067.25
451.766	1093.25
451.986	1104.25
452.207	1160.25
452.428	1402.25
452.648	1837.25
452.869	1589.25
453.089	1231.25
453.31	1164.25
453.53	1180.25
453.751	1192.25
453.971	1268.25
454.192	1255.25
454.412	1143.25
454.633	1075.25
454.853	1056.25
455.073	1048.25
455.294	1066.25
455.514	1033.25
455.734	1044.25
455.955	1018.25
456.175	1029.25
456.395	1044.25
456.616	1060.25
456.836	1048.25
457.056	1050.25
457.276	1045.25
457.497	1079.25
457.717	1104.25
457.937	1103.25
458.157	1097.25
458.377	1085.25
458.598	1106.25
458.818	1100.25
459.038	1087.25
459.258	1117.25
459.478	1106.25
459.698	1121.25
459.918	1157.25
460.138	1202.25
460.358	1218.25
460.578	1222.25
460.798	1232.25
461.018	1215.25
461.238	1232.25
461.458	1246.25
461.678	1251.25
461.898	1269.25
462.118	1225.25
462.338	1292.25
462.558	1304.25
462.777	1336.25
462.997	1355.25
463.217	1399.25
463.437	1462.25
463.657	1429.25
463.876	1455.25
464.096	1400.25
464.316	1350.25
464.536	1332.25
464.755	1286.25
464.975	1298.25
465.195	1236.25
465.414	1228.25
465.634	1172.25
465.854	1191.25
466.073	1161.25
466.293	1145.25
466.512	1144.25
466.732	1148.25
466.951	1214.25
467.171	1228.25
467.391	1246.25
467.61	1144.25
467.829	1114.25
468.049	1154.25
468.268	1126.25
468.488	1126.25
468.707	1091.25
468.927	1134.25
469.146	1081.25
469.365	1105.25
469.585	1146.25
469.804	1156.25
470.023	1179.25
470.243	1172.25
470.462	1208.25
470.681	1295.25
470.901	1356.25
471.12	1542.25
471.339	1572.25
471.558	1337.25
471.777	1226.25
471.997	1169.25
472.216	1118.25
472.435	1126.25
472.654	1103.25
472.873	1113.25
473.092	1104.25
473.311	1094.25
473.53	1146.25
473.749	1169.25
473.968	1189.25
474.187	1131.25
474.406	1111.25
474.625	1113.25
474.844	1140.25
475.063	1130.25
475.282	1122.25
475.501	1114.25
475.72	1157.25
475.939	1148.25
476.158	1150.25
476.377	1182.25
476.596	1180.25
476.814	1172.25
477.033	1168.25
477.252	1156.25
477.471	1192.25
477.69	1230.25
477.908	1248.25
478.127	1266.25
478.346	1279.25
478.564	1271.25
478.783	1327.25
479.002	1319.25
479.22	1325.25
479.439	1325.25
479.658	1310.25
479.876	1296.25
480.095	1317.25
480.313	1364.25
480.532	1375.25
480.751	1368.25
480.969	1335.25
481.188	1298.25
481.406	1318.25
481.624	1308.25
481.843	1337.25
482.061	1356.25
482.28	1305.25
482.498	1316.25
482.717	1329.25
482.935	1311.25
483.153	1385.25
483.372	1418.25
483.59	1396.25
483.808	1397.25
484.027	1437.25
484.245	1508.25
484.463	1659.25
484.681	1798.25
484.9	1643.25
485.118	1542.25
485.336	1515.25
485.554	1505.25
485.772	1603.25
485.99	1785.25
486.209	1923.25
486.427	1689.25
486.645	1524.25
486.863	1505.25
487.081	1446.25
487.299	1458.25
487.517	1452.25
487.735	1443.25
487.953	1502.25
488.171	1462.25
488.389	1435.25
488.607	1390.25
488.825	1378.25
489.043	1344.25
489.261	1371.25
489.479	1399.25
489.696	1354.25
489.914	1338.25
490.132	1404.25
490.35	1406.25
490.568	1401.25
490.786	1461.25
491.003	1450.25
491.221	1454.25
491.439	1456.25
491.657	1491.25
491.874	1508.25
492.092	1531.25
492.31	1508.25
492.527	1496.25
492.745	1532.25
492.963	1492.25
493.18	1487.25
493.398	1459.25
493.615	1491.25
493.833	1462.25
494.05	1462.25
494.268	1514.25
494.485	1431.25
494.703	1472.25
494.92	1460.25
495.138	1483.25
495.355	1524.25
495.573	1529.25
495.79	1489.25
496.008	1505.25
496.225	1497.25
496.442	1547.25
496.66	1578.25
496.877	1652.25
497.094	1618.25
497.312	1558.25
497.529	1565.25
497.746	1596.25
497.963	1636.25
498.181	1664.25
498.398	1648.25
498.615	1724.25
498.832	1759.25
499.049	1907.25
499.267	1970.25
499.484	2101.25
499.701	2166.25
499.918	2221.25
500.135	2377.25
500.352	2484.25
500.569	2518.25
500.786	2503.25
501.003	2364.25
501.22	2306.25
501.437	2135.25
501.654	2059.25
501.871	1924.25
502.088	1838.25
502.305	1786.25
502.522	1726.25
502.739	1700.25
502.956	1677.25
503.172	1644.25
503.389	1570.25
503.606	1543.25
503.823	1538.25
504.04	1526.25
504.256	1522.25
504.473	1521.25
504.69	1521.25
504.907	1507.25
505.123	1443.25
505.34	1456.25
505.557	1415.25
505.773	1419.25
505.99	1395.25
506.207	1355.25
506.423	1318.25
506.64	1327.25
506.856	1302.25
507.073	1323.25
507.289	1279.25
507.506	1297.25
507.722	1281.25
507.939	1303.25
508.155	1282.25
508.372	1238.25
508.588	1238.25
508.805	1266.25
509.021	1222.25
509.238	1294.25
509.454	1302.25
509.67	1362.25
509.887	1345.25
510.103	1270.25
510.319	1226.25
510.536	1235.25
510.752	1215.25
510.968	1223.25
511.184	1175.25
511.401	1226.25
511.617	1190.25
511.833	1213.25
512.049	1209.25
512.265	1204.25
512.481	1208.25
512.698	1186.25
512.914	1174.25
513.13	1212.25
513.346	1214.25
513.562	1198.25
513.778	1202.25
513.994	1168.25
514.21	1234.25
514.426	1300.25
514.642	1321.25
514.858	1264.25
515.074	1216.25
515.29	1199.25
515.506	1182.25
515.721	1237.25
515.937	1250.25
516.153	1274.25
516.369	1247.25
516.585	1276.25
516.801	1280.25
517.016	1308.25
517.232	1346.25
517.448	1381.25
517.664	1326.25
517.879	1321.25
518.095	1374.25
518.311	1344.25
518.527	1329.25
518.742	1337.25
518.958	1330.25
519.173	1330.25
519.389	1307.25
519.605	1239.25
519.82	1236.25
520.036	1216.25
520.251	1254.25
520.467	1230.25
520.682	1206.25
520.898	1197.25
521.113	1185.25
521.329	1172.25
521.544	1184.25
521.76	1199.25
521.975	1161.25
522.19	1205.25
522.406	1184.25
522.621	1192.25
522.836	1151.25
523.052	1193.25
523.267	1156.25
523.482	1169.25
523.698	1135.25
523.913	1156.25
524.128	1160.25
524.343	1182.25
524.559	1149.25
524.774	1150.25
524.989	1191.25
525.204	1153.25
525.419	1172.25
525.634	1149.25
525.849	1154.25
526.064	1152.25
526.28	1124.25
526.495	1140.25
526.71	1148.25
526.925	1163.25
527.14	1171.25
527.355	1140.25
527.57	1161.25
527.785	1156.25
527.999	1177.25
528.214	1171.25
528.429	1193.25
528.644	1215.25
528.859	1243.25
529.074	1219.25
529.289	1251.25
529.503	1251.25
529.718	1233.25
529.933	1220.25
530.148	1220.25
530.363	1227.25
530.577	1214.25
530.792	1185.25
531.007	1231.25
531.221	1249.25
531.436	1262.25
531.651	1219.25
531.865	1270.25
532.08	1280.25
532.295	1283.25
532.509	1352.25
532.724	1338.25
532.938	1344.25
533.153	1407.25
533.367	1484.25
533.582	1537.25
533.796	1499.25
534.011	1458.25
534.225	1455.25
534.44	1377.25
534.654	1385.25
534.868	1365.25
535.083	1353.25
535.297	1342.25
535.511	1313.25
535.726	1311.25
535.94	1267.25
536.154	1228.25
536.369	1228.25
536.583	1199.25
536.797	1192.25
537.011	1200.25
537.225	1213.25
537.44	1200.25
537.654	1192.25
537.868	1189.25
538.082	1156.25
538.296	1162.25
538.51	1170.25
538.724	1177.25
538.938	1176.25
539.153	1152.25
539.367	1169.25
539.581	1132.25
539.795	1116.25
540.009	1112.25
540.222	1100.25
540.436	1127.25
540.65	1111.25
540.864	1120.25
541.078	1163.25
541.292	1208.25
541.506	1447.25
541.72	1460.25
541.934	1296.25
542.147	1222.25
542.361	1196.25
542.575	1143.25
542.789	1116.25
543.002	1113.25
543.216	1062.25
543.43	1097.25
543.644	1106.25
543.857	1099.25
544.071	1099.25
544.285	1118.25
544.498	1143.25
544.712	1116.25
544.925	1158.25
545.139	1129.25
545.352	1147.25
545.566	1136.25
545.779	1142.25
545.993	1115.25
546.206	1140.25
546.42	1118.25
546.633	1134.25
546.847	1106.25
547.06	1109.25
547.274	1147.25
547.487	1153.25
547.7	1139.25
547.914	1132.25
548.127	1127.25
548.34	1081.25
548.554	1102.25
548.767	1117.25
548.98	1115.25
549.193	1122.25
549.407	1103.25
549.62	1152.25
549.833	1124.25
550.046	1134.25
550.259	1136.25
550.473	1124.25
550.686	1107.25
550.899	1139.25
551.112	1123.25
551.325	1113.25
551.538	1122.25
551.751	1074.25
551.964	1097.25
552.177	1134.25
552.39	1158.25
552.603	1177.25
552.816	1217.25
553.029	1169.25
553.242	1226.25
553.455	1208.25
553.667	1234.25
553.88	1249.25
554.093	1237.25
554.306	1217.25
554.519	1227.25
554.732	1237.25
554.944	1283.25
555.157	1296.25
555.37	1301.25
555.583	1359.25
555.795	1408.25
556.008	1478.25
556.221	1547.25
556.433	1652.25
556.646	1625.25
556.859	1586.25
557.071	1609.25
557.284	1544.25
557.496	1486.25
557.709	1483.25
557.921	1475.25
558.134	1491.25
558.346	1503.25
558.559	1559.25
558.771	1559.25
558.984	1673.25
559.196	1769.25
559.409	1707.25
559.621	1662.25
559.833	1565.25
560.046	1470.25
560.258	1425.25
560.47	1374.25
560.683	1344.25
560.895	1303.25
561.107	1270.25
561.32	1243.25
561.532	1220.25
561.744	1181.25
561.956	1173.25
562.168	1152.25
562.381	1146.25
562.593	1150.25
562.805	1148.25
563.017	1143.25
563.229	1144.25
563.441	1257.25
563.653	1118.25
563.865	1074.25
564.077	1054.25
564.289	1033.25
564.501	1050.25
564.713	1028.25
564.925	1028.25
565.137	1031.25
565.349	1000.25
565.561	1051.25
565.773	1074.25
565.985	1040.25
566.197	1063.25
566.408	1092.25
566.62	1118.25
566.832	1130.25
567.044	1138.25
567.255	1184.25
567.467	1163.25
567.679	1182.25
567.891	1226.25
568.102	1347.25
568.314	1538.25
568.526	1350.25
568.737	1156.25
568.949	1065.25
569.161	1022.25
569.372	1000.25
569.584	955.25
569.795	927.25
570.007	896.25
570.218	924.25
570.43	940.25
570.641	904.25
570.853	884.25
571.064	864.25
571.276	866.25
571.487	839.25
571.698	845.25
571.91	820.25
572.121	816.25
572.333	802.25
572.544	820.25
572.755	837.25
572.966	1002.25
573.178	880.25
573.389	826.25
573.6	790.25
573.811	785.25
574.023	763.25
574.234	750.25
574.445	778.25
574.656	752.25
574.867	735.25
575.078	745.25
575.289	754.25
575.501	758.25
575.712	754.25
575.923	732.25
576.134	746.25
576.345	755.25
576.556	745.25
576.767	774.25
576.978	714.25
577.188	770.25
577.399	760.25
577.61	785.25
577.821	760.25
578.032	756.25
578.243	789.25
578.454	810.25
578.665	807.25
578.875	848.25
579.086	854.25
579.297	864.25
579.508	924.25
579.718	960.25
579.929	1039.25
580.14	1144.25
580.35	1222.25
580.561	1159.25
580.772	1080.25
580.982	1006.25
581.193	982.25
581.403	930.25
581.614	878.25
581.825	857.25
582.035	833.25
582.246	805.25
582.456	793.25
582.667	787.25
582.877	777.25
583.087	734.25
583.298	727.25
583.508	698.25
583.719	677.25
583.929	660.25
584.139	680.25
584.35	635.25
584.56	662.25
584.77	639.25
584.981	619.25
585.191	626.25
585.401	634.25
585.611	625.25
585.821	612.25
586.032	636.25
586.242	584.25
586.452	612.25
586.662	609.25
586.872	585.25
587.082	584.25
587.292	590.25
587.502	569.25
587.713	574.25
587.923	574.25
588.133	565.25
588.343	542.25
588.553	550.25
588.762	549.25
588.972	554.25
589.182	568.25
589.392	562.25
589.602	549.25
589.812	545.25
590.022	555.25
590.232	542.25
590.441	554.25
590.651	565.25
590.861	532.25
591.071	538.25
591.281	553.25
591.49	546.25
591.7	542.25
591.91	555.25
592.119	566.25
592.329	554.25
592.539	558.25
592.748	554.25
592.958	551.25
593.167	552.25
593.377	572.25
593.587	588.25
593.796	592.25
594.006	583.25
594.215	577.25
594.424	595.25
594.634	543.25
594.843	544.25
595.053	544.25
595.262	536.25
595.472	551.25
595.681	506.25
595.89	508.25
596.1	520.25
596.309	511.25
596.518	522.25
596.727	482.25
596.937	496.25
597.146	474.25
597.355	480.25
597.564	475.25
597.774	480.25
597.983	468.25
598.192	480.25
598.401	444.25
598.61	465.25
598.819	449.25
599.028	442.25
599.237	447.25
599.446	462.25
599.655	458.25
599.864	455.25
600.073	442.25
600.282	427.25
600.491	451.25
600.7	452.25
600.909	437.25
601.118	435.25
601.327	443.25
601.536	465.25
601.745	472.25
601.953	484.25
602.162	560.25
602.371	495.25
602.58	472.25
602.789	440.25
602.997	447.25
603.206	440.25
603.415	459.25
603.623	431.25
603.832	426.25
604.041	420.25
604.249	423.25
604.458	432.25
604.666	423.25
604.875	433.25
605.084	438.25
605.292	447.25
605.501	439.25
605.709	436.25
605.918	421.25
606.126	452.25
606.334	440.25
606.543	427.25
606.751	472.25
606.96	496.25
607.168	571.25
607.376	482.25
607.585	451.25
607.793	428.25
608.001	424.25
608.21	418.25
608.418	436.25
608.626	427.25
608.834	419.25
609.043	422.25
609.251	419.25
609.459	421.25
609.667	404.25
609.875	410.25
610.083	426.25
610.291	400.25
610.499	406.25
610.707	400.25
610.916	384.25
611.124	400.25
611.332	414.25
611.54	402.25
611.748	396.25
611.955	401.25
612.163	397.25
612.371	382.25
612.579	412.25
612.787	396.25
612.995	403.25
613.203	399.25
613.411	372.25
613.618	407.25
613.826	390.25
614.034	406.25
614.242	388.25
614.449	382.25
614.657	398.25
614.865	393.25
615.072	391.25
615.28	399.25
615.488	396.25
615.695	390.25
615.903	400.25
616.111	399.25
616.318	383.25
616.526	386.25
616.733	395.25
616.941	395.25
617.148	386.25
617.356	381.25
617.563	374.25
617.771	376.25
617.978	373.25
618.185	393.25
618.393	381.25
618.6	398.25
618.807	389.25
619.015	378.25
619.222	377.25
619.429	371.25
619.637	355.25
619.844	366.25
620.051	363.25
620.258	358.25
620.466	342.25
620.673	359.25
620.88	367.25
621.087	348.25
621.294	358.25
621.501	343.25
621.708	362.25
621.915	363.25
622.122	366.25
622.329	334.25
622.536	354.25
622.743	349.25
622.95	358.25
623.157	339.25
623.364	340.25
623.571	342.25
623.778	350.25
623.985	358.25
624.192	350.25
624.399	355.25
624.606	313.25
624.812	318.25
625.019	336.25
625.226	337.25
625.433	331.25
625.639	342.25
625.846	328.25
626.053	319.25
626.259	337.25
626.466	327.25
626.673	304.25
626.879	316.25
627.086	318.25
627.293	342.25
627.499	319.25
627.706	329.25
627.912	337.25
628.119	308.25
628.325	314.25
628.532	319.25
628.738	323.25
628.945	311.25
629.151	335.25
629.357	318.25
629.564	327.25
629.77	323.25
629.976	304.25
630.183	299.25
630.389	304.25
630.595	314.25
630.802	298.25
631.008	324.25
631.214	315.25
631.42	316.25
631.627	310.25
631.833	306.25
632.039	290.25
632.245	298.25
632.451	296.25
632.657	312.25
632.863	311.25
633.069	298.25
633.275	318.25
633.481	284.25
633.688	292.25
633.893	314.25
634.099	304.25
634.305	314.25
634.511	294.25
634.717	305.25
634.923	308.25
635.129	342.25
635.335	378.25
635.541	353.25
635.747	323.25
635.952	312.25
636.158	303.25
636.364	320.25
636.57	325.25
636.775	294.25
636.981	287.25
637.187	293.25
637.392	294.25
637.598	304.25
637.804	326.25
638.009	308.25
638.215	310.25
638.421	307.25
638.626	308.25
638.832	310.25
639.037	306.25
639.243	296.25
639.448	318.25
639.654	300.25
639.859	311.25
640.065	312.25
640.27	311.25
640.475	293.25
640.681	291.25
640.886	325.25
641.091	300.25
641.297	323.25
641.502	307.25
641.707	319.25
641.913	337.25
642.118	344.25
642.323	327.25
642.528	340.25
642.733	346.25
642.939	359.25
643.144	362.25
643.349	371.25
643.554	365.25
643.759	389.25
643.964	403.25
644.169	426.25
644.374	444.25
644.579	459.25
644.784	503.25
644.989	547.25
645.194	591.25
645.399	700.25
645.604	719.25
645.809	572.25
646.014	491.25
646.219	423.25
646.423	385.25
646.628	376.25
646.833	352.25
647.038	324.25
647.243	322.25
647.447	322.25
647.652	307.25
647.857	296.25
648.062	291.25
648.266	290.25
648.471	289.25
648.676	291.25
648.88	280.25
649.085	269.25
649.289	280.25
649.494	279.25
649.698	275.25
649.903	259.25
650.107	263.25
650.312	262.25
650.516	254.25
650.721	264.25
650.925	254.25
651.13	248.25
651.334	235.25
651.539	234.25
651.743	231.25
651.947	240.25
652.152	230.25
652.356	246.25
652.56	246.25
652.764	272.25
652.969	242.25
653.173	222.25
653.377	211.25
653.581	202.25
653.785	210.25
653.99	216.25
654.194	203.25
654.398	210.25
654.602	218.25
654.806	220.25
655.01	212.25
655.214	203.25
655.418	224.25
655.622	211.25
655.826	216.25
656.03	205.25
656.234	222.25
656.438	211.25
656.642	233.25
656.846	236.25
657.049	220.25
657.253	203.25
657.457	184.25
657.661	189.25
657.865	175.25
658.068	155.25
658.272	166.25
658.476	152.25
658.68	154.25
658.883	150.25
659.087	143.25
659.291	126.25
659.494	140.25
659.698	129.25
659.901	116.25
660.105	122.25
660.309	121.25
660.512	109.25
660.716	107.25
660.919	91.25
661.123	104.25
661.326	107.25
661.53	117.25
661.733	105.25
661.936	101.25
662.14	101.25
662.343	94.25
662.546	102.25
662.75	95.25
662.953	100.25
663.156	89.25
663.36	93.25
663.563	91.25
663.766	92.25
663.969	104.25
664.173	96.25
664.376	78.25
664.579	89.25
664.782	81.25
664.985	80.25
665.188	82.25
665.391	83.25
665.594	98.25
665.797	90.25
666	80.25
666.203	72.25
666.406	78.25
666.609	89.25
666.812	93.25
667.015	92.25
667.218	91.25
667.421	82.25
667.624	84.25
667.827	82.25
668.03	88.25
668.232	75.25
668.435	79.25
668.638	86.25
668.841	90.25
669.043	98.25
669.246	96.25
669.449	92.25
669.651	84.25
669.854	79.25
670.057	96.25
670.259	86.25
670.462	75.25
670.665	81.25
670.867	89.25
671.07	87.25
671.272	75.25
671.475	99.25
671.677	80.25
671.88	75.25
672.082	98.25
672.284	82.25
672.487	83.25
672.689	78.25
672.892	78.25
