Data from SnStandardFlinnAPT0064_LampEnergy5.5_LIBS07252019.E.O._I.C._HRD10591_15-14-36-491.txt Node
Date: Thu Jul 25 15:14:36 EDT 2019
User: cochatt
Spectrometer: HR+D1059
Trigger mode: 1
Integration Time (sec): 1.000000E-1
Scans to average: 1
Electric dark correction enabled: true
Nonlinearity correction enabled: false
Boxcar width: 0
XAxis mode: Wavelengths
Number of Pixels in Spectrum: 2048
>>>>>Begin Spectral Data<<<<<
223.165	-26.75
223.4	-26.75
223.635	-26.75
223.869	-11.75
224.104	-22.75
224.338	-18.75
224.573	-11.75
224.808	-25.75
225.042	-0.75
225.277	3.25
225.511	-1.75
225.746	8.25
225.98	5.25
226.215	-1.75
226.449	17.25
226.683	30.25
226.918	17.25
227.152	40.25
227.387	32.25
227.621	26.25
227.856	53.25
228.09	55.25
228.324	55.25
228.559	49.25
228.793	74.25
229.027	124.25
229.262	157.25
229.496	149.25
229.73	156.25
229.964	146.25
230.199	136.25
230.433	157.25
230.667	157.25
230.901	157.25
231.136	177.25
231.37	172.25
231.604	173.25
231.838	181.25
232.072	189.25
232.306	208.25
232.541	203.25
232.775	183.25
233.009	183.25
233.243	201.25
233.477	193.25
233.711	233.25
233.945	245.25
234.179	237.25
234.413	207.25
234.647	206.25
234.881	205.25
235.115	233.25
235.349	256.25
235.583	298.25
235.817	369.25
236.051	364.25
236.285	255.25
236.519	211.25
236.753	220.25
236.987	217.25
237.221	223.25
237.455	226.25
237.689	216.25
237.922	197.25
238.156	207.25
238.39	224.25
238.624	225.25
238.858	210.25
239.091	215.25
239.325	216.25
239.559	228.25
239.793	222.25
240.027	227.25
240.26	233.25
240.494	228.25
240.728	260.25
240.961	259.25
241.195	261.25
241.429	288.25
241.662	281.25
241.896	295.25
242.13	358.25
242.363	435.25
242.597	561.25
242.83	529.25
243.064	535.25
243.298	602.25
243.531	535.25
243.765	353.25
243.998	309.25
244.232	280.25
244.465	279.25
244.699	272.25
244.932	267.25
245.166	269.25
245.399	284.25
245.633	306.25
245.866	290.25
246.099	275.25
246.333	303.25
246.566	273.25
246.8	280.25
247.033	285.25
247.266	280.25
247.5	269.25
247.733	287.25
247.966	311.25
248.2	319.25
248.433	343.25
248.666	359.25
248.899	362.25
249.133	322.25
249.366	362.25
249.599	359.25
249.832	411.25
250.066	394.25
250.299	333.25
250.532	325.25
250.765	329.25
250.998	311.25
251.231	322.25
251.465	314.25
251.698	313.25
251.931	327.25
252.164	336.25
252.397	337.25
252.63	335.25
252.863	313.25
253.096	314.25
253.329	323.25
253.562	330.25
253.795	342.25
254.028	343.25
254.261	362.25
254.494	363.25
254.727	388.25
254.96	427.25
255.193	451.25
255.426	363.25
255.659	345.25
255.892	357.25
256.124	349.25
256.357	384.25
256.59	381.25
256.823	384.25
257.056	425.25
257.289	465.25
257.521	498.25
257.754	428.25
257.987	399.25
258.22	381.25
258.452	375.25
258.685	375.25
258.918	383.25
259.151	403.25
259.383	436.25
259.616	447.25
259.849	465.25
260.081	431.25
260.314	403.25
260.547	401.25
260.779	419.25
261.012	402.25
261.244	392.25
261.477	412.25
261.71	415.25
261.942	433.25
262.175	454.25
262.407	433.25
262.64	441.25
262.872	449.25
263.105	470.25
263.337	519.25
263.57	543.25
263.802	546.25
264.035	556.25
264.267	544.25
264.499	595.25
264.732	597.25
264.964	587.25
265.197	597.25
265.429	586.25
265.661	619.25
265.894	644.25
266.126	678.25
266.358	781.25
266.591	735.25
266.823	675.25
267.055	625.25
267.287	585.25
267.52	548.25
267.752	535.25
267.984	519.25
268.216	533.25
268.448	543.25
268.681	519.25
268.913	531.25
269.145	528.25
269.377	525.25
269.609	519.25
269.841	543.25
270.073	540.25
270.306	627.25
270.538	765.25
270.77	1035.25
271.002	1248.25
271.234	944.25
271.466	700.25
271.698	606.25
271.93	542.25
272.162	532.25
272.394	540.25
272.626	532.25
272.858	515.25
273.09	512.25
273.322	487.25
273.553	489.25
273.785	492.25
274.017	509.25
274.249	508.25
274.481	486.25
274.713	503.25
274.945	499.25
275.176	503.25
275.408	490.25
275.64	502.25
275.872	499.25
276.104	503.25
276.335	511.25
276.567	505.25
276.799	507.25
277.031	512.25
277.262	519.25
277.494	545.25
277.726	569.25
277.957	655.25
278.189	717.25
278.421	682.25
278.652	632.25
278.884	604.25
279.115	560.25
279.347	579.25
279.579	541.25
279.81	543.25
280.042	567.25
280.273	580.25
280.505	594.25
280.736	582.25
280.968	603.25
281.199	643.25
281.431	695.25
281.662	705.25
281.894	663.25
282.125	628.25
282.356	661.25
282.588	620.25
282.819	652.25
283.051	668.25
283.282	735.25
283.513	891.25
283.745	1175.25
283.976	1818.25
284.207	2487.25
284.439	2271.25
284.67	1498.25
284.901	1225.25
285.132	1167.25
285.364	1112.25
285.595	927.25
285.826	857.25
286.057	1024.25
286.288	1231.25
286.52	1621.25
286.751	1485.25
286.982	1027.25
287.213	802.25
287.444	723.25
287.675	720.25
287.906	722.25
288.138	671.25
288.369	684.25
288.6	687.25
288.831	674.25
289.062	659.25
289.293	655.25
289.524	670.25
289.755	675.25
289.986	680.25
290.217	679.25
290.448	676.25
290.679	693.25
290.91	687.25
291.141	679.25
291.371	731.25
291.602	711.25
291.833	713.25
292.064	699.25
292.295	652.25
292.526	648.25
292.757	663.25
292.987	617.25
293.218	625.25
293.449	640.25
293.68	636.25
293.91	638.25
294.141	631.25
294.372	613.25
294.603	637.25
294.833	646.25
295.064	623.25
295.295	639.25
295.525	625.25
295.756	613.25
295.987	631.25
296.217	657.25
296.448	612.25
296.679	650.25
296.909	652.25
297.14	653.25
297.37	668.25
297.601	649.25
297.831	638.25
298.062	642.25
298.292	640.25
298.523	672.25
298.753	687.25
298.984	666.25
299.214	690.25
299.445	704.25
299.675	671.25
299.905	723.25
300.136	745.25
300.366	829.25
300.597	977.25
300.827	1255.25
301.057	1648.25
301.288	1638.25
301.518	1131.25
301.748	915.25
301.979	845.25
302.209	851.25
302.439	829.25
302.669	893.25
302.9	1011.25
303.13	1318.25
303.36	1830.25
303.59	2377.25
303.82	2145.25
304.051	1381.25
304.281	1043.25
304.511	925.25
304.741	850.25
304.971	853.25
305.201	782.25
305.431	756.25
305.661	782.25
305.891	760.25
306.121	742.25
306.352	737.25
306.582	733.25
306.812	733.25
307.042	739.25
307.272	711.25
307.502	747.25
307.731	723.25
307.961	727.25
308.191	724.25
308.421	725.25
308.651	715.25
308.881	712.25
309.111	733.25
309.341	728.25
309.571	741.25
309.8	772.25
310.03	759.25
310.26	740.25
310.49	725.25
310.72	770.25
310.949	754.25
311.179	756.25
311.409	773.25
311.639	753.25
311.868	773.25
312.098	789.25
312.328	784.25
312.557	781.25
312.787	767.25
313.017	783.25
313.246	823.25
313.476	793.25
313.706	818.25
313.935	837.25
314.165	869.25
314.394	884.25
314.624	870.25
314.853	831.25
315.083	826.25
315.312	826.25
315.542	860.25
315.771	854.25
316.001	859.25
316.23	877.25
316.46	948.25
316.689	981.25
316.919	1147.25
317.148	1514.25
317.377	2253.25
317.607	3125.25
317.836	3248.25
318.065	2071.25
318.295	1455.25
318.524	1193.25
318.753	1087.25
318.983	1018.25
319.212	987.25
319.441	953.25
319.67	927.25
319.9	916.25
320.129	935.25
320.358	931.25
320.587	887.25
320.816	907.25
321.046	942.25
321.275	920.25
321.504	928.25
321.733	944.25
321.962	965.25
322.191	999.25
322.42	951.25
322.649	935.25
322.878	952.25
323.108	973.25
323.337	1002.25
323.566	1001.25
323.795	1039.25
324.024	1027.25
324.253	1044.25
324.482	1055.25
324.71	1112.25
324.939	1165.25
325.168	1201.25
325.397	1234.25
325.626	1408.25
325.855	1839.25
326.084	2719.25
326.313	3935.25
326.542	4131.25
326.77	2816.25
326.999	1983.25
327.228	1733.25
327.457	1624.25
327.686	1660.25
327.914	1806.25
328.143	1995.25
328.372	2271.25
328.6	2441.25
328.829	2282.25
329.058	2070.25
329.287	1883.25
329.515	1726.25
329.744	1627.25
329.972	1542.25
330.201	1467.25
330.43	1424.25
330.658	1349.25
330.887	1399.25
331.115	1348.25
331.344	1352.25
331.572	1333.25
331.801	1328.25
332.03	1343.25
332.258	1355.25
332.486	1387.25
332.715	1541.25
332.943	1773.25
333.172	2118.25
333.4	2100.25
333.629	1730.25
333.857	1594.25
334.085	1651.25
334.314	1721.25
334.542	1862.25
334.771	2133.25
334.999	2487.25
335.227	2972.25
335.455	3267.25
335.684	3101.25
335.912	2661.25
336.14	2324.25
336.369	2117.25
336.597	1962.25
336.825	1805.25
337.053	1745.25
337.281	1635.25
337.51	1523.25
337.738	1496.25
337.966	1438.25
338.194	1372.25
338.422	1336.25
338.65	1292.25
338.878	1297.25
339.106	1288.25
339.334	1240.25
339.562	1201.25
339.79	1188.25
340.018	1178.25
340.246	1185.25
340.474	1175.25
340.702	1195.25
340.93	1181.25
341.158	1185.25
341.386	1160.25
341.614	1167.25
341.842	1144.25
342.07	1109.25
342.298	1099.25
342.526	1078.25
342.754	1091.25
342.981	1077.25
343.209	1098.25
343.437	1087.25
343.665	1113.25
343.893	1098.25
344.12	1117.25
344.348	1075.25
344.576	1080.25
344.804	1027.25
345.031	1021.25
345.259	1042.25
345.487	1057.25
345.714	1003.25
345.942	1015.25
346.17	1051.25
346.397	998.25
346.625	997.25
346.853	1018.25
347.08	970.25
347.308	969.25
347.535	1003.25
347.763	980.25
347.99	1001.25
348.218	999.25
348.445	971.25
348.673	979.25
348.9	995.25
349.128	981.25
349.355	952.25
349.583	973.25
349.81	962.25
350.037	992.25
350.265	951.25
350.492	981.25
350.72	969.25
350.947	962.25
351.174	967.25
351.402	943.25
351.629	947.25
351.856	974.25
352.083	985.25
352.311	961.25
352.538	947.25
352.765	965.25
352.992	975.25
353.22	943.25
353.447	920.25
353.674	984.25
353.901	980.25
354.128	975.25
354.355	986.25
354.583	972.25
354.81	960.25
355.037	961.25
355.264	961.25
355.491	966.25
355.718	958.25
355.945	986.25
356.172	1017.25
356.399	991.25
356.626	969.25
356.853	994.25
357.08	993.25
357.307	1031.25
357.534	1044.25
357.761	1014.25
357.988	1008.25
358.215	1014.25
358.441	992.25
358.668	1004.25
358.895	1026.25
359.122	983.25
359.349	1029.25
359.576	1007.25
359.802	1033.25
360.029	1012.25
360.256	1016.25
360.483	1036.25
360.709	1010.25
360.936	1050.25
361.163	1046.25
361.39	1025.25
361.616	1026.25
361.843	1043.25
362.07	1015.25
362.296	1016.25
362.523	1040.25
362.749	1019.25
362.976	1040.25
363.203	1042.25
363.429	1029.25
363.656	1001.25
363.882	1026.25
364.109	1016.25
364.335	1017.25
364.562	1039.25
364.788	1015.25
365.015	1051.25
365.241	1027.25
365.468	1068.25
365.694	1076.25
365.92	1058.25
366.147	1031.25
366.373	1050.25
366.599	1044.25
366.826	1051.25
367.052	1030.25
367.278	1040.25
367.505	1051.25
367.731	1039.25
367.957	1069.25
368.184	1041.25
368.41	1066.25
368.636	1068.25
368.862	1079.25
369.089	1075.25
369.315	1082.25
369.541	1062.25
369.767	1075.25
369.993	1066.25
370.219	1104.25
370.445	1052.25
370.672	1068.25
370.898	1046.25
371.124	1078.25
371.35	1101.25
371.576	1108.25
371.802	1110.25
372.028	1078.25
372.254	1094.25
372.48	1103.25
372.706	1081.25
372.932	1141.25
373.158	1121.25
373.384	1115.25
373.61	1141.25
373.835	1107.25
374.061	1145.25
374.287	1128.25
374.513	1135.25
374.739	1165.25
374.965	1165.25
375.191	1173.25
375.416	1188.25
375.642	1156.25
375.868	1184.25
376.094	1148.25
376.319	1091.25
376.545	1128.25
376.771	1079.25
376.997	1104.25
377.222	1126.25
377.448	1060.25
377.674	1107.25
377.899	1076.25
378.125	1115.25
378.35	1119.25
378.576	1125.25
378.802	1099.25
379.027	1117.25
379.253	1108.25
379.478	1162.25
379.704	1331.25
379.929	1718.25
380.155	2420.25
380.38	2533.25
380.606	1750.25
380.831	1357.25
381.057	1252.25
381.282	1163.25
381.507	1169.25
381.733	1148.25
381.958	1078.25
382.184	1107.25
382.409	1112.25
382.634	1047.25
382.86	1084.25
383.085	1093.25
383.31	1095.25
383.535	1123.25
383.761	1068.25
383.986	1079.25
384.211	1091.25
384.436	1103.25
384.662	1120.25
384.887	1117.25
385.112	1106.25
385.337	1156.25
385.562	1162.25
385.787	1105.25
386.013	1146.25
386.238	1165.25
386.463	1127.25
386.688	1145.25
386.913	1123.25
387.138	1103.25
387.363	1136.25
387.588	1144.25
387.813	1127.25
388.038	1107.25
388.263	1138.25
388.488	1131.25
388.713	1122.25
388.938	1103.25
389.163	1116.25
389.387	1135.25
389.612	1115.25
389.837	1133.25
390.062	1108.25
390.287	1133.25
390.512	1117.25
390.736	1130.25
390.961	1187.25
391.186	1169.25
391.411	1178.25
391.636	1195.25
391.86	1204.25
392.085	1229.25
392.31	1164.25
392.534	1186.25
392.759	1167.25
392.984	1142.25
393.208	1156.25
393.433	1117.25
393.658	1125.25
393.882	1154.25
394.107	1106.25
394.331	1165.25
394.556	1129.25
394.78	1135.25
395.005	1125.25
395.229	1163.25
395.454	1194.25
395.678	1166.25
395.903	1185.25
396.127	1166.25
396.352	1147.25
396.576	1159.25
396.801	1147.25
397.025	1184.25
397.249	1189.25
397.474	1209.25
397.698	1193.25
397.922	1204.25
398.147	1168.25
398.371	1255.25
398.595	1251.25
398.82	1301.25
399.044	1340.25
399.268	1393.25
399.492	1447.25
399.717	1503.25
399.941	1552.25
400.165	1452.25
400.389	1369.25
400.613	1349.25
400.837	1307.25
401.062	1287.25
401.286	1280.25
401.51	1236.25
401.734	1228.25
401.958	1271.25
402.182	1254.25
402.406	1263.25
402.63	1295.25
402.854	1287.25
403.078	1251.25
403.302	1294.25
403.526	1323.25
403.75	1289.25
403.974	1297.25
404.198	1283.25
404.422	1324.25
404.645	1297.25
404.869	1259.25
405.093	1290.25
405.317	1248.25
405.541	1307.25
405.765	1315.25
405.988	1311.25
406.212	1338.25
406.436	1338.25
406.66	1355.25
406.883	1354.25
407.107	1363.25
407.331	1400.25
407.555	1439.25
407.778	1400.25
408.002	1404.25
408.226	1374.25
408.449	1348.25
408.673	1323.25
408.896	1328.25
409.12	1281.25
409.344	1313.25
409.567	1316.25
409.791	1284.25
410.014	1268.25
410.238	1299.25
410.461	1300.25
410.685	1283.25
410.908	1301.25
411.132	1283.25
411.355	1254.25
411.578	1255.25
411.802	1221.25
412.025	1254.25
412.249	1252.25
412.472	1251.25
412.695	1247.25
412.919	1232.25
413.142	1216.25
413.365	1230.25
413.589	1214.25
413.812	1224.25
414.035	1224.25
414.258	1216.25
414.482	1220.25
414.705	1221.25
414.928	1229.25
415.151	1216.25
415.374	1211.25
415.597	1180.25
415.821	1199.25
416.044	1190.25
416.267	1209.25
416.49	1184.25
416.713	1165.25
416.936	1189.25
417.159	1168.25
417.382	1171.25
417.605	1141.25
417.828	1173.25
418.051	1178.25
418.274	1224.25
418.497	1203.25
418.72	1218.25
418.943	1215.25
419.166	1258.25
419.389	1306.25
419.611	1280.25
419.834	1240.25
420.057	1250.25
420.28	1202.25
420.503	1179.25
420.726	1176.25
420.948	1171.25
421.171	1192.25
421.394	1199.25
421.617	1194.25
421.839	1211.25
422.062	1204.25
422.285	1166.25
422.507	1220.25
422.73	1210.25
422.953	1191.25
423.175	1227.25
423.398	1212.25
423.621	1184.25
423.843	1187.25
424.066	1198.25
424.288	1192.25
424.511	1169.25
424.733	1194.25
424.956	1191.25
425.178	1157.25
425.401	1181.25
425.623	1178.25
425.846	1119.25
426.068	1177.25
426.291	1183.25
426.513	1139.25
426.735	1137.25
426.958	1148.25
427.18	1135.25
427.402	1133.25
427.625	1146.25
427.847	1105.25
428.069	1092.25
428.292	1110.25
428.514	1127.25
428.736	1101.25
428.958	1137.25
429.181	1101.25
429.403	1107.25
429.625	1092.25
429.847	1073.25
430.069	1124.25
430.292	1142.25
430.514	1169.25
430.736	1155.25
430.958	1112.25
431.18	1108.25
431.402	1137.25
431.624	1099.25
431.846	1055.25
432.068	1049.25
432.29	1080.25
432.512	1078.25
432.734	1116.25
432.956	1081.25
433.178	1097.25
433.4	1070.25
433.622	1110.25
433.844	1098.25
434.066	1120.25
434.287	1067.25
434.509	1088.25
434.731	1125.25
434.953	1142.25
435.175	1141.25
435.397	1149.25
435.618	1104.25
435.84	1101.25
436.062	1088.25
436.284	1091.25
436.505	1102.25
436.727	1089.25
436.949	1071.25
437.17	1092.25
437.392	1095.25
437.614	1071.25
437.835	1033.25
438.057	1067.25
438.278	1035.25
438.5	1073.25
438.721	1085.25
438.943	1097.25
439.165	1112.25
439.386	1112.25
439.608	1127.25
439.829	1147.25
440.05	1155.25
440.272	1164.25
440.493	1129.25
440.715	1118.25
440.936	1159.25
441.158	1182.25
441.379	1146.25
441.6	1201.25
441.822	1205.25
442.043	1236.25
442.264	1255.25
442.486	1197.25
442.707	1186.25
442.928	1159.25
443.149	1160.25
443.371	1151.25
443.592	1156.25
443.813	1210.25
444.034	1167.25
444.255	1235.25
444.476	1204.25
444.698	1259.25
444.919	1283.25
445.14	1327.25
445.361	1285.25
445.582	1231.25
445.803	1201.25
446.024	1168.25
446.245	1201.25
446.466	1166.25
446.687	1129.25
446.908	1171.25
447.129	1122.25
447.35	1141.25
447.571	1105.25
447.792	1073.25
448.013	1099.25
448.234	1092.25
448.455	1061.25
448.675	1075.25
448.896	1095.25
449.117	1115.25
449.338	1195.25
449.559	1258.25
449.779	1161.25
450	1065.25
450.221	1071.25
450.442	1076.25
450.662	1036.25
450.883	1034.25
451.104	1058.25
451.324	1043.25
451.545	1048.25
451.766	1047.25
451.986	1076.25
452.207	1135.25
452.428	1280.25
452.648	1703.25
452.869	1455.25
453.089	1164.25
453.31	1111.25
453.53	1151.25
453.751	1155.25
453.971	1196.25
454.192	1190.25
454.412	1115.25
454.633	1035.25
454.853	997.25
455.073	1012.25
455.294	1015.25
455.514	1010.25
455.734	1005.25
455.955	975.25
456.175	985.25
456.395	976.25
456.616	967.25
456.836	991.25
457.056	1026.25
457.276	1043.25
457.497	1052.25
457.717	1047.25
457.937	1049.25
458.157	1058.25
458.377	1049.25
458.598	1075.25
458.818	1075.25
459.038	1072.25
459.258	1057.25
459.478	1084.25
459.698	1093.25
459.918	1129.25
460.138	1156.25
460.358	1174.25
460.578	1164.25
460.798	1179.25
461.018	1155.25
461.238	1214.25
461.458	1184.25
461.678	1187.25
461.898	1229.25
462.118	1203.25
462.338	1251.25
462.558	1281.25
462.777	1291.25
462.997	1347.25
463.217	1352.25
463.437	1363.25
463.657	1391.25
463.876	1391.25
464.096	1311.25
464.316	1292.25
464.536	1316.25
464.755	1273.25
464.975	1236.25
465.195	1235.25
465.414	1196.25
465.634	1142.25
465.854	1113.25
466.073	1133.25
466.293	1118.25
466.512	1098.25
466.732	1124.25
466.951	1163.25
467.171	1204.25
467.391	1185.25
467.61	1135.25
467.829	1092.25
468.049	1045.25
468.268	1066.25
468.488	1083.25
468.707	1081.25
468.927	1066.25
469.146	1080.25
469.365	1057.25
469.585	1105.25
469.804	1102.25
470.023	1119.25
470.243	1134.25
470.462	1131.25
470.681	1194.25
470.901	1266.25
471.12	1436.25
471.339	1437.25
471.558	1249.25
471.777	1161.25
471.997	1124.25
472.216	1089.25
472.435	1065.25
472.654	1098.25
472.873	1073.25
473.092	1061.25
473.311	1089.25
473.53	1062.25
473.749	1119.25
473.968	1105.25
474.187	1117.25
474.406	1073.25
474.625	1072.25
474.844	1079.25
475.063	1101.25
475.282	1090.25
475.501	1111.25
475.72	1102.25
475.939	1098.25
476.158	1138.25
476.377	1139.25
476.596	1149.25
476.814	1148.25
477.033	1150.25
477.252	1136.25
477.471	1161.25
477.69	1171.25
477.908	1215.25
478.127	1227.25
478.346	1223.25
478.564	1227.25
478.783	1252.25
479.002	1271.25
479.22	1297.25
479.439	1299.25
479.658	1284.25
479.876	1302.25
480.095	1268.25
480.313	1271.25
480.532	1276.25
480.751	1284.25
480.969	1303.25
481.188	1289.25
481.406	1250.25
481.624	1276.25
481.843	1283.25
482.061	1263.25
482.28	1251.25
482.498	1283.25
482.717	1286.25
482.935	1305.25
483.153	1287.25
483.372	1319.25
483.59	1327.25
483.808	1360.25
484.027	1350.25
484.245	1433.25
484.463	1535.25
484.681	1675.25
484.9	1588.25
485.118	1509.25
485.336	1459.25
485.554	1458.25
485.772	1560.25
485.99	1695.25
486.209	1791.25
486.427	1538.25
486.645	1406.25
486.863	1385.25
487.081	1395.25
487.299	1374.25
487.517	1381.25
487.735	1425.25
487.953	1431.25
488.171	1427.25
488.389	1399.25
488.607	1353.25
488.825	1340.25
489.043	1333.25
489.261	1323.25
489.479	1331.25
489.696	1331.25
489.914	1347.25
490.132	1347.25
490.35	1385.25
490.568	1391.25
490.786	1360.25
491.003	1419.25
491.221	1418.25
491.439	1419.25
491.657	1454.25
491.874	1476.25
492.092	1464.25
492.31	1475.25
492.527	1479.25
492.745	1459.25
492.963	1422.25
493.18	1445.25
493.398	1435.25
493.615	1446.25
493.833	1433.25
494.05	1439.25
494.268	1470.25
494.485	1399.25
494.703	1419.25
494.92	1403.25
495.138	1394.25
495.355	1424.25
495.573	1385.25
495.79	1438.25
496.008	1460.25
496.225	1409.25
496.442	1455.25
496.66	1500.25
496.877	1552.25
497.094	1547.25
497.312	1521.25
497.529	1539.25
497.746	1563.25
497.963	1560.25
498.181	1591.25
498.398	1618.25
498.615	1661.25
498.832	1696.25
499.049	1759.25
499.267	1875.25
499.484	2077.25
499.701	2060.25
499.918	2146.25
500.135	2266.25
500.352	2398.25
500.569	2415.25
500.786	2461.25
501.003	2354.25
501.22	2230.25
501.437	2104.25
501.654	1980.25
501.871	1874.25
502.088	1803.25
502.305	1736.25
502.522	1736.25
502.739	1673.25
502.956	1592.25
503.172	1559.25
503.389	1522.25
503.606	1480.25
503.823	1459.25
504.04	1474.25
504.256	1455.25
504.473	1476.25
504.69	1469.25
504.907	1446.25
505.123	1429.25
505.34	1383.25
505.557	1347.25
505.773	1349.25
505.99	1341.25
506.207	1317.25
506.423	1301.25
506.64	1311.25
506.856	1245.25
507.073	1274.25
507.289	1255.25
507.506	1236.25
507.722	1239.25
507.939	1256.25
508.155	1217.25
508.372	1221.25
508.588	1216.25
508.805	1220.25
509.021	1221.25
509.238	1212.25
509.454	1266.25
509.67	1311.25
509.887	1229.25
510.103	1219.25
510.319	1236.25
510.536	1193.25
510.752	1191.25
510.968	1184.25
511.184	1187.25
511.401	1155.25
511.617	1143.25
511.833	1167.25
512.049	1136.25
512.265	1167.25
512.481	1181.25
512.698	1168.25
512.914	1165.25
513.13	1177.25
513.346	1122.25
513.562	1143.25
513.778	1185.25
513.994	1164.25
514.21	1214.25
514.426	1262.25
514.642	1294.25
514.858	1206.25
515.074	1199.25
515.29	1180.25
515.506	1190.25
515.721	1174.25
515.937	1207.25
516.153	1183.25
516.369	1196.25
516.585	1226.25
516.801	1231.25
517.016	1283.25
517.232	1293.25
517.448	1313.25
517.664	1348.25
517.879	1329.25
518.095	1310.25
518.311	1274.25
518.527	1295.25
518.742	1271.25
518.958	1292.25
519.173	1263.25
519.389	1228.25
519.605	1226.25
519.82	1221.25
520.036	1159.25
520.251	1185.25
520.467	1180.25
520.682	1158.25
520.898	1139.25
521.113	1177.25
521.329	1144.25
521.544	1120.25
521.76	1151.25
521.975	1139.25
522.19	1146.25
522.406	1128.25
522.621	1132.25
522.836	1155.25
523.052	1137.25
523.267	1141.25
523.482	1133.25
523.698	1147.25
523.913	1114.25
524.128	1121.25
524.343	1140.25
524.559	1126.25
524.774	1148.25
524.989	1145.25
525.204	1122.25
525.419	1130.25
525.634	1097.25
525.849	1157.25
526.064	1107.25
526.28	1121.25
526.495	1112.25
526.71	1111.25
526.925	1116.25
527.14	1108.25
527.355	1120.25
527.57	1158.25
527.785	1145.25
527.999	1130.25
528.214	1143.25
528.429	1157.25
528.644	1173.25
528.859	1186.25
529.074	1207.25
529.289	1215.25
529.503	1190.25
529.718	1179.25
529.933	1210.25
530.148	1183.25
530.363	1153.25
530.577	1163.25
530.792	1165.25
531.007	1186.25
531.221	1186.25
531.436	1227.25
531.651	1217.25
531.865	1228.25
532.08	1214.25
532.295	1239.25
532.509	1286.25
532.724	1318.25
532.938	1299.25
533.153	1290.25
533.367	1368.25
533.582	1429.25
533.796	1411.25
534.011	1402.25
534.225	1378.25
534.44	1319.25
534.654	1324.25
534.868	1308.25
535.083	1267.25
535.297	1283.25
535.511	1246.25
535.726	1237.25
535.94	1239.25
536.154	1220.25
536.369	1182.25
536.583	1201.25
536.797	1162.25
537.011	1163.25
537.225	1125.25
537.44	1185.25
537.654	1171.25
537.868	1135.25
538.082	1099.25
538.296	1137.25
538.51	1096.25
538.724	1130.25
538.938	1131.25
539.153	1112.25
539.367	1116.25
539.581	1099.25
539.795	1096.25
540.009	1043.25
540.222	1059.25
540.436	1089.25
540.65	1085.25
540.864	1080.25
541.078	1133.25
541.292	1178.25
541.506	1341.25
541.72	1384.25
541.934	1239.25
542.147	1208.25
542.361	1177.25
542.575	1138.25
542.789	1114.25
543.002	1071.25
543.216	1065.25
543.43	1055.25
543.644	1034.25
543.857	1043.25
544.071	1100.25
544.285	1080.25
544.498	1090.25
544.712	1094.25
544.925	1080.25
545.139	1108.25
545.352	1110.25
545.566	1060.25
545.779	1097.25
545.993	1109.25
546.206	1120.25
546.42	1083.25
546.633	1100.25
546.847	1111.25
547.06	1091.25
547.274	1096.25
547.487	1100.25
547.7	1112.25
547.914	1089.25
548.127	1113.25
548.34	1117.25
548.554	1095.25
548.767	1077.25
548.98	1093.25
549.193	1093.25
549.407	1101.25
549.62	1105.25
549.833	1099.25
550.046	1121.25
550.259	1104.25
550.473	1080.25
550.686	1109.25
550.899	1082.25
551.112	1085.25
551.325	1095.25
551.538	1075.25
551.751	1090.25
551.964	1094.25
552.177	1104.25
552.39	1108.25
552.603	1112.25
552.816	1161.25
553.029	1173.25
553.242	1161.25
553.455	1200.25
553.667	1215.25
553.88	1219.25
554.093	1203.25
554.306	1225.25
554.519	1176.25
554.732	1219.25
554.944	1234.25
555.157	1238.25
555.37	1227.25
555.583	1271.25
555.795	1327.25
556.008	1384.25
556.221	1467.25
556.433	1539.25
556.646	1558.25
556.859	1485.25
557.071	1491.25
557.284	1465.25
557.496	1424.25
557.709	1461.25
557.921	1436.25
558.134	1412.25
558.346	1441.25
558.559	1421.25
558.771	1517.25
558.984	1595.25
559.196	1633.25
559.409	1629.25
559.621	1592.25
559.833	1491.25
560.046	1449.25
560.258	1365.25
560.47	1358.25
560.683	1301.25
560.895	1241.25
561.107	1232.25
561.32	1176.25
561.532	1192.25
561.744	1174.25
561.956	1121.25
562.168	1124.25
562.381	1089.25
562.593	1110.25
562.805	1087.25
563.017	1098.25
563.229	1116.25
563.441	1201.25
563.653	1087.25
563.865	1067.25
564.077	1041.25
564.289	1032.25
564.501	992.25
564.713	996.25
564.925	990.25
565.137	1015.25
565.349	1001.25
565.561	1024.25
565.773	1027.25
565.985	1026.25
566.197	1038.25
566.408	1041.25
566.62	1097.25
566.832	1107.25
567.044	1100.25
567.255	1119.25
567.467	1127.25
567.679	1152.25
567.891	1212.25
568.102	1267.25
568.314	1421.25
568.526	1226.25
568.737	1093.25
568.949	1044.25
569.161	964.25
569.372	953.25
569.584	927.25
569.795	898.25
570.007	877.25
570.218	885.25
570.43	887.25
570.641	895.25
570.853	855.25
571.064	860.25
571.276	830.25
571.487	820.25
571.698	825.25
571.91	800.25
572.121	812.25
572.333	790.25
572.544	797.25
572.755	836.25
572.966	929.25
573.178	845.25
573.389	779.25
573.6	798.25
573.811	737.25
574.023	734.25
574.234	743.25
574.445	731.25
574.656	723.25
574.867	754.25
575.078	730.25
575.289	765.25
575.501	730.25
575.712	728.25
575.923	737.25
576.134	724.25
576.345	736.25
576.556	740.25
576.767	717.25
576.978	728.25
577.188	736.25
577.399	749.25
577.61	722.25
577.821	752.25
578.032	709.25
578.243	746.25
578.454	765.25
578.665	793.25
578.875	791.25
579.086	813.25
579.297	834.25
579.508	874.25
579.718	920.25
579.929	963.25
580.14	1080.25
580.35	1101.25
580.561	1096.25
580.772	1042.25
580.982	973.25
581.193	925.25
581.403	897.25
581.614	844.25
581.825	825.25
582.035	781.25
582.246	775.25
582.456	761.25
582.667	728.25
582.877	740.25
583.087	731.25
583.298	673.25
583.508	693.25
583.719	650.25
583.929	675.25
584.139	620.25
584.35	650.25
584.56	652.25
584.77	644.25
584.981	637.25
585.191	612.25
585.401	632.25
585.611	594.25
585.821	605.25
586.032	585.25
586.242	584.25
586.452	581.25
586.662	585.25
586.872	577.25
587.082	573.25
587.292	572.25
587.502	580.25
587.713	570.25
587.923	548.25
588.133	541.25
588.343	563.25
588.553	540.25
588.762	538.25
588.972	546.25
589.182	555.25
589.392	539.25
589.602	522.25
589.812	518.25
590.022	555.25
590.232	519.25
590.441	507.25
590.651	520.25
590.861	512.25
591.071	504.25
591.281	524.25
591.49	522.25
591.7	516.25
591.91	538.25
592.119	528.25
592.329	521.25
592.539	529.25
592.748	539.25
592.958	562.25
593.167	575.25
593.377	540.25
593.587	551.25
593.796	554.25
594.006	554.25
594.215	567.25
594.424	527.25
594.634	535.25
594.843	534.25
595.053	535.25
595.262	525.25
595.472	513.25
595.681	507.25
595.89	482.25
596.1	480.25
596.309	497.25
596.518	491.25
596.727	490.25
596.937	475.25
597.146	469.25
597.355	481.25
597.564	478.25
597.774	486.25
597.983	454.25
598.192	449.25
598.401	436.25
598.61	457.25
598.819	461.25
599.028	446.25
599.237	471.25
599.446	447.25
599.655	436.25
599.864	423.25
600.073	432.25
600.282	429.25
600.491	443.25
600.7	437.25
600.909	435.25
601.118	441.25
601.327	439.25
601.536	437.25
601.745	436.25
601.953	462.25
602.162	522.25
602.371	464.25
602.58	452.25
602.789	434.25
602.997	435.25
603.206	449.25
603.415	415.25
603.623	431.25
603.832	408.25
604.041	420.25
604.249	392.25
604.458	408.25
604.666	407.25
604.875	411.25
605.084	403.25
605.292	434.25
605.501	445.25
605.709	420.25
605.918	427.25
606.126	407.25
606.334	437.25
606.543	433.25
606.751	455.25
606.96	481.25
607.168	522.25
607.376	457.25
607.585	433.25
607.793	442.25
608.001	439.25
608.21	391.25
608.418	424.25
608.626	404.25
608.834	416.25
609.043	388.25
609.251	412.25
609.459	433.25
609.667	385.25
609.875	398.25
610.083	405.25
610.291	419.25
610.499	405.25
610.707	392.25
610.916	395.25
611.124	409.25
611.332	393.25
611.54	403.25
611.748	390.25
611.955	401.25
612.163	391.25
612.371	393.25
612.579	381.25
612.787	378.25
612.995	380.25
613.203	370.25
613.411	382.25
613.618	390.25
613.826	384.25
614.034	391.25
614.242	401.25
614.449	373.25
614.657	384.25
614.865	390.25
615.072	401.25
615.28	383.25
615.488	389.25
615.695	404.25
615.903	381.25
616.111	385.25
616.318	388.25
616.526	373.25
616.733	387.25
616.941	375.25
617.148	392.25
617.356	379.25
617.563	374.25
617.771	380.25
617.978	365.25
618.185	385.25
618.393	374.25
618.6	368.25
618.807	359.25
619.015	375.25
619.222	354.25
619.429	361.25
619.637	352.25
619.844	355.25
620.051	351.25
620.258	336.25
620.466	349.25
620.673	337.25
620.88	346.25
621.087	362.25
621.294	332.25
621.501	348.25
621.708	348.25
621.915	339.25
622.122	346.25
622.329	352.25
622.536	335.25
622.743	330.25
622.95	354.25
623.157	350.25
623.364	347.25
623.571	306.25
623.778	342.25
623.985	334.25
624.192	348.25
624.399	335.25
624.606	337.25
624.812	332.25
625.019	328.25
625.226	328.25
625.433	326.25
625.639	327.25
625.846	304.25
626.053	315.25
626.259	309.25
626.466	315.25
626.673	287.25
626.879	308.25
627.086	314.25
627.293	304.25
627.499	332.25
627.706	319.25
627.912	326.25
628.119	312.25
628.325	312.25
628.532	304.25
628.738	319.25
628.945	321.25
629.151	316.25
629.357	323.25
629.564	309.25
629.77	305.25
629.976	301.25
630.183	303.25
630.389	319.25
630.595	313.25
630.802	309.25
631.008	297.25
631.214	290.25
631.42	296.25
631.627	314.25
631.833	293.25
632.039	296.25
632.245	291.25
632.451	301.25
632.657	289.25
632.863	300.25
633.069	306.25
633.275	281.25
633.481	283.25
633.688	287.25
633.893	296.25
634.099	308.25
634.305	298.25
634.511	283.25
634.717	277.25
634.923	291.25
635.129	317.25
635.335	345.25
635.541	322.25
635.747	287.25
635.952	296.25
636.158	294.25
636.364	285.25
636.57	301.25
636.775	300.25
636.981	311.25
637.187	311.25
637.392	301.25
637.598	303.25
637.804	275.25
638.009	310.25
638.215	295.25
638.421	294.25
638.626	292.25
638.832	308.25
639.037	306.25
639.243	307.25
639.448	296.25
639.654	309.25
639.859	319.25
640.065	305.25
640.27	297.25
640.475	281.25
640.681	297.25
640.886	298.25
641.091	293.25
641.297	294.25
641.502	310.25
641.707	332.25
641.913	320.25
642.118	318.25
642.323	301.25
642.528	314.25
642.733	329.25
642.939	357.25
643.144	345.25
643.349	341.25
643.554	346.25
643.759	351.25
643.964	374.25
644.169	391.25
644.374	394.25
644.579	438.25
644.784	454.25
644.989	490.25
645.194	578.25
645.399	631.25
645.604	655.25
645.809	544.25
646.014	451.25
646.219	415.25
646.423	379.25
646.628	372.25
646.833	346.25
647.038	313.25
647.243	310.25
647.447	321.25
647.652	277.25
647.857	287.25
648.062	291.25
648.266	287.25
648.471	291.25
648.676	278.25
648.88	281.25
649.085	292.25
649.289	289.25
649.494	265.25
649.698	268.25
649.903	255.25
650.107	259.25
650.312	249.25
650.516	239.25
650.721	257.25
650.925	255.25
651.13	251.25
651.334	227.25
651.539	227.25
651.743	217.25
651.947	224.25
652.152	239.25
652.356	218.25
652.56	234.25
652.764	264.25
652.969	255.25
653.173	222.25
653.377	215.25
653.581	198.25
653.785	218.25
653.99	216.25
654.194	205.25
654.398	202.25
654.602	197.25
654.806	211.25
655.01	223.25
655.214	204.25
655.418	218.25
655.622	200.25
655.826	210.25
656.03	217.25
656.234	205.25
656.438	211.25
656.642	211.25
656.846	229.25
657.049	195.25
657.253	182.25
657.457	181.25
657.661	168.25
657.865	167.25
658.068	160.25
658.272	150.25
658.476	134.25
658.68	145.25
658.883	140.25
659.087	135.25
659.291	141.25
659.494	124.25
659.698	119.25
659.901	134.25
660.105	123.25
660.309	113.25
660.512	120.25
660.716	103.25
660.919	106.25
661.123	120.25
661.326	108.25
661.53	97.25
661.733	111.25
661.936	89.25
662.14	101.25
662.343	100.25
662.546	99.25
662.75	95.25
662.953	87.25
663.156	94.25
663.36	88.25
663.563	83.25
663.766	81.25
663.969	83.25
664.173	84.25
664.376	85.25
664.579	93.25
664.782	98.25
664.985	79.25
665.188	85.25
665.391	78.25
665.594	81.25
665.797	81.25
666	80.25
666.203	82.25
666.406	93.25
666.609	77.25
666.812	77.25
667.015	75.25
667.218	69.25
667.421	71.25
667.624	84.25
667.827	78.25
668.03	75.25
668.232	85.25
668.435	86.25
668.638	86.25
668.841	85.25
669.043	74.25
669.246	79.25
669.449	90.25
669.651	76.25
669.854	75.25
670.057	69.25
670.259	90.25
670.462	76.25
670.665	81.25
670.867	74.25
671.07	66.25
671.272	80.25
671.475	85.25
671.677	81.25
671.88	84.25
672.082	92.25
672.284	69.25
672.487	83.25
672.689	73.25
672.892	68.25
