Data from SnStandardFlinnAPT0064_LampEnergy5.5_LIBS07252019.E.O._I.C._HRD10591_15-17-38-492.txt Node
Date: Thu Jul 25 15:17:38 EDT 2019
User: cochatt
Spectrometer: HR+D1059
Trigger mode: 1
Integration Time (sec): 1.000000E-1
Scans to average: 1
Electric dark correction enabled: true
Nonlinearity correction enabled: false
Boxcar width: 0
XAxis mode: Wavelengths
Number of Pixels in Spectrum: 2048
>>>>>Begin Spectral Data<<<<<
223.165	-6.75
223.4	-6.75
223.635	-6.75
223.869	-14.75
224.104	-13.75
224.338	-20.75
224.573	-8.75
224.808	-14.75
225.042	-14.75
225.277	5.25
225.511	-24.75
225.746	11.25
225.98	-1.75
226.215	3.25
226.449	12.25
226.683	16.25
226.918	36.25
227.152	36.25
227.387	36.25
227.621	30.25
227.856	33.25
228.09	47.25
228.324	46.25
228.559	56.25
228.793	103.25
229.027	163.25
229.262	174.25
229.496	157.25
229.73	160.25
229.964	157.25
230.199	170.25
230.433	171.25
230.667	150.25
230.901	188.25
231.136	180.25
231.37	192.25
231.604	198.25
231.838	241.25
232.072	249.25
232.306	268.25
232.541	224.25
232.775	205.25
233.009	203.25
233.243	207.25
233.477	239.25
233.711	242.25
233.945	283.25
234.179	247.25
234.413	223.25
234.647	220.25
234.881	226.25
235.115	251.25
235.349	291.25
235.583	364.25
235.817	477.25
236.051	458.25
236.285	307.25
236.519	246.25
236.753	226.25
236.987	240.25
237.221	256.25
237.455	254.25
237.689	217.25
237.922	229.25
238.156	235.25
238.39	232.25
238.624	246.25
238.858	215.25
239.091	226.25
239.325	235.25
239.559	252.25
239.793	235.25
240.027	235.25
240.26	257.25
240.494	267.25
240.728	284.25
240.961	274.25
241.195	291.25
241.429	304.25
241.662	306.25
241.896	362.25
242.13	402.25
242.363	562.25
242.597	724.25
242.83	658.25
243.064	672.25
243.298	774.25
243.531	648.25
243.765	426.25
243.998	358.25
244.232	314.25
244.465	297.25
244.699	306.25
244.932	314.25
245.166	301.25
245.399	308.25
245.633	308.25
245.866	315.25
246.099	312.25
246.333	289.25
246.566	318.25
246.8	296.25
247.033	301.25
247.266	309.25
247.5	319.25
247.733	308.25
247.966	329.25
248.2	350.25
248.433	391.25
248.666	452.25
248.899	410.25
249.133	372.25
249.366	388.25
249.599	410.25
249.832	468.25
250.066	439.25
250.299	377.25
250.532	362.25
250.765	355.25
250.998	350.25
251.231	350.25
251.465	332.25
251.698	326.25
251.931	342.25
252.164	364.25
252.397	371.25
252.63	360.25
252.863	359.25
253.096	356.25
253.329	366.25
253.562	338.25
253.795	363.25
254.028	371.25
254.261	380.25
254.494	389.25
254.727	448.25
254.96	528.25
255.193	533.25
255.426	440.25
255.659	387.25
255.892	388.25
256.124	393.25
256.357	405.25
256.59	394.25
256.823	432.25
257.056	468.25
257.289	553.25
257.521	608.25
257.754	521.25
257.987	434.25
258.22	402.25
258.452	406.25
258.685	425.25
258.918	402.25
259.151	452.25
259.383	484.25
259.616	511.25
259.849	552.25
260.081	464.25
260.314	418.25
260.547	436.25
260.779	424.25
261.012	440.25
261.244	433.25
261.477	439.25
261.71	446.25
261.942	455.25
262.175	466.25
262.407	474.25
262.64	487.25
262.872	500.25
263.105	525.25
263.337	552.25
263.57	550.25
263.802	593.25
264.035	595.25
264.267	591.25
264.499	614.25
264.732	619.25
264.964	634.25
265.197	649.25
265.429	653.25
265.661	644.25
265.894	704.25
266.126	762.25
266.358	853.25
266.591	838.25
266.823	704.25
267.055	635.25
267.287	622.25
267.52	630.25
267.752	569.25
267.984	574.25
268.216	571.25
268.448	574.25
268.681	546.25
268.913	546.25
269.145	565.25
269.377	567.25
269.609	561.25
269.841	561.25
270.073	636.25
270.306	708.25
270.538	962.25
270.77	1420.25
271.002	1706.25
271.234	1161.25
271.466	786.25
271.698	628.25
271.93	609.25
272.162	586.25
272.394	554.25
272.626	538.25
272.858	567.25
273.09	560.25
273.322	543.25
273.553	523.25
273.785	527.25
274.017	528.25
274.249	531.25
274.481	531.25
274.713	529.25
274.945	537.25
275.176	550.25
275.408	534.25
275.64	547.25
275.872	554.25
276.104	546.25
276.335	565.25
276.567	549.25
276.799	560.25
277.031	573.25
277.262	548.25
277.494	615.25
277.726	660.25
277.957	755.25
278.189	863.25
278.421	816.25
278.652	743.25
278.884	684.25
279.115	603.25
279.347	632.25
279.579	616.25
279.81	644.25
280.042	600.25
280.273	609.25
280.505	609.25
280.736	668.25
280.968	682.25
281.199	726.25
281.431	802.25
281.662	839.25
281.894	749.25
282.125	691.25
282.356	697.25
282.588	711.25
282.819	710.25
283.051	759.25
283.282	852.25
283.513	1058.25
283.745	1526.25
283.976	2470.25
284.207	3563.25
284.439	3139.25
284.67	1820.25
284.901	1491.25
285.132	1442.25
285.364	1377.25
285.595	1095.25
285.826	989.25
286.057	1200.25
286.288	1692.25
286.52	2258.25
286.751	2075.25
286.982	1274.25
287.213	924.25
287.444	811.25
287.675	762.25
287.906	760.25
288.138	723.25
288.369	722.25
288.6	730.25
288.831	711.25
289.062	731.25
289.293	722.25
289.524	687.25
289.755	722.25
289.986	744.25
290.217	744.25
290.448	728.25
290.679	720.25
290.91	751.25
291.141	789.25
291.371	823.25
291.602	844.25
291.833	783.25
292.064	731.25
292.295	705.25
292.526	711.25
292.757	698.25
292.987	676.25
293.218	658.25
293.449	654.25
293.68	665.25
293.91	675.25
294.141	664.25
294.372	671.25
294.603	678.25
294.833	676.25
295.064	677.25
295.295	683.25
295.525	662.25
295.756	673.25
295.987	674.25
296.217	693.25
296.448	675.25
296.679	657.25
296.909	664.25
297.14	704.25
297.37	691.25
297.601	705.25
297.831	678.25
298.062	699.25
298.292	696.25
298.523	746.25
298.753	736.25
298.984	729.25
299.214	738.25
299.445	744.25
299.675	746.25
299.905	775.25
300.136	817.25
300.366	932.25
300.597	1156.25
300.827	1647.25
301.057	2178.25
301.288	2171.25
301.518	1385.25
301.748	1048.25
301.979	972.25
302.209	937.25
302.439	926.25
302.669	1000.25
302.9	1195.25
303.13	1719.25
303.36	2562.25
303.59	3500.25
303.82	2979.25
304.051	1682.25
304.281	1150.25
304.511	994.25
304.741	938.25
304.971	892.25
305.201	874.25
305.431	840.25
305.661	803.25
305.891	805.25
306.121	817.25
306.352	806.25
306.582	758.25
306.812	782.25
307.042	793.25
307.272	786.25
307.502	791.25
307.731	786.25
307.961	792.25
308.191	780.25
308.421	786.25
308.651	769.25
308.881	791.25
309.111	762.25
309.341	795.25
309.571	811.25
309.8	798.25
310.03	807.25
310.26	817.25
310.49	822.25
310.72	828.25
310.949	818.25
311.179	827.25
311.409	827.25
311.639	837.25
311.868	827.25
312.098	844.25
312.328	840.25
312.557	850.25
312.787	846.25
313.017	816.25
313.246	881.25
313.476	857.25
313.706	884.25
313.935	937.25
314.165	974.25
314.394	1042.25
314.624	968.25
314.853	946.25
315.083	900.25
315.312	908.25
315.542	926.25
315.771	933.25
316.001	944.25
316.23	972.25
316.46	1039.25
316.689	1090.25
316.919	1370.25
317.148	1971.25
317.377	3103.25
317.607	4554.25
317.836	4701.25
318.065	2665.25
318.295	1700.25
318.524	1345.25
318.753	1182.25
318.983	1062.25
319.212	1058.25
319.441	1041.25
319.67	1030.25
319.9	993.25
320.129	996.25
320.358	998.25
320.587	989.25
320.816	1004.25
321.046	1003.25
321.275	1011.25
321.504	1023.25
321.733	1020.25
321.962	1031.25
322.191	1042.25
322.42	1010.25
322.649	1033.25
322.878	1047.25
323.108	1055.25
323.337	1103.25
323.566	1092.25
323.795	1099.25
324.024	1108.25
324.253	1151.25
324.482	1186.25
324.71	1242.25
324.939	1311.25
325.168	1326.25
325.397	1390.25
325.626	1698.25
325.855	2358.25
326.084	3704.25
326.313	5563.25
326.542	5888.25
326.77	3554.25
326.999	2300.25
327.228	1904.25
327.457	1826.25
327.686	1856.25
327.914	1990.25
328.143	2252.25
328.372	2602.25
328.6	2804.25
328.829	2582.25
329.058	2226.25
329.287	1982.25
329.515	1865.25
329.744	1711.25
329.972	1623.25
330.201	1584.25
330.43	1481.25
330.658	1458.25
330.887	1434.25
331.115	1451.25
331.344	1464.25
331.572	1396.25
331.801	1424.25
332.03	1475.25
332.258	1458.25
332.486	1556.25
332.715	1729.25
332.943	2127.25
333.172	2650.25
333.4	2618.25
333.629	2019.25
333.857	1771.25
334.085	1780.25
334.314	1903.25
334.542	2007.25
334.771	2364.25
334.999	2832.25
335.227	3390.25
335.455	3768.25
335.684	3498.25
335.912	2966.25
336.14	2560.25
336.369	2290.25
336.597	2063.25
336.825	1934.25
337.053	1837.25
337.281	1688.25
337.51	1658.25
337.738	1576.25
337.966	1546.25
338.194	1481.25
338.422	1434.25
338.65	1426.25
338.878	1394.25
339.106	1365.25
339.334	1342.25
339.562	1320.25
339.79	1295.25
340.018	1323.25
340.246	1293.25
340.474	1244.25
340.702	1266.25
340.93	1271.25
341.158	1290.25
341.386	1249.25
341.614	1228.25
341.842	1206.25
342.07	1191.25
342.298	1174.25
342.526	1159.25
342.754	1174.25
342.981	1148.25
343.209	1146.25
343.437	1176.25
343.665	1186.25
343.893	1165.25
344.12	1215.25
344.348	1183.25
344.576	1145.25
344.804	1156.25
345.031	1138.25
345.259	1127.25
345.487	1133.25
345.714	1139.25
345.942	1102.25
346.17	1118.25
346.397	1101.25
346.625	1113.25
346.853	1067.25
347.08	1072.25
347.308	1073.25
347.535	1052.25
347.763	1065.25
347.99	1090.25
348.218	1066.25
348.445	1054.25
348.673	1075.25
348.9	1091.25
349.128	1046.25
349.355	1034.25
349.583	1067.25
349.81	1047.25
350.037	1039.25
350.265	1055.25
350.492	1022.25
350.72	1056.25
350.947	1025.25
351.174	1023.25
351.402	1044.25
351.629	1024.25
351.856	1031.25
352.083	1051.25
352.311	1036.25
352.538	1037.25
352.765	1000.25
352.992	1046.25
353.22	1015.25
353.447	1042.25
353.674	1043.25
353.901	1026.25
354.128	1056.25
354.355	1064.25
354.583	1043.25
354.81	1010.25
355.037	1018.25
355.264	1033.25
355.491	1046.25
355.718	1037.25
355.945	1060.25
356.172	1068.25
356.399	1043.25
356.626	1045.25
356.853	1068.25
357.08	1086.25
357.307	1078.25
357.534	1083.25
357.761	1110.25
357.988	1106.25
358.215	1118.25
358.441	1095.25
358.668	1118.25
358.895	1096.25
359.122	1098.25
359.349	1101.25
359.576	1079.25
359.802	1094.25
360.029	1073.25
360.256	1058.25
360.483	1090.25
360.709	1120.25
360.936	1117.25
361.163	1090.25
361.39	1072.25
361.616	1092.25
361.843	1089.25
362.07	1099.25
362.296	1121.25
362.523	1119.25
362.749	1120.25
362.976	1075.25
363.203	1079.25
363.429	1090.25
363.656	1088.25
363.882	1094.25
364.109	1086.25
364.335	1091.25
364.562	1051.25
364.788	1116.25
365.015	1103.25
365.241	1111.25
365.468	1163.25
365.694	1188.25
365.92	1178.25
366.147	1106.25
366.373	1118.25
366.599	1113.25
366.826	1109.25
367.052	1095.25
367.278	1108.25
367.505	1128.25
367.731	1112.25
367.957	1135.25
368.184	1098.25
368.41	1154.25
368.636	1112.25
368.862	1147.25
369.089	1142.25
369.315	1162.25
369.541	1137.25
369.767	1140.25
369.993	1128.25
370.219	1117.25
370.445	1128.25
370.672	1125.25
370.898	1149.25
371.124	1162.25
371.35	1180.25
371.576	1181.25
371.802	1170.25
372.028	1159.25
372.254	1183.25
372.48	1180.25
372.706	1188.25
372.932	1236.25
373.158	1203.25
373.384	1199.25
373.61	1176.25
373.835	1193.25
374.061	1206.25
374.287	1207.25
374.513	1201.25
374.739	1252.25
374.965	1233.25
375.191	1248.25
375.416	1243.25
375.642	1196.25
375.868	1237.25
376.094	1217.25
376.319	1212.25
376.545	1176.25
376.771	1170.25
376.997	1172.25
377.222	1190.25
377.448	1172.25
377.674	1159.25
377.899	1160.25
378.125	1166.25
378.35	1189.25
378.576	1172.25
378.802	1200.25
379.027	1206.25
379.253	1250.25
379.478	1299.25
379.704	1489.25
379.929	2128.25
380.155	3346.25
380.38	3608.25
380.606	2144.25
380.831	1542.25
381.057	1337.25
381.282	1252.25
381.507	1204.25
381.733	1176.25
381.958	1186.25
382.184	1192.25
382.409	1159.25
382.634	1181.25
382.86	1188.25
383.085	1162.25
383.31	1181.25
383.535	1183.25
383.761	1191.25
383.986	1187.25
384.211	1185.25
384.436	1178.25
384.662	1187.25
384.887	1206.25
385.112	1204.25
385.337	1198.25
385.562	1205.25
385.787	1222.25
386.013	1221.25
386.238	1196.25
386.463	1221.25
386.688	1217.25
386.913	1187.25
387.138	1200.25
387.363	1231.25
387.588	1231.25
387.813	1204.25
388.038	1210.25
388.263	1194.25
388.488	1208.25
388.713	1225.25
388.938	1226.25
389.163	1173.25
389.387	1211.25
389.612	1194.25
389.837	1216.25
390.062	1214.25
390.287	1216.25
390.512	1218.25
390.736	1225.25
390.961	1258.25
391.186	1249.25
391.411	1286.25
391.636	1235.25
391.86	1242.25
392.085	1254.25
392.31	1278.25
392.534	1253.25
392.759	1260.25
392.984	1230.25
393.208	1252.25
393.433	1238.25
393.658	1269.25
393.882	1221.25
394.107	1230.25
394.331	1222.25
394.556	1242.25
394.78	1231.25
395.005	1204.25
395.229	1250.25
395.454	1262.25
395.678	1253.25
395.903	1255.25
396.127	1216.25
396.352	1262.25
396.576	1220.25
396.801	1220.25
397.025	1271.25
397.249	1274.25
397.474	1308.25
397.698	1284.25
397.922	1271.25
398.147	1240.25
398.371	1305.25
398.595	1334.25
398.82	1320.25
399.044	1408.25
399.268	1480.25
399.492	1556.25
399.717	1590.25
399.941	1572.25
400.165	1510.25
400.389	1474.25
400.613	1418.25
400.837	1383.25
401.062	1383.25
401.286	1367.25
401.51	1305.25
401.734	1306.25
401.958	1387.25
402.182	1339.25
402.406	1329.25
402.63	1355.25
402.854	1342.25
403.078	1322.25
403.302	1348.25
403.526	1374.25
403.75	1375.25
403.974	1411.25
404.198	1372.25
404.422	1397.25
404.645	1385.25
404.869	1370.25
405.093	1377.25
405.317	1380.25
405.541	1425.25
405.765	1406.25
405.988	1408.25
406.212	1394.25
406.436	1421.25
406.66	1399.25
406.883	1433.25
407.107	1422.25
407.331	1497.25
407.555	1489.25
407.778	1506.25
408.002	1507.25
408.226	1497.25
408.449	1493.25
408.673	1417.25
408.896	1420.25
409.12	1425.25
409.344	1402.25
409.567	1374.25
409.791	1388.25
410.014	1386.25
410.238	1345.25
410.461	1363.25
410.685	1394.25
410.908	1386.25
411.132	1354.25
411.355	1344.25
411.578	1327.25
411.802	1333.25
412.025	1310.25
412.249	1346.25
412.472	1307.25
412.695	1330.25
412.919	1302.25
413.142	1312.25
413.365	1295.25
413.589	1316.25
413.812	1303.25
414.035	1304.25
414.258	1346.25
414.482	1311.25
414.705	1339.25
414.928	1304.25
415.151	1317.25
415.374	1330.25
415.597	1300.25
415.821	1264.25
416.044	1275.25
416.267	1257.25
416.49	1250.25
416.713	1244.25
416.936	1257.25
417.159	1254.25
417.382	1259.25
417.605	1247.25
417.828	1237.25
418.051	1282.25
418.274	1257.25
418.497	1264.25
418.72	1298.25
418.943	1274.25
419.166	1346.25
419.389	1409.25
419.611	1353.25
419.834	1362.25
420.057	1321.25
420.28	1270.25
420.503	1254.25
420.726	1279.25
420.948	1241.25
421.171	1259.25
421.394	1278.25
421.617	1272.25
421.839	1294.25
422.062	1281.25
422.285	1267.25
422.507	1278.25
422.73	1288.25
422.953	1289.25
423.175	1314.25
423.398	1302.25
423.621	1256.25
423.843	1267.25
424.066	1292.25
424.288	1274.25
424.511	1291.25
424.733	1287.25
424.956	1225.25
425.178	1236.25
425.401	1234.25
425.623	1274.25
425.846	1222.25
426.068	1230.25
426.291	1211.25
426.513	1220.25
426.735	1234.25
426.958	1228.25
427.18	1169.25
427.402	1195.25
427.625	1208.25
427.847	1187.25
428.069	1185.25
428.292	1195.25
428.514	1182.25
428.736	1193.25
428.958	1166.25
429.181	1184.25
429.403	1151.25
429.625	1172.25
429.847	1161.25
430.069	1184.25
430.292	1206.25
430.514	1251.25
430.736	1255.25
430.958	1209.25
431.18	1155.25
431.402	1150.25
431.624	1158.25
431.846	1147.25
432.068	1144.25
432.29	1154.25
432.512	1132.25
432.734	1172.25
432.956	1134.25
433.178	1180.25
433.4	1166.25
433.622	1173.25
433.844	1177.25
434.066	1156.25
434.287	1164.25
434.509	1173.25
434.731	1190.25
434.953	1187.25
435.175	1199.25
435.397	1179.25
435.618	1194.25
435.84	1160.25
436.062	1164.25
436.284	1185.25
436.505	1167.25
436.727	1180.25
436.949	1178.25
437.17	1180.25
437.392	1160.25
437.614	1127.25
437.835	1127.25
438.057	1118.25
438.278	1108.25
438.5	1141.25
438.721	1160.25
438.943	1198.25
439.165	1198.25
439.386	1257.25
439.608	1212.25
439.829	1215.25
440.05	1235.25
440.272	1242.25
440.493	1235.25
440.715	1227.25
440.936	1222.25
441.158	1188.25
441.379	1223.25
441.6	1249.25
441.822	1332.25
442.043	1354.25
442.264	1397.25
442.486	1330.25
442.707	1247.25
442.928	1219.25
443.149	1258.25
443.371	1245.25
443.592	1240.25
443.813	1239.25
444.034	1263.25
444.255	1242.25
444.476	1316.25
444.698	1343.25
444.919	1345.25
445.14	1408.25
445.361	1379.25
445.582	1316.25
445.803	1246.25
446.024	1244.25
446.245	1230.25
446.466	1231.25
446.687	1230.25
446.908	1224.25
447.129	1198.25
447.35	1214.25
447.571	1183.25
447.792	1136.25
448.013	1145.25
448.234	1165.25
448.455	1154.25
448.675	1183.25
448.896	1172.25
449.117	1204.25
449.338	1316.25
449.559	1355.25
449.779	1256.25
450	1141.25
450.221	1162.25
450.442	1140.25
450.662	1115.25
450.883	1100.25
451.104	1106.25
451.324	1104.25
451.545	1099.25
451.766	1133.25
451.986	1140.25
452.207	1220.25
452.428	1491.25
452.648	2161.25
452.869	1806.25
453.089	1321.25
453.31	1248.25
453.53	1229.25
453.751	1264.25
453.971	1386.25
454.192	1369.25
454.412	1167.25
454.633	1119.25
454.853	1097.25
455.073	1105.25
455.294	1083.25
455.514	1094.25
455.734	1057.25
455.955	1057.25
456.175	1091.25
456.395	1070.25
456.616	1098.25
456.836	1085.25
457.056	1074.25
457.276	1072.25
457.497	1182.25
457.717	1133.25
457.937	1146.25
458.157	1127.25
458.377	1107.25
458.598	1105.25
458.818	1147.25
459.038	1120.25
459.258	1141.25
459.478	1168.25
459.698	1167.25
459.918	1168.25
460.138	1206.25
460.358	1231.25
460.578	1237.25
460.798	1244.25
461.018	1261.25
461.238	1264.25
461.458	1299.25
461.678	1267.25
461.898	1275.25
462.118	1287.25
462.338	1314.25
462.558	1339.25
462.777	1370.25
462.997	1410.25
463.217	1462.25
463.437	1479.25
463.657	1534.25
463.876	1536.25
464.096	1481.25
464.316	1385.25
464.536	1415.25
464.755	1365.25
464.975	1312.25
465.195	1262.25
465.414	1276.25
465.634	1186.25
465.854	1190.25
466.073	1175.25
466.293	1178.25
466.512	1164.25
466.732	1190.25
466.951	1213.25
467.171	1313.25
467.391	1296.25
467.61	1177.25
467.829	1160.25
468.049	1144.25
468.268	1177.25
468.488	1140.25
468.707	1155.25
468.927	1162.25
469.146	1130.25
469.365	1140.25
469.585	1144.25
469.804	1193.25
470.023	1221.25
470.243	1221.25
470.462	1258.25
470.681	1282.25
470.901	1449.25
471.12	1634.25
471.339	1715.25
471.558	1363.25
471.777	1262.25
471.997	1211.25
472.216	1176.25
472.435	1188.25
472.654	1150.25
472.873	1127.25
473.092	1122.25
473.311	1104.25
473.53	1187.25
473.749	1183.25
473.968	1207.25
474.187	1158.25
474.406	1120.25
474.625	1158.25
474.844	1139.25
475.063	1152.25
475.282	1142.25
475.501	1125.25
475.72	1152.25
475.939	1172.25
476.158	1219.25
476.377	1248.25
476.596	1203.25
476.814	1209.25
477.033	1204.25
477.252	1211.25
477.471	1242.25
477.69	1247.25
477.908	1282.25
478.127	1331.25
478.346	1362.25
478.564	1322.25
478.783	1312.25
479.002	1359.25
479.22	1336.25
479.439	1347.25
479.658	1335.25
479.876	1370.25
480.095	1360.25
480.313	1397.25
480.532	1422.25
480.751	1388.25
480.969	1377.25
481.188	1331.25
481.406	1346.25
481.624	1323.25
481.843	1348.25
482.061	1348.25
482.28	1370.25
482.498	1337.25
482.717	1361.25
482.935	1394.25
483.153	1403.25
483.372	1400.25
483.59	1412.25
483.808	1446.25
484.027	1448.25
484.245	1561.25
484.463	1779.25
484.681	1946.25
484.9	1802.25
485.118	1625.25
485.336	1592.25
485.554	1624.25
485.772	1703.25
485.99	1946.25
486.209	2161.25
486.427	1749.25
486.645	1555.25
486.863	1492.25
487.081	1478.25
487.299	1510.25
487.517	1430.25
487.735	1486.25
487.953	1492.25
488.171	1528.25
488.389	1442.25
488.607	1446.25
488.825	1421.25
489.043	1402.25
489.261	1376.25
489.479	1392.25
489.696	1402.25
489.914	1422.25
490.132	1443.25
490.35	1434.25
490.568	1465.25
490.786	1502.25
491.003	1492.25
491.221	1507.25
491.439	1491.25
491.657	1496.25
491.874	1520.25
492.092	1541.25
492.31	1554.25
492.527	1545.25
492.745	1504.25
492.963	1492.25
493.18	1518.25
493.398	1520.25
493.615	1497.25
493.833	1520.25
494.05	1526.25
494.268	1526.25
494.485	1520.25
494.703	1502.25
494.92	1525.25
495.138	1558.25
495.355	1521.25
495.573	1518.25
495.79	1513.25
496.008	1530.25
496.225	1547.25
496.442	1574.25
496.66	1594.25
496.877	1693.25
497.094	1669.25
497.312	1618.25
497.529	1639.25
497.746	1586.25
497.963	1639.25
498.181	1702.25
498.398	1692.25
498.615	1759.25
498.832	1822.25
499.049	1918.25
499.267	2088.25
499.484	2171.25
499.701	2220.25
499.918	2252.25
500.135	2358.25
500.352	2468.25
500.569	2550.25
500.786	2535.25
501.003	2428.25
501.22	2291.25
501.437	2176.25
501.654	2100.25
501.871	2033.25
502.088	1861.25
502.305	1811.25
502.522	1844.25
502.739	1731.25
502.956	1695.25
503.172	1655.25
503.389	1618.25
503.606	1608.25
503.823	1553.25
504.04	1582.25
504.256	1566.25
504.473	1528.25
504.69	1535.25
504.907	1542.25
505.123	1496.25
505.34	1450.25
505.557	1450.25
505.773	1405.25
505.99	1399.25
506.207	1363.25
506.423	1375.25
506.64	1375.25
506.856	1355.25
507.073	1344.25
507.289	1302.25
507.506	1316.25
507.722	1323.25
507.939	1344.25
508.155	1304.25
508.372	1319.25
508.588	1280.25
508.805	1303.25
509.021	1285.25
509.238	1307.25
509.454	1360.25
509.67	1448.25
509.887	1303.25
510.103	1291.25
510.319	1282.25
510.536	1273.25
510.752	1278.25
510.968	1239.25
511.184	1231.25
511.401	1221.25
511.617	1190.25
511.833	1223.25
512.049	1230.25
512.265	1225.25
512.481	1229.25
512.698	1215.25
512.914	1214.25
513.13	1192.25
513.346	1239.25
513.562	1251.25
513.778	1225.25
513.994	1261.25
514.21	1272.25
514.426	1354.25
514.642	1405.25
514.858	1326.25
515.074	1257.25
515.29	1267.25
515.506	1294.25
515.721	1232.25
515.937	1234.25
516.153	1284.25
516.369	1271.25
516.585	1277.25
516.801	1332.25
517.016	1319.25
517.232	1333.25
517.448	1426.25
517.664	1366.25
517.879	1366.25
518.095	1409.25
518.311	1378.25
518.527	1366.25
518.742	1371.25
518.958	1347.25
519.173	1364.25
519.389	1347.25
519.605	1293.25
519.82	1284.25
520.036	1260.25
520.251	1234.25
520.467	1233.25
520.682	1265.25
520.898	1205.25
521.113	1207.25
521.329	1221.25
521.544	1220.25
521.76	1233.25
521.975	1209.25
522.19	1200.25
522.406	1209.25
522.621	1194.25
522.836	1207.25
523.052	1210.25
523.267	1189.25
523.482	1178.25
523.698	1184.25
523.913	1169.25
524.128	1194.25
524.343	1198.25
524.559	1192.25
524.774	1189.25
524.989	1202.25
525.204	1189.25
525.419	1182.25
525.634	1163.25
525.849	1193.25
526.064	1185.25
526.28	1192.25
526.495	1182.25
526.71	1188.25
526.925	1193.25
527.14	1206.25
527.355	1202.25
527.57	1170.25
527.785	1206.25
527.999	1186.25
528.214	1226.25
528.429	1204.25
528.644	1216.25
528.859	1256.25
529.074	1275.25
529.289	1286.25
529.503	1284.25
529.718	1280.25
529.933	1254.25
530.148	1207.25
530.363	1241.25
530.577	1245.25
530.792	1256.25
531.007	1266.25
531.221	1250.25
531.436	1251.25
531.651	1278.25
531.865	1266.25
532.08	1295.25
532.295	1319.25
532.509	1373.25
532.724	1396.25
532.938	1435.25
533.153	1451.25
533.367	1546.25
533.582	1586.25
533.796	1554.25
534.011	1538.25
534.225	1481.25
534.44	1452.25
534.654	1434.25
534.868	1402.25
535.083	1411.25
535.297	1390.25
535.511	1332.25
535.726	1310.25
535.94	1272.25
536.154	1291.25
536.369	1257.25
536.583	1250.25
536.797	1226.25
537.011	1244.25
537.225	1234.25
537.44	1220.25
537.654	1231.25
537.868	1198.25
538.082	1193.25
538.296	1183.25
538.51	1181.25
538.724	1175.25
538.938	1196.25
539.153	1184.25
539.367	1147.25
539.581	1159.25
539.795	1112.25
540.009	1127.25
540.222	1150.25
540.436	1154.25
540.65	1139.25
540.864	1156.25
541.078	1153.25
541.292	1230.25
541.506	1516.25
541.72	1566.25
541.934	1376.25
542.147	1278.25
542.361	1247.25
542.575	1181.25
542.789	1183.25
543.002	1157.25
543.216	1129.25
543.43	1125.25
543.644	1118.25
543.857	1139.25
544.071	1138.25
544.285	1142.25
544.498	1145.25
544.712	1180.25
544.925	1148.25
545.139	1162.25
545.352	1173.25
545.566	1140.25
545.779	1143.25
545.993	1189.25
546.206	1148.25
546.42	1174.25
546.633	1158.25
546.847	1165.25
547.06	1122.25
547.274	1178.25
547.487	1196.25
547.7	1195.25
547.914	1163.25
548.127	1167.25
548.34	1176.25
548.554	1144.25
548.767	1165.25
548.98	1147.25
549.193	1158.25
549.407	1150.25
549.62	1155.25
549.833	1191.25
550.046	1174.25
550.259	1162.25
550.473	1146.25
550.686	1144.25
550.899	1148.25
551.112	1132.25
551.325	1154.25
551.538	1114.25
551.751	1106.25
551.964	1131.25
552.177	1139.25
552.39	1194.25
552.603	1215.25
552.816	1221.25
553.029	1223.25
553.242	1218.25
553.455	1243.25
553.667	1232.25
553.88	1260.25
554.093	1219.25
554.306	1239.25
554.519	1283.25
554.732	1296.25
554.944	1316.25
555.157	1310.25
555.37	1376.25
555.583	1357.25
555.795	1406.25
556.008	1554.25
556.221	1690.25
556.433	1739.25
556.646	1724.25
556.859	1690.25
557.071	1666.25
557.284	1618.25
557.496	1546.25
557.709	1564.25
557.921	1549.25
558.134	1545.25
558.346	1544.25
558.559	1625.25
558.771	1678.25
558.984	1764.25
559.196	1874.25
559.409	1793.25
559.621	1723.25
559.833	1590.25
560.046	1557.25
560.258	1517.25
560.47	1420.25
560.683	1392.25
560.895	1344.25
561.107	1283.25
561.32	1253.25
561.532	1250.25
561.744	1236.25
561.956	1231.25
562.168	1182.25
562.381	1173.25
562.593	1136.25
562.805	1185.25
563.017	1184.25
563.229	1168.25
563.441	1316.25
563.653	1165.25
563.865	1065.25
564.077	1078.25
564.289	1087.25
564.501	1046.25
564.713	1037.25
564.925	1062.25
565.137	1037.25
565.349	1081.25
565.561	1042.25
565.773	1056.25
565.985	1082.25
566.197	1092.25
566.408	1101.25
566.62	1098.25
566.832	1137.25
567.044	1191.25
567.255	1158.25
567.467	1175.25
567.679	1186.25
567.891	1251.25
568.102	1424.25
568.314	1662.25
568.526	1393.25
568.737	1202.25
568.949	1078.25
569.161	1039.25
569.372	1017.25
569.584	968.25
569.795	949.25
570.007	924.25
570.218	957.25
570.43	990.25
570.641	911.25
570.853	879.25
571.064	875.25
571.276	866.25
571.487	854.25
571.698	848.25
571.91	860.25
572.121	864.25
572.333	849.25
572.544	803.25
572.755	905.25
572.966	1074.25
573.178	959.25
573.389	859.25
573.6	787.25
573.811	781.25
574.023	787.25
574.234	801.25
574.445	793.25
574.656	773.25
574.867	776.25
575.078	781.25
575.289	786.25
575.501	793.25
575.712	742.25
575.923	724.25
576.134	790.25
576.345	770.25
576.556	765.25
576.767	789.25
576.978	788.25
577.188	765.25
577.399	770.25
577.61	768.25
577.821	809.25
578.032	786.25
578.243	795.25
578.454	819.25
578.665	818.25
578.875	827.25
579.086	847.25
579.297	878.25
579.508	930.25
579.718	983.25
579.929	1107.25
580.14	1240.25
580.35	1251.25
580.561	1207.25
580.772	1121.25
580.982	1042.25
581.193	987.25
581.403	927.25
581.614	904.25
581.825	867.25
582.035	828.25
582.246	834.25
582.456	807.25
582.667	804.25
582.877	789.25
583.087	795.25
583.298	725.25
583.508	696.25
583.719	676.25
583.929	696.25
584.139	677.25
584.35	650.25
584.56	648.25
584.77	650.25
584.981	651.25
585.191	649.25
585.401	633.25
585.611	630.25
585.821	642.25
586.032	628.25
586.242	630.25
586.452	620.25
586.662	626.25
586.872	594.25
587.082	589.25
587.292	586.25
587.502	584.25
587.713	600.25
587.923	583.25
588.133	561.25
588.343	575.25
588.553	576.25
588.762	552.25
588.972	552.25
589.182	564.25
589.392	553.25
589.602	583.25
589.812	582.25
590.022	578.25
590.232	562.25
590.441	539.25
590.651	550.25
590.861	544.25
591.071	552.25
591.281	560.25
591.49	569.25
591.7	546.25
591.91	550.25
592.119	571.25
592.329	558.25
592.539	579.25
592.748	558.25
592.958	562.25
593.167	556.25
593.377	558.25
593.587	577.25
593.796	562.25
594.006	562.25
594.215	587.25
594.424	564.25
594.634	564.25
594.843	547.25
595.053	549.25
595.262	546.25
595.472	563.25
595.681	541.25
595.89	531.25
596.1	491.25
596.309	518.25
596.518	513.25
596.727	494.25
596.937	490.25
597.146	490.25
597.355	501.25
597.564	468.25
597.774	468.25
597.983	481.25
598.192	463.25
598.401	475.25
598.61	465.25
598.819	458.25
599.028	459.25
599.237	457.25
599.446	466.25
599.655	470.25
599.864	471.25
600.073	451.25
600.282	437.25
600.491	436.25
600.7	463.25
600.909	459.25
601.118	464.25
601.327	447.25
601.536	443.25
601.745	497.25
601.953	525.25
602.162	602.25
602.371	517.25
602.58	466.25
602.789	458.25
602.997	459.25
603.206	479.25
603.415	448.25
603.623	444.25
603.832	426.25
604.041	451.25
604.249	424.25
604.458	428.25
604.666	448.25
604.875	445.25
605.084	436.25
605.292	433.25
605.501	431.25
605.709	430.25
605.918	432.25
606.126	466.25
606.334	460.25
606.543	464.25
606.751	508.25
606.96	556.25
607.168	599.25
607.376	514.25
607.585	481.25
607.793	451.25
608.001	444.25
608.21	418.25
608.418	432.25
608.626	433.25
608.834	402.25
609.043	429.25
609.251	423.25
609.459	427.25
609.667	422.25
609.875	448.25
610.083	395.25
610.291	428.25
610.499	416.25
610.707	402.25
610.916	434.25
611.124	424.25
611.332	402.25
611.54	444.25
611.748	419.25
611.955	409.25
612.163	422.25
612.371	417.25
612.579	399.25
612.787	392.25
612.995	420.25
613.203	394.25
613.411	394.25
613.618	408.25
613.826	410.25
614.034	394.25
614.242	391.25
614.449	396.25
614.657	395.25
614.865	394.25
615.072	389.25
615.28	416.25
615.488	406.25
615.695	410.25
615.903	389.25
616.111	394.25
616.318	414.25
616.526	406.25
616.733	390.25
616.941	392.25
617.148	411.25
617.356	407.25
617.563	391.25
617.771	382.25
617.978	376.25
618.185	378.25
618.393	378.25
618.6	382.25
618.807	378.25
619.015	392.25
619.222	370.25
619.429	383.25
619.637	390.25
619.844	373.25
620.051	361.25
620.258	369.25
620.466	376.25
620.673	368.25
620.88	363.25
621.087	354.25
621.294	363.25
621.501	361.25
621.708	357.25
621.915	336.25
622.122	367.25
622.329	358.25
622.536	351.25
622.743	359.25
622.95	352.25
623.157	348.25
623.364	350.25
623.571	345.25
623.778	365.25
623.985	345.25
624.192	344.25
624.399	372.25
624.606	347.25
624.812	355.25
625.019	332.25
625.226	351.25
625.433	337.25
625.639	327.25
625.846	322.25
626.053	330.25
626.259	334.25
626.466	315.25
626.673	316.25
626.879	305.25
627.086	326.25
627.293	339.25
627.499	336.25
627.706	331.25
627.912	327.25
628.119	329.25
628.325	329.25
628.532	341.25
628.738	317.25
628.945	309.25
629.151	332.25
629.357	326.25
629.564	321.25
629.77	327.25
629.976	328.25
630.183	307.25
630.389	305.25
630.595	308.25
630.802	317.25
631.008	317.25
631.214	312.25
631.42	310.25
631.627	316.25
631.833	324.25
632.039	292.25
632.245	304.25
632.451	306.25
632.657	293.25
632.863	294.25
633.069	304.25
633.275	305.25
633.481	300.25
633.688	292.25
633.893	302.25
634.099	308.25
634.305	309.25
634.511	292.25
634.717	294.25
634.923	321.25
635.129	363.25
635.335	392.25
635.541	329.25
635.747	323.25
635.952	309.25
636.158	282.25
636.364	310.25
636.57	329.25
636.775	300.25
636.981	297.25
637.187	313.25
637.392	296.25
637.598	306.25
637.804	302.25
638.009	320.25
638.215	302.25
638.421	297.25
638.626	305.25
638.832	294.25
639.037	296.25
639.243	312.25
639.448	324.25
639.654	332.25
639.859	308.25
640.065	315.25
640.27	313.25
640.475	306.25
640.681	324.25
640.886	321.25
641.091	302.25
641.297	330.25
641.502	321.25
641.707	326.25
641.913	353.25
642.118	356.25
642.323	339.25
642.528	338.25
642.733	347.25
642.939	353.25
643.144	361.25
643.349	389.25
643.554	391.25
643.759	380.25
643.964	435.25
644.169	423.25
644.374	437.25
644.579	466.25
644.784	500.25
644.989	554.25
645.194	662.25
645.399	774.25
645.604	794.25
645.809	627.25
646.014	520.25
646.219	426.25
646.423	421.25
646.628	363.25
646.833	356.25
647.038	346.25
647.243	336.25
647.447	323.25
647.652	314.25
647.857	320.25
648.062	306.25
648.266	306.25
648.471	302.25
648.676	303.25
648.88	287.25
649.085	282.25
649.289	264.25
649.494	270.25
649.698	280.25
649.903	265.25
650.107	277.25
650.312	262.25
650.516	262.25
650.721	255.25
650.925	255.25
651.13	250.25
651.334	264.25
651.539	230.25
651.743	234.25
651.947	243.25
652.152	238.25
652.356	254.25
652.56	252.25
652.764	274.25
652.969	260.25
653.173	247.25
653.377	215.25
653.581	218.25
653.785	220.25
653.99	212.25
654.194	204.25
654.398	216.25
654.602	206.25
654.806	209.25
655.01	218.25
655.214	216.25
655.418	211.25
655.622	203.25
655.826	232.25
656.03	191.25
656.234	197.25
656.438	232.25
656.642	211.25
656.846	216.25
657.049	206.25
657.253	221.25
657.457	185.25
657.661	194.25
657.865	185.25
658.068	150.25
658.272	164.25
658.476	158.25
658.68	160.25
658.883	138.25
659.087	132.25
659.291	129.25
659.494	129.25
659.698	124.25
659.901	121.25
660.105	129.25
660.309	123.25
660.512	116.25
660.716	107.25
660.919	117.25
661.123	102.25
661.326	103.25
661.53	101.25
661.733	98.25
661.936	92.25
662.14	102.25
662.343	92.25
662.546	102.25
662.75	96.25
662.953	86.25
663.156	94.25
663.36	91.25
663.563	88.25
663.766	92.25
663.969	95.25
664.173	91.25
664.376	78.25
664.579	89.25
664.782	70.25
664.985	80.25
665.188	86.25
665.391	90.25
665.594	93.25
665.797	84.25
666	91.25
666.203	94.25
666.406	76.25
666.609	80.25
666.812	94.25
667.015	86.25
667.218	84.25
667.421	83.25
667.624	82.25
667.827	76.25
668.03	94.25
668.232	97.25
668.435	94.25
668.638	90.25
668.841	79.25
669.043	80.25
669.246	73.25
669.449	82.25
669.651	78.25
669.854	90.25
670.057	91.25
670.259	71.25
670.462	92.25
670.665	82.25
670.867	80.25
671.07	77.25
671.272	70.25
671.475	96.25
671.677	87.25
671.88	86.25
672.082	85.25
672.284	82.25
672.487	85.25
672.689	69.25
672.892	73.25
