Data from SnStandardFlinnAPT0064_LampEnergy5.5_LIBS07252019.E.O._I.C._HRD10591_15-15-42-491.txt Node
Date: Thu Jul 25 15:15:42 EDT 2019
User: cochatt
Spectrometer: HR+D1059
Trigger mode: 1
Integration Time (sec): 1.000000E-1
Scans to average: 1
Electric dark correction enabled: true
Nonlinearity correction enabled: false
Boxcar width: 0
XAxis mode: Wavelengths
Number of Pixels in Spectrum: 2048
>>>>>Begin Spectral Data<<<<<
223.165	-9.38
223.4	-9.38
223.635	-9.38
223.869	-13.38
224.104	-29.38
224.338	-19.38
224.573	-13.38
224.808	-19.38
225.042	-11.38
225.277	-15.38
225.511	4.62
225.746	3.62
225.98	19.62
226.215	4.62
226.449	23.62
226.683	9.62
226.918	30.62
227.152	34.62
227.387	38.62
227.621	31.62
227.856	39.62
228.09	43.62
228.324	61.62
228.559	52.62
228.793	67.62
229.027	146.62
229.262	167.62
229.496	152.62
229.73	134.62
229.964	155.62
230.199	132.62
230.433	173.62
230.667	154.62
230.901	171.62
231.136	162.62
231.37	175.62
231.604	204.62
231.838	211.62
232.072	210.62
232.306	239.62
232.541	195.62
232.775	201.62
233.009	191.62
233.243	202.62
233.477	202.62
233.711	216.62
233.945	246.62
234.179	215.62
234.413	225.62
234.647	224.62
234.881	216.62
235.115	216.62
235.349	267.62
235.583	316.62
235.817	368.62
236.051	381.62
236.285	277.62
236.519	228.62
236.753	221.62
236.987	226.62
237.221	234.62
237.455	237.62
237.689	225.62
237.922	220.62
238.156	216.62
238.39	228.62
238.624	217.62
238.858	206.62
239.091	209.62
239.325	219.62
239.559	235.62
239.793	222.62
240.027	233.62
240.26	238.62
240.494	239.62
240.728	237.62
240.961	273.62
241.195	267.62
241.429	278.62
241.662	266.62
241.896	304.62
242.13	374.62
242.363	466.62
242.597	568.62
242.83	524.62
243.064	569.62
243.298	647.62
243.531	534.62
243.765	363.62
243.998	307.62
244.232	303.62
244.465	300.62
244.699	273.62
244.932	279.62
245.166	282.62
245.399	299.62
245.633	287.62
245.866	285.62
246.099	276.62
246.333	281.62
246.566	287.62
246.8	292.62
247.033	280.62
247.266	281.62
247.5	282.62
247.733	294.62
247.966	308.62
248.2	311.62
248.433	341.62
248.666	364.62
248.899	370.62
249.133	333.62
249.366	365.62
249.599	368.62
249.832	384.62
250.066	408.62
250.299	360.62
250.532	352.62
250.765	321.62
250.998	321.62
251.231	328.62
251.465	331.62
251.698	321.62
251.931	330.62
252.164	303.62
252.397	319.62
252.63	309.62
252.863	346.62
253.096	349.62
253.329	330.62
253.562	347.62
253.795	324.62
254.028	328.62
254.261	357.62
254.494	362.62
254.727	387.62
254.96	469.62
255.193	461.62
255.426	381.62
255.659	364.62
255.892	368.62
256.124	377.62
256.357	378.62
256.59	380.62
256.823	392.62
257.056	418.62
257.289	488.62
257.521	511.62
257.754	457.62
257.987	409.62
258.22	378.62
258.452	367.62
258.685	388.62
258.918	379.62
259.151	416.62
259.383	425.62
259.616	444.62
259.849	481.62
260.081	439.62
260.314	418.62
260.547	386.62
260.779	396.62
261.012	421.62
261.244	418.62
261.477	441.62
261.71	412.62
261.942	433.62
262.175	450.62
262.407	446.62
262.64	450.62
262.872	475.62
263.105	477.62
263.337	507.62
263.57	561.62
263.802	553.62
264.035	543.62
264.267	551.62
264.499	585.62
264.732	628.62
264.964	625.62
265.197	592.62
265.429	604.62
265.661	635.62
265.894	655.62
266.126	709.62
266.358	763.62
266.591	719.62
266.823	638.62
267.055	615.62
267.287	582.62
267.52	572.62
267.752	537.62
267.984	553.62
268.216	532.62
268.448	535.62
268.681	522.62
268.913	515.62
269.145	521.62
269.377	519.62
269.609	525.62
269.841	524.62
270.073	549.62
270.306	631.62
270.538	804.62
270.77	1089.62
271.002	1324.62
271.234	1018.62
271.466	701.62
271.698	574.62
271.93	566.62
272.162	556.62
272.394	525.62
272.626	517.62
272.858	503.62
273.09	513.62
273.322	530.62
273.553	524.62
273.785	496.62
274.017	500.62
274.249	498.62
274.481	489.62
274.713	515.62
274.945	500.62
275.176	521.62
275.408	504.62
275.64	510.62
275.872	524.62
276.104	538.62
276.335	530.62
276.567	513.62
276.799	533.62
277.031	518.62
277.262	551.62
277.494	562.62
277.726	567.62
277.957	673.62
278.189	732.62
278.421	701.62
278.652	640.62
278.884	614.62
279.115	597.62
279.347	576.62
279.579	571.62
279.81	567.62
280.042	572.62
280.273	573.62
280.505	576.62
280.736	603.62
280.968	620.62
281.199	664.62
281.431	725.62
281.662	729.62
281.894	652.62
282.125	627.62
282.356	665.62
282.588	636.62
282.819	679.62
283.051	680.62
283.282	748.62
283.513	909.62
283.745	1273.62
283.976	1941.62
284.207	2699.62
284.439	2459.62
284.67	1513.62
284.901	1258.62
285.132	1248.62
285.364	1155.62
285.595	931.62
285.826	893.62
286.057	1022.62
286.288	1338.62
286.52	1759.62
286.751	1600.62
286.982	1073.62
287.213	841.62
287.444	746.62
287.675	735.62
287.906	697.62
288.138	668.62
288.369	679.62
288.6	690.62
288.831	665.62
289.062	673.62
289.293	681.62
289.524	669.62
289.755	702.62
289.986	673.62
290.217	696.62
290.448	667.62
290.679	681.62
290.91	687.62
291.141	725.62
291.371	721.62
291.602	727.62
291.833	721.62
292.064	672.62
292.295	660.62
292.526	680.62
292.757	653.62
292.987	643.62
293.218	627.62
293.449	661.62
293.68	653.62
293.91	636.62
294.141	635.62
294.372	621.62
294.603	624.62
294.833	625.62
295.064	636.62
295.295	644.62
295.525	635.62
295.756	642.62
295.987	628.62
296.217	635.62
296.448	641.62
296.679	631.62
296.909	637.62
297.14	653.62
297.37	664.62
297.601	658.62
297.831	651.62
298.062	650.62
298.292	676.62
298.523	677.62
298.753	675.62
298.984	675.62
299.214	698.62
299.445	687.62
299.675	672.62
299.905	737.62
300.136	740.62
300.366	802.62
300.597	992.62
300.827	1333.62
301.057	1709.62
301.288	1697.62
301.518	1156.62
301.748	913.62
301.979	862.62
302.209	836.62
302.439	855.62
302.669	901.62
302.9	1039.62
303.13	1375.62
303.36	1976.62
303.59	2585.62
303.82	2287.62
304.051	1433.62
304.281	1057.62
304.511	937.62
304.741	881.62
304.971	854.62
305.201	795.62
305.431	776.62
305.661	765.62
305.891	721.62
306.121	753.62
306.352	736.62
306.582	729.62
306.812	724.62
307.042	732.62
307.272	713.62
307.502	722.62
307.731	744.62
307.961	735.62
308.191	743.62
308.421	733.62
308.651	724.62
308.881	731.62
309.111	721.62
309.341	731.62
309.571	749.62
309.8	735.62
310.03	774.62
310.26	742.62
310.49	763.62
310.72	751.62
310.949	741.62
311.179	751.62
311.409	780.62
311.639	778.62
311.868	791.62
312.098	790.62
312.328	789.62
312.557	780.62
312.787	802.62
313.017	811.62
313.246	820.62
313.476	813.62
313.706	804.62
313.935	863.62
314.165	888.62
314.394	907.62
314.624	876.62
314.853	840.62
315.083	841.62
315.312	850.62
315.542	878.62
315.771	875.62
316.001	901.62
316.23	900.62
316.46	930.62
316.689	983.62
316.919	1171.62
317.148	1602.62
317.377	2362.62
317.607	3455.62
317.836	3581.62
318.065	2166.62
318.295	1444.62
318.524	1207.62
318.753	1071.62
318.983	1023.62
319.212	953.62
319.441	966.62
319.67	947.62
319.9	943.62
320.129	925.62
320.358	935.62
320.587	919.62
320.816	924.62
321.046	907.62
321.275	937.62
321.504	912.62
321.733	946.62
321.962	961.62
322.191	962.62
322.42	986.62
322.649	965.62
322.878	967.62
323.108	961.62
323.337	1016.62
323.566	983.62
323.795	1008.62
324.024	1036.62
324.253	1025.62
324.482	1105.62
324.71	1108.62
324.939	1199.62
325.168	1203.62
325.397	1222.62
325.626	1443.62
325.855	1899.62
326.084	2916.62
326.313	4188.62
326.542	4522.62
326.77	2961.62
326.999	2012.62
327.228	1743.62
327.457	1665.62
327.686	1699.62
327.914	1778.62
328.143	2051.62
328.372	2314.62
328.6	2511.62
328.829	2329.62
329.058	2047.62
329.287	1850.62
329.515	1721.62
329.744	1645.62
329.972	1535.62
330.201	1491.62
330.43	1430.62
330.658	1405.62
330.887	1346.62
331.115	1352.62
331.344	1345.62
331.572	1330.62
331.801	1341.62
332.03	1369.62
332.258	1350.62
332.486	1418.62
332.715	1559.62
332.943	1816.62
333.172	2153.62
333.4	2120.62
333.629	1760.62
333.857	1683.62
334.085	1674.62
334.314	1733.62
334.542	1899.62
334.771	2116.62
334.999	2535.62
335.227	3044.62
335.455	3379.62
335.684	3139.62
335.912	2686.62
336.14	2355.62
336.369	2147.62
336.597	1961.62
336.825	1813.62
337.053	1673.62
337.281	1627.62
337.51	1556.62
337.738	1496.62
337.966	1441.62
338.194	1428.62
338.422	1347.62
338.65	1307.62
338.878	1286.62
339.106	1238.62
339.334	1267.62
339.562	1228.62
339.79	1217.62
340.018	1221.62
340.246	1215.62
340.474	1176.62
340.702	1171.62
340.93	1209.62
341.158	1161.62
341.386	1197.62
341.614	1179.62
341.842	1192.62
342.07	1131.62
342.298	1111.62
342.526	1101.62
342.754	1094.62
342.981	1081.62
343.209	1109.62
343.437	1099.62
343.665	1100.62
343.893	1130.62
344.12	1147.62
344.348	1125.62
344.576	1107.62
344.804	1077.62
345.031	1041.62
345.259	1038.62
345.487	1027.62
345.714	1013.62
345.942	992.62
346.17	1039.62
346.397	1038.62
346.625	1026.62
346.853	998.62
347.08	1016.62
347.308	985.62
347.535	1041.62
347.763	1013.62
347.99	996.62
348.218	1005.62
348.445	997.62
348.673	997.62
348.9	1032.62
349.128	975.62
349.355	975.62
349.583	1027.62
349.81	989.62
350.037	987.62
350.265	989.62
350.492	950.62
350.72	950.62
350.947	958.62
351.174	989.62
351.402	1002.62
351.629	956.62
351.856	983.62
352.083	935.62
352.311	967.62
352.538	933.62
352.765	957.62
352.992	946.62
353.22	968.62
353.447	966.62
353.674	972.62
353.901	952.62
354.128	957.62
354.355	965.62
354.583	963.62
354.81	964.62
355.037	983.62
355.264	977.62
355.491	977.62
355.718	981.62
355.945	975.62
356.172	980.62
356.399	994.62
356.626	1007.62
356.853	1003.62
357.08	1031.62
357.307	1001.62
357.534	1023.62
357.761	982.62
357.988	999.62
358.215	1031.62
358.441	1019.62
358.668	1010.62
358.895	1016.62
359.122	1025.62
359.349	1008.62
359.576	1032.62
359.802	1024.62
360.029	1028.62
360.256	1032.62
360.483	1047.62
360.709	1016.62
360.936	1026.62
361.163	1061.62
361.39	1028.62
361.616	1009.62
361.843	1044.62
362.07	1034.62
362.296	1043.62
362.523	1036.62
362.749	1017.62
362.976	1042.62
363.203	1035.62
363.429	1007.62
363.656	1035.62
363.882	1039.62
364.109	1041.62
364.335	1017.62
364.562	1022.62
364.788	1027.62
365.015	1035.62
365.241	1051.62
365.468	1088.62
365.694	1114.62
365.92	1091.62
366.147	1025.62
366.373	1084.62
366.599	1078.62
366.826	1052.62
367.052	1047.62
367.278	1044.62
367.505	1061.62
367.731	1043.62
367.957	1028.62
368.184	1068.62
368.41	1084.62
368.636	1080.62
368.862	1072.62
369.089	1012.62
369.315	1068.62
369.541	1061.62
369.767	1060.62
369.993	1077.62
370.219	1044.62
370.445	1059.62
370.672	1084.62
370.898	1057.62
371.124	1067.62
371.35	1124.62
371.576	1123.62
371.802	1105.62
372.028	1120.62
372.254	1113.62
372.48	1104.62
372.706	1130.62
372.932	1120.62
373.158	1142.62
373.384	1155.62
373.61	1119.62
373.835	1131.62
374.061	1138.62
374.287	1132.62
374.513	1151.62
374.739	1159.62
374.965	1172.62
375.191	1162.62
375.416	1169.62
375.642	1151.62
375.868	1158.62
376.094	1137.62
376.319	1109.62
376.545	1112.62
376.771	1136.62
376.997	1114.62
377.222	1087.62
377.448	1062.62
377.674	1084.62
377.899	1095.62
378.125	1092.62
378.35	1106.62
378.576	1106.62
378.802	1128.62
379.027	1120.62
379.253	1148.62
379.478	1190.62
379.704	1340.62
379.929	1749.62
380.155	2540.62
380.38	2709.62
380.606	1767.62
380.831	1362.62
381.057	1228.62
381.282	1169.62
381.507	1129.62
381.733	1133.62
381.958	1090.62
382.184	1083.62
382.409	1091.62
382.634	1092.62
382.86	1069.62
383.085	1083.62
383.31	1082.62
383.535	1079.62
383.761	1085.62
383.986	1109.62
384.211	1106.62
384.436	1105.62
384.662	1114.62
384.887	1149.62
385.112	1099.62
385.337	1163.62
385.562	1135.62
385.787	1125.62
386.013	1139.62
386.238	1139.62
386.463	1151.62
386.688	1171.62
386.913	1121.62
387.138	1133.62
387.363	1137.62
387.588	1120.62
387.813	1143.62
388.038	1100.62
388.263	1155.62
388.488	1135.62
388.713	1147.62
388.938	1151.62
389.163	1141.62
389.387	1127.62
389.612	1151.62
389.837	1127.62
390.062	1140.62
390.287	1160.62
390.512	1127.62
390.736	1155.62
390.961	1195.62
391.186	1164.62
391.411	1205.62
391.636	1171.62
391.86	1204.62
392.085	1179.62
392.31	1203.62
392.534	1182.62
392.759	1163.62
392.984	1186.62
393.208	1157.62
393.433	1139.62
393.658	1139.62
393.882	1171.62
394.107	1167.62
394.331	1149.62
394.556	1175.62
394.78	1159.62
395.005	1154.62
395.229	1155.62
395.454	1195.62
395.678	1180.62
395.903	1195.62
396.127	1163.62
396.352	1165.62
396.576	1187.62
396.801	1171.62
397.025	1187.62
397.249	1207.62
397.474	1229.62
397.698	1180.62
397.922	1233.62
398.147	1209.62
398.371	1247.62
398.595	1245.62
398.82	1265.62
399.044	1332.62
399.268	1386.62
399.492	1473.62
399.717	1482.62
399.941	1502.62
400.165	1437.62
400.389	1419.62
400.613	1375.62
400.837	1292.62
401.062	1304.62
401.286	1279.62
401.51	1292.62
401.734	1257.62
401.958	1280.62
402.182	1276.62
402.406	1264.62
402.63	1260.62
402.854	1265.62
403.078	1274.62
403.302	1322.62
403.526	1319.62
403.75	1310.62
403.974	1369.62
404.198	1312.62
404.422	1313.62
404.645	1308.62
404.869	1289.62
405.093	1339.62
405.317	1310.62
405.541	1321.62
405.765	1329.62
405.988	1343.62
406.212	1357.62
406.436	1321.62
406.66	1363.62
406.883	1363.62
407.107	1403.62
407.331	1425.62
407.555	1473.62
407.778	1399.62
408.002	1422.62
408.226	1400.62
408.449	1385.62
408.673	1337.62
408.896	1336.62
409.12	1325.62
409.344	1337.62
409.567	1311.62
409.791	1291.62
410.014	1287.62
410.238	1282.62
410.461	1298.62
410.685	1301.62
410.908	1303.62
411.132	1276.62
411.355	1237.62
411.578	1224.62
411.802	1251.62
412.025	1283.62
412.249	1265.62
412.472	1233.62
412.695	1267.62
412.919	1238.62
413.142	1252.62
413.365	1239.62
413.589	1229.62
413.812	1241.62
414.035	1254.62
414.258	1235.62
414.482	1257.62
414.705	1264.62
414.928	1239.62
415.151	1250.62
415.374	1241.62
415.597	1234.62
415.821	1199.62
416.044	1199.62
416.267	1188.62
416.49	1191.62
416.713	1190.62
416.936	1233.62
417.159	1155.62
417.382	1187.62
417.605	1189.62
417.828	1204.62
418.051	1203.62
418.274	1225.62
418.497	1217.62
418.72	1241.62
418.943	1203.62
419.166	1285.62
419.389	1324.62
419.611	1312.62
419.834	1252.62
420.057	1253.62
420.28	1223.62
420.503	1207.62
420.726	1173.62
420.948	1210.62
421.171	1196.62
421.394	1193.62
421.617	1195.62
421.839	1188.62
422.062	1199.62
422.285	1190.62
422.507	1211.62
422.73	1210.62
422.953	1235.62
423.175	1249.62
423.398	1194.62
423.621	1177.62
423.843	1232.62
424.066	1211.62
424.288	1224.62
424.511	1195.62
424.733	1213.62
424.956	1202.62
425.178	1180.62
425.401	1202.62
425.623	1211.62
425.846	1134.62
426.068	1210.62
426.291	1179.62
426.513	1138.62
426.735	1165.62
426.958	1148.62
427.18	1138.62
427.402	1128.62
427.625	1132.62
427.847	1130.62
428.069	1107.62
428.292	1130.62
428.514	1114.62
428.736	1115.62
428.958	1091.62
429.181	1123.62
429.403	1081.62
429.625	1110.62
429.847	1096.62
430.069	1114.62
430.292	1172.62
430.514	1180.62
430.736	1155.62
430.958	1112.62
431.18	1113.62
431.402	1112.62
431.624	1090.62
431.846	1115.62
432.068	1040.62
432.29	1087.62
432.512	1090.62
432.734	1094.62
432.956	1067.62
433.178	1155.62
433.4	1119.62
433.622	1094.62
433.844	1146.62
434.066	1110.62
434.287	1091.62
434.509	1111.62
434.731	1131.62
434.953	1151.62
435.175	1159.62
435.397	1157.62
435.618	1122.62
435.84	1130.62
436.062	1078.62
436.284	1085.62
436.505	1095.62
436.727	1116.62
436.949	1103.62
437.17	1113.62
437.392	1064.62
437.614	1097.62
437.835	1019.62
438.057	1028.62
438.278	1044.62
438.5	1041.62
438.721	1076.62
438.943	1122.62
439.165	1122.62
439.386	1142.62
439.608	1130.62
439.829	1143.62
440.05	1163.62
440.272	1173.62
440.493	1163.62
440.715	1087.62
440.936	1161.62
441.158	1159.62
441.379	1162.62
441.6	1202.62
441.822	1203.62
442.043	1271.62
442.264	1293.62
442.486	1172.62
442.707	1205.62
442.928	1178.62
443.149	1179.62
443.371	1171.62
443.592	1183.62
443.813	1208.62
444.034	1207.62
444.255	1219.62
444.476	1231.62
444.698	1264.62
444.919	1304.62
445.14	1327.62
445.361	1242.62
445.582	1230.62
445.803	1210.62
446.024	1171.62
446.245	1204.62
446.466	1193.62
446.687	1149.62
446.908	1172.62
447.129	1148.62
447.35	1130.62
447.571	1114.62
447.792	1116.62
448.013	1089.62
448.234	1105.62
448.455	1085.62
448.675	1090.62
448.896	1121.62
449.117	1125.62
449.338	1211.62
449.559	1222.62
449.779	1130.62
450	1085.62
450.221	1091.62
450.442	1087.62
450.662	1031.62
450.883	1075.62
451.104	1079.62
451.324	1061.62
451.545	1059.62
451.766	1053.62
451.986	1083.62
452.207	1115.62
452.428	1284.62
452.648	1715.62
452.869	1511.62
453.089	1170.62
453.31	1159.62
453.53	1135.62
453.751	1164.62
453.971	1230.62
454.192	1210.62
454.412	1083.62
454.633	1026.62
454.853	1047.62
455.073	1015.62
455.294	1008.62
455.514	1021.62
455.734	1008.62
455.955	988.62
456.175	1012.62
456.395	1000.62
456.616	994.62
456.836	994.62
457.056	1028.62
457.276	992.62
457.497	1036.62
457.717	1043.62
457.937	1049.62
458.157	1049.62
458.377	1047.62
458.598	1037.62
458.818	1073.62
459.038	1073.62
459.258	1090.62
459.478	1075.62
459.698	1089.62
459.918	1101.62
460.138	1142.62
460.358	1143.62
460.578	1159.62
460.798	1166.62
461.018	1220.62
461.238	1208.62
461.458	1205.62
461.678	1187.62
461.898	1219.62
462.118	1228.62
462.338	1238.62
462.558	1287.62
462.777	1275.62
462.997	1340.62
463.217	1383.62
463.437	1419.62
463.657	1417.62
463.876	1395.62
464.096	1361.62
464.316	1312.62
464.536	1276.62
464.755	1303.62
464.975	1239.62
465.195	1209.62
465.414	1195.62
465.634	1146.62
465.854	1132.62
466.073	1136.62
466.293	1122.62
466.512	1080.62
466.732	1097.62
466.951	1166.62
467.171	1223.62
467.391	1205.62
467.61	1129.62
467.829	1107.62
468.049	1068.62
468.268	1094.62
468.488	1084.62
468.707	1100.62
468.927	1071.62
469.146	1051.62
469.365	1105.62
469.585	1096.62
469.804	1098.62
470.023	1154.62
470.243	1136.62
470.462	1184.62
470.681	1249.62
470.901	1267.62
471.12	1441.62
471.339	1449.62
471.558	1254.62
471.777	1205.62
471.997	1155.62
472.216	1082.62
472.435	1091.62
472.654	1072.62
472.873	1059.62
473.092	1075.62
473.311	1073.62
473.53	1084.62
473.749	1125.62
473.968	1152.62
474.187	1093.62
474.406	1098.62
474.625	1090.62
474.844	1092.62
475.063	1091.62
475.282	1078.62
475.501	1088.62
475.72	1137.62
475.939	1118.62
476.158	1139.62
476.377	1147.62
476.596	1125.62
476.814	1132.62
477.033	1175.62
477.252	1169.62
477.471	1185.62
477.69	1192.62
477.908	1240.62
478.127	1223.62
478.346	1240.62
478.564	1279.62
478.783	1272.62
479.002	1275.62
479.22	1300.62
479.439	1283.62
479.658	1314.62
479.876	1279.62
480.095	1282.62
480.313	1347.62
480.532	1321.62
480.751	1314.62
480.969	1283.62
481.188	1302.62
481.406	1272.62
481.624	1250.62
481.843	1291.62
482.061	1279.62
482.28	1292.62
482.498	1277.62
482.717	1292.62
482.935	1315.62
483.153	1320.62
483.372	1343.62
483.59	1371.62
483.808	1383.62
484.027	1381.62
484.245	1462.62
484.463	1603.62
484.681	1685.62
484.9	1609.62
485.118	1547.62
485.336	1481.62
485.554	1472.62
485.772	1562.62
485.99	1730.62
486.209	1853.62
486.427	1635.62
486.645	1447.62
486.863	1446.62
487.081	1402.62
487.299	1386.62
487.517	1349.62
487.735	1399.62
487.953	1427.62
488.171	1441.62
488.389	1403.62
488.607	1355.62
488.825	1369.62
489.043	1328.62
489.261	1336.62
489.479	1311.62
489.696	1357.62
489.914	1320.62
490.132	1361.62
490.35	1344.62
490.568	1344.62
490.786	1409.62
491.003	1406.62
491.221	1403.62
491.439	1397.62
491.657	1418.62
491.874	1446.62
492.092	1508.62
492.31	1479.62
492.527	1519.62
492.745	1412.62
492.963	1454.62
493.18	1439.62
493.398	1402.62
493.615	1444.62
493.833	1442.62
494.05	1456.62
494.268	1442.62
494.485	1450.62
494.703	1449.62
494.92	1461.62
495.138	1436.62
495.355	1437.62
495.573	1446.62
495.79	1421.62
496.008	1445.62
496.225	1468.62
496.442	1500.62
496.66	1538.62
496.877	1542.62
497.094	1555.62
497.312	1524.62
497.529	1551.62
497.746	1515.62
497.963	1557.62
498.181	1571.62
498.398	1627.62
498.615	1687.62
498.832	1770.62
499.049	1820.62
499.267	1897.62
499.484	2057.62
499.701	2106.62
499.918	2163.62
500.135	2261.62
500.352	2404.62
500.569	2447.62
500.786	2441.62
501.003	2316.62
501.22	2247.62
501.437	2118.62
501.654	1941.62
501.871	1893.62
502.088	1795.62
502.305	1759.62
502.522	1738.62
502.739	1676.62
502.956	1570.62
503.172	1551.62
503.389	1553.62
503.606	1510.62
503.823	1471.62
504.04	1477.62
504.256	1484.62
504.473	1457.62
504.69	1444.62
504.907	1409.62
505.123	1461.62
505.34	1378.62
505.557	1359.62
505.773	1364.62
505.99	1319.62
506.207	1290.62
506.423	1287.62
506.64	1299.62
506.856	1293.62
507.073	1268.62
507.289	1275.62
507.506	1291.62
507.722	1279.62
507.939	1266.62
508.155	1229.62
508.372	1248.62
508.588	1235.62
508.805	1215.62
509.021	1239.62
509.238	1237.62
509.454	1245.62
509.67	1292.62
509.887	1268.62
510.103	1233.62
510.319	1211.62
510.536	1199.62
510.752	1211.62
510.968	1181.62
511.184	1203.62
511.401	1156.62
511.617	1145.62
511.833	1180.62
512.049	1167.62
512.265	1155.62
512.481	1169.62
512.698	1130.62
512.914	1171.62
513.13	1169.62
513.346	1141.62
513.562	1183.62
513.778	1171.62
513.994	1149.62
514.21	1185.62
514.426	1270.62
514.642	1274.62
514.858	1190.62
515.074	1184.62
515.29	1192.62
515.506	1172.62
515.721	1185.62
515.937	1223.62
516.153	1218.62
516.369	1209.62
516.585	1225.62
516.801	1269.62
517.016	1267.62
517.232	1300.62
517.448	1311.62
517.664	1347.62
517.879	1331.62
518.095	1336.62
518.311	1321.62
518.527	1293.62
518.742	1282.62
518.958	1313.62
519.173	1293.62
519.389	1250.62
519.605	1192.62
519.82	1195.62
520.036	1212.62
520.251	1195.62
520.467	1165.62
520.682	1148.62
520.898	1164.62
521.113	1148.62
521.329	1172.62
521.544	1164.62
521.76	1159.62
521.975	1158.62
522.19	1149.62
522.406	1138.62
522.621	1169.62
522.836	1137.62
523.052	1150.62
523.267	1131.62
523.482	1123.62
523.698	1148.62
523.913	1130.62
524.128	1101.62
524.343	1137.62
524.559	1138.62
524.774	1121.62
524.989	1138.62
525.204	1161.62
525.419	1151.62
525.634	1137.62
525.849	1136.62
526.064	1124.62
526.28	1102.62
526.495	1091.62
526.71	1119.62
526.925	1113.62
527.14	1136.62
527.355	1127.62
527.57	1146.62
527.785	1132.62
527.999	1112.62
528.214	1124.62
528.429	1160.62
528.644	1153.62
528.859	1223.62
529.074	1242.62
529.289	1221.62
529.503	1209.62
529.718	1235.62
529.933	1190.62
530.148	1183.62
530.363	1169.62
530.577	1185.62
530.792	1171.62
531.007	1178.62
531.221	1176.62
531.436	1191.62
531.651	1237.62
531.865	1187.62
532.08	1238.62
532.295	1287.62
532.509	1295.62
532.724	1326.62
532.938	1304.62
533.153	1343.62
533.367	1399.62
533.582	1483.62
533.796	1476.62
534.011	1435.62
534.225	1412.62
534.44	1349.62
534.654	1320.62
534.868	1330.62
535.083	1303.62
535.297	1321.62
535.511	1279.62
535.726	1219.62
535.94	1241.62
536.154	1189.62
536.369	1208.62
536.583	1157.62
536.797	1201.62
537.011	1189.62
537.225	1171.62
537.44	1163.62
537.654	1143.62
537.868	1130.62
538.082	1107.62
538.296	1107.62
538.51	1136.62
538.724	1131.62
538.938	1126.62
539.153	1142.62
539.367	1118.62
539.581	1099.62
539.795	1067.62
540.009	1090.62
540.222	1076.62
540.436	1077.62
540.65	1094.62
540.864	1109.62
541.078	1147.62
541.292	1212.62
541.506	1331.62
541.72	1405.62
541.934	1297.62
542.147	1217.62
542.361	1207.62
542.575	1144.62
542.789	1101.62
543.002	1075.62
543.216	1052.62
543.43	1053.62
543.644	1065.62
543.857	1081.62
544.071	1095.62
544.285	1111.62
544.498	1081.62
544.712	1056.62
544.925	1092.62
545.139	1117.62
545.352	1099.62
545.566	1088.62
545.779	1096.62
545.993	1114.62
546.206	1127.62
546.42	1118.62
546.633	1116.62
546.847	1109.62
547.06	1136.62
547.274	1087.62
547.487	1111.62
547.7	1077.62
547.914	1124.62
548.127	1109.62
548.34	1119.62
548.554	1089.62
548.767	1085.62
548.98	1097.62
549.193	1104.62
549.407	1101.62
549.62	1096.62
549.833	1117.62
550.046	1135.62
550.259	1113.62
550.473	1119.62
550.686	1119.62
550.899	1081.62
551.112	1078.62
551.325	1075.62
551.538	1081.62
551.751	1052.62
551.964	1087.62
552.177	1088.62
552.39	1081.62
552.603	1122.62
552.816	1148.62
553.029	1155.62
553.242	1173.62
553.455	1190.62
553.667	1194.62
553.88	1203.62
554.093	1207.62
554.306	1201.62
554.519	1193.62
554.732	1227.62
554.944	1235.62
555.157	1228.62
555.37	1274.62
555.583	1307.62
555.795	1384.62
556.008	1437.62
556.221	1483.62
556.433	1563.62
556.646	1599.62
556.859	1553.62
557.071	1500.62
557.284	1492.62
557.496	1454.62
557.709	1419.62
557.921	1409.62
558.134	1425.62
558.346	1468.62
558.559	1487.62
558.771	1541.62
558.984	1611.62
559.196	1727.62
559.409	1684.62
559.621	1579.62
559.833	1543.62
560.046	1455.62
560.258	1377.62
560.47	1325.62
560.683	1307.62
560.895	1273.62
561.107	1209.62
561.32	1184.62
561.532	1179.62
561.744	1178.62
561.956	1137.62
562.168	1131.62
562.381	1085.62
562.593	1093.62
562.805	1116.62
563.017	1113.62
563.229	1128.62
563.441	1176.62
563.653	1072.62
563.865	1035.62
564.077	1028.62
564.289	1013.62
564.501	1027.62
564.713	1026.62
564.925	1019.62
565.137	1016.62
565.349	1005.62
565.561	998.62
565.773	1029.62
565.985	1036.62
566.197	1073.62
566.408	1073.62
566.62	1093.62
566.832	1131.62
567.044	1121.62
567.255	1124.62
567.467	1156.62
567.679	1159.62
567.891	1204.62
568.102	1313.62
568.314	1477.62
568.526	1261.62
568.737	1107.62
568.949	1025.62
569.161	958.62
569.372	898.62
569.584	908.62
569.795	893.62
570.007	933.62
570.218	925.62
570.43	913.62
570.641	876.62
570.853	857.62
571.064	853.62
571.276	837.62
571.487	835.62
571.698	840.62
571.91	827.62
572.121	805.62
572.333	788.62
572.544	771.62
572.755	830.62
572.966	937.62
573.178	859.62
573.389	826.62
573.6	770.62
573.811	744.62
574.023	765.62
574.234	744.62
574.445	734.62
574.656	711.62
574.867	715.62
575.078	736.62
575.289	735.62
575.501	728.62
575.712	745.62
575.923	732.62
576.134	732.62
576.345	742.62
576.556	738.62
576.767	732.62
576.978	737.62
577.188	761.62
577.399	745.62
577.61	752.62
577.821	746.62
578.032	754.62
578.243	781.62
578.454	784.62
578.665	780.62
578.875	781.62
579.086	803.62
579.297	827.62
579.508	875.62
579.718	939.62
579.929	1029.62
580.14	1121.62
580.35	1137.62
580.561	1128.62
580.772	1037.62
580.982	972.62
581.193	939.62
581.403	885.62
581.614	867.62
581.825	850.62
582.035	829.62
582.246	795.62
582.456	781.62
582.667	754.62
582.877	759.62
583.087	714.62
583.298	700.62
583.508	707.62
583.719	675.62
583.929	653.62
584.139	645.62
584.35	617.62
584.56	633.62
584.77	623.62
584.981	594.62
585.191	612.62
585.401	614.62
585.611	576.62
585.821	585.62
586.032	612.62
586.242	570.62
586.452	589.62
586.662	601.62
586.872	593.62
587.082	578.62
587.292	562.62
587.502	565.62
587.713	565.62
587.923	564.62
588.133	548.62
588.343	551.62
588.553	539.62
588.762	531.62
588.972	556.62
589.182	553.62
589.392	561.62
589.602	560.62
589.812	550.62
590.022	551.62
590.232	512.62
590.441	528.62
590.651	544.62
590.861	501.62
591.071	520.62
591.281	519.62
591.49	536.62
591.7	535.62
591.91	529.62
592.119	532.62
592.329	517.62
592.539	533.62
592.748	559.62
592.958	562.62
593.167	545.62
593.377	557.62
593.587	568.62
593.796	541.62
594.006	521.62
594.215	552.62
594.424	555.62
594.634	561.62
594.843	536.62
595.053	533.62
595.262	536.62
595.472	512.62
595.681	499.62
595.89	498.62
596.1	469.62
596.309	487.62
596.518	474.62
596.727	484.62
596.937	485.62
597.146	474.62
597.355	453.62
597.564	471.62
597.774	462.62
597.983	470.62
598.192	434.62
598.401	443.62
598.61	436.62
598.819	444.62
599.028	432.62
599.237	433.62
599.446	441.62
599.655	440.62
599.864	441.62
600.073	434.62
600.282	421.62
600.491	432.62
600.7	428.62
600.909	436.62
601.118	429.62
601.327	432.62
601.536	438.62
601.745	448.62
601.953	480.62
602.162	525.62
602.371	488.62
602.58	452.62
602.789	477.62
602.997	463.62
603.206	456.62
603.415	414.62
603.623	441.62
603.832	397.62
604.041	423.62
604.249	417.62
604.458	391.62
604.666	403.62
604.875	405.62
605.084	405.62
605.292	420.62
605.501	424.62
605.709	428.62
605.918	443.62
606.126	407.62
606.334	437.62
606.543	437.62
606.751	449.62
606.96	499.62
607.168	526.62
607.376	483.62
607.585	440.62
607.793	419.62
608.001	433.62
608.21	417.62
608.418	415.62
608.626	400.62
608.834	390.62
609.043	403.62
609.251	414.62
609.459	418.62
609.667	405.62
609.875	418.62
610.083	398.62
610.291	392.62
610.499	401.62
610.707	385.62
610.916	397.62
611.124	397.62
611.332	392.62
611.54	394.62
611.748	383.62
611.955	399.62
612.163	394.62
612.371	393.62
612.579	396.62
612.787	391.62
612.995	387.62
613.203	385.62
613.411	393.62
613.618	402.62
613.826	385.62
614.034	381.62
614.242	374.62
614.449	377.62
614.657	388.62
614.865	379.62
615.072	372.62
615.28	388.62
615.488	375.62
615.695	391.62
615.903	379.62
616.111	390.62
616.318	383.62
616.526	385.62
616.733	372.62
616.941	387.62
617.148	380.62
617.356	386.62
617.563	361.62
617.771	375.62
617.978	373.62
618.185	375.62
618.393	375.62
618.6	362.62
618.807	377.62
619.015	377.62
619.222	372.62
619.429	367.62
619.637	356.62
619.844	343.62
620.051	349.62
620.258	354.62
620.466	332.62
620.673	354.62
620.88	345.62
621.087	327.62
621.294	336.62
621.501	340.62
621.708	328.62
621.915	363.62
622.122	337.62
622.329	352.62
622.536	344.62
622.743	350.62
622.95	349.62
623.157	348.62
623.364	362.62
623.571	341.62
623.778	331.62
623.985	339.62
624.192	323.62
624.399	331.62
624.606	342.62
624.812	331.62
625.019	332.62
625.226	355.62
625.433	338.62
625.639	325.62
625.846	327.62
626.053	327.62
626.259	324.62
626.466	314.62
626.673	306.62
626.879	296.62
627.086	289.62
627.293	316.62
627.499	311.62
627.706	330.62
627.912	309.62
628.119	324.62
628.325	326.62
628.532	328.62
628.738	310.62
628.945	311.62
629.151	311.62
629.357	304.62
629.564	293.62
629.77	307.62
629.976	306.62
630.183	288.62
630.389	297.62
630.595	313.62
630.802	298.62
631.008	288.62
631.214	327.62
631.42	285.62
631.627	305.62
631.833	298.62
632.039	307.62
632.245	303.62
632.451	280.62
632.657	295.62
632.863	287.62
633.069	292.62
633.275	296.62
633.481	292.62
633.688	305.62
633.893	289.62
634.099	287.62
634.305	300.62
634.511	276.62
634.717	306.62
634.923	309.62
635.129	333.62
635.335	356.62
635.541	316.62
635.747	307.62
635.952	297.62
636.158	304.62
636.364	312.62
636.57	301.62
636.775	299.62
636.981	280.62
637.187	289.62
637.392	295.62
637.598	299.62
637.804	283.62
638.009	289.62
638.215	297.62
638.421	297.62
638.626	292.62
638.832	298.62
639.037	294.62
639.243	288.62
639.448	307.62
639.654	292.62
639.859	293.62
640.065	291.62
640.27	322.62
640.475	309.62
640.681	301.62
640.886	293.62
641.091	298.62
641.297	309.62
641.502	313.62
641.707	315.62
641.913	328.62
642.118	330.62
642.323	325.62
642.528	336.62
642.733	357.62
642.939	361.62
643.144	334.62
643.349	346.62
643.554	371.62
643.759	363.62
643.964	379.62
644.169	416.62
644.374	409.62
644.579	433.62
644.784	483.62
644.989	537.62
645.194	591.62
645.399	680.62
645.604	686.62
645.809	555.62
646.014	460.62
646.219	421.62
646.423	374.62
646.628	340.62
646.833	326.62
647.038	328.62
647.243	295.62
647.447	303.62
647.652	307.62
647.857	284.62
648.062	303.62
648.266	283.62
648.471	267.62
648.676	297.62
648.88	294.62
649.085	272.62
649.289	267.62
649.494	259.62
649.698	268.62
649.903	246.62
650.107	254.62
650.312	259.62
650.516	248.62
650.721	224.62
650.925	234.62
651.13	230.62
651.334	248.62
651.539	232.62
651.743	242.62
651.947	214.62
652.152	236.62
652.356	207.62
652.56	245.62
652.764	249.62
652.969	228.62
653.173	218.62
653.377	218.62
653.581	226.62
653.785	202.62
653.99	221.62
654.194	223.62
654.398	209.62
654.602	212.62
654.806	203.62
655.01	195.62
655.214	207.62
655.418	208.62
655.622	191.62
655.826	213.62
656.03	213.62
656.234	217.62
656.438	227.62
656.642	215.62
656.846	216.62
657.049	190.62
657.253	195.62
657.457	184.62
657.661	173.62
657.865	150.62
658.068	154.62
658.272	156.62
658.476	159.62
658.68	148.62
658.883	154.62
659.087	138.62
659.291	134.62
659.494	131.62
659.698	132.62
659.901	121.62
660.105	121.62
660.309	111.62
660.512	119.62
660.716	113.62
660.919	101.62
661.123	115.62
661.326	115.62
661.53	111.62
661.733	102.62
661.936	108.62
662.14	108.62
662.343	106.62
662.546	100.62
662.75	92.62
662.953	83.62
663.156	81.62
663.36	84.62
663.563	84.62
663.766	83.62
663.969	83.62
664.173	89.62
664.376	86.62
664.579	90.62
664.782	90.62
664.985	93.62
665.188	84.62
665.391	81.62
665.594	80.62
665.797	79.62
666	84.62
666.203	99.62
666.406	71.62
666.609	90.62
666.812	84.62
667.015	93.62
667.218	86.62
667.421	83.62
667.624	82.62
667.827	88.62
668.03	85.62
668.232	90.62
668.435	81.62
668.638	76.62
668.841	90.62
669.043	83.62
669.246	74.62
669.449	79.62
669.651	83.62
669.854	85.62
670.057	82.62
670.259	87.62
670.462	81.62
670.665	72.62
670.867	75.62
671.07	79.62
671.272	86.62
671.475	78.62
671.677	90.62
671.88	72.62
672.082	74.62
672.284	78.62
672.487	82.62
672.689	84.62
672.892	84.62
