Data from SnStandardFlinnAPT0064_LampEnergy10_LIBS07252019.E.O._I.C._HRD10591_15-20-46-494.txt Node
Date: Thu Jul 25 15:20:46 EDT 2019
User: cochatt
Spectrometer: HR+D1059
Trigger mode: 1
Integration Time (sec): 1.000000E-1
Scans to average: 1
Electric dark correction enabled: true
Nonlinearity correction enabled: false
Boxcar width: 0
XAxis mode: Wavelengths
Number of Pixels in Spectrum: 2048
>>>>>Begin Spectral Data<<<<<
223.165	-24.5
223.4	-24.5
223.635	-24.5
223.869	-14.5
224.104	-25.5
224.338	-30.5
224.573	-21.5
224.808	1.5
225.042	5.5
225.277	-2.5
225.511	-10.5
225.746	8.5
225.98	4.5
226.215	6.5
226.449	8.5
226.683	36.5
226.918	31.5
227.152	26.5
227.387	32.5
227.621	23.5
227.856	47.5
228.09	40.5
228.324	40.5
228.559	56.5
228.793	135.5
229.027	312.5
229.262	354.5
229.496	301.5
229.73	291.5
229.964	303.5
230.199	313.5
230.433	303.5
230.667	308.5
230.901	321.5
231.136	354.5
231.37	355.5
231.604	402.5
231.838	455.5
232.072	526.5
232.306	547.5
232.541	466.5
232.775	421.5
233.009	429.5
233.243	440.5
233.477	445.5
233.711	551.5
233.945	575.5
234.179	545.5
234.413	452.5
234.647	433.5
234.881	465.5
235.115	531.5
235.349	631.5
235.583	781.5
235.817	1036.5
236.051	991.5
236.285	676.5
236.519	542.5
236.753	517.5
236.987	507.5
237.221	552.5
237.455	521.5
237.689	494.5
237.922	450.5
238.156	457.5
238.39	495.5
238.624	496.5
238.858	480.5
239.091	488.5
239.325	494.5
239.559	495.5
239.793	528.5
240.027	557.5
240.26	540.5
240.494	545.5
240.728	600.5
240.961	616.5
241.195	655.5
241.429	697.5
241.662	723.5
241.896	795.5
242.13	942.5
242.363	1282.5
242.597	1620.5
242.83	1634.5
243.064	1572.5
243.298	1833.5
243.531	1509.5
243.765	989.5
243.998	787.5
244.232	703.5
244.465	694.5
244.699	641.5
244.932	661.5
245.166	674.5
245.399	697.5
245.633	718.5
245.866	703.5
246.099	684.5
246.333	667.5
246.566	650.5
246.8	630.5
247.033	658.5
247.266	653.5
247.5	639.5
247.733	688.5
247.966	708.5
248.2	793.5
248.433	876.5
248.666	1015.5
248.899	966.5
249.133	847.5
249.366	867.5
249.599	985.5
249.832	1119.5
250.066	1106.5
250.299	859.5
250.532	790.5
250.765	761.5
250.998	729.5
251.231	753.5
251.465	748.5
251.698	744.5
251.931	750.5
252.164	747.5
252.397	781.5
252.63	795.5
252.863	840.5
253.096	802.5
253.329	771.5
253.562	784.5
253.795	767.5
254.028	801.5
254.261	804.5
254.494	891.5
254.727	1078.5
254.96	1267.5
255.193	1245.5
255.426	985.5
255.659	889.5
255.892	885.5
256.124	859.5
256.357	885.5
256.59	934.5
256.823	1001.5
257.056	1126.5
257.289	1374.5
257.521	1524.5
257.754	1236.5
257.987	977.5
258.22	931.5
258.452	926.5
258.685	920.5
258.918	958.5
259.151	1025.5
259.383	1105.5
259.616	1223.5
259.849	1309.5
260.081	1122.5
260.314	1027.5
260.547	937.5
260.779	953.5
261.012	955.5
261.244	980.5
261.477	962.5
261.71	990.5
261.942	1007.5
262.175	1031.5
262.407	1056.5
262.64	1052.5
262.872	1101.5
263.105	1170.5
263.337	1189.5
263.57	1276.5
263.802	1267.5
264.035	1332.5
264.267	1334.5
264.499	1377.5
264.732	1440.5
264.964	1472.5
265.197	1424.5
265.429	1430.5
265.661	1521.5
265.894	1613.5
266.126	1791.5
266.358	1987.5
266.591	1951.5
266.823	1659.5
267.055	1465.5
267.287	1429.5
267.52	1364.5
267.752	1267.5
267.984	1293.5
268.216	1282.5
268.448	1264.5
268.681	1247.5
268.913	1259.5
269.145	1236.5
269.377	1255.5
269.609	1263.5
269.841	1309.5
270.073	1383.5
270.306	1593.5
270.538	2210.5
270.77	3289.5
271.002	4077.5
271.234	2821.5
271.466	1908.5
271.698	1570.5
271.93	1444.5
272.162	1316.5
272.394	1277.5
272.626	1266.5
272.858	1275.5
273.09	1235.5
273.322	1232.5
273.553	1201.5
273.785	1218.5
274.017	1209.5
274.249	1221.5
274.481	1190.5
274.713	1215.5
274.945	1218.5
275.176	1200.5
275.408	1234.5
275.64	1232.5
275.872	1251.5
276.104	1271.5
276.335	1271.5
276.567	1292.5
276.799	1311.5
277.031	1351.5
277.262	1333.5
277.494	1432.5
277.726	1607.5
277.957	1873.5
278.189	2207.5
278.421	1974.5
278.652	1793.5
278.884	1733.5
279.115	1496.5
279.347	1458.5
279.579	1407.5
279.81	1426.5
280.042	1400.5
280.273	1441.5
280.505	1459.5
280.736	1497.5
280.968	1584.5
281.199	1766.5
281.431	2085.5
281.662	2158.5
281.894	1849.5
282.125	1634.5
282.356	1694.5
282.588	1679.5
282.819	1717.5
283.051	1831.5
283.282	2029.5
283.513	2501.5
283.745	3667.5
283.976	5786.5
284.207	8253.5
284.439	7555.5
284.67	4667.5
284.901	3828.5
285.132	3864.5
285.364	3721.5
285.595	2757.5
285.826	2451.5
286.057	2883.5
286.288	3973.5
286.52	5367.5
286.751	5022.5
286.982	3148.5
287.213	2332.5
287.444	2024.5
287.675	1871.5
287.906	1807.5
288.138	1776.5
288.369	1707.5
288.6	1687.5
288.831	1697.5
289.062	1656.5
289.293	1671.5
289.524	1713.5
289.755	1727.5
289.986	1732.5
290.217	1744.5
290.448	1743.5
290.679	1751.5
290.91	1801.5
291.141	1901.5
291.371	2049.5
291.602	2213.5
291.833	1972.5
292.064	1763.5
292.295	1673.5
292.526	1668.5
292.757	1609.5
292.987	1616.5
293.218	1588.5
293.449	1587.5
293.68	1565.5
293.91	1604.5
294.141	1595.5
294.372	1582.5
294.603	1599.5
294.833	1612.5
295.064	1630.5
295.295	1572.5
295.525	1549.5
295.756	1595.5
295.987	1520.5
296.217	1556.5
296.448	1542.5
296.679	1583.5
296.909	1545.5
297.14	1583.5
297.37	1613.5
297.601	1647.5
297.831	1623.5
298.062	1610.5
298.292	1660.5
298.523	1716.5
298.753	1709.5
298.984	1703.5
299.214	1749.5
299.445	1771.5
299.675	1812.5
299.905	1864.5
300.136	1923.5
300.366	2141.5
300.597	2775.5
300.827	3928.5
301.057	5441.5
301.288	5409.5
301.518	3424.5
301.748	2680.5
301.979	2406.5
302.209	2310.5
302.439	2384.5
302.669	2503.5
302.9	3027.5
303.13	4230.5
303.36	6331.5
303.59	8452.5
303.82	7392.5
304.051	4324.5
304.281	3108.5
304.511	2571.5
304.741	2355.5
304.971	2230.5
305.201	2115.5
305.431	2028.5
305.661	1973.5
305.891	1911.5
306.121	1929.5
306.352	1931.5
306.582	1877.5
306.812	1849.5
307.042	1874.5
307.272	1831.5
307.502	1811.5
307.731	1820.5
307.961	1814.5
308.191	1792.5
308.421	1766.5
308.651	1838.5
308.881	1832.5
309.111	1832.5
309.341	1816.5
309.571	1828.5
309.8	1888.5
310.03	1867.5
310.26	1867.5
310.49	1883.5
310.72	1856.5
310.949	1874.5
311.179	1873.5
311.409	1915.5
311.639	1903.5
311.868	1965.5
312.098	1938.5
312.328	1954.5
312.557	2006.5
312.787	1969.5
313.017	2009.5
313.246	2013.5
313.476	2002.5
313.706	2071.5
313.935	2219.5
314.165	2358.5
314.394	2514.5
314.624	2399.5
314.853	2178.5
315.083	2168.5
315.312	2178.5
315.542	2178.5
315.771	2180.5
316.001	2289.5
316.23	2364.5
316.46	2478.5
316.689	2680.5
316.919	3270.5
317.148	4675.5
317.377	7217.5
317.607	10608.5
317.836	11213.5
318.065	6856.5
318.295	4389.5
318.524	3423.5
318.753	2987.5
318.983	2720.5
319.212	2567.5
319.441	2491.5
319.67	2517.5
319.9	2407.5
320.129	2398.5
320.358	2393.5
320.587	2353.5
320.816	2359.5
321.046	2370.5
321.275	2415.5
321.504	2379.5
321.733	2445.5
321.962	2597.5
322.191	2573.5
322.42	2533.5
322.649	2545.5
322.878	2531.5
323.108	2523.5
323.337	2591.5
323.566	2583.5
323.795	2673.5
324.024	2730.5
324.253	2744.5
324.482	2862.5
324.71	3014.5
324.939	3280.5
325.168	3309.5
325.397	3481.5
325.626	4140.5
325.855	5765.5
326.084	9019.5
326.313	12978.5
326.542	13723.5
326.77	9431.5
326.999	6122.5
327.228	5048.5
327.457	4863.5
327.686	4931.5
327.914	5210.5
328.143	6131.5
328.372	7394.5
328.6	8148.5
328.829	7260.5
329.058	5964.5
329.287	5190.5
329.515	4747.5
329.744	4322.5
329.972	4124.5
330.201	3875.5
330.43	3757.5
330.658	3682.5
330.887	3575.5
331.115	3540.5
331.344	3561.5
331.572	3509.5
331.801	3487.5
332.03	3525.5
332.258	3610.5
332.486	3806.5
332.715	4398.5
332.943	5391.5
333.172	6736.5
333.4	6736.5
333.629	5072.5
333.857	4527.5
334.085	4529.5
334.314	4788.5
334.542	5270.5
334.771	6153.5
334.999	7656.5
335.227	9729.5
335.455	10899.5
335.684	9708.5
335.912	7871.5
336.14	6676.5
336.369	5869.5
336.597	5341.5
336.825	4893.5
337.053	4574.5
337.281	4393.5
337.51	4100.5
337.738	3900.5
337.966	3709.5
338.194	3596.5
338.422	3488.5
338.65	3391.5
338.878	3272.5
339.106	3250.5
339.334	3243.5
339.562	3179.5
339.79	3079.5
340.018	3106.5
340.246	3082.5
340.474	3075.5
340.702	3026.5
340.93	3011.5
341.158	3055.5
341.386	3005.5
341.614	2975.5
341.842	2957.5
342.07	2831.5
342.298	2810.5
342.526	2771.5
342.754	2733.5
342.981	2709.5
343.209	2741.5
343.437	2716.5
343.665	2745.5
343.893	2829.5
344.12	2871.5
344.348	2759.5
344.576	2754.5
344.804	2670.5
345.031	2680.5
345.259	2632.5
345.487	2639.5
345.714	2535.5
345.942	2547.5
346.17	2584.5
346.397	2536.5
346.625	2550.5
346.853	2535.5
347.08	2517.5
347.308	2555.5
347.535	2553.5
347.763	2529.5
347.99	2520.5
348.218	2561.5
348.445	2485.5
348.673	2476.5
348.9	2497.5
349.128	2435.5
349.355	2539.5
349.583	2463.5
349.81	2466.5
350.037	2457.5
350.265	2407.5
350.492	2427.5
350.72	2405.5
350.947	2481.5
351.174	2414.5
351.402	2424.5
351.629	2436.5
351.856	2439.5
352.083	2401.5
352.311	2399.5
352.538	2366.5
352.765	2382.5
352.992	2377.5
353.22	2374.5
353.447	2366.5
353.674	2350.5
353.901	2393.5
354.128	2436.5
354.355	2442.5
354.583	2449.5
354.81	2447.5
355.037	2465.5
355.264	2397.5
355.491	2436.5
355.718	2437.5
355.945	2482.5
356.172	2512.5
356.399	2533.5
356.626	2501.5
356.853	2485.5
357.08	2500.5
357.307	2575.5
357.534	2607.5
357.761	2664.5
357.988	2612.5
358.215	2632.5
358.441	2652.5
358.668	2504.5
358.895	2600.5
359.122	2539.5
359.349	2503.5
359.576	2569.5
359.802	2581.5
360.029	2550.5
360.256	2558.5
360.483	2584.5
360.709	2547.5
360.936	2503.5
361.163	2592.5
361.39	2574.5
361.616	2567.5
361.843	2589.5
362.07	2569.5
362.296	2573.5
362.523	2570.5
362.749	2569.5
362.976	2536.5
363.203	2555.5
363.429	2563.5
363.656	2560.5
363.882	2563.5
364.109	2547.5
364.335	2542.5
364.562	2553.5
364.788	2578.5
365.015	2598.5
365.241	2691.5
365.468	2840.5
365.694	2960.5
365.92	2864.5
366.147	2611.5
366.373	2583.5
366.599	2629.5
366.826	2627.5
367.052	2583.5
367.278	2599.5
367.505	2642.5
367.731	2639.5
367.957	2684.5
368.184	2643.5
368.41	2722.5
368.636	2686.5
368.862	2672.5
369.089	2597.5
369.315	2724.5
369.541	2690.5
369.767	2652.5
369.993	2623.5
370.219	2584.5
370.445	2688.5
370.672	2696.5
370.898	2696.5
371.124	2709.5
371.35	2681.5
371.576	2757.5
371.802	2752.5
372.028	2757.5
372.254	2827.5
372.48	2756.5
372.706	2815.5
372.932	2804.5
373.158	2819.5
373.384	2768.5
373.61	2778.5
373.835	2870.5
374.061	2813.5
374.287	2813.5
374.513	2844.5
374.739	2932.5
374.965	2929.5
375.191	2933.5
375.416	2927.5
375.642	2908.5
375.868	2881.5
376.094	2796.5
376.319	2783.5
376.545	2783.5
376.771	2787.5
376.997	2721.5
377.222	2742.5
377.448	2733.5
377.674	2761.5
377.899	2731.5
378.125	2797.5
378.35	2709.5
378.576	2814.5
378.802	2773.5
379.027	2836.5
379.253	2920.5
379.478	3052.5
379.704	3612.5
379.929	5299.5
380.155	8145.5
380.38	8895.5
380.606	5449.5
380.831	3762.5
381.057	3239.5
381.282	2991.5
381.507	2878.5
381.733	2781.5
381.958	2716.5
382.184	2741.5
382.409	2766.5
382.634	2662.5
382.86	2711.5
383.085	2733.5
383.31	2659.5
383.535	2680.5
383.761	2734.5
383.986	2719.5
384.211	2720.5
384.436	2788.5
384.662	2780.5
384.887	2788.5
385.112	2761.5
385.337	2839.5
385.562	2791.5
385.787	2772.5
386.013	2803.5
386.238	2821.5
386.463	2842.5
386.688	2807.5
386.913	2811.5
387.138	2758.5
387.363	2803.5
387.588	2781.5
387.813	2752.5
388.038	2775.5
388.263	2782.5
388.488	2761.5
388.713	2748.5
388.938	2768.5
389.163	2772.5
389.387	2774.5
389.612	2756.5
389.837	2787.5
390.062	2822.5
390.287	2821.5
390.512	2779.5
390.736	2827.5
390.961	2868.5
391.186	2896.5
391.411	2935.5
391.636	2945.5
391.86	2971.5
392.085	2944.5
392.31	2857.5
392.534	2882.5
392.759	2831.5
392.984	2826.5
393.208	2847.5
393.433	2840.5
393.658	2840.5
393.882	2782.5
394.107	2831.5
394.331	2806.5
394.556	2791.5
394.78	2796.5
395.005	2874.5
395.229	2804.5
395.454	2896.5
395.678	2928.5
395.903	2918.5
396.127	2914.5
396.352	2839.5
396.576	2885.5
396.801	2868.5
397.025	2924.5
397.249	2941.5
397.474	2942.5
397.698	2904.5
397.922	2980.5
398.147	2945.5
398.371	2983.5
398.595	3036.5
398.82	3101.5
399.044	3213.5
399.268	3361.5
399.492	3521.5
399.717	3663.5
399.941	3699.5
400.165	3545.5
400.389	3381.5
400.613	3289.5
400.837	3151.5
401.062	3115.5
401.286	3087.5
401.51	3134.5
401.734	3100.5
401.958	3083.5
402.182	3076.5
402.406	3030.5
402.63	3102.5
402.854	3079.5
403.078	3080.5
403.302	3117.5
403.526	3160.5
403.75	3195.5
403.974	3203.5
404.198	3161.5
404.422	3219.5
404.645	3157.5
404.869	3213.5
405.093	3261.5
405.317	3167.5
405.541	3266.5
405.765	3275.5
405.988	3301.5
406.212	3313.5
406.436	3237.5
406.66	3323.5
406.883	3276.5
407.107	3377.5
407.331	3473.5
407.555	3531.5
407.778	3428.5
408.002	3405.5
408.226	3417.5
408.449	3401.5
408.673	3311.5
408.896	3235.5
409.12	3280.5
409.344	3247.5
409.567	3154.5
409.791	3220.5
410.014	3153.5
410.238	3093.5
410.461	3184.5
410.685	3139.5
410.908	3135.5
411.132	3107.5
411.355	3055.5
411.578	3066.5
411.802	3032.5
412.025	3029.5
412.249	3115.5
412.472	3027.5
412.695	2987.5
412.919	3051.5
413.142	2998.5
413.365	3040.5
413.589	3034.5
413.812	2966.5
414.035	3011.5
414.258	3017.5
414.482	3012.5
414.705	2995.5
414.928	2991.5
415.151	3052.5
415.374	2975.5
415.597	2959.5
415.821	2912.5
416.044	2859.5
416.267	2864.5
416.49	2881.5
416.713	2872.5
416.936	2883.5
417.159	2861.5
417.382	2853.5
417.605	2849.5
417.828	2851.5
418.051	2889.5
418.274	2927.5
418.497	2948.5
418.72	2978.5
418.943	2926.5
419.166	3081.5
419.389	3243.5
419.611	3193.5
419.834	3146.5
420.057	3021.5
420.28	2920.5
420.503	2860.5
420.726	2862.5
420.948	2879.5
421.171	2841.5
421.394	2917.5
421.617	2937.5
421.839	2918.5
422.062	2923.5
422.285	2853.5
422.507	2944.5
422.73	2921.5
422.953	3021.5
423.175	3032.5
423.398	2976.5
423.621	2900.5
423.843	2883.5
424.066	2916.5
424.288	2873.5
424.511	2872.5
424.733	2856.5
424.956	2862.5
425.178	2827.5
425.401	2820.5
425.623	2861.5
425.846	2793.5
426.068	2843.5
426.291	2768.5
426.513	2746.5
426.735	2786.5
426.958	2756.5
427.18	2743.5
427.402	2739.5
427.625	2742.5
427.847	2736.5
428.069	2708.5
428.292	2709.5
428.514	2625.5
428.736	2661.5
428.958	2702.5
429.181	2653.5
429.403	2616.5
429.625	2677.5
429.847	2669.5
430.069	2745.5
430.292	2754.5
430.514	2872.5
430.736	2890.5
430.958	2696.5
431.18	2663.5
431.402	2648.5
431.624	2624.5
431.846	2609.5
432.068	2616.5
432.29	2615.5
432.512	2611.5
432.734	2672.5
432.956	2592.5
433.178	2614.5
433.4	2641.5
433.622	2680.5
433.844	2683.5
434.066	2668.5
434.287	2641.5
434.509	2722.5
434.731	2717.5
434.953	2751.5
435.175	2743.5
435.397	2793.5
435.618	2735.5
435.84	2668.5
436.062	2653.5
436.284	2676.5
436.505	2625.5
436.727	2652.5
436.949	2644.5
437.17	2633.5
437.392	2620.5
437.614	2603.5
437.835	2539.5
438.057	2588.5
438.278	2579.5
438.5	2565.5
438.721	2609.5
438.943	2704.5
439.165	2769.5
439.386	2780.5
439.608	2737.5
439.829	2727.5
440.05	2844.5
440.272	2871.5
440.493	2732.5
440.715	2741.5
440.936	2765.5
441.158	2748.5
441.379	2769.5
441.6	2877.5
441.822	2913.5
442.043	3132.5
442.264	3195.5
442.486	2968.5
442.707	2884.5
442.928	2830.5
443.149	2811.5
443.371	2819.5
443.592	2833.5
443.813	2881.5
444.034	2871.5
444.255	2947.5
444.476	2949.5
444.698	3032.5
444.919	3048.5
445.14	3097.5
445.361	2996.5
445.582	2932.5
445.803	2843.5
446.024	2772.5
446.245	2823.5
446.466	2821.5
446.687	2797.5
446.908	2742.5
447.129	2691.5
447.35	2659.5
447.571	2665.5
447.792	2612.5
448.013	2588.5
448.234	2605.5
448.455	2571.5
448.675	2678.5
448.896	2715.5
449.117	2780.5
449.338	3041.5
449.559	3157.5
449.779	2831.5
450	2640.5
450.221	2579.5
450.442	2557.5
450.662	2585.5
450.883	2548.5
451.104	2508.5
451.324	2533.5
451.545	2532.5
451.766	2559.5
451.986	2611.5
452.207	2848.5
452.428	3682.5
452.648	5724.5
452.869	4713.5
453.089	3154.5
453.31	3020.5
453.53	2993.5
453.751	3020.5
453.971	3278.5
454.192	3152.5
454.412	2750.5
454.633	2565.5
454.853	2518.5
455.073	2513.5
455.294	2445.5
455.514	2428.5
455.734	2456.5
455.955	2433.5
456.175	2427.5
456.395	2388.5
456.616	2432.5
456.836	2477.5
457.056	2518.5
457.276	2498.5
457.497	2670.5
457.717	2639.5
457.937	2644.5
458.157	2565.5
458.377	2578.5
458.598	2576.5
458.818	2660.5
459.038	2598.5
459.258	2646.5
459.478	2627.5
459.698	2722.5
459.918	2733.5
460.138	2738.5
460.358	2823.5
460.578	2843.5
460.798	2847.5
461.018	2871.5
461.238	2879.5
461.458	2886.5
461.678	2960.5
461.898	3024.5
462.118	3004.5
462.338	3115.5
462.558	3091.5
462.777	3181.5
462.997	3268.5
463.217	3400.5
463.437	3588.5
463.657	3592.5
463.876	3546.5
464.096	3381.5
464.316	3231.5
464.536	3201.5
464.755	3140.5
464.975	3031.5
465.195	2969.5
465.414	2811.5
465.634	2788.5
465.854	2747.5
466.073	2702.5
466.293	2697.5
466.512	2703.5
466.732	2697.5
466.951	2817.5
467.171	3032.5
467.391	2989.5
467.61	2774.5
467.829	2694.5
468.049	2599.5
468.268	2595.5
468.488	2550.5
468.707	2614.5
468.927	2637.5
469.146	2642.5
469.365	2609.5
469.585	2599.5
469.804	2669.5
470.023	2793.5
470.243	2778.5
470.462	2848.5
470.681	3053.5
470.901	3376.5
471.12	3878.5
471.339	3868.5
471.558	3229.5
471.777	2914.5
471.997	2800.5
472.216	2714.5
472.435	2677.5
472.654	2624.5
472.873	2568.5
473.092	2599.5
473.311	2619.5
473.53	2673.5
473.749	2733.5
473.968	2821.5
474.187	2663.5
474.406	2613.5
474.625	2615.5
474.844	2608.5
475.063	2625.5
475.282	2639.5
475.501	2637.5
475.72	2693.5
475.939	2693.5
476.158	2678.5
476.377	2821.5
476.596	2759.5
476.814	2767.5
477.033	2782.5
477.252	2779.5
477.471	2820.5
477.69	2914.5
477.908	2921.5
478.127	2998.5
478.346	2963.5
478.564	3042.5
478.783	3043.5
479.002	3096.5
479.22	3115.5
479.439	3139.5
479.658	3148.5
479.876	3141.5
480.095	3119.5
480.313	3184.5
480.532	3263.5
480.751	3251.5
480.969	3179.5
481.188	3201.5
481.406	3174.5
481.624	3185.5
481.843	3197.5
482.061	3198.5
482.28	3168.5
482.498	3145.5
482.717	3167.5
482.935	3171.5
483.153	3224.5
483.372	3277.5
483.59	3357.5
483.808	3346.5
484.027	3515.5
484.245	3677.5
484.463	4098.5
484.681	4578.5
484.9	4136.5
485.118	3864.5
485.336	3769.5
485.554	3842.5
485.772	4080.5
485.99	4599.5
486.209	4950.5
486.427	4241.5
486.645	3725.5
486.863	3560.5
487.081	3430.5
487.299	3338.5
487.517	3408.5
487.735	3437.5
487.953	3407.5
488.171	3357.5
488.389	3348.5
488.607	3248.5
488.825	3311.5
489.043	3245.5
489.261	3250.5
489.479	3259.5
489.696	3234.5
489.914	3260.5
490.132	3328.5
490.35	3303.5
490.568	3320.5
490.786	3379.5
491.003	3345.5
491.221	3448.5
491.439	3430.5
491.657	3353.5
491.874	3378.5
492.092	3408.5
492.31	3436.5
492.527	3449.5
492.745	3455.5
492.963	3418.5
493.18	3371.5
493.398	3419.5
493.615	3507.5
493.833	3419.5
494.05	3425.5
494.268	3407.5
494.485	3471.5
494.703	3463.5
494.92	3535.5
495.138	3446.5
495.355	3486.5
495.573	3449.5
495.79	3519.5
496.008	3528.5
496.225	3532.5
496.442	3589.5
496.66	3743.5
496.877	3937.5
497.094	3871.5
497.312	3752.5
497.529	3748.5
497.746	3756.5
497.963	3824.5
498.181	3940.5
498.398	4019.5
498.615	4103.5
498.832	4223.5
499.049	4472.5
499.267	4835.5
499.484	5118.5
499.701	5123.5
499.918	5200.5
500.135	5437.5
500.352	5755.5
500.569	5795.5
500.786	5690.5
501.003	5539.5
501.22	5340.5
501.437	5098.5
501.654	4728.5
501.871	4621.5
502.088	4415.5
502.305	4194.5
502.522	4059.5
502.739	4025.5
502.956	3944.5
503.172	3819.5
503.389	3725.5
503.606	3685.5
503.823	3654.5
504.04	3680.5
504.256	3596.5
504.473	3573.5
504.69	3554.5
504.907	3528.5
505.123	3478.5
505.34	3364.5
505.557	3275.5
505.773	3288.5
505.99	3188.5
506.207	3167.5
506.423	3155.5
506.64	3093.5
506.856	3062.5
507.073	3060.5
507.289	3068.5
507.506	3058.5
507.722	3048.5
507.939	2969.5
508.155	2969.5
508.372	2968.5
508.588	2946.5
508.805	2945.5
509.021	2953.5
509.238	3005.5
509.454	3143.5
509.67	3369.5
509.887	3161.5
510.103	3028.5
510.319	2967.5
510.536	2977.5
510.752	2939.5
510.968	2926.5
511.184	2884.5
511.401	2833.5
511.617	2894.5
511.833	2894.5
512.049	2857.5
512.265	2888.5
512.481	2845.5
512.698	2855.5
512.914	2836.5
513.13	2860.5
513.346	2848.5
513.562	2879.5
513.778	2885.5
513.994	2932.5
514.21	2969.5
514.426	3185.5
514.642	3276.5
514.858	3051.5
515.074	2959.5
515.29	2919.5
515.506	2931.5
515.721	2939.5
515.937	2937.5
516.153	2972.5
516.369	3001.5
516.585	2985.5
516.801	3037.5
517.016	3081.5
517.232	3152.5
517.448	3193.5
517.664	3277.5
517.879	3207.5
518.095	3302.5
518.311	3224.5
518.527	3185.5
518.742	3200.5
518.958	3197.5
519.173	3291.5
519.389	3098.5
519.605	2967.5
519.82	2940.5
520.036	2934.5
520.251	2876.5
520.467	2851.5
520.682	2861.5
520.898	2792.5
521.113	2813.5
521.329	2777.5
521.544	2788.5
521.76	2829.5
521.975	2771.5
522.19	2755.5
522.406	2770.5
522.621	2767.5
522.836	2731.5
523.052	2776.5
523.267	2760.5
523.482	2732.5
523.698	2706.5
523.913	2731.5
524.128	2756.5
524.343	2705.5
524.559	2738.5
524.774	2737.5
524.989	2735.5
525.204	2722.5
525.419	2727.5
525.634	2702.5
525.849	2719.5
526.064	2734.5
526.28	2741.5
526.495	2659.5
526.71	2704.5
526.925	2758.5
527.14	2725.5
527.355	2752.5
527.57	2706.5
527.785	2742.5
527.999	2747.5
528.214	2791.5
528.429	2779.5
528.644	2865.5
528.859	2891.5
529.074	2873.5
529.289	2936.5
529.503	2887.5
529.718	2945.5
529.933	2888.5
530.148	2916.5
530.363	2946.5
530.577	2923.5
530.792	2923.5
531.007	2943.5
531.221	2966.5
531.436	3035.5
531.651	3039.5
531.865	3021.5
532.08	3112.5
532.295	3176.5
532.509	3436.5
532.724	3430.5
532.938	3503.5
533.153	3619.5
533.367	3911.5
533.582	4135.5
533.796	4071.5
534.011	3857.5
534.225	3675.5
534.44	3517.5
534.654	3459.5
534.868	3402.5
535.083	3355.5
535.297	3292.5
535.511	3248.5
535.726	3126.5
535.94	3086.5
536.154	3047.5
536.369	3017.5
536.583	2944.5
536.797	2963.5
537.011	2870.5
537.225	2863.5
537.44	2799.5
537.654	2838.5
537.868	2815.5
538.082	2764.5
538.296	2758.5
538.51	2711.5
538.724	2763.5
538.938	2725.5
539.153	2687.5
539.367	2768.5
539.581	2697.5
539.795	2648.5
540.009	2607.5
540.222	2636.5
540.436	2615.5
540.65	2615.5
540.864	2654.5
541.078	2724.5
541.292	2872.5
541.506	3376.5
541.72	3551.5
541.934	3095.5
542.147	2891.5
542.361	2839.5
542.575	2621.5
542.789	2647.5
543.002	2597.5
543.216	2590.5
543.43	2573.5
543.644	2476.5
543.857	2561.5
544.071	2591.5
544.285	2585.5
544.498	2589.5
544.712	2530.5
544.925	2573.5
545.139	2561.5
545.352	2581.5
545.566	2563.5
545.779	2597.5
545.993	2595.5
546.206	2562.5
546.42	2527.5
546.633	2555.5
546.847	2567.5
547.06	2570.5
547.274	2509.5
547.487	2580.5
547.7	2565.5
547.914	2605.5
548.127	2557.5
548.34	2568.5
548.554	2542.5
548.767	2554.5
548.98	2569.5
549.193	2532.5
549.407	2563.5
549.62	2561.5
549.833	2616.5
550.046	2563.5
550.259	2585.5
550.473	2542.5
550.686	2589.5
550.899	2584.5
551.112	2582.5
551.325	2556.5
551.538	2557.5
551.751	2568.5
551.964	2593.5
552.177	2588.5
552.39	2678.5
552.603	2732.5
552.816	2690.5
553.029	2811.5
553.242	2807.5
553.455	2847.5
553.667	2847.5
553.88	2848.5
554.093	2867.5
554.306	2910.5
554.519	2913.5
554.732	2961.5
554.944	2999.5
555.157	3138.5
555.37	3171.5
555.583	3327.5
555.795	3541.5
556.008	3763.5
556.221	4327.5
556.433	4631.5
556.646	4655.5
556.859	4395.5
557.071	4211.5
557.284	4082.5
557.496	3903.5
557.709	3837.5
557.921	3736.5
558.134	3837.5
558.346	3849.5
558.559	3999.5
558.771	4234.5
558.984	4648.5
559.196	5054.5
559.409	4783.5
559.621	4395.5
559.833	4133.5
560.046	3895.5
560.258	3635.5
560.47	3458.5
560.683	3295.5
560.895	3166.5
561.107	3044.5
561.32	2972.5
561.532	2856.5
561.744	2811.5
561.956	2734.5
562.168	2739.5
562.381	2694.5
562.593	2643.5
562.805	2749.5
563.017	2709.5
563.229	2790.5
563.441	3221.5
563.653	2685.5
563.865	2532.5
564.077	2467.5
564.289	2417.5
564.501	2399.5
564.713	2390.5
564.925	2422.5
565.137	2325.5
565.349	2387.5
565.561	2419.5
565.773	2413.5
565.985	2445.5
566.197	2433.5
566.408	2476.5
566.62	2555.5
566.832	2628.5
567.044	2613.5
567.255	2658.5
567.467	2752.5
567.679	2747.5
567.891	2882.5
568.102	3167.5
568.314	3633.5
568.526	3169.5
568.737	2761.5
568.949	2536.5
569.161	2369.5
569.372	2261.5
569.584	2268.5
569.795	2147.5
570.007	2137.5
570.218	2176.5
570.43	2259.5
570.641	2113.5
570.853	1979.5
571.064	1990.5
571.276	1988.5
571.487	1923.5
571.698	1924.5
571.91	1887.5
572.121	1862.5
572.333	1918.5
572.544	1900.5
572.755	2035.5
572.966	2338.5
573.178	2136.5
573.389	1943.5
573.6	1867.5
573.811	1805.5
574.023	1755.5
574.234	1736.5
574.445	1748.5
574.656	1707.5
574.867	1724.5
575.078	1680.5
575.289	1701.5
575.501	1714.5
575.712	1710.5
575.923	1680.5
576.134	1690.5
576.345	1705.5
576.556	1748.5
576.767	1710.5
576.978	1758.5
577.188	1721.5
577.399	1744.5
577.61	1805.5
577.821	1785.5
578.032	1780.5
578.243	1839.5
578.454	1860.5
578.665	1907.5
578.875	1923.5
579.086	2090.5
579.297	2081.5
579.508	2301.5
579.718	2478.5
579.929	2841.5
580.14	3375.5
580.35	3453.5
580.561	3103.5
580.772	2798.5
580.982	2582.5
581.193	2404.5
581.403	2255.5
581.614	2149.5
581.825	2064.5
582.035	1952.5
582.246	1892.5
582.456	1813.5
582.667	1777.5
582.877	1776.5
583.087	1761.5
583.298	1648.5
583.508	1612.5
583.719	1630.5
583.929	1592.5
584.139	1533.5
584.35	1533.5
584.56	1521.5
584.77	1482.5
584.981	1446.5
585.191	1441.5
585.401	1421.5
585.611	1389.5
585.821	1362.5
586.032	1373.5
586.242	1353.5
586.452	1323.5
586.662	1353.5
586.872	1303.5
587.082	1305.5
587.292	1292.5
587.502	1281.5
587.713	1263.5
587.923	1246.5
588.133	1224.5
588.343	1219.5
588.553	1241.5
588.762	1217.5
588.972	1198.5
589.182	1243.5
589.392	1251.5
589.602	1221.5
589.812	1198.5
590.022	1215.5
590.232	1216.5
590.441	1171.5
590.651	1225.5
590.861	1175.5
591.071	1212.5
591.281	1163.5
591.49	1185.5
591.7	1195.5
591.91	1207.5
592.119	1209.5
592.329	1169.5
592.539	1197.5
592.748	1217.5
592.958	1222.5
593.167	1218.5
593.377	1243.5
593.587	1211.5
593.796	1233.5
594.006	1240.5
594.215	1215.5
594.424	1221.5
594.634	1217.5
594.843	1192.5
595.053	1165.5
595.262	1152.5
595.472	1129.5
595.681	1115.5
595.89	1097.5
596.1	1112.5
596.309	1056.5
596.518	1081.5
596.727	1044.5
596.937	1060.5
597.146	1045.5
597.355	1020.5
597.564	1006.5
597.774	1016.5
597.983	969.5
598.192	1018.5
598.401	955.5
598.61	975.5
598.819	984.5
599.028	979.5
599.237	946.5
599.446	947.5
599.655	952.5
599.864	968.5
600.073	951.5
600.282	940.5
600.491	930.5
600.7	945.5
600.909	917.5
601.118	941.5
601.327	955.5
601.536	949.5
601.745	965.5
601.953	1045.5
602.162	1224.5
602.371	1095.5
602.58	1007.5
602.789	956.5
602.997	923.5
603.206	951.5
603.415	888.5
603.623	907.5
603.832	920.5
604.041	924.5
604.249	886.5
604.458	859.5
604.666	899.5
604.875	876.5
605.084	903.5
605.292	896.5
605.501	891.5
605.709	919.5
605.918	858.5
606.126	905.5
606.334	921.5
606.543	943.5
606.751	1019.5
606.96	1109.5
607.168	1255.5
607.376	1042.5
607.585	956.5
607.793	942.5
608.001	890.5
608.21	893.5
608.418	889.5
608.626	872.5
608.834	865.5
609.043	876.5
609.251	875.5
609.459	840.5
609.667	846.5
609.875	856.5
610.083	844.5
610.291	858.5
610.499	856.5
610.707	820.5
610.916	811.5
611.124	835.5
611.332	800.5
611.54	821.5
611.748	832.5
611.955	821.5
612.163	821.5
612.371	821.5
612.579	830.5
612.787	797.5
612.995	795.5
613.203	793.5
613.411	776.5
613.618	806.5
613.826	795.5
614.034	806.5
614.242	792.5
614.449	780.5
614.657	785.5
614.865	792.5
615.072	806.5
615.28	822.5
615.488	784.5
615.695	783.5
615.903	789.5
616.111	792.5
616.318	778.5
616.526	791.5
616.733	797.5
616.941	783.5
617.148	798.5
617.356	776.5
617.563	789.5
617.771	777.5
617.978	776.5
618.185	782.5
618.393	747.5
618.6	736.5
618.807	743.5
619.015	764.5
619.222	741.5
619.429	740.5
619.637	720.5
619.844	729.5
620.051	721.5
620.258	706.5
620.466	715.5
620.673	713.5
620.88	707.5
621.087	688.5
621.294	697.5
621.501	691.5
621.708	669.5
621.915	691.5
622.122	699.5
622.329	719.5
622.536	717.5
622.743	701.5
622.95	682.5
623.157	659.5
623.364	701.5
623.571	679.5
623.778	679.5
623.985	657.5
624.192	671.5
624.399	676.5
624.606	673.5
624.812	668.5
625.019	680.5
625.226	667.5
625.433	657.5
625.639	653.5
625.846	637.5
626.053	645.5
626.259	632.5
626.466	629.5
626.673	637.5
626.879	635.5
627.086	616.5
627.293	623.5
627.499	612.5
627.706	631.5
627.912	637.5
628.119	639.5
628.325	638.5
628.532	646.5
628.738	629.5
628.945	628.5
629.151	633.5
629.357	616.5
629.564	608.5
629.77	636.5
629.976	621.5
630.183	590.5
630.389	608.5
630.595	593.5
630.802	605.5
631.008	600.5
631.214	595.5
631.42	603.5
631.627	597.5
631.833	597.5
632.039	583.5
632.245	612.5
632.451	592.5
632.657	593.5
632.863	613.5
633.069	575.5
633.275	589.5
633.481	576.5
633.688	553.5
633.893	560.5
634.099	580.5
634.305	580.5
634.511	607.5
634.717	588.5
634.923	619.5
635.129	693.5
635.335	781.5
635.541	690.5
635.747	643.5
635.952	628.5
636.158	617.5
636.364	614.5
636.57	576.5
636.775	613.5
636.981	600.5
637.187	578.5
637.392	572.5
637.598	575.5
637.804	605.5
638.009	588.5
638.215	593.5
638.421	580.5
638.626	615.5
638.832	595.5
639.037	595.5
639.243	571.5
639.448	612.5
639.654	597.5
639.859	606.5
640.065	612.5
640.27	609.5
640.475	604.5
640.681	613.5
640.886	646.5
641.091	614.5
641.297	639.5
641.502	628.5
641.707	622.5
641.913	639.5
642.118	638.5
642.323	692.5
642.528	685.5
642.733	687.5
642.939	712.5
643.144	726.5
643.349	775.5
643.554	791.5
643.759	831.5
643.964	827.5
644.169	910.5
644.374	978.5
644.579	1039.5
644.784	1183.5
644.989	1379.5
645.194	1600.5
645.399	1985.5
645.604	2102.5
645.809	1582.5
646.014	1181.5
646.219	978.5
646.423	856.5
646.628	789.5
646.833	748.5
647.038	683.5
647.243	650.5
647.447	640.5
647.652	631.5
647.857	581.5
648.062	603.5
648.266	571.5
648.471	565.5
648.676	562.5
648.88	536.5
649.085	537.5
649.289	532.5
649.494	517.5
649.698	505.5
649.903	491.5
650.107	494.5
650.312	488.5
650.516	466.5
650.721	459.5
650.925	463.5
651.13	432.5
651.334	440.5
651.539	445.5
651.743	447.5
651.947	420.5
652.152	426.5
652.356	414.5
652.56	464.5
652.764	527.5
652.969	469.5
653.173	445.5
653.377	398.5
653.581	383.5
653.785	376.5
653.99	370.5
654.194	378.5
654.398	378.5
654.602	372.5
654.806	335.5
655.01	351.5
655.214	336.5
655.418	351.5
655.622	352.5
655.826	369.5
656.03	366.5
656.234	378.5
656.438	379.5
656.642	390.5
656.846	375.5
657.049	335.5
657.253	326.5
657.457	315.5
657.661	290.5
657.865	283.5
658.068	264.5
658.272	246.5
658.476	241.5
658.68	218.5
658.883	211.5
659.087	210.5
659.291	196.5
659.494	181.5
659.698	190.5
659.901	189.5
660.105	171.5
660.309	154.5
660.512	152.5
660.716	138.5
660.919	142.5
661.123	142.5
661.326	119.5
661.53	127.5
661.733	128.5
661.936	123.5
662.14	116.5
662.343	101.5
662.546	115.5
662.75	108.5
662.953	111.5
663.156	88.5
663.36	96.5
663.563	103.5
663.766	97.5
663.969	95.5
664.173	102.5
664.376	81.5
664.579	94.5
664.782	73.5
664.985	101.5
665.188	85.5
665.391	81.5
665.594	93.5
665.797	70.5
666	73.5
666.203	85.5
666.406	78.5
666.609	94.5
666.812	89.5
667.015	79.5
667.218	82.5
667.421	97.5
667.624	89.5
667.827	85.5
668.03	76.5
668.232	89.5
668.435	73.5
668.638	81.5
668.841	80.5
669.043	71.5
669.246	93.5
669.449	82.5
669.651	88.5
669.854	80.5
670.057	90.5
670.259	77.5
670.462	99.5
670.665	86.5
670.867	77.5
671.07	80.5
671.272	95.5
671.475	101.5
671.677	86.5
671.88	73.5
672.082	72.5
672.284	88.5
672.487	74.5
672.689	85.5
672.892	88.5
