Data from SnStandardFlinnAPT0064_LampEnergy10_LIBS07252019.E.O._I.C._HRD10591_15-22-23-494.txt Node
Date: Thu Jul 25 15:22:23 EDT 2019
User: cochatt
Spectrometer: HR+D1059
Trigger mode: 1
Integration Time (sec): 1.000000E-1
Scans to average: 1
Electric dark correction enabled: true
Nonlinearity correction enabled: false
Boxcar width: 0
XAxis mode: Wavelengths
Number of Pixels in Spectrum: 2048
>>>>>Begin Spectral Data<<<<<
223.165	-17.06
223.4	-17.06
223.635	-17.06
223.869	-25.06
224.104	-6.06
224.338	-26.06
224.573	-25.06
224.808	12.94
225.042	-12.06
225.277	8.94
225.511	4.94
225.746	-1.06
225.98	10.94
226.215	9.94
226.449	7.94
226.683	9.94
226.918	19.94
227.152	26.94
227.387	32.94
227.621	31.94
227.856	41.94
228.09	32.94
228.324	59.94
228.559	56.94
228.793	120.94
229.027	335.94
229.262	332.94
229.496	301.94
229.73	294.94
229.964	288.94
230.199	308.94
230.433	316.94
230.667	306.94
230.901	305.94
231.136	314.94
231.37	355.94
231.604	382.94
231.838	443.94
232.072	512.94
232.306	566.94
232.541	449.94
232.775	418.94
233.009	418.94
233.243	432.94
233.477	457.94
233.711	496.94
233.945	574.94
234.179	488.94
234.413	425.94
234.647	450.94
234.881	452.94
235.115	515.94
235.349	612.94
235.583	769.94
235.817	1002.94
236.051	984.94
236.285	660.94
236.519	505.94
236.753	499.94
236.987	515.94
237.221	551.94
237.455	510.94
237.689	479.94
237.922	450.94
238.156	474.94
238.39	483.94
238.624	499.94
238.858	487.94
239.091	458.94
239.325	479.94
239.559	505.94
239.793	509.94
240.027	522.94
240.26	506.94
240.494	547.94
240.728	564.94
240.961	588.94
241.195	640.94
241.429	667.94
241.662	672.94
241.896	744.94
242.13	936.94
242.363	1258.94
242.597	1640.94
242.83	1549.94
243.064	1541.94
243.298	1807.94
243.531	1512.94
243.765	920.94
243.998	779.94
244.232	669.94
244.465	652.94
244.699	634.94
244.932	653.94
245.166	662.94
245.399	670.94
245.633	669.94
245.866	684.94
246.099	668.94
246.333	670.94
246.566	644.94
246.8	649.94
247.033	635.94
247.266	609.94
247.5	626.94
247.733	661.94
247.966	672.94
248.2	738.94
248.433	853.94
248.666	986.94
248.899	935.94
249.133	834.94
249.366	864.94
249.599	964.94
249.832	1097.94
250.066	1050.94
250.299	867.94
250.532	757.94
250.765	720.94
250.998	752.94
251.231	729.94
251.465	729.94
251.698	737.94
251.931	737.94
252.164	711.94
252.397	755.94
252.63	786.94
252.863	788.94
253.096	785.94
253.329	770.94
253.562	768.94
253.795	767.94
254.028	802.94
254.261	828.94
254.494	878.94
254.727	1036.94
254.96	1251.94
255.193	1235.94
255.426	952.94
255.659	865.94
255.892	844.94
256.124	834.94
256.357	855.94
256.59	894.94
256.823	956.94
257.056	1112.94
257.289	1341.94
257.521	1493.94
257.754	1205.94
257.987	962.94
258.22	910.94
258.452	870.94
258.685	913.94
258.918	924.94
259.151	960.94
259.383	1086.94
259.616	1208.94
259.849	1264.94
260.081	1084.94
260.314	966.94
260.547	931.94
260.779	976.94
261.012	950.94
261.244	955.94
261.477	952.94
261.71	982.94
261.942	989.94
262.175	996.94
262.407	1028.94
262.64	1043.94
262.872	1095.94
263.105	1131.94
263.337	1220.94
263.57	1262.94
263.802	1303.94
264.035	1285.94
264.267	1363.94
264.499	1377.94
264.732	1402.94
264.964	1466.94
265.197	1435.94
265.429	1417.94
265.661	1484.94
265.894	1580.94
266.126	1730.94
266.358	1967.94
266.591	1927.94
266.823	1578.94
267.055	1428.94
267.287	1389.94
267.52	1323.94
267.752	1322.94
267.984	1279.94
268.216	1234.94
268.448	1253.94
268.681	1219.94
268.913	1185.94
269.145	1227.94
269.377	1243.94
269.609	1238.94
269.841	1281.94
270.073	1391.94
270.306	1595.94
270.538	2118.94
270.77	3226.94
271.002	3931.94
271.234	2774.94
271.466	1844.94
271.698	1502.94
271.93	1354.94
272.162	1323.94
272.394	1291.94
272.626	1252.94
272.858	1226.94
273.09	1212.94
273.322	1198.94
273.553	1204.94
273.785	1197.94
274.017	1158.94
274.249	1192.94
274.481	1183.94
274.713	1186.94
274.945	1196.94
275.176	1203.94
275.408	1187.94
275.64	1216.94
275.872	1231.94
276.104	1250.94
276.335	1238.94
276.567	1271.94
276.799	1262.94
277.031	1298.94
277.262	1330.94
277.494	1367.94
277.726	1549.94
277.957	1840.94
278.189	2074.94
278.421	1926.94
278.652	1758.94
278.884	1615.94
279.115	1506.94
279.347	1416.94
279.579	1394.94
279.81	1369.94
280.042	1363.94
280.273	1403.94
280.505	1460.94
280.736	1458.94
280.968	1547.94
281.199	1754.94
281.431	2008.94
281.662	2063.94
281.894	1706.94
282.125	1608.94
282.356	1597.94
282.588	1640.94
282.819	1662.94
283.051	1795.94
283.282	1950.94
283.513	2422.94
283.745	3547.94
283.976	5705.94
284.207	8273.94
284.439	7397.94
284.67	4424.94
284.901	3618.94
285.132	3700.94
285.364	3566.94
285.595	2672.94
285.826	2393.94
286.057	2813.94
286.288	3884.94
286.52	5236.94
286.751	4919.94
286.982	2969.94
287.213	2192.94
287.444	1942.94
287.675	1826.94
287.906	1765.94
288.138	1702.94
288.369	1629.94
288.6	1631.94
288.831	1667.94
289.062	1641.94
289.293	1667.94
289.524	1662.94
289.755	1682.94
289.986	1690.94
290.217	1712.94
290.448	1711.94
290.679	1683.94
290.91	1761.94
291.141	1860.94
291.371	2023.94
291.602	2106.94
291.833	1886.94
292.064	1695.94
292.295	1650.94
292.526	1601.94
292.757	1591.94
292.987	1593.94
293.218	1564.94
293.449	1554.94
293.68	1547.94
293.91	1563.94
294.141	1552.94
294.372	1560.94
294.603	1557.94
294.833	1556.94
295.064	1549.94
295.295	1570.94
295.525	1540.94
295.756	1561.94
295.987	1542.94
296.217	1546.94
296.448	1539.94
296.679	1569.94
296.909	1559.94
297.14	1568.94
297.37	1601.94
297.601	1631.94
297.831	1612.94
298.062	1572.94
298.292	1629.94
298.523	1642.94
298.753	1710.94
298.984	1680.94
299.214	1685.94
299.445	1791.94
299.675	1771.94
299.905	1826.94
300.136	1857.94
300.366	2158.94
300.597	2775.94
300.827	3842.94
301.057	5320.94
301.288	5231.94
301.518	3343.94
301.748	2547.94
301.979	2311.94
302.209	2232.94
302.439	2261.94
302.669	2378.94
302.9	2965.94
303.13	4164.94
303.36	6282.94
303.59	8402.94
303.82	7223.94
304.051	4099.94
304.281	2954.94
304.511	2474.94
304.741	2271.94
304.971	2183.94
305.201	2051.94
305.431	1976.94
305.661	1948.94
305.891	1929.94
306.121	1846.94
306.352	1868.94
306.582	1796.94
306.812	1834.94
307.042	1779.94
307.272	1809.94
307.502	1788.94
307.731	1785.94
307.961	1824.94
308.191	1802.94
308.421	1763.94
308.651	1808.94
308.881	1769.94
309.111	1826.94
309.341	1795.94
309.571	1837.94
309.8	1847.94
310.03	1850.94
310.26	1830.94
310.49	1822.94
310.72	1858.94
310.949	1852.94
311.179	1887.94
311.409	1850.94
311.639	1921.94
311.868	1961.94
312.098	1916.94
312.328	1960.94
312.557	1953.94
312.787	1936.94
313.017	1961.94
313.246	1978.94
313.476	1977.94
313.706	2067.94
313.935	2175.94
314.165	2331.94
314.394	2460.94
314.624	2336.94
314.853	2158.94
315.083	2165.94
315.312	2127.94
315.542	2129.94
315.771	2210.94
316.001	2228.94
316.23	2291.94
316.46	2382.94
316.689	2628.94
316.919	3163.94
317.148	4650.94
317.377	7209.94
317.607	10719.94
317.836	11092.94
318.065	6510.94
318.295	4192.94
318.524	3329.94
318.753	2882.94
318.983	2683.94
319.212	2504.94
319.441	2448.94
319.67	2400.94
319.9	2389.94
320.129	2336.94
320.358	2314.94
320.587	2331.94
320.816	2343.94
321.046	2366.94
321.275	2334.94
321.504	2394.94
321.733	2395.94
321.962	2459.94
322.191	2526.94
322.42	2480.94
322.649	2474.94
322.878	2466.94
323.108	2462.94
323.337	2515.94
323.566	2549.94
323.795	2574.94
324.024	2641.94
324.253	2684.94
324.482	2794.94
324.71	2985.94
324.939	3138.94
325.168	3244.94
325.397	3314.94
325.626	3919.94
325.855	5654.94
326.084	8833.94
326.313	12868.94
326.542	13516.94
326.77	8835.94
326.999	5751.94
327.228	4736.94
327.457	4568.94
327.686	4715.94
327.914	4982.94
328.143	5840.94
328.372	7017.94
328.6	7647.94
328.829	6817.94
329.058	5672.94
329.287	4886.94
329.515	4500.94
329.744	4168.94
329.972	4065.94
330.201	3762.94
330.43	3569.94
330.658	3567.94
330.887	3533.94
331.115	3484.94
331.344	3415.94
331.572	3459.94
331.801	3446.94
332.03	3497.94
332.258	3524.94
332.486	3699.94
332.715	4291.94
332.943	5349.94
333.172	6632.94
333.4	6495.94
333.629	4911.94
333.857	4444.94
334.085	4388.94
334.314	4603.94
334.542	5093.94
334.771	5877.94
334.999	7314.94
335.227	9176.94
335.455	10257.94
335.684	9147.94
335.912	7463.94
336.14	6326.94
336.369	5512.94
336.597	5064.94
336.825	4699.94
337.053	4436.94
337.281	4174.94
337.51	3983.94
337.738	3864.94
337.966	3683.94
338.194	3561.94
338.422	3470.94
338.65	3360.94
338.878	3286.94
339.106	3200.94
339.334	3172.94
339.562	3108.94
339.79	3082.94
340.018	3075.94
340.246	3017.94
340.474	3011.94
340.702	2979.94
340.93	3016.94
341.158	3011.94
341.386	2967.94
341.614	2974.94
341.842	2898.94
342.07	2811.94
342.298	2753.94
342.526	2785.94
342.754	2736.94
342.981	2738.94
343.209	2686.94
343.437	2708.94
343.665	2789.94
343.893	2741.94
344.12	2851.94
344.348	2777.94
344.576	2734.94
344.804	2682.94
345.031	2618.94
345.259	2614.94
345.487	2591.94
345.714	2563.94
345.942	2549.94
346.17	2547.94
346.397	2526.94
346.625	2555.94
346.853	2508.94
347.08	2501.94
347.308	2504.94
347.535	2533.94
347.763	2507.94
347.99	2474.94
348.218	2516.94
348.445	2465.94
348.673	2468.94
348.9	2451.94
349.128	2392.94
349.355	2419.94
349.583	2431.94
349.81	2428.94
350.037	2453.94
350.265	2408.94
350.492	2394.94
350.72	2364.94
350.947	2368.94
351.174	2367.94
351.402	2381.94
351.629	2396.94
351.856	2361.94
352.083	2379.94
352.311	2345.94
352.538	2336.94
352.765	2360.94
352.992	2364.94
353.22	2389.94
353.447	2393.94
353.674	2405.94
353.901	2358.94
354.128	2419.94
354.355	2411.94
354.583	2386.94
354.81	2386.94
355.037	2406.94
355.264	2422.94
355.491	2411.94
355.718	2435.94
355.945	2443.94
356.172	2443.94
356.399	2442.94
356.626	2436.94
356.853	2451.94
357.08	2517.94
357.307	2522.94
357.534	2572.94
357.761	2586.94
357.988	2566.94
358.215	2564.94
358.441	2543.94
358.668	2512.94
358.895	2540.94
359.122	2511.94
359.349	2503.94
359.576	2516.94
359.802	2512.94
360.029	2481.94
360.256	2505.94
360.483	2532.94
360.709	2560.94
360.936	2528.94
361.163	2538.94
361.39	2538.94
361.616	2571.94
361.843	2527.94
362.07	2578.94
362.296	2533.94
362.523	2560.94
362.749	2593.94
362.976	2501.94
363.203	2502.94
363.429	2524.94
363.656	2520.94
363.882	2566.94
364.109	2509.94
364.335	2470.94
364.562	2486.94
364.788	2542.94
365.015	2615.94
365.241	2606.94
365.468	2804.94
365.694	2933.94
365.92	2834.94
366.147	2630.94
366.373	2619.94
366.599	2626.94
366.826	2544.94
367.052	2560.94
367.278	2620.94
367.505	2591.94
367.731	2579.94
367.957	2559.94
368.184	2627.94
368.41	2684.94
368.636	2634.94
368.862	2651.94
369.089	2650.94
369.315	2644.94
369.541	2626.94
369.767	2633.94
369.993	2635.94
370.219	2641.94
370.445	2617.94
370.672	2676.94
370.898	2662.94
371.124	2679.94
371.35	2750.94
371.576	2708.94
371.802	2745.94
372.028	2685.94
372.254	2781.94
372.48	2793.94
372.706	2752.94
372.932	2770.94
373.158	2762.94
373.384	2821.94
373.61	2764.94
373.835	2806.94
374.061	2846.94
374.287	2815.94
374.513	2829.94
374.739	2877.94
374.965	2907.94
375.191	2896.94
375.416	2888.94
375.642	2840.94
375.868	2859.94
376.094	2806.94
376.319	2798.94
376.545	2794.94
376.771	2790.94
376.997	2703.94
377.222	2712.94
377.448	2717.94
377.674	2712.94
377.899	2722.94
378.125	2741.94
378.35	2730.94
378.576	2732.94
378.802	2782.94
379.027	2766.94
379.253	2850.94
379.478	3048.94
379.704	3637.94
379.929	5274.94
380.155	8024.94
380.38	8708.94
380.606	5237.94
380.831	3619.94
381.057	3193.94
381.282	2946.94
381.507	2846.94
381.733	2794.94
381.958	2770.94
382.184	2723.94
382.409	2710.94
382.634	2704.94
382.86	2687.94
383.085	2640.94
383.31	2646.94
383.535	2667.94
383.761	2710.94
383.986	2742.94
384.211	2745.94
384.436	2744.94
384.662	2733.94
384.887	2762.94
385.112	2760.94
385.337	2745.94
385.562	2740.94
385.787	2767.94
386.013	2826.94
386.238	2750.94
386.463	2766.94
386.688	2793.94
386.913	2738.94
387.138	2765.94
387.363	2769.94
387.588	2736.94
387.813	2723.94
388.038	2743.94
388.263	2760.94
388.488	2798.94
388.713	2757.94
388.938	2781.94
389.163	2714.94
389.387	2765.94
389.612	2747.94
389.837	2765.94
390.062	2783.94
390.287	2775.94
390.512	2798.94
390.736	2843.94
390.961	2904.94
391.186	2862.94
391.411	2890.94
391.636	2932.94
391.86	2890.94
392.085	2940.94
392.31	2892.94
392.534	2846.94
392.759	2878.94
392.984	2798.94
393.208	2848.94
393.433	2906.94
393.658	2853.94
393.882	2763.94
394.107	2759.94
394.331	2767.94
394.556	2842.94
394.78	2832.94
395.005	2792.94
395.229	2794.94
395.454	2846.94
395.678	2898.94
395.903	2912.94
396.127	2892.94
396.352	2872.94
396.576	2837.94
396.801	2874.94
397.025	2937.94
397.249	2924.94
397.474	2900.94
397.698	2868.94
397.922	2921.94
398.147	2932.94
398.371	3006.94
398.595	3002.94
398.82	3084.94
399.044	3194.94
399.268	3375.94
399.492	3570.94
399.717	3659.94
399.941	3637.94
400.165	3515.94
400.389	3439.94
400.613	3302.94
400.837	3131.94
401.062	3128.94
401.286	3114.94
401.51	3030.94
401.734	2999.94
401.958	3090.94
402.182	3070.94
402.406	3070.94
402.63	3075.94
402.854	3080.94
403.078	3115.94
403.302	3116.94
403.526	3192.94
403.75	3179.94
403.974	3137.94
404.198	3171.94
404.422	3176.94
404.645	3132.94
404.869	3090.94
405.093	3150.94
405.317	3149.94
405.541	3215.94
405.765	3280.94
405.988	3228.94
406.212	3328.94
406.436	3230.94
406.66	3259.94
406.883	3246.94
407.107	3406.94
407.331	3414.94
407.555	3494.94
407.778	3443.94
408.002	3416.94
408.226	3394.94
408.449	3358.94
408.673	3335.94
408.896	3286.94
409.12	3130.94
409.344	3240.94
409.567	3135.94
409.791	3218.94
410.014	3170.94
410.238	3171.94
410.461	3149.94
410.685	3147.94
410.908	3176.94
411.132	3097.94
411.355	3019.94
411.578	3068.94
411.802	2999.94
412.025	3015.94
412.249	3077.94
412.472	3055.94
412.695	3009.94
412.919	2967.94
413.142	3017.94
413.365	2987.94
413.589	2995.94
413.812	2955.94
414.035	2968.94
414.258	2978.94
414.482	2947.94
414.705	2990.94
414.928	2972.94
415.151	3018.94
415.374	2993.94
415.597	2931.94
415.821	2876.94
416.044	2816.94
416.267	2882.94
416.49	2879.94
416.713	2891.94
416.936	2890.94
417.159	2836.94
417.382	2804.94
417.605	2828.94
417.828	2879.94
418.051	2867.94
418.274	2882.94
418.497	2945.94
418.72	2987.94
418.943	2854.94
419.166	3041.94
419.389	3194.94
419.611	3109.94
419.834	3006.94
420.057	2976.94
420.28	2903.94
420.503	2837.94
420.726	2856.94
420.948	2813.94
421.171	2808.94
421.394	2892.94
421.617	2895.94
421.839	2885.94
422.062	2921.94
422.285	2862.94
422.507	2890.94
422.73	2942.94
422.953	2914.94
423.175	2972.94
423.398	2910.94
423.621	2848.94
423.843	2892.94
424.066	2879.94
424.288	2828.94
424.511	2913.94
424.733	2856.94
424.956	2799.94
425.178	2832.94
425.401	2816.94
425.623	2857.94
425.846	2769.94
426.068	2775.94
426.291	2738.94
426.513	2739.94
426.735	2728.94
426.958	2739.94
427.18	2736.94
427.402	2727.94
427.625	2706.94
427.847	2690.94
428.069	2694.94
428.292	2679.94
428.514	2666.94
428.736	2619.94
428.958	2690.94
429.181	2656.94
429.403	2622.94
429.625	2608.94
429.847	2645.94
430.069	2742.94
430.292	2782.94
430.514	2867.94
430.736	2828.94
430.958	2654.94
431.18	2630.94
431.402	2681.94
431.624	2599.94
431.846	2587.94
432.068	2565.94
432.29	2631.94
432.512	2625.94
432.734	2651.94
432.956	2641.94
433.178	2694.94
433.4	2671.94
433.622	2676.94
433.844	2706.94
434.066	2642.94
434.287	2618.94
434.509	2717.94
434.731	2670.94
434.953	2717.94
435.175	2786.94
435.397	2680.94
435.618	2665.94
435.84	2641.94
436.062	2632.94
436.284	2586.94
436.505	2640.94
436.727	2610.94
436.949	2558.94
437.17	2583.94
437.392	2573.94
437.614	2602.94
437.835	2471.94
438.057	2526.94
438.278	2517.94
438.5	2543.94
438.721	2600.94
438.943	2684.94
439.165	2690.94
439.386	2745.94
439.608	2703.94
439.829	2714.94
440.05	2791.94
440.272	2843.94
440.493	2753.94
440.715	2674.94
440.936	2716.94
441.158	2737.94
441.379	2736.94
441.6	2842.94
441.822	2922.94
442.043	3099.94
442.264	3175.94
442.486	2944.94
442.707	2802.94
442.928	2772.94
443.149	2822.94
443.371	2782.94
443.592	2813.94
443.813	2860.94
444.034	2864.94
444.255	2870.94
444.476	2971.94
444.698	2949.94
444.919	3010.94
445.14	3127.94
445.361	3014.94
445.582	2897.94
445.803	2763.94
446.024	2800.94
446.245	2819.94
446.466	2785.94
446.687	2714.94
446.908	2729.94
447.129	2632.94
447.35	2697.94
447.571	2686.94
447.792	2569.94
448.013	2585.94
448.234	2585.94
448.455	2597.94
448.675	2616.94
448.896	2678.94
449.117	2749.94
449.338	3026.94
449.559	3184.94
449.779	2768.94
450	2589.94
450.221	2531.94
450.442	2572.94
450.662	2488.94
450.883	2494.94
451.104	2535.94
451.324	2490.94
451.545	2475.94
451.766	2499.94
451.986	2557.94
452.207	2778.94
452.428	3589.94
452.648	5496.94
452.869	4503.94
453.089	3087.94
453.31	2905.94
453.53	2965.94
453.751	3017.94
453.971	3144.94
454.192	3182.94
454.412	2676.94
454.633	2532.94
454.853	2467.94
455.073	2415.94
455.294	2450.94
455.514	2382.94
455.734	2420.94
455.955	2402.94
456.175	2391.94
456.395	2370.94
456.616	2387.94
456.836	2460.94
457.056	2475.94
457.276	2461.94
457.497	2617.94
457.717	2602.94
457.937	2572.94
458.157	2533.94
458.377	2556.94
458.598	2567.94
458.818	2568.94
459.038	2600.94
459.258	2589.94
459.478	2642.94
459.698	2637.94
459.918	2646.94
460.138	2699.94
460.358	2772.94
460.578	2815.94
460.798	2838.94
461.018	2840.94
461.238	2870.94
461.458	2880.94
461.678	2923.94
461.898	2987.94
462.118	3010.94
462.338	3073.94
462.558	3095.94
462.777	3126.94
462.997	3248.94
463.217	3357.94
463.437	3531.94
463.657	3562.94
463.876	3600.94
464.096	3363.94
464.316	3212.94
464.536	3099.94
464.755	3055.94
464.975	2984.94
465.195	2899.94
465.414	2794.94
465.634	2744.94
465.854	2662.94
466.073	2718.94
466.293	2601.94
466.512	2644.94
466.732	2645.94
466.951	2880.94
467.171	3056.94
467.391	2939.94
467.61	2680.94
467.829	2660.94
468.049	2584.94
468.268	2571.94
468.488	2569.94
468.707	2539.94
468.927	2546.94
469.146	2513.94
469.365	2602.94
469.585	2603.94
469.804	2642.94
470.023	2675.94
470.243	2722.94
470.462	2839.94
470.681	2930.94
470.901	3272.94
471.12	3822.94
471.339	3849.94
471.558	3161.94
471.777	2901.94
471.997	2735.94
472.216	2655.94
472.435	2609.94
472.654	2645.94
472.873	2483.94
473.092	2559.94
473.311	2625.94
473.53	2616.94
473.749	2696.94
473.968	2781.94
474.187	2608.94
474.406	2548.94
474.625	2610.94
474.844	2617.94
475.063	2645.94
475.282	2631.94
475.501	2611.94
475.72	2635.94
475.939	2665.94
476.158	2732.94
476.377	2800.94
476.596	2700.94
476.814	2760.94
477.033	2686.94
477.252	2778.94
477.471	2804.94
477.69	2826.94
477.908	2900.94
478.127	2935.94
478.346	3004.94
478.564	3017.94
478.783	3024.94
479.002	3098.94
479.22	3043.94
479.439	3094.94
479.658	3139.94
479.876	3138.94
480.095	3106.94
480.313	3221.94
480.532	3240.94
480.751	3208.94
480.969	3099.94
481.188	3090.94
481.406	3122.94
481.624	3175.94
481.843	3152.94
482.061	3192.94
482.28	3166.94
482.498	3190.94
482.717	3105.94
482.935	3190.94
483.153	3231.94
483.372	3256.94
483.59	3254.94
483.808	3339.94
484.027	3358.94
484.245	3626.94
484.463	4136.94
484.681	4571.94
484.9	4087.94
485.118	3781.94
485.336	3703.94
485.554	3785.94
485.772	4011.94
485.99	4588.94
486.209	4967.94
486.427	4086.94
486.645	3655.94
486.863	3521.94
487.081	3439.94
487.299	3384.94
487.517	3346.94
487.735	3358.94
487.953	3388.94
488.171	3333.94
488.389	3339.94
488.607	3279.94
488.825	3221.94
489.043	3195.94
489.261	3187.94
489.479	3219.94
489.696	3257.94
489.914	3234.94
490.132	3240.94
490.35	3328.94
490.568	3286.94
490.786	3270.94
491.003	3332.94
491.221	3363.94
491.439	3366.94
491.657	3346.94
491.874	3430.94
492.092	3423.94
492.31	3442.94
492.527	3366.94
492.745	3435.94
492.963	3352.94
493.18	3312.94
493.398	3352.94
493.615	3369.94
493.833	3410.94
494.05	3401.94
494.268	3414.94
494.485	3384.94
494.703	3429.94
494.92	3391.94
495.138	3370.94
495.355	3380.94
495.573	3413.94
495.79	3386.94
496.008	3455.94
496.225	3494.94
496.442	3571.94
496.66	3687.94
496.877	3832.94
497.094	3847.94
497.312	3728.94
497.529	3651.94
497.746	3714.94
497.963	3786.94
498.181	3904.94
498.398	3861.94
498.615	4048.94
498.832	4206.94
499.049	4425.94
499.267	4803.94
499.484	5136.94
499.701	5015.94
499.918	5202.94
500.135	5441.94
500.352	5632.94
500.569	5738.94
500.786	5687.94
501.003	5527.94
501.22	5304.94
501.437	5002.94
501.654	4698.94
501.871	4562.94
502.088	4287.94
502.305	4224.94
502.522	4043.94
502.739	3987.94
502.956	3875.94
503.172	3808.94
503.389	3687.94
503.606	3618.94
503.823	3583.94
504.04	3572.94
504.256	3572.94
504.473	3504.94
504.69	3529.94
504.907	3539.94
505.123	3409.94
505.34	3352.94
505.557	3292.94
505.773	3291.94
505.99	3217.94
506.207	3108.94
506.423	3121.94
506.64	3100.94
506.856	3024.94
507.073	3016.94
507.289	3000.94
507.506	3041.94
507.722	3026.94
507.939	2976.94
508.155	2943.94
508.372	3012.94
508.588	2942.94
508.805	2964.94
509.021	2991.94
509.238	2927.94
509.454	3176.94
509.67	3431.94
509.887	3105.94
510.103	3024.94
510.319	2921.94
510.536	2928.94
510.752	2926.94
510.968	2927.94
511.184	2824.94
511.401	2864.94
511.617	2800.94
511.833	2869.94
512.049	2807.94
512.265	2863.94
512.481	2866.94
512.698	2822.94
512.914	2754.94
513.13	2802.94
513.346	2837.94
513.562	2787.94
513.778	2826.94
513.994	2832.94
514.21	2960.94
514.426	3149.94
514.642	3284.94
514.858	3034.94
515.074	2870.94
515.29	2850.94
515.506	2883.94
515.721	2931.94
515.937	2942.94
516.153	2928.94
516.369	2943.94
516.585	2938.94
516.801	3011.94
517.016	3047.94
517.232	3114.94
517.448	3180.94
517.664	3148.94
517.879	3277.94
518.095	3237.94
518.311	3226.94
518.527	3131.94
518.742	3120.94
518.958	3171.94
519.173	3271.94
519.389	3124.94
519.605	2974.94
519.82	2925.94
520.036	2952.94
520.251	2846.94
520.467	2855.94
520.682	2824.94
520.898	2814.94
521.113	2778.94
521.329	2755.94
521.544	2772.94
521.76	2803.94
521.975	2805.94
522.19	2752.94
522.406	2719.94
522.621	2743.94
522.836	2760.94
523.052	2738.94
523.267	2715.94
523.482	2682.94
523.698	2721.94
523.913	2683.94
524.128	2689.94
524.343	2715.94
524.559	2751.94
524.774	2738.94
524.989	2698.94
525.204	2674.94
525.419	2707.94
525.634	2675.94
525.849	2686.94
526.064	2696.94
526.28	2643.94
526.495	2715.94
526.71	2698.94
526.925	2662.94
527.14	2701.94
527.355	2704.94
527.57	2682.94
527.785	2746.94
527.999	2714.94
528.214	2741.94
528.429	2736.94
528.644	2777.94
528.859	2782.94
529.074	2854.94
529.289	2912.94
529.503	2860.94
529.718	2849.94
529.933	2856.94
530.148	2868.94
530.363	2856.94
530.577	2863.94
530.792	2914.94
531.007	2912.94
531.221	2911.94
531.436	2928.94
531.651	2994.94
531.865	2952.94
532.08	3070.94
532.295	3186.94
532.509	3391.94
532.724	3344.94
532.938	3420.94
533.153	3590.94
533.367	3754.94
533.582	4017.94
533.796	3945.94
534.011	3776.94
534.225	3570.94
534.44	3433.94
534.654	3354.94
534.868	3284.94
535.083	3180.94
535.297	3169.94
535.511	3162.94
535.726	3056.94
535.94	2981.94
536.154	2945.94
536.369	2918.94
536.583	2870.94
536.797	2926.94
537.011	2800.94
537.225	2782.94
537.44	2800.94
537.654	2819.94
537.868	2709.94
538.082	2744.94
538.296	2691.94
538.51	2662.94
538.724	2699.94
538.938	2664.94
539.153	2668.94
539.367	2683.94
539.581	2651.94
539.795	2566.94
540.009	2618.94
540.222	2550.94
540.436	2554.94
540.65	2602.94
540.864	2648.94
541.078	2689.94
541.292	2828.94
541.506	3364.94
541.72	3505.94
541.934	2987.94
542.147	2833.94
542.361	2748.94
542.575	2593.94
542.789	2555.94
543.002	2506.94
543.216	2496.94
543.43	2493.94
543.644	2476.94
543.857	2494.94
544.071	2521.94
544.285	2486.94
544.498	2513.94
544.712	2519.94
544.925	2592.94
545.139	2517.94
545.352	2551.94
545.566	2512.94
545.779	2522.94
545.993	2520.94
546.206	2549.94
546.42	2513.94
546.633	2542.94
546.847	2551.94
547.06	2521.94
547.274	2499.94
547.487	2515.94
547.7	2531.94
547.914	2508.94
548.127	2527.94
548.34	2519.94
548.554	2505.94
548.767	2497.94
548.98	2562.94
549.193	2522.94
549.407	2504.94
549.62	2530.94
549.833	2537.94
550.046	2513.94
550.259	2527.94
550.473	2539.94
550.686	2536.94
550.899	2538.94
551.112	2568.94
551.325	2522.94
551.538	2527.94
551.751	2505.94
551.964	2510.94
552.177	2596.94
552.39	2628.94
552.603	2647.94
552.816	2699.94
553.029	2734.94
553.242	2760.94
553.455	2764.94
553.667	2795.94
553.88	2787.94
554.093	2822.94
554.306	2847.94
554.519	2923.94
554.732	2898.94
554.944	2994.94
555.157	3011.94
555.37	3132.94
555.583	3194.94
555.795	3385.94
556.008	3675.94
556.221	4116.94
556.433	4426.94
556.646	4397.94
556.859	4184.94
557.071	3984.94
557.284	3907.94
557.496	3723.94
557.709	3632.94
557.921	3606.94
558.134	3588.94
558.346	3638.94
558.559	3803.94
558.771	4015.94
558.984	4487.94
559.196	4839.94
559.409	4506.94
559.621	4206.94
559.833	3841.94
560.046	3648.94
560.258	3418.94
560.47	3236.94
560.683	3182.94
560.895	3003.94
561.107	2952.94
561.32	2828.94
561.532	2817.94
561.744	2735.94
561.956	2684.94
562.168	2663.94
562.381	2644.94
562.593	2598.94
562.805	2660.94
563.017	2656.94
563.229	2706.94
563.441	3160.94
563.653	2652.94
563.865	2419.94
564.077	2348.94
564.289	2361.94
564.501	2334.94
564.713	2323.94
564.925	2313.94
565.137	2337.94
565.349	2322.94
565.561	2327.94
565.773	2316.94
565.985	2359.94
566.197	2440.94
566.408	2489.94
566.62	2490.94
566.832	2571.94
567.044	2599.94
567.255	2575.94
567.467	2590.94
567.679	2688.94
567.891	2824.94
568.102	3122.94
568.314	3688.94
568.526	3155.94
568.737	2683.94
568.949	2474.94
569.161	2300.94
569.372	2188.94
569.584	2121.94
569.795	2101.94
570.007	2121.94
570.218	2195.94
570.43	2273.94
570.641	2110.94
570.853	1979.94
571.064	1963.94
571.276	1985.94
571.487	1899.94
571.698	1914.94
571.91	1895.94
572.121	1882.94
572.333	1828.94
572.544	1892.94
572.755	1990.94
572.966	2360.94
573.178	2108.94
573.389	1893.94
573.6	1818.94
573.811	1776.94
574.023	1724.94
574.234	1704.94
574.445	1698.94
574.656	1672.94
574.867	1672.94
575.078	1666.94
575.289	1721.94
575.501	1739.94
575.712	1652.94
575.923	1663.94
576.134	1674.94
576.345	1724.94
576.556	1703.94
576.767	1691.94
576.978	1723.94
577.188	1727.94
577.399	1688.94
577.61	1689.94
577.821	1737.94
578.032	1710.94
578.243	1772.94
578.454	1826.94
578.665	1842.94
578.875	1902.94
579.086	1947.94
579.297	2044.94
579.508	2215.94
579.718	2354.94
579.929	2752.94
580.14	3286.94
580.35	3340.94
580.561	2968.94
580.772	2678.94
580.982	2447.94
581.193	2271.94
581.403	2134.94
581.614	2042.94
581.825	1952.94
582.035	1869.94
582.246	1868.94
582.456	1792.94
582.667	1758.94
582.877	1755.94
583.087	1707.94
583.298	1632.94
583.508	1596.94
583.719	1570.94
583.929	1584.94
584.139	1504.94
584.35	1458.94
584.56	1473.94
584.77	1426.94
584.981	1427.94
585.191	1395.94
585.401	1385.94
585.611	1364.94
585.821	1320.94
586.032	1379.94
586.242	1336.94
586.452	1325.94
586.662	1302.94
586.872	1274.94
587.082	1257.94
587.292	1239.94
587.502	1275.94
587.713	1247.94
587.923	1257.94
588.133	1242.94
588.343	1211.94
588.553	1199.94
588.762	1241.94
588.972	1206.94
589.182	1191.94
589.392	1211.94
589.602	1171.94
589.812	1187.94
590.022	1196.94
590.232	1183.94
590.441	1178.94
590.651	1215.94
590.861	1179.94
591.071	1187.94
591.281	1168.94
591.49	1179.94
591.7	1193.94
591.91	1190.94
592.119	1196.94
592.329	1171.94
592.539	1174.94
592.748	1198.94
592.958	1208.94
593.167	1188.94
593.377	1206.94
593.587	1234.94
593.796	1214.94
594.006	1234.94
594.215	1229.94
594.424	1187.94
594.634	1176.94
594.843	1189.94
595.053	1164.94
595.262	1137.94
595.472	1110.94
595.681	1091.94
595.89	1104.94
596.1	1093.94
596.309	1066.94
596.518	1070.94
596.727	1065.94
596.937	1042.94
597.146	1034.94
597.355	1024.94
597.564	1011.94
597.774	994.94
597.983	979.94
598.192	999.94
598.401	966.94
598.61	942.94
598.819	963.94
599.028	935.94
599.237	963.94
599.446	950.94
599.655	915.94
599.864	947.94
600.073	926.94
600.282	915.94
600.491	959.94
600.7	949.94
600.909	932.94
601.118	926.94
601.327	920.94
601.536	966.94
601.745	990.94
601.953	1090.94
602.162	1208.94
602.371	1072.94
602.58	977.94
602.789	970.94
602.997	922.94
603.206	936.94
603.415	931.94
603.623	933.94
603.832	921.94
604.041	944.94
604.249	906.94
604.458	893.94
604.666	878.94
604.875	890.94
605.084	871.94
605.292	883.94
605.501	877.94
605.709	906.94
605.918	924.94
606.126	903.94
606.334	900.94
606.543	936.94
606.751	984.94
606.96	1134.94
607.168	1263.94
607.376	1060.94
607.585	940.94
607.793	917.94
608.001	887.94
608.21	874.94
608.418	866.94
608.626	857.94
608.834	855.94
609.043	874.94
609.251	890.94
609.459	865.94
609.667	826.94
609.875	827.94
610.083	823.94
610.291	821.94
610.499	814.94
610.707	843.94
610.916	832.94
611.124	804.94
611.332	823.94
611.54	785.94
611.748	801.94
611.955	807.94
612.163	791.94
612.371	815.94
612.579	819.94
612.787	809.94
612.995	755.94
613.203	786.94
613.411	788.94
613.618	799.94
613.826	809.94
614.034	800.94
614.242	792.94
614.449	804.94
614.657	792.94
614.865	808.94
615.072	809.94
615.28	791.94
615.488	787.94
615.695	805.94
615.903	813.94
616.111	793.94
616.318	778.94
616.526	777.94
616.733	759.94
616.941	771.94
617.148	799.94
617.356	758.94
617.563	781.94
617.771	752.94
617.978	754.94
618.185	752.94
618.393	766.94
618.6	758.94
618.807	736.94
619.015	766.94
619.222	764.94
619.429	734.94
619.637	741.94
619.844	697.94
620.051	705.94
620.258	715.94
620.466	698.94
620.673	713.94
620.88	698.94
621.087	689.94
621.294	691.94
621.501	694.94
621.708	702.94
621.915	694.94
622.122	700.94
622.329	693.94
622.536	712.94
622.743	712.94
622.95	690.94
623.157	660.94
623.364	675.94
623.571	699.94
623.778	687.94
623.985	690.94
624.192	676.94
624.399	674.94
624.606	661.94
624.812	637.94
625.019	664.94
625.226	670.94
625.433	668.94
625.639	654.94
625.846	646.94
626.053	630.94
626.259	606.94
626.466	634.94
626.673	626.94
626.879	625.94
627.086	625.94
627.293	622.94
627.499	633.94
627.706	640.94
627.912	651.94
628.119	631.94
628.325	646.94
628.532	600.94
628.738	642.94
628.945	622.94
629.151	620.94
629.357	594.94
629.564	623.94
629.77	600.94
629.976	588.94
630.183	578.94
630.389	580.94
630.595	600.94
630.802	599.94
631.008	607.94
631.214	589.94
631.42	600.94
631.627	595.94
631.833	574.94
632.039	591.94
632.245	598.94
632.451	601.94
632.657	590.94
632.863	585.94
633.069	568.94
633.275	583.94
633.481	559.94
633.688	573.94
633.893	592.94
634.099	582.94
634.305	566.94
634.511	564.94
634.717	587.94
634.923	598.94
635.129	673.94
635.335	772.94
635.541	700.94
635.747	615.94
635.952	607.94
636.158	587.94
636.364	598.94
636.57	562.94
636.775	594.94
636.981	572.94
637.187	566.94
637.392	544.94
637.598	568.94
637.804	572.94
638.009	602.94
638.215	570.94
638.421	589.94
638.626	581.94
638.832	574.94
639.037	578.94
639.243	582.94
639.448	575.94
639.654	595.94
639.859	598.94
640.065	585.94
640.27	622.94
640.475	599.94
640.681	599.94
640.886	603.94
641.091	604.94
641.297	610.94
641.502	608.94
641.707	612.94
641.913	639.94
642.118	631.94
642.323	656.94
642.528	663.94
642.733	663.94
642.939	707.94
643.144	720.94
643.349	716.94
643.554	740.94
643.759	779.94
643.964	855.94
644.169	866.94
644.374	942.94
644.579	1024.94
644.784	1129.94
644.989	1278.94
645.194	1500.94
645.399	1924.94
645.604	2108.94
645.809	1491.94
646.014	1111.94
646.219	937.94
646.423	814.94
646.628	746.94
646.833	698.94
647.038	645.94
647.243	611.94
647.447	609.94
647.652	612.94
647.857	592.94
648.062	556.94
648.266	577.94
648.471	547.94
648.676	545.94
648.88	547.94
649.085	548.94
649.289	518.94
649.494	515.94
649.698	490.94
649.903	487.94
650.107	492.94
650.312	469.94
650.516	469.94
650.721	456.94
650.925	456.94
651.13	439.94
651.334	445.94
651.539	425.94
651.743	418.94
651.947	434.94
652.152	435.94
652.356	414.94
652.56	462.94
652.764	489.94
652.969	466.94
653.173	442.94
653.377	402.94
653.581	384.94
653.785	367.94
653.99	363.94
654.194	378.94
654.398	356.94
654.602	359.94
654.806	359.94
655.01	346.94
655.214	343.94
655.418	352.94
655.622	343.94
655.826	340.94
656.03	359.94
656.234	369.94
656.438	361.94
656.642	380.94
656.846	359.94
657.049	336.94
657.253	316.94
657.457	318.94
657.661	287.94
657.865	272.94
658.068	260.94
658.272	249.94
658.476	240.94
658.68	221.94
658.883	220.94
659.087	206.94
659.291	212.94
659.494	198.94
659.698	178.94
659.901	178.94
660.105	183.94
660.309	163.94
660.512	155.94
660.716	166.94
660.919	133.94
661.123	138.94
661.326	128.94
661.53	132.94
661.733	129.94
661.936	126.94
662.14	119.94
662.343	124.94
662.546	112.94
662.75	112.94
662.953	108.94
663.156	109.94
663.36	94.94
663.563	102.94
663.766	98.94
663.969	93.94
664.173	90.94
664.376	93.94
664.579	87.94
664.782	84.94
664.985	84.94
665.188	96.94
665.391	81.94
665.594	89.94
665.797	70.94
666	80.94
666.203	91.94
666.406	81.94
666.609	90.94
666.812	86.94
667.015	83.94
667.218	81.94
667.421	86.94
667.624	89.94
667.827	82.94
668.03	88.94
668.232	84.94
668.435	90.94
668.638	87.94
668.841	98.94
669.043	97.94
669.246	97.94
669.449	86.94
669.651	73.94
669.854	76.94
670.057	88.94
670.259	79.94
670.462	80.94
670.665	80.94
670.867	81.94
671.07	89.94
671.272	87.94
671.475	74.94
671.677	87.94
671.88	76.94
672.082	100.94
672.284	90.94
672.487	76.94
672.689	89.94
672.892	95.94
