Data from SnStandardFlinnAPT0064_LampEnergy5.5_LIBS07252019.E.O._I.C._HRD10591_15-15-38-492.txt Node
Date: Thu Jul 25 15:15:38 EDT 2019
User: cochatt
Spectrometer: HR+D1059
Trigger mode: 1
Integration Time (sec): 1.000000E-1
Scans to average: 1
Electric dark correction enabled: true
Nonlinearity correction enabled: false
Boxcar width: 0
XAxis mode: Wavelengths
Number of Pixels in Spectrum: 2048
>>>>>Begin Spectral Data<<<<<
223.165	-15.12
223.4	-15.12
223.635	-15.12
223.869	-26.12
224.104	-29.12
224.338	-13.12
224.573	-12.12
224.808	-3.12
225.042	2.88
225.277	-7.12
225.511	-11.12
225.746	-0.12
225.98	10.88
226.215	2.88
226.449	22.88
226.683	20.88
226.918	24.88
227.152	31.88
227.387	33.88
227.621	35.88
227.856	49.88
228.09	44.88
228.324	33.88
228.559	49.88
228.793	80.88
229.027	137.88
229.262	159.88
229.496	135.88
229.73	148.88
229.964	148.88
230.199	158.88
230.433	143.88
230.667	144.88
230.901	147.88
231.136	156.88
231.37	176.88
231.604	187.88
231.838	189.88
232.072	198.88
232.306	228.88
232.541	213.88
232.775	193.88
233.009	212.88
233.243	193.88
233.477	206.88
233.711	228.88
233.945	247.88
234.179	224.88
234.413	208.88
234.647	194.88
234.881	227.88
235.115	216.88
235.349	267.88
235.583	327.88
235.817	416.88
236.051	379.88
236.285	265.88
236.519	235.88
236.753	226.88
236.987	236.88
237.221	236.88
237.455	219.88
237.689	212.88
237.922	206.88
238.156	216.88
238.39	214.88
238.624	211.88
238.858	212.88
239.091	221.88
239.325	242.88
239.559	230.88
239.793	220.88
240.027	243.88
240.26	247.88
240.494	237.88
240.728	265.88
240.961	252.88
241.195	285.88
241.429	297.88
241.662	298.88
241.896	329.88
242.13	375.88
242.363	419.88
242.597	571.88
242.83	563.88
243.064	547.88
243.298	644.88
243.531	571.88
243.765	381.88
243.998	340.88
244.232	286.88
244.465	280.88
244.699	289.88
244.932	280.88
245.166	298.88
245.399	282.88
245.633	298.88
245.866	307.88
246.099	270.88
246.333	265.88
246.566	291.88
246.8	265.88
247.033	267.88
247.266	275.88
247.5	284.88
247.733	308.88
247.966	299.88
248.2	320.88
248.433	336.88
248.666	362.88
248.899	379.88
249.133	357.88
249.366	334.88
249.599	372.88
249.832	419.88
250.066	407.88
250.299	330.88
250.532	331.88
250.765	319.88
250.998	327.88
251.231	329.88
251.465	316.88
251.698	322.88
251.931	332.88
252.164	307.88
252.397	327.88
252.63	333.88
252.863	341.88
253.096	341.88
253.329	337.88
253.562	349.88
253.795	336.88
254.028	342.88
254.261	341.88
254.494	349.88
254.727	416.88
254.96	465.88
255.193	460.88
255.426	370.88
255.659	356.88
255.892	365.88
256.124	358.88
256.357	369.88
256.59	377.88
256.823	417.88
257.056	431.88
257.289	497.88
257.521	545.88
257.754	444.88
257.987	409.88
258.22	397.88
258.452	372.88
258.685	373.88
258.918	409.88
259.151	389.88
259.383	425.88
259.616	460.88
259.849	453.88
260.081	442.88
260.314	419.88
260.547	422.88
260.779	405.88
261.012	403.88
261.244	402.88
261.477	433.88
261.71	422.88
261.942	414.88
262.175	466.88
262.407	465.88
262.64	453.88
262.872	471.88
263.105	476.88
263.337	494.88
263.57	529.88
263.802	535.88
264.035	529.88
264.267	571.88
264.499	577.88
264.732	591.88
264.964	608.88
265.197	605.88
265.429	619.88
265.661	614.88
265.894	650.88
266.126	695.88
266.358	768.88
266.591	741.88
266.823	663.88
267.055	620.88
267.287	593.88
267.52	583.88
267.752	559.88
267.984	538.88
268.216	538.88
268.448	560.88
268.681	511.88
268.913	525.88
269.145	528.88
269.377	525.88
269.609	549.88
269.841	524.88
270.073	567.88
270.306	625.88
270.538	825.88
270.77	1137.88
271.002	1318.88
271.234	1002.88
271.466	728.88
271.698	608.88
271.93	569.88
272.162	542.88
272.394	527.88
272.626	522.88
272.858	514.88
273.09	525.88
273.322	514.88
273.553	485.88
273.785	503.88
274.017	514.88
274.249	516.88
274.481	513.88
274.713	511.88
274.945	522.88
275.176	520.88
275.408	508.88
275.64	527.88
275.872	518.88
276.104	519.88
276.335	529.88
276.567	561.88
276.799	516.88
277.031	533.88
277.262	546.88
277.494	556.88
277.726	614.88
277.957	666.88
278.189	766.88
278.421	703.88
278.652	627.88
278.884	612.88
279.115	563.88
279.347	579.88
279.579	589.88
279.81	593.88
280.042	541.88
280.273	569.88
280.505	555.88
280.736	618.88
280.968	595.88
281.199	656.88
281.431	745.88
281.662	732.88
281.894	665.88
282.125	620.88
282.356	662.88
282.588	652.88
282.819	670.88
283.051	724.88
283.282	798.88
283.513	901.88
283.745	1247.88
283.976	1948.88
284.207	2746.88
284.439	2476.88
284.67	1523.88
284.901	1267.88
285.132	1210.88
285.364	1192.88
285.595	943.88
285.826	885.88
286.057	1028.88
286.288	1358.88
286.52	1736.88
286.751	1664.88
286.982	1085.88
287.213	835.88
287.444	724.88
287.675	724.88
287.906	683.88
288.138	665.88
288.369	689.88
288.6	697.88
288.831	685.88
289.062	678.88
289.293	677.88
289.524	698.88
289.755	679.88
289.986	685.88
290.217	691.88
290.448	699.88
290.679	676.88
290.91	689.88
291.141	711.88
291.371	746.88
291.602	773.88
291.833	716.88
292.064	680.88
292.295	698.88
292.526	659.88
292.757	659.88
292.987	653.88
293.218	642.88
293.449	665.88
293.68	639.88
293.91	663.88
294.141	633.88
294.372	618.88
294.603	631.88
294.833	636.88
295.064	630.88
295.295	634.88
295.525	627.88
295.756	641.88
295.987	635.88
296.217	644.88
296.448	638.88
296.679	666.88
296.909	635.88
297.14	667.88
297.37	652.88
297.601	658.88
297.831	641.88
298.062	636.88
298.292	681.88
298.523	668.88
298.753	695.88
298.984	689.88
299.214	686.88
299.445	675.88
299.675	682.88
299.905	716.88
300.136	756.88
300.366	834.88
300.597	986.88
300.827	1312.88
301.057	1713.88
301.288	1737.88
301.518	1159.88
301.748	942.88
301.979	857.88
302.209	869.88
302.439	865.88
302.669	898.88
302.9	1068.88
303.13	1425.88
303.36	2029.88
303.59	2633.88
303.82	2313.88
304.051	1438.88
304.281	1064.88
304.511	949.88
304.741	866.88
304.971	813.88
305.201	767.88
305.431	805.88
305.661	767.88
305.891	755.88
306.121	740.88
306.352	726.88
306.582	744.88
306.812	717.88
307.042	753.88
307.272	759.88
307.502	731.88
307.731	755.88
307.961	744.88
308.191	710.88
308.421	720.88
308.651	734.88
308.881	747.88
309.111	732.88
309.341	736.88
309.571	710.88
309.8	763.88
310.03	765.88
310.26	781.88
310.49	761.88
310.72	767.88
310.949	755.88
311.179	780.88
311.409	785.88
311.639	792.88
311.868	760.88
312.098	776.88
312.328	805.88
312.557	788.88
312.787	789.88
313.017	809.88
313.246	817.88
313.476	805.88
313.706	826.88
313.935	871.88
314.165	874.88
314.394	909.88
314.624	886.88
314.853	849.88
315.083	846.88
315.312	812.88
315.542	855.88
315.771	871.88
316.001	885.88
316.23	907.88
316.46	922.88
316.689	989.88
316.919	1170.88
317.148	1644.88
317.377	2421.88
317.607	3457.88
317.836	3561.88
318.065	2176.88
318.295	1479.88
318.524	1233.88
318.753	1090.88
318.983	1024.88
319.212	969.88
319.441	945.88
319.67	940.88
319.9	933.88
320.129	902.88
320.358	938.88
320.587	937.88
320.816	915.88
321.046	926.88
321.275	938.88
321.504	954.88
321.733	921.88
321.962	945.88
322.191	956.88
322.42	983.88
322.649	997.88
322.878	979.88
323.108	987.88
323.337	1013.88
323.566	1034.88
323.795	1047.88
324.024	1023.88
324.253	1047.88
324.482	1062.88
324.71	1141.88
324.939	1186.88
325.168	1225.88
325.397	1240.88
325.626	1430.88
325.855	1962.88
326.084	2911.88
326.313	4309.88
326.542	4568.88
326.77	2944.88
326.999	2064.88
327.228	1734.88
327.457	1692.88
327.686	1677.88
327.914	1788.88
328.143	2024.88
328.372	2361.88
328.6	2529.88
328.829	2321.88
329.058	2036.88
329.287	1885.88
329.515	1701.88
329.744	1593.88
329.972	1511.88
330.201	1491.88
330.43	1468.88
330.658	1372.88
330.887	1391.88
331.115	1341.88
331.344	1365.88
331.572	1323.88
331.801	1349.88
332.03	1336.88
332.258	1361.88
332.486	1416.88
332.715	1555.88
332.943	1872.88
333.172	2256.88
333.4	2141.88
333.629	1777.88
333.857	1665.88
334.085	1664.88
334.314	1781.88
334.542	1885.88
334.771	2151.88
334.999	2519.88
335.227	3027.88
335.455	3367.88
335.684	3183.88
335.912	2745.88
336.14	2406.88
336.369	2140.88
336.597	1996.88
336.825	1823.88
337.053	1713.88
337.281	1625.88
337.51	1559.88
337.738	1517.88
337.966	1448.88
338.194	1373.88
338.422	1359.88
338.65	1322.88
338.878	1291.88
339.106	1271.88
339.334	1290.88
339.562	1215.88
339.79	1204.88
340.018	1201.88
340.246	1227.88
340.474	1201.88
340.702	1164.88
340.93	1157.88
341.158	1227.88
341.386	1196.88
341.614	1194.88
341.842	1151.88
342.07	1145.88
342.298	1136.88
342.526	1096.88
342.754	1103.88
342.981	1124.88
343.209	1141.88
343.437	1100.88
343.665	1089.88
343.893	1178.88
344.12	1135.88
344.348	1135.88
344.576	1092.88
344.804	1100.88
345.031	1072.88
345.259	1041.88
345.487	1021.88
345.714	1044.88
345.942	1043.88
346.17	1036.88
346.397	1033.88
346.625	1023.88
346.853	979.88
347.08	995.88
347.308	1025.88
347.535	996.88
347.763	1007.88
347.99	1001.88
348.218	981.88
348.445	977.88
348.673	982.88
348.9	988.88
349.128	986.88
349.355	992.88
349.583	982.88
349.81	982.88
350.037	970.88
350.265	1001.88
350.492	964.88
350.72	998.88
350.947	965.88
351.174	982.88
351.402	989.88
351.629	968.88
351.856	960.88
352.083	984.88
352.311	971.88
352.538	963.88
352.765	976.88
352.992	961.88
353.22	953.88
353.447	973.88
353.674	962.88
353.901	964.88
354.128	971.88
354.355	963.88
354.583	988.88
354.81	986.88
355.037	970.88
355.264	991.88
355.491	980.88
355.718	1014.88
355.945	974.88
356.172	990.88
356.399	997.88
356.626	1016.88
356.853	1027.88
357.08	1002.88
357.307	1015.88
357.534	1032.88
357.761	1059.88
357.988	1035.88
358.215	1039.88
358.441	1033.88
358.668	1028.88
358.895	1047.88
359.122	1045.88
359.349	1038.88
359.576	1037.88
359.802	1039.88
360.029	1050.88
360.256	1010.88
360.483	1041.88
360.709	1017.88
360.936	1045.88
361.163	1041.88
361.39	1049.88
361.616	1035.88
361.843	1028.88
362.07	1030.88
362.296	1023.88
362.523	1023.88
362.749	1057.88
362.976	1056.88
363.203	1068.88
363.429	1023.88
363.656	1010.88
363.882	1027.88
364.109	1050.88
364.335	1038.88
364.562	1035.88
364.788	1049.88
365.015	1057.88
365.241	1046.88
365.468	1080.88
365.694	1088.88
365.92	1078.88
366.147	1061.88
366.373	1063.88
366.599	1048.88
366.826	1056.88
367.052	1047.88
367.278	1025.88
367.505	1060.88
367.731	1077.88
367.957	1042.88
368.184	1055.88
368.41	1099.88
368.636	1083.88
368.862	1077.88
369.089	1071.88
369.315	1042.88
369.541	1087.88
369.767	1062.88
369.993	1089.88
370.219	1072.88
370.445	1075.88
370.672	1096.88
370.898	1109.88
371.124	1110.88
371.35	1099.88
371.576	1121.88
371.802	1083.88
372.028	1105.88
372.254	1116.88
372.48	1142.88
372.706	1093.88
372.932	1123.88
373.158	1109.88
373.384	1144.88
373.61	1126.88
373.835	1159.88
374.061	1139.88
374.287	1139.88
374.513	1133.88
374.739	1169.88
374.965	1167.88
375.191	1200.88
375.416	1188.88
375.642	1136.88
375.868	1158.88
376.094	1148.88
376.319	1113.88
376.545	1147.88
376.771	1121.88
376.997	1103.88
377.222	1112.88
377.448	1120.88
377.674	1091.88
377.899	1092.88
378.125	1113.88
378.35	1080.88
378.576	1091.88
378.802	1130.88
379.027	1147.88
379.253	1169.88
379.478	1186.88
379.704	1371.88
379.929	1805.88
380.155	2573.88
380.38	2713.88
380.606	1815.88
380.831	1366.88
381.057	1249.88
381.282	1175.88
381.507	1163.88
381.733	1137.88
381.958	1130.88
382.184	1120.88
382.409	1088.88
382.634	1096.88
382.86	1102.88
383.085	1103.88
383.31	1087.88
383.535	1124.88
383.761	1108.88
383.986	1117.88
384.211	1156.88
384.436	1125.88
384.662	1111.88
384.887	1147.88
385.112	1155.88
385.337	1116.88
385.562	1128.88
385.787	1157.88
386.013	1149.88
386.238	1138.88
386.463	1141.88
386.688	1146.88
386.913	1117.88
387.138	1159.88
387.363	1151.88
387.588	1153.88
387.813	1165.88
388.038	1129.88
388.263	1108.88
388.488	1152.88
388.713	1165.88
388.938	1137.88
389.163	1143.88
389.387	1160.88
389.612	1133.88
389.837	1138.88
390.062	1149.88
390.287	1172.88
390.512	1148.88
390.736	1151.88
390.961	1179.88
391.186	1179.88
391.411	1193.88
391.636	1203.88
391.86	1234.88
392.085	1231.88
392.31	1202.88
392.534	1190.88
392.759	1165.88
392.984	1168.88
393.208	1183.88
393.433	1146.88
393.658	1147.88
393.882	1156.88
394.107	1159.88
394.331	1151.88
394.556	1142.88
394.78	1144.88
395.005	1152.88
395.229	1172.88
395.454	1212.88
395.678	1174.88
395.903	1176.88
396.127	1217.88
396.352	1165.88
396.576	1187.88
396.801	1152.88
397.025	1210.88
397.249	1240.88
397.474	1183.88
397.698	1207.88
397.922	1221.88
398.147	1201.88
398.371	1221.88
398.595	1241.88
398.82	1285.88
399.044	1337.88
399.268	1399.88
399.492	1483.88
399.717	1533.88
399.941	1513.88
400.165	1458.88
400.389	1376.88
400.613	1346.88
400.837	1322.88
401.062	1321.88
401.286	1271.88
401.51	1249.88
401.734	1246.88
401.958	1234.88
402.182	1253.88
402.406	1284.88
402.63	1281.88
402.854	1307.88
403.078	1299.88
403.302	1279.88
403.526	1323.88
403.75	1309.88
403.974	1322.88
404.198	1318.88
404.422	1319.88
404.645	1300.88
404.869	1313.88
405.093	1298.88
405.317	1321.88
405.541	1339.88
405.765	1339.88
405.988	1319.88
406.212	1317.88
406.436	1316.88
406.66	1361.88
406.883	1384.88
407.107	1368.88
407.331	1415.88
407.555	1411.88
407.778	1457.88
408.002	1410.88
408.226	1440.88
408.449	1368.88
408.673	1365.88
408.896	1352.88
409.12	1334.88
409.344	1330.88
409.567	1297.88
409.791	1311.88
410.014	1306.88
410.238	1263.88
410.461	1307.88
410.685	1309.88
410.908	1312.88
411.132	1266.88
411.355	1303.88
411.578	1251.88
411.802	1230.88
412.025	1239.88
412.249	1291.88
412.472	1283.88
412.695	1264.88
412.919	1269.88
413.142	1267.88
413.365	1252.88
413.589	1222.88
413.812	1232.88
414.035	1233.88
414.258	1248.88
414.482	1260.88
414.705	1250.88
414.928	1238.88
415.151	1259.88
415.374	1212.88
415.597	1214.88
415.821	1217.88
416.044	1186.88
416.267	1172.88
416.49	1200.88
416.713	1183.88
416.936	1217.88
417.159	1180.88
417.382	1211.88
417.605	1169.88
417.828	1182.88
418.051	1232.88
418.274	1193.88
418.497	1220.88
418.72	1237.88
418.943	1213.88
419.166	1288.88
419.389	1310.88
419.611	1299.88
419.834	1263.88
420.057	1288.88
420.28	1207.88
420.503	1210.88
420.726	1197.88
420.948	1183.88
421.171	1195.88
421.394	1197.88
421.617	1212.88
421.839	1253.88
422.062	1235.88
422.285	1191.88
422.507	1193.88
422.73	1244.88
422.953	1240.88
423.175	1257.88
423.398	1242.88
423.621	1216.88
423.843	1200.88
424.066	1232.88
424.288	1210.88
424.511	1207.88
424.733	1234.88
424.956	1188.88
425.178	1197.88
425.401	1242.88
425.623	1199.88
425.846	1186.88
426.068	1205.88
426.291	1160.88
426.513	1164.88
426.735	1144.88
426.958	1157.88
427.18	1117.88
427.402	1132.88
427.625	1138.88
427.847	1098.88
428.069	1101.88
428.292	1135.88
428.514	1092.88
428.736	1102.88
428.958	1103.88
429.181	1117.88
429.403	1128.88
429.625	1114.88
429.847	1090.88
430.069	1137.88
430.292	1159.88
430.514	1175.88
430.736	1150.88
430.958	1122.88
431.18	1081.88
431.402	1131.88
431.624	1094.88
431.846	1084.88
432.068	1079.88
432.29	1090.88
432.512	1091.88
432.734	1121.88
432.956	1134.88
433.178	1141.88
433.4	1121.88
433.622	1119.88
433.844	1142.88
434.066	1126.88
434.287	1103.88
434.509	1102.88
434.731	1136.88
434.953	1155.88
435.175	1146.88
435.397	1130.88
435.618	1129.88
435.84	1127.88
436.062	1107.88
436.284	1080.88
436.505	1097.88
436.727	1109.88
436.949	1116.88
437.17	1098.88
437.392	1114.88
437.614	1074.88
437.835	1096.88
438.057	1062.88
438.278	1048.88
438.5	1036.88
438.721	1075.88
438.943	1133.88
439.165	1131.88
439.386	1148.88
439.608	1151.88
439.829	1166.88
440.05	1169.88
440.272	1169.88
440.493	1152.88
440.715	1165.88
440.936	1129.88
441.158	1141.88
441.379	1159.88
441.6	1198.88
441.822	1224.88
442.043	1265.88
442.264	1279.88
442.486	1221.88
442.707	1206.88
442.928	1201.88
443.149	1192.88
443.371	1171.88
443.592	1212.88
443.813	1186.88
444.034	1203.88
444.255	1225.88
444.476	1282.88
444.698	1267.88
444.919	1271.88
445.14	1326.88
445.361	1249.88
445.582	1235.88
445.803	1193.88
446.024	1186.88
446.245	1164.88
446.466	1192.88
446.687	1151.88
446.908	1153.88
447.129	1113.88
447.35	1149.88
447.571	1143.88
447.792	1100.88
448.013	1081.88
448.234	1071.88
448.455	1109.88
448.675	1092.88
448.896	1123.88
449.117	1144.88
449.338	1187.88
449.559	1256.88
449.779	1153.88
450	1095.88
450.221	1089.88
450.442	1072.88
450.662	1044.88
450.883	1081.88
451.104	1060.88
451.324	1067.88
451.545	1051.88
451.766	1067.88
451.986	1087.88
452.207	1071.88
452.428	1299.88
452.648	1701.88
452.869	1513.88
453.089	1199.88
453.31	1155.88
453.53	1144.88
453.751	1163.88
453.971	1189.88
454.192	1211.88
454.412	1111.88
454.633	1049.88
454.853	1059.88
455.073	1032.88
455.294	1004.88
455.514	1025.88
455.734	1018.88
455.955	1009.88
456.175	977.88
456.395	999.88
456.616	1020.88
456.836	1007.88
457.056	1031.88
457.276	1035.88
457.497	1068.88
457.717	1077.88
457.937	1060.88
458.157	1062.88
458.377	1035.88
458.598	1049.88
458.818	1085.88
459.038	1088.88
459.258	1091.88
459.478	1103.88
459.698	1113.88
459.918	1146.88
460.138	1153.88
460.358	1178.88
460.578	1169.88
460.798	1192.88
461.018	1223.88
461.238	1216.88
461.458	1179.88
461.678	1205.88
461.898	1234.88
462.118	1207.88
462.338	1280.88
462.558	1259.88
462.777	1290.88
462.997	1348.88
463.217	1388.88
463.437	1440.88
463.657	1407.88
463.876	1411.88
464.096	1313.88
464.316	1293.88
464.536	1293.88
464.755	1276.88
464.975	1257.88
465.195	1223.88
465.414	1186.88
465.634	1142.88
465.854	1117.88
466.073	1096.88
466.293	1097.88
466.512	1134.88
466.732	1092.88
466.951	1177.88
467.171	1241.88
467.391	1200.88
467.61	1149.88
467.829	1129.88
468.049	1109.88
468.268	1066.88
468.488	1084.88
468.707	1089.88
468.927	1078.88
469.146	1100.88
469.365	1086.88
469.585	1101.88
469.804	1130.88
470.023	1167.88
470.243	1151.88
470.462	1165.88
470.681	1245.88
470.901	1339.88
471.12	1460.88
471.339	1483.88
471.558	1265.88
471.777	1164.88
471.997	1159.88
472.216	1119.88
472.435	1111.88
472.654	1100.88
472.873	1075.88
473.092	1093.88
473.311	1073.88
473.53	1078.88
473.749	1127.88
473.968	1131.88
474.187	1090.88
474.406	1077.88
474.625	1113.88
474.844	1091.88
475.063	1119.88
475.282	1127.88
475.501	1089.88
475.72	1139.88
475.939	1121.88
476.158	1142.88
476.377	1151.88
476.596	1151.88
476.814	1166.88
477.033	1127.88
477.252	1144.88
477.471	1176.88
477.69	1214.88
477.908	1241.88
478.127	1256.88
478.346	1265.88
478.564	1281.88
478.783	1247.88
479.002	1253.88
479.22	1311.88
479.439	1292.88
479.658	1249.88
479.876	1305.88
480.095	1303.88
480.313	1301.88
480.532	1347.88
480.751	1330.88
480.969	1313.88
481.188	1293.88
481.406	1271.88
481.624	1265.88
481.843	1275.88
482.061	1301.88
482.28	1302.88
482.498	1295.88
482.717	1277.88
482.935	1313.88
483.153	1293.88
483.372	1307.88
483.59	1355.88
483.808	1396.88
484.027	1355.88
484.245	1449.88
484.463	1614.88
484.681	1732.88
484.9	1593.88
485.118	1539.88
485.336	1516.88
485.554	1505.88
485.772	1589.88
485.99	1727.88
486.209	1881.88
486.427	1611.88
486.645	1484.88
486.863	1432.88
487.081	1403.88
487.299	1398.88
487.517	1391.88
487.735	1414.88
487.953	1419.88
488.171	1409.88
488.389	1397.88
488.607	1362.88
488.825	1342.88
489.043	1338.88
489.261	1334.88
489.479	1341.88
489.696	1361.88
489.914	1361.88
490.132	1380.88
490.35	1341.88
490.568	1376.88
490.786	1451.88
491.003	1401.88
491.221	1433.88
491.439	1425.88
491.657	1408.88
491.874	1432.88
492.092	1485.88
492.31	1481.88
492.527	1476.88
492.745	1458.88
492.963	1473.88
493.18	1459.88
493.398	1404.88
493.615	1455.88
493.833	1448.88
494.05	1462.88
494.268	1451.88
494.485	1438.88
494.703	1444.88
494.92	1455.88
495.138	1434.88
495.355	1455.88
495.573	1459.88
495.79	1451.88
496.008	1466.88
496.225	1466.88
496.442	1506.88
496.66	1512.88
496.877	1568.88
497.094	1527.88
497.312	1548.88
497.529	1507.88
497.746	1557.88
497.963	1555.88
498.181	1635.88
498.398	1621.88
498.615	1671.88
498.832	1747.88
499.049	1841.88
499.267	1927.88
499.484	2037.88
499.701	2088.88
499.918	2143.88
500.135	2301.88
500.352	2415.88
500.569	2449.88
500.786	2435.88
501.003	2344.88
501.22	2236.88
501.437	2115.88
501.654	2026.88
501.871	1927.88
502.088	1806.88
502.305	1779.88
502.522	1706.88
502.739	1668.88
502.956	1624.88
503.172	1568.88
503.389	1547.88
503.606	1493.88
503.823	1489.88
504.04	1485.88
504.256	1488.88
504.473	1501.88
504.69	1464.88
504.907	1497.88
505.123	1414.88
505.34	1371.88
505.557	1358.88
505.773	1335.88
505.99	1357.88
506.207	1304.88
506.423	1306.88
506.64	1284.88
506.856	1265.88
507.073	1255.88
507.289	1297.88
507.506	1272.88
507.722	1224.88
507.939	1248.88
508.155	1225.88
508.372	1246.88
508.588	1226.88
508.805	1182.88
509.021	1232.88
509.238	1247.88
509.454	1266.88
509.67	1343.88
509.887	1268.88
510.103	1228.88
510.319	1211.88
510.536	1184.88
510.752	1186.88
510.968	1185.88
511.184	1147.88
511.401	1172.88
511.617	1168.88
511.833	1178.88
512.049	1162.88
512.265	1172.88
512.481	1175.88
512.698	1136.88
512.914	1149.88
513.13	1181.88
513.346	1173.88
513.562	1169.88
513.778	1190.88
513.994	1185.88
514.21	1206.88
514.426	1256.88
514.642	1279.88
514.858	1218.88
515.074	1166.88
515.29	1195.88
515.506	1205.88
515.721	1210.88
515.937	1175.88
516.153	1223.88
516.369	1192.88
516.585	1231.88
516.801	1246.88
517.016	1283.88
517.232	1319.88
517.448	1344.88
517.664	1354.88
517.879	1335.88
518.095	1312.88
518.311	1320.88
518.527	1295.88
518.742	1299.88
518.958	1268.88
519.173	1292.88
519.389	1279.88
519.605	1224.88
519.82	1227.88
520.036	1193.88
520.251	1169.88
520.467	1173.88
520.682	1160.88
520.898	1144.88
521.113	1154.88
521.329	1160.88
521.544	1168.88
521.76	1124.88
521.975	1150.88
522.19	1137.88
522.406	1136.88
522.621	1131.88
522.836	1145.88
523.052	1136.88
523.267	1110.88
523.482	1131.88
523.698	1141.88
523.913	1093.88
524.128	1119.88
524.343	1143.88
524.559	1141.88
524.774	1131.88
524.989	1148.88
525.204	1127.88
525.419	1129.88
525.634	1141.88
525.849	1127.88
526.064	1145.88
526.28	1136.88
526.495	1117.88
526.71	1125.88
526.925	1098.88
527.14	1147.88
527.355	1152.88
527.57	1135.88
527.785	1142.88
527.999	1149.88
528.214	1163.88
528.429	1172.88
528.644	1181.88
528.859	1212.88
529.074	1203.88
529.289	1268.88
529.503	1223.88
529.718	1242.88
529.933	1218.88
530.148	1207.88
530.363	1175.88
530.577	1145.88
530.792	1170.88
531.007	1187.88
531.221	1193.88
531.436	1171.88
531.651	1192.88
531.865	1233.88
532.08	1247.88
532.295	1242.88
532.509	1329.88
532.724	1316.88
532.938	1309.88
533.153	1341.88
533.367	1405.88
533.582	1458.88
533.796	1441.88
534.011	1434.88
534.225	1404.88
534.44	1361.88
534.654	1337.88
534.868	1323.88
535.083	1338.88
535.297	1279.88
535.511	1290.88
535.726	1259.88
535.94	1260.88
536.154	1243.88
536.369	1248.88
536.583	1187.88
536.797	1173.88
537.011	1191.88
537.225	1128.88
537.44	1144.88
537.654	1158.88
537.868	1145.88
538.082	1114.88
538.296	1107.88
538.51	1132.88
538.724	1125.88
538.938	1162.88
539.153	1128.88
539.367	1142.88
539.581	1122.88
539.795	1087.88
540.009	1095.88
540.222	1062.88
540.436	1121.88
540.65	1084.88
540.864	1093.88
541.078	1119.88
541.292	1185.88
541.506	1377.88
541.72	1388.88
541.934	1270.88
542.147	1270.88
542.361	1179.88
542.575	1163.88
542.789	1109.88
543.002	1107.88
543.216	1051.88
543.43	1048.88
543.644	1051.88
543.857	1082.88
544.071	1085.88
544.285	1104.88
544.498	1092.88
544.712	1108.88
544.925	1092.88
545.139	1152.88
545.352	1096.88
545.566	1123.88
545.779	1091.88
545.993	1100.88
546.206	1113.88
546.42	1073.88
546.633	1124.88
546.847	1089.88
547.06	1088.88
547.274	1109.88
547.487	1108.88
547.7	1124.88
547.914	1129.88
548.127	1146.88
548.34	1134.88
548.554	1117.88
548.767	1113.88
548.98	1130.88
549.193	1119.88
549.407	1093.88
549.62	1105.88
549.833	1098.88
550.046	1131.88
550.259	1095.88
550.473	1078.88
550.686	1119.88
550.899	1098.88
551.112	1095.88
551.325	1067.88
551.538	1068.88
551.751	1077.88
551.964	1101.88
552.177	1090.88
552.39	1143.88
552.603	1145.88
552.816	1147.88
553.029	1156.88
553.242	1173.88
553.455	1202.88
553.667	1187.88
553.88	1205.88
554.093	1229.88
554.306	1209.88
554.519	1203.88
554.732	1238.88
554.944	1234.88
555.157	1252.88
555.37	1280.88
555.583	1299.88
555.795	1362.88
556.008	1415.88
556.221	1484.88
556.433	1562.88
556.646	1550.88
556.859	1569.88
557.071	1523.88
557.284	1514.88
557.496	1455.88
557.709	1469.88
557.921	1459.88
558.134	1423.88
558.346	1494.88
558.559	1489.88
558.771	1567.88
558.984	1628.88
559.196	1691.88
559.409	1654.88
559.621	1588.88
559.833	1502.88
560.046	1439.88
560.258	1401.88
560.47	1359.88
560.683	1323.88
560.895	1272.88
561.107	1242.88
561.32	1225.88
561.532	1184.88
561.744	1151.88
561.956	1140.88
562.168	1118.88
562.381	1124.88
562.593	1118.88
562.805	1087.88
563.017	1093.88
563.229	1129.88
563.441	1204.88
563.653	1071.88
563.865	1039.88
564.077	1015.88
564.289	1033.88
564.501	995.88
564.713	1021.88
564.925	1013.88
565.137	1027.88
565.349	1013.88
565.561	1031.88
565.773	1057.88
565.985	1043.88
566.197	1044.88
566.408	1121.88
566.62	1084.88
566.832	1113.88
567.044	1126.88
567.255	1123.88
567.467	1133.88
567.679	1163.88
567.891	1220.88
568.102	1319.88
568.314	1477.88
568.526	1293.88
568.737	1149.88
568.949	1059.88
569.161	991.88
569.372	979.88
569.584	897.88
569.795	897.88
570.007	913.88
570.218	916.88
570.43	915.88
570.641	892.88
570.853	858.88
571.064	855.88
571.276	850.88
571.487	825.88
571.698	817.88
571.91	801.88
572.121	808.88
572.333	825.88
572.544	799.88
572.755	841.88
572.966	952.88
573.178	890.88
573.389	793.88
573.6	755.88
573.811	766.88
574.023	729.88
574.234	750.88
574.445	709.88
574.656	746.88
574.867	732.88
575.078	741.88
575.289	728.88
575.501	725.88
575.712	720.88
575.923	724.88
576.134	741.88
576.345	730.88
576.556	733.88
576.767	740.88
576.978	742.88
577.188	730.88
577.399	729.88
577.61	732.88
577.821	767.88
578.032	773.88
578.243	760.88
578.454	751.88
578.665	801.88
578.875	840.88
579.086	833.88
579.297	859.88
579.508	880.88
579.718	907.88
579.929	1020.88
580.14	1133.88
580.35	1128.88
580.561	1144.88
580.772	1033.88
580.982	992.88
581.193	907.88
581.403	893.88
581.614	839.88
581.825	835.88
582.035	841.88
582.246	797.88
582.456	754.88
582.667	751.88
582.877	720.88
583.087	722.88
583.298	711.88
583.508	691.88
583.719	683.88
583.929	675.88
584.139	653.88
584.35	636.88
584.56	655.88
584.77	636.88
584.981	635.88
585.191	627.88
585.401	628.88
585.611	615.88
585.821	607.88
586.032	599.88
586.242	598.88
586.452	601.88
586.662	555.88
586.872	577.88
587.082	585.88
587.292	570.88
587.502	578.88
587.713	561.88
587.923	556.88
588.133	545.88
588.343	553.88
588.553	547.88
588.762	522.88
588.972	526.88
589.182	563.88
589.392	535.88
589.602	556.88
589.812	554.88
590.022	545.88
590.232	541.88
590.441	524.88
590.651	547.88
590.861	529.88
591.071	523.88
591.281	556.88
591.49	529.88
591.7	521.88
591.91	536.88
592.119	547.88
592.329	529.88
592.539	538.88
592.748	547.88
592.958	554.88
593.167	522.88
593.377	541.88
593.587	550.88
593.796	550.88
594.006	551.88
594.215	561.88
594.424	553.88
594.634	550.88
594.843	540.88
595.053	512.88
595.262	528.88
595.472	499.88
595.681	501.88
595.89	513.88
596.1	523.88
596.309	476.88
596.518	497.88
596.727	487.88
596.937	473.88
597.146	460.88
597.355	483.88
597.564	449.88
597.774	462.88
597.983	453.88
598.192	449.88
598.401	443.88
598.61	423.88
598.819	443.88
599.028	442.88
599.237	436.88
599.446	449.88
599.655	444.88
599.864	452.88
600.073	420.88
600.282	439.88
600.491	459.88
600.7	433.88
600.909	439.88
601.118	434.88
601.327	436.88
601.536	449.88
601.745	445.88
601.953	474.88
602.162	508.88
602.371	510.88
602.58	456.88
602.789	442.88
602.997	446.88
603.206	441.88
603.415	411.88
603.623	423.88
603.832	446.88
604.041	443.88
604.249	416.88
604.458	435.88
604.666	392.88
604.875	413.88
605.084	414.88
605.292	423.88
605.501	432.88
605.709	413.88
605.918	440.88
606.126	419.88
606.334	428.88
606.543	451.88
606.751	467.88
606.96	507.88
607.168	551.88
607.376	453.88
607.585	452.88
607.793	443.88
608.001	437.88
608.21	423.88
608.418	397.88
608.626	428.88
608.834	410.88
609.043	410.88
609.251	424.88
609.459	412.88
609.667	413.88
609.875	408.88
610.083	426.88
610.291	411.88
610.499	407.88
610.707	380.88
610.916	412.88
611.124	407.88
611.332	407.88
611.54	404.88
611.748	397.88
611.955	394.88
612.163	390.88
612.371	380.88
612.579	405.88
612.787	398.88
612.995	377.88
613.203	390.88
613.411	385.88
613.618	400.88
613.826	389.88
614.034	385.88
614.242	396.88
614.449	387.88
614.657	383.88
614.865	386.88
615.072	391.88
615.28	364.88
615.488	387.88
615.695	415.88
615.903	373.88
616.111	365.88
616.318	392.88
616.526	377.88
616.733	380.88
616.941	373.88
617.148	390.88
617.356	401.88
617.563	386.88
617.771	381.88
617.978	384.88
618.185	383.88
618.393	376.88
618.6	368.88
618.807	372.88
619.015	365.88
619.222	376.88
619.429	353.88
619.637	355.88
619.844	352.88
620.051	357.88
620.258	360.88
620.466	355.88
620.673	343.88
620.88	342.88
621.087	344.88
621.294	357.88
621.501	341.88
621.708	348.88
621.915	349.88
622.122	358.88
622.329	359.88
622.536	348.88
622.743	369.88
622.95	342.88
623.157	339.88
623.364	345.88
623.571	370.88
623.778	340.88
623.985	349.88
624.192	352.88
624.399	344.88
624.606	349.88
624.812	333.88
625.019	330.88
625.226	337.88
625.433	328.88
625.639	329.88
625.846	315.88
626.053	314.88
626.259	320.88
626.466	307.88
626.673	300.88
626.879	314.88
627.086	294.88
627.293	310.88
627.499	308.88
627.706	316.88
627.912	341.88
628.119	310.88
628.325	320.88
628.532	328.88
628.738	341.88
628.945	301.88
629.151	305.88
629.357	299.88
629.564	313.88
629.77	298.88
629.976	304.88
630.183	318.88
630.389	300.88
630.595	297.88
630.802	306.88
631.008	316.88
631.214	312.88
631.42	306.88
631.627	320.88
631.833	307.88
632.039	294.88
632.245	313.88
632.451	297.88
632.657	306.88
632.863	289.88
633.069	298.88
633.275	310.88
633.481	318.88
633.688	301.88
633.893	299.88
634.099	298.88
634.305	320.88
634.511	299.88
634.717	294.88
634.923	305.88
635.129	321.88
635.335	367.88
635.541	339.88
635.747	301.88
635.952	289.88
636.158	313.88
636.364	282.88
636.57	293.88
636.775	292.88
636.981	295.88
637.187	275.88
637.392	305.88
637.598	289.88
637.804	291.88
638.009	300.88
638.215	307.88
638.421	301.88
638.626	298.88
638.832	293.88
639.037	295.88
639.243	295.88
639.448	317.88
639.654	314.88
639.859	283.88
640.065	305.88
640.27	293.88
640.475	283.88
640.681	301.88
640.886	313.88
641.091	311.88
641.297	314.88
641.502	315.88
641.707	320.88
641.913	338.88
642.118	329.88
642.323	332.88
642.528	343.88
642.733	327.88
642.939	347.88
643.144	335.88
643.349	360.88
643.554	371.88
643.759	378.88
643.964	371.88
644.169	402.88
644.374	424.88
644.579	464.88
644.784	481.88
644.989	533.88
645.194	603.88
645.399	706.88
645.604	697.88
645.809	547.88
646.014	471.88
646.219	427.88
646.423	380.88
646.628	371.88
646.833	355.88
647.038	333.88
647.243	316.88
647.447	315.88
647.652	322.88
647.857	311.88
648.062	295.88
648.266	275.88
648.471	278.88
648.676	281.88
648.88	283.88
649.085	283.88
649.289	272.88
649.494	260.88
649.698	275.88
649.903	260.88
650.107	257.88
650.312	246.88
650.516	255.88
650.721	236.88
650.925	261.88
651.13	239.88
651.334	240.88
651.539	243.88
651.743	238.88
651.947	220.88
652.152	228.88
652.356	204.88
652.56	229.88
652.764	266.88
652.969	227.88
653.173	221.88
653.377	209.88
653.581	209.88
653.785	219.88
653.99	219.88
654.194	200.88
654.398	195.88
654.602	197.88
654.806	194.88
655.01	201.88
655.214	216.88
655.418	196.88
655.622	211.88
655.826	219.88
656.03	205.88
656.234	237.88
656.438	232.88
656.642	241.88
656.846	216.88
657.049	206.88
657.253	197.88
657.457	169.88
657.661	175.88
657.865	163.88
658.068	162.88
658.272	136.88
658.476	145.88
658.68	142.88
658.883	134.88
659.087	150.88
659.291	122.88
659.494	127.88
659.698	131.88
659.901	129.88
660.105	109.88
660.309	125.88
660.512	119.88
660.716	121.88
660.919	122.88
661.123	116.88
661.326	116.88
661.53	104.88
661.733	113.88
661.936	104.88
662.14	92.88
662.343	92.88
662.546	96.88
662.75	90.88
662.953	88.88
663.156	106.88
663.36	99.88
663.563	80.88
663.766	80.88
663.969	88.88
664.173	90.88
664.376	95.88
664.579	81.88
664.782	98.88
664.985	88.88
665.188	78.88
665.391	77.88
665.594	78.88
665.797	90.88
666	81.88
666.203	78.88
666.406	72.88
666.609	79.88
666.812	74.88
667.015	83.88
667.218	83.88
667.421	90.88
667.624	82.88
667.827	80.88
668.03	76.88
668.232	88.88
668.435	79.88
668.638	91.88
668.841	89.88
669.043	90.88
669.246	75.88
669.449	82.88
669.651	94.88
669.854	98.88
670.057	82.88
670.259	83.88
670.462	70.88
670.665	83.88
670.867	78.88
671.07	91.88
671.272	85.88
671.475	90.88
671.677	81.88
671.88	87.88
672.082	76.88
672.284	85.88
672.487	84.88
672.689	89.88
672.892	91.88
