Data from SnStandardFlinnAPT0064_LampEnergy10_LIBS07252019.E.O._I.C._HRD10591_15-21-12-494.txt Node
Date: Thu Jul 25 15:21:12 EDT 2019
User: cochatt
Spectrometer: HR+D1059
Trigger mode: 1
Integration Time (sec): 1.000000E-1
Scans to average: 1
Electric dark correction enabled: true
Nonlinearity correction enabled: false
Boxcar width: 0
XAxis mode: Wavelengths
Number of Pixels in Spectrum: 2048
>>>>>Begin Spectral Data<<<<<
223.165	-14.31
223.4	-14.31
223.635	-14.31
223.869	-32.31
224.104	-9.31
224.338	-20.31
224.573	0.69
224.808	-13.31
225.042	2.69
225.277	-5.31
225.511	-12.31
225.746	11.69
225.98	16.69
226.215	4.69
226.449	13.69
226.683	3.69
226.918	29.69
227.152	23.69
227.387	29.69
227.621	36.69
227.856	50.69
228.09	50.69
228.324	49.69
228.559	43.69
228.793	134.69
229.027	317.69
229.262	329.69
229.496	297.69
229.73	299.69
229.964	326.69
230.199	298.69
230.433	291.69
230.667	308.69
230.901	332.69
231.136	334.69
231.37	329.69
231.604	382.69
231.838	438.69
232.072	542.69
232.306	553.69
232.541	465.69
232.775	411.69
233.009	392.69
233.243	407.69
233.477	452.69
233.711	521.69
233.945	583.69
234.179	508.69
234.413	460.69
234.647	446.69
234.881	463.69
235.115	504.69
235.349	600.69
235.583	781.69
235.817	982.69
236.051	991.69
236.285	653.69
236.519	530.69
236.753	465.69
236.987	490.69
237.221	530.69
237.455	517.69
237.689	477.69
237.922	429.69
238.156	468.69
238.39	478.69
238.624	493.69
238.858	471.69
239.091	473.69
239.325	474.69
239.559	495.69
239.793	496.69
240.027	525.69
240.26	539.69
240.494	554.69
240.728	575.69
240.961	614.69
241.195	642.69
241.429	674.69
241.662	704.69
241.896	761.69
242.13	926.69
242.363	1241.69
242.597	1626.69
242.83	1520.69
243.064	1520.69
243.298	1794.69
243.531	1459.69
243.765	909.69
243.998	790.69
244.232	708.69
244.465	662.69
244.699	644.69
244.932	642.69
245.166	640.69
245.399	664.69
245.633	664.69
245.866	658.69
246.099	653.69
246.333	617.69
246.566	635.69
246.8	630.69
247.033	636.69
247.266	631.69
247.5	649.69
247.733	681.69
247.966	692.69
248.2	741.69
248.433	862.69
248.666	987.69
248.899	932.69
249.133	861.69
249.366	853.69
249.599	940.69
249.832	1097.69
250.066	1067.69
250.299	840.69
250.532	775.69
250.765	742.69
250.998	744.69
251.231	731.69
251.465	729.69
251.698	723.69
251.931	728.69
252.164	721.69
252.397	754.69
252.63	785.69
252.863	793.69
253.096	795.69
253.329	773.69
253.562	741.69
253.795	781.69
254.028	772.69
254.261	818.69
254.494	865.69
254.727	1003.69
254.96	1192.69
255.193	1202.69
255.426	960.69
255.659	874.69
255.892	860.69
256.124	843.69
256.357	858.69
256.59	911.69
256.823	982.69
257.056	1106.69
257.289	1342.69
257.521	1470.69
257.754	1187.69
257.987	935.69
258.22	934.69
258.452	912.69
258.685	924.69
258.918	935.69
259.151	972.69
259.383	1048.69
259.616	1191.69
259.849	1253.69
260.081	1076.69
260.314	968.69
260.547	962.69
260.779	955.69
261.012	947.69
261.244	955.69
261.477	963.69
261.71	993.69
261.942	996.69
262.175	989.69
262.407	1015.69
262.64	1047.69
262.872	1105.69
263.105	1123.69
263.337	1168.69
263.57	1251.69
263.802	1294.69
264.035	1278.69
264.267	1344.69
264.499	1366.69
264.732	1420.69
264.964	1424.69
265.197	1426.69
265.429	1404.69
265.661	1435.69
265.894	1555.69
266.126	1744.69
266.358	1959.69
266.591	1872.69
266.823	1589.69
267.055	1400.69
267.287	1368.69
267.52	1296.69
267.752	1277.69
267.984	1262.69
268.216	1249.69
268.448	1245.69
268.681	1233.69
268.913	1227.69
269.145	1237.69
269.377	1182.69
269.609	1224.69
269.841	1258.69
270.073	1334.69
270.306	1571.69
270.538	2168.69
270.77	3093.69
271.002	3895.69
271.234	2756.69
271.466	1806.69
271.698	1486.69
271.93	1359.69
272.162	1312.69
272.394	1278.69
272.626	1238.69
272.858	1212.69
273.09	1193.69
273.322	1210.69
273.553	1178.69
273.785	1162.69
274.017	1140.69
274.249	1188.69
274.481	1181.69
274.713	1183.69
274.945	1201.69
275.176	1192.69
275.408	1210.69
275.64	1206.69
275.872	1242.69
276.104	1229.69
276.335	1266.69
276.567	1250.69
276.799	1243.69
277.031	1313.69
277.262	1293.69
277.494	1357.69
277.726	1551.69
277.957	1823.69
278.189	2076.69
278.421	1934.69
278.652	1732.69
278.884	1630.69
279.115	1501.69
279.347	1405.69
279.579	1339.69
279.81	1358.69
280.042	1390.69
280.273	1384.69
280.505	1433.69
280.736	1461.69
280.968	1567.69
281.199	1759.69
281.431	2004.69
281.662	2091.69
281.894	1755.69
282.125	1625.69
282.356	1598.69
282.588	1644.69
282.819	1694.69
283.051	1778.69
283.282	1970.69
283.513	2397.69
283.745	3511.69
283.976	5582.69
284.207	7856.69
284.439	7196.69
284.67	4409.69
284.901	3702.69
285.132	3659.69
285.364	3527.69
285.595	2634.69
285.826	2423.69
286.057	2803.69
286.288	3866.69
286.52	5202.69
286.751	4815.69
286.982	2965.69
287.213	2240.69
287.444	1959.69
287.675	1869.69
287.906	1736.69
288.138	1715.69
288.369	1631.69
288.6	1652.69
288.831	1665.69
289.062	1646.69
289.293	1659.69
289.524	1696.69
289.755	1692.69
289.986	1659.69
290.217	1711.69
290.448	1678.69
290.679	1664.69
290.91	1735.69
291.141	1816.69
291.371	1971.69
291.602	2068.69
291.833	1895.69
292.064	1743.69
292.295	1666.69
292.526	1637.69
292.757	1600.69
292.987	1559.69
293.218	1577.69
293.449	1585.69
293.68	1585.69
293.91	1555.69
294.141	1555.69
294.372	1499.69
294.603	1532.69
294.833	1515.69
295.064	1551.69
295.295	1556.69
295.525	1540.69
295.756	1525.69
295.987	1519.69
296.217	1545.69
296.448	1552.69
296.679	1516.69
296.909	1550.69
297.14	1597.69
297.37	1601.69
297.601	1585.69
297.831	1609.69
298.062	1602.69
298.292	1605.69
298.523	1625.69
298.753	1645.69
298.984	1689.69
299.214	1688.69
299.445	1707.69
299.675	1716.69
299.905	1792.69
300.136	1852.69
300.366	2144.69
300.597	2734.69
300.827	3795.69
301.057	5166.69
301.288	5199.69
301.518	3323.69
301.748	2490.69
301.979	2298.69
302.209	2194.69
302.439	2219.69
302.669	2373.69
302.9	2888.69
303.13	4084.69
303.36	6157.69
303.59	8177.69
303.82	7044.69
304.051	4100.69
304.281	3002.69
304.511	2480.69
304.741	2278.69
304.971	2140.69
305.201	2063.69
305.431	1949.69
305.661	1905.69
305.891	1883.69
306.121	1848.69
306.352	1860.69
306.582	1801.69
306.812	1821.69
307.042	1820.69
307.272	1804.69
307.502	1752.69
307.731	1774.69
307.961	1786.69
308.191	1771.69
308.421	1791.69
308.651	1758.69
308.881	1748.69
309.111	1806.69
309.341	1798.69
309.571	1792.69
309.8	1811.69
310.03	1829.69
310.26	1851.69
310.49	1808.69
310.72	1856.69
310.949	1857.69
311.179	1856.69
311.409	1856.69
311.639	1859.69
311.868	1893.69
312.098	1910.69
312.328	1900.69
312.557	1976.69
312.787	1940.69
313.017	1927.69
313.246	1965.69
313.476	1985.69
313.706	2022.69
313.935	2178.69
314.165	2303.69
314.394	2444.69
314.624	2331.69
314.853	2140.69
315.083	2089.69
315.312	2120.69
315.542	2173.69
315.771	2136.69
316.001	2174.69
316.23	2270.69
316.46	2371.69
316.689	2645.69
316.919	3142.69
317.148	4528.69
317.377	7017.69
317.607	10283.69
317.836	10642.69
318.065	6440.69
318.295	4175.69
318.524	3332.69
318.753	2938.69
318.983	2680.69
319.212	2538.69
319.441	2501.69
319.67	2344.69
319.9	2377.69
320.129	2299.69
320.358	2300.69
320.587	2282.69
320.816	2341.69
321.046	2328.69
321.275	2321.69
321.504	2364.69
321.733	2420.69
321.962	2474.69
322.191	2451.69
322.42	2454.69
322.649	2424.69
322.878	2384.69
323.108	2402.69
323.337	2490.69
323.566	2535.69
323.795	2580.69
324.024	2664.69
324.253	2678.69
324.482	2748.69
324.71	3030.69
324.939	3102.69
325.168	3256.69
325.397	3323.69
325.626	3960.69
325.855	5500.69
326.084	8648.69
326.313	12495.69
326.542	13292.69
326.77	8880.69
326.999	5774.69
327.228	4821.69
327.457	4644.69
327.686	4736.69
327.914	4988.69
328.143	5790.69
328.372	6866.69
328.6	7456.69
328.829	6683.69
329.058	5640.69
329.287	4978.69
329.515	4524.69
329.744	4208.69
329.972	4024.69
330.201	3786.69
330.43	3713.69
330.658	3596.69
330.887	3421.69
331.115	3364.69
331.344	3433.69
331.572	3374.69
331.801	3483.69
332.03	3436.69
332.258	3514.69
332.486	3705.69
332.715	4193.69
332.943	5275.69
333.172	6590.69
333.4	6443.69
333.629	4845.69
333.857	4419.69
334.085	4396.69
334.314	4606.69
334.542	5016.69
334.771	5889.69
334.999	7181.69
335.227	8984.69
335.455	10062.69
335.684	9033.69
335.912	7456.69
336.14	6329.69
336.369	5574.69
336.597	5166.69
336.825	4696.69
337.053	4354.69
337.281	4197.69
337.51	3964.69
337.738	3801.69
337.966	3648.69
338.194	3514.69
338.422	3425.69
338.65	3261.69
338.878	3254.69
339.106	3221.69
339.334	3174.69
339.562	3091.69
339.79	3041.69
340.018	3026.69
340.246	2972.69
340.474	2969.69
340.702	3032.69
340.93	2948.69
341.158	2962.69
341.386	3010.69
341.614	2968.69
341.842	2884.69
342.07	2808.69
342.298	2722.69
342.526	2752.69
342.754	2718.69
342.981	2676.69
343.209	2684.69
343.437	2721.69
343.665	2800.69
343.893	2772.69
344.12	2754.69
344.348	2700.69
344.576	2713.69
344.804	2620.69
345.031	2610.69
345.259	2545.69
345.487	2510.69
345.714	2537.69
345.942	2522.69
346.17	2473.69
346.397	2474.69
346.625	2536.69
346.853	2489.69
347.08	2485.69
347.308	2431.69
347.535	2457.69
347.763	2480.69
347.99	2424.69
348.218	2405.69
348.445	2399.69
348.673	2418.69
348.9	2402.69
349.128	2378.69
349.355	2380.69
349.583	2423.69
349.81	2405.69
350.037	2398.69
350.265	2361.69
350.492	2380.69
350.72	2396.69
350.947	2323.69
351.174	2347.69
351.402	2362.69
351.629	2381.69
351.856	2342.69
352.083	2347.69
352.311	2360.69
352.538	2365.69
352.765	2380.69
352.992	2324.69
353.22	2291.69
353.447	2339.69
353.674	2281.69
353.901	2330.69
354.128	2340.69
354.355	2360.69
354.583	2379.69
354.81	2399.69
355.037	2392.69
355.264	2386.69
355.491	2358.69
355.718	2373.69
355.945	2382.69
356.172	2436.69
356.399	2400.69
356.626	2420.69
356.853	2454.69
357.08	2458.69
357.307	2464.69
357.534	2541.69
357.761	2554.69
357.988	2535.69
358.215	2540.69
358.441	2521.69
358.668	2508.69
358.895	2516.69
359.122	2468.69
359.349	2468.69
359.576	2494.69
359.802	2482.69
360.029	2522.69
360.256	2493.69
360.483	2505.69
360.709	2512.69
360.936	2511.69
361.163	2537.69
361.39	2536.69
361.616	2532.69
361.843	2515.69
362.07	2544.69
362.296	2525.69
362.523	2492.69
362.749	2519.69
362.976	2473.69
363.203	2450.69
363.429	2506.69
363.656	2532.69
363.882	2486.69
364.109	2497.69
364.335	2503.69
364.562	2491.69
364.788	2498.69
365.015	2570.69
365.241	2594.69
365.468	2755.69
365.694	2884.69
365.92	2790.69
366.147	2582.69
366.373	2600.69
366.599	2586.69
366.826	2540.69
367.052	2540.69
367.278	2573.69
367.505	2567.69
367.731	2580.69
367.957	2531.69
368.184	2573.69
368.41	2602.69
368.636	2588.69
368.862	2602.69
369.089	2584.69
369.315	2641.69
369.541	2568.69
369.767	2582.69
369.993	2567.69
370.219	2545.69
370.445	2612.69
370.672	2643.69
370.898	2634.69
371.124	2607.69
371.35	2658.69
371.576	2683.69
371.802	2680.69
372.028	2688.69
372.254	2696.69
372.48	2681.69
372.706	2741.69
372.932	2763.69
373.158	2746.69
373.384	2784.69
373.61	2750.69
373.835	2756.69
374.061	2739.69
374.287	2769.69
374.513	2801.69
374.739	2857.69
374.965	2843.69
375.191	2860.69
375.416	2839.69
375.642	2777.69
375.868	2811.69
376.094	2773.69
376.319	2768.69
376.545	2727.69
376.771	2706.69
376.997	2650.69
377.222	2701.69
377.448	2695.69
377.674	2748.69
377.899	2695.69
378.125	2696.69
378.35	2686.69
378.576	2728.69
378.802	2729.69
379.027	2739.69
379.253	2854.69
379.478	2992.69
379.704	3588.69
379.929	5081.69
380.155	7850.69
380.38	8640.69
380.606	5165.69
380.831	3642.69
381.057	3165.69
381.282	2894.69
381.507	2830.69
381.733	2774.69
381.958	2655.69
382.184	2665.69
382.409	2698.69
382.634	2685.69
382.86	2683.69
383.085	2644.69
383.31	2669.69
383.535	2655.69
383.761	2673.69
383.986	2686.69
384.211	2691.69
384.436	2732.69
384.662	2740.69
384.887	2749.69
385.112	2706.69
385.337	2713.69
385.562	2696.69
385.787	2723.69
386.013	2706.69
386.238	2744.69
386.463	2716.69
386.688	2755.69
386.913	2698.69
387.138	2733.69
387.363	2743.69
387.588	2682.69
387.813	2704.69
388.038	2706.69
388.263	2750.69
388.488	2743.69
388.713	2728.69
388.938	2722.69
389.163	2652.69
389.387	2712.69
389.612	2692.69
389.837	2730.69
390.062	2698.69
390.287	2790.69
390.512	2699.69
390.736	2801.69
390.961	2848.69
391.186	2809.69
391.411	2836.69
391.636	2935.69
391.86	2873.69
392.085	2900.69
392.31	2834.69
392.534	2833.69
392.759	2802.69
392.984	2794.69
393.208	2726.69
393.433	2810.69
393.658	2773.69
393.882	2754.69
394.107	2722.69
394.331	2736.69
394.556	2763.69
394.78	2761.69
395.005	2805.69
395.229	2801.69
395.454	2822.69
395.678	2848.69
395.903	2914.69
396.127	2836.69
396.352	2803.69
396.576	2828.69
396.801	2814.69
397.025	2873.69
397.249	2876.69
397.474	2923.69
397.698	2905.69
397.922	2900.69
398.147	2881.69
398.371	2962.69
398.595	3028.69
398.82	3023.69
399.044	3173.69
399.268	3296.69
399.492	3477.69
399.717	3594.69
399.941	3605.69
400.165	3454.69
400.389	3372.69
400.613	3227.69
400.837	3063.69
401.062	3042.69
401.286	2992.69
401.51	3008.69
401.734	2954.69
401.958	3064.69
402.182	3051.69
402.406	3008.69
402.63	2995.69
402.854	3062.69
403.078	3037.69
403.302	3041.69
403.526	3131.69
403.75	3068.69
403.974	3229.69
404.198	3180.69
404.422	3145.69
404.645	3113.69
404.869	3137.69
405.093	3152.69
405.317	3087.69
405.541	3156.69
405.765	3213.69
405.988	3234.69
406.212	3236.69
406.436	3192.69
406.66	3209.69
406.883	3231.69
407.107	3256.69
407.331	3334.69
407.555	3456.69
407.778	3470.69
408.002	3391.69
408.226	3367.69
408.449	3385.69
408.673	3224.69
408.896	3173.69
409.12	3181.69
409.344	3169.69
409.567	3113.69
409.791	3145.69
410.014	3141.69
410.238	3101.69
410.461	3131.69
410.685	3078.69
410.908	3048.69
411.132	3046.69
411.355	3017.69
411.578	3031.69
411.802	3045.69
412.025	2988.69
412.249	3013.69
412.472	2985.69
412.695	2935.69
412.919	2930.69
413.142	2957.69
413.365	2944.69
413.589	2969.69
413.812	2959.69
414.035	2940.69
414.258	2994.69
414.482	2951.69
414.705	2977.69
414.928	2946.69
415.151	2909.69
415.374	2912.69
415.597	2923.69
415.821	2855.69
416.044	2847.69
416.267	2801.69
416.49	2864.69
416.713	2901.69
416.936	2867.69
417.159	2761.69
417.382	2786.69
417.605	2771.69
417.828	2830.69
418.051	2848.69
418.274	2836.69
418.497	2884.69
418.72	2962.69
418.943	2874.69
419.166	2981.69
419.389	3230.69
419.611	3136.69
419.834	2977.69
420.057	2939.69
420.28	2894.69
420.503	2797.69
420.726	2810.69
420.948	2787.69
421.171	2796.69
421.394	2845.69
421.617	2854.69
421.839	2816.69
422.062	2838.69
422.285	2796.69
422.507	2859.69
422.73	2899.69
422.953	2905.69
423.175	2932.69
423.398	2939.69
423.621	2830.69
423.843	2830.69
424.066	2838.69
424.288	2836.69
424.511	2794.69
424.733	2851.69
424.956	2838.69
425.178	2797.69
425.401	2800.69
425.623	2824.69
425.846	2728.69
426.068	2769.69
426.291	2725.69
426.513	2750.69
426.735	2659.69
426.958	2706.69
427.18	2622.69
427.402	2712.69
427.625	2712.69
427.847	2622.69
428.069	2624.69
428.292	2684.69
428.514	2606.69
428.736	2624.69
428.958	2644.69
429.181	2597.69
429.403	2588.69
429.625	2582.69
429.847	2590.69
430.069	2695.69
430.292	2771.69
430.514	2805.69
430.736	2785.69
430.958	2678.69
431.18	2640.69
431.402	2608.69
431.624	2565.69
431.846	2596.69
432.068	2614.69
432.29	2594.69
432.512	2576.69
432.734	2616.69
432.956	2566.69
433.178	2586.69
433.4	2606.69
433.622	2602.69
433.844	2644.69
434.066	2595.69
434.287	2630.69
434.509	2677.69
434.731	2708.69
434.953	2703.69
435.175	2723.69
435.397	2726.69
435.618	2659.69
435.84	2622.69
436.062	2594.69
436.284	2574.69
436.505	2528.69
436.727	2574.69
436.949	2541.69
437.17	2547.69
437.392	2508.69
437.614	2550.69
437.835	2471.69
438.057	2500.69
438.278	2491.69
438.5	2513.69
438.721	2540.69
438.943	2640.69
439.165	2682.69
439.386	2698.69
439.608	2692.69
439.829	2708.69
440.05	2810.69
440.272	2792.69
440.493	2713.69
440.715	2647.69
440.936	2688.69
441.158	2670.69
441.379	2744.69
441.6	2784.69
441.822	2890.69
442.043	3017.69
442.264	3152.69
442.486	2932.69
442.707	2819.69
442.928	2777.69
443.149	2726.69
443.371	2721.69
443.592	2746.69
443.813	2788.69
444.034	2804.69
444.255	2823.69
444.476	2889.69
444.698	2929.69
444.919	2960.69
445.14	3056.69
445.361	2939.69
445.582	2828.69
445.803	2754.69
446.024	2751.69
446.245	2793.69
446.466	2746.69
446.687	2687.69
446.908	2737.69
447.129	2586.69
447.35	2625.69
447.571	2590.69
447.792	2522.69
448.013	2549.69
448.234	2549.69
448.455	2558.69
448.675	2574.69
448.896	2665.69
449.117	2744.69
449.338	2932.69
449.559	3044.69
449.779	2759.69
450	2582.69
450.221	2504.69
450.442	2546.69
450.662	2497.69
450.883	2468.69
451.104	2470.69
451.324	2488.69
451.545	2525.69
451.766	2482.69
451.986	2552.69
452.207	2751.69
452.428	3588.69
452.648	5364.69
452.869	4474.69
453.089	3060.69
453.31	2906.69
453.53	2938.69
453.751	2989.69
453.971	3148.69
454.192	3050.69
454.412	2677.69
454.633	2494.69
454.853	2469.69
455.073	2430.69
455.294	2418.69
455.514	2412.69
455.734	2397.69
455.955	2326.69
456.175	2375.69
456.395	2340.69
456.616	2400.69
456.836	2484.69
457.056	2416.69
457.276	2451.69
457.497	2642.69
457.717	2666.69
457.937	2499.69
458.157	2496.69
458.377	2522.69
458.598	2547.69
458.818	2546.69
459.038	2618.69
459.258	2564.69
459.478	2624.69
459.698	2573.69
459.918	2682.69
460.138	2736.69
460.358	2774.69
460.578	2720.69
460.798	2845.69
461.018	2801.69
461.238	2857.69
461.458	2865.69
461.678	2843.69
461.898	2932.69
462.118	2988.69
462.338	3033.69
462.558	3022.69
462.777	3129.69
462.997	3224.69
463.217	3341.69
463.437	3423.69
463.657	3531.69
463.876	3477.69
464.096	3293.69
464.316	3141.69
464.536	3099.69
464.755	3017.69
464.975	2927.69
465.195	2896.69
465.414	2834.69
465.634	2749.69
465.854	2687.69
466.073	2647.69
466.293	2642.69
466.512	2676.69
466.732	2643.69
466.951	2802.69
467.171	2964.69
467.391	2898.69
467.61	2671.69
467.829	2642.69
468.049	2623.69
468.268	2529.69
468.488	2514.69
468.707	2560.69
468.927	2507.69
469.146	2522.69
469.365	2577.69
469.585	2543.69
469.804	2668.69
470.023	2692.69
470.243	2663.69
470.462	2788.69
470.681	2933.69
470.901	3224.69
471.12	3706.69
471.339	3710.69
471.558	3157.69
471.777	2862.69
471.997	2731.69
472.216	2657.69
472.435	2601.69
472.654	2519.69
472.873	2534.69
473.092	2593.69
473.311	2556.69
473.53	2596.69
473.749	2635.69
473.968	2753.69
474.187	2595.69
474.406	2525.69
474.625	2524.69
474.844	2559.69
475.063	2582.69
475.282	2582.69
475.501	2596.69
475.72	2583.69
475.939	2622.69
476.158	2693.69
476.377	2722.69
476.596	2639.69
476.814	2692.69
477.033	2670.69
477.252	2740.69
477.471	2809.69
477.69	2856.69
477.908	2893.69
478.127	2874.69
478.346	2909.69
478.564	2934.69
478.783	2975.69
479.002	3021.69
479.22	3059.69
479.439	3087.69
479.658	3035.69
479.876	3094.69
480.095	3136.69
480.313	3136.69
480.532	3161.69
480.751	3098.69
480.969	3107.69
481.188	3104.69
481.406	3085.69
481.624	3061.69
481.843	3115.69
482.061	3122.69
482.28	3122.69
482.498	3098.69
482.717	3123.69
482.935	3168.69
483.153	3188.69
483.372	3172.69
483.59	3250.69
483.808	3301.69
484.027	3378.69
484.245	3584.69
484.463	4020.69
484.681	4416.69
484.9	4052.69
485.118	3800.69
485.336	3712.69
485.554	3742.69
485.772	3910.69
485.99	4478.69
486.209	4790.69
486.427	4039.69
486.645	3600.69
486.863	3456.69
487.081	3424.69
487.299	3334.69
487.517	3288.69
487.735	3358.69
487.953	3339.69
488.171	3306.69
488.389	3237.69
488.607	3243.69
488.825	3213.69
489.043	3190.69
489.261	3167.69
489.479	3237.69
489.696	3147.69
489.914	3233.69
490.132	3226.69
490.35	3227.69
490.568	3274.69
490.786	3270.69
491.003	3294.69
491.221	3339.69
491.439	3350.69
491.657	3356.69
491.874	3306.69
492.092	3352.69
492.31	3344.69
492.527	3314.69
492.745	3349.69
492.963	3384.69
493.18	3347.69
493.398	3355.69
493.615	3352.69
493.833	3395.69
494.05	3372.69
494.268	3372.69
494.485	3324.69
494.703	3390.69
494.92	3409.69
495.138	3349.69
495.355	3380.69
495.573	3394.69
495.79	3419.69
496.008	3426.69
496.225	3456.69
496.442	3521.69
496.66	3629.69
496.877	3736.69
497.094	3776.69
497.312	3653.69
497.529	3698.69
497.746	3704.69
497.963	3729.69
498.181	3832.69
498.398	3859.69
498.615	3979.69
498.832	4204.69
499.049	4361.69
499.267	4708.69
499.484	5048.69
499.701	4993.69
499.918	5121.69
500.135	5348.69
500.352	5596.69
500.569	5710.69
500.786	5735.69
501.003	5469.69
501.22	5228.69
501.437	4932.69
501.654	4654.69
501.871	4511.69
502.088	4347.69
502.305	4174.69
502.522	3980.69
502.739	3888.69
502.956	3799.69
503.172	3776.69
503.389	3649.69
503.606	3614.69
503.823	3569.69
504.04	3518.69
504.256	3493.69
504.473	3492.69
504.69	3471.69
504.907	3476.69
505.123	3397.69
505.34	3376.69
505.557	3200.69
505.773	3199.69
505.99	3216.69
506.207	3120.69
506.423	3066.69
506.64	3046.69
506.856	3043.69
507.073	2982.69
507.289	3005.69
507.506	2996.69
507.722	2921.69
507.939	2960.69
508.155	2936.69
508.372	2930.69
508.588	2882.69
508.805	2945.69
509.021	2900.69
509.238	2944.69
509.454	3157.69
509.67	3256.69
509.887	3126.69
510.103	3011.69
510.319	2965.69
510.536	2892.69
510.752	2882.69
510.968	2844.69
511.184	2837.69
511.401	2801.69
511.617	2797.69
511.833	2824.69
512.049	2786.69
512.265	2811.69
512.481	2751.69
512.698	2762.69
512.914	2823.69
513.13	2761.69
513.346	2794.69
513.562	2753.69
513.778	2795.69
513.994	2868.69
514.21	2958.69
514.426	3132.69
514.642	3314.69
514.858	2998.69
515.074	2882.69
515.29	2906.69
515.506	2844.69
515.721	2845.69
515.937	2888.69
516.153	2899.69
516.369	2914.69
516.585	2964.69
516.801	3028.69
517.016	3052.69
517.232	3113.69
517.448	3149.69
517.664	3213.69
517.879	3218.69
518.095	3204.69
518.311	3136.69
518.527	3182.69
518.742	3125.69
518.958	3133.69
519.173	3173.69
519.389	3044.69
519.605	2906.69
519.82	2880.69
520.036	2913.69
520.251	2838.69
520.467	2815.69
520.682	2774.69
520.898	2740.69
521.113	2710.69
521.329	2728.69
521.544	2740.69
521.76	2767.69
521.975	2757.69
522.19	2697.69
522.406	2729.69
522.621	2699.69
522.836	2708.69
523.052	2644.69
523.267	2685.69
523.482	2678.69
523.698	2659.69
523.913	2640.69
524.128	2698.69
524.343	2697.69
524.559	2663.69
524.774	2655.69
524.989	2636.69
525.204	2675.69
525.419	2637.69
525.634	2595.69
525.849	2674.69
526.064	2688.69
526.28	2611.69
526.495	2620.69
526.71	2641.69
526.925	2674.69
527.14	2641.69
527.355	2696.69
527.57	2665.69
527.785	2668.69
527.999	2710.69
528.214	2692.69
528.429	2784.69
528.644	2733.69
528.859	2815.69
529.074	2872.69
529.289	2898.69
529.503	2864.69
529.718	2887.69
529.933	2800.69
530.148	2816.69
530.363	2877.69
530.577	2796.69
530.792	2810.69
531.007	2867.69
531.221	2900.69
531.436	2936.69
531.651	2932.69
531.865	2952.69
532.08	3071.69
532.295	3147.69
532.509	3306.69
532.724	3342.69
532.938	3364.69
533.153	3544.69
533.367	3696.69
533.582	3900.69
533.796	3832.69
534.011	3684.69
534.225	3546.69
534.44	3410.69
534.654	3333.69
534.868	3271.69
535.083	3156.69
535.297	3179.69
535.511	3166.69
535.726	3004.69
535.94	3056.69
536.154	2940.69
536.369	2921.69
536.583	2858.69
536.797	2861.69
537.011	2815.69
537.225	2784.69
537.44	2819.69
537.654	2769.69
537.868	2738.69
538.082	2664.69
538.296	2712.69
538.51	2673.69
538.724	2710.69
538.938	2655.69
539.153	2664.69
539.367	2631.69
539.581	2598.69
539.795	2552.69
540.009	2553.69
540.222	2576.69
540.436	2516.69
540.65	2661.69
540.864	2599.69
541.078	2636.69
541.292	2794.69
541.506	3307.69
541.72	3456.69
541.934	3008.69
542.147	2773.69
542.361	2738.69
542.575	2595.69
542.789	2571.69
543.002	2564.69
543.216	2498.69
543.43	2434.69
543.644	2427.69
543.857	2460.69
544.071	2505.69
544.285	2500.69
544.498	2496.69
544.712	2483.69
544.925	2482.69
545.139	2482.69
545.352	2489.69
545.566	2491.69
545.779	2456.69
545.993	2481.69
546.206	2485.69
546.42	2500.69
546.633	2496.69
546.847	2477.69
547.06	2493.69
547.274	2506.69
547.487	2542.69
547.7	2497.69
547.914	2500.69
548.127	2518.69
548.34	2512.69
548.554	2483.69
548.767	2527.69
548.98	2534.69
549.193	2563.69
549.407	2502.69
549.62	2567.69
549.833	2550.69
550.046	2532.69
550.259	2469.69
550.473	2454.69
550.686	2537.69
550.899	2482.69
551.112	2518.69
551.325	2487.69
551.538	2485.69
551.751	2457.69
551.964	2535.69
552.177	2580.69
552.39	2616.69
552.603	2685.69
552.816	2665.69
553.029	2653.69
553.242	2715.69
553.455	2787.69
553.667	2782.69
553.88	2764.69
554.093	2799.69
554.306	2830.69
554.519	2848.69
554.732	2882.69
554.944	2892.69
555.157	2986.69
555.37	3044.69
555.583	3213.69
555.795	3386.69
556.008	3628.69
556.221	4070.69
556.433	4360.69
556.646	4310.69
556.859	4130.69
557.071	3911.69
557.284	3862.69
557.496	3669.69
557.709	3628.69
557.921	3665.69
558.134	3612.69
558.346	3646.69
558.559	3778.69
558.771	4016.69
558.984	4367.69
559.196	4735.69
559.409	4464.69
559.621	4160.69
559.833	3859.69
560.046	3666.69
560.258	3476.69
560.47	3269.69
560.683	3178.69
560.895	3058.69
561.107	2877.69
561.32	2896.69
561.532	2830.69
561.744	2785.69
561.956	2706.69
562.168	2616.69
562.381	2593.69
562.593	2658.69
562.805	2685.69
563.017	2695.69
563.229	2725.69
563.441	3190.69
563.653	2659.69
563.865	2409.69
564.077	2368.69
564.289	2358.69
564.501	2284.69
564.713	2317.69
564.925	2322.69
565.137	2318.69
565.349	2295.69
565.561	2292.69
565.773	2332.69
565.985	2386.69
566.197	2359.69
566.408	2460.69
566.62	2474.69
566.832	2560.69
567.044	2546.69
567.255	2603.69
567.467	2574.69
567.679	2672.69
567.891	2838.69
568.102	3074.69
568.314	3520.69
568.526	3090.69
568.737	2674.69
568.949	2429.69
569.161	2326.69
569.372	2244.69
569.584	2153.69
569.795	2133.69
570.007	2082.69
570.218	2157.69
570.43	2185.69
570.641	2052.69
570.853	1964.69
571.064	1994.69
571.276	1917.69
571.487	1925.69
571.698	1868.69
571.91	1897.69
572.121	1822.69
572.333	1822.69
572.544	1845.69
572.755	1993.69
572.966	2317.69
573.178	2112.69
573.389	1908.69
573.6	1782.69
573.811	1759.69
574.023	1756.69
574.234	1742.69
574.445	1727.69
574.656	1713.69
574.867	1670.69
575.078	1669.69
575.289	1723.69
575.501	1651.69
575.712	1620.69
575.923	1652.69
576.134	1672.69
576.345	1685.69
576.556	1677.69
576.767	1678.69
576.978	1692.69
577.188	1684.69
577.399	1732.69
577.61	1719.69
577.821	1696.69
578.032	1744.69
578.243	1755.69
578.454	1849.69
578.665	1870.69
578.875	1895.69
579.086	1971.69
579.297	2026.69
579.508	2157.69
579.718	2347.69
579.929	2698.69
580.14	3140.69
580.35	3216.69
580.561	2949.69
580.772	2644.69
580.982	2458.69
581.193	2263.69
581.403	2162.69
581.614	2068.69
581.825	1975.69
582.035	1881.69
582.246	1866.69
582.456	1784.69
582.667	1744.69
582.877	1734.69
583.087	1716.69
583.298	1632.69
583.508	1609.69
583.719	1579.69
583.929	1509.69
584.139	1473.69
584.35	1439.69
584.56	1440.69
584.77	1417.69
584.981	1409.69
585.191	1400.69
585.401	1376.69
585.611	1408.69
585.821	1353.69
586.032	1352.69
586.242	1325.69
586.452	1300.69
586.662	1300.69
586.872	1290.69
587.082	1280.69
587.292	1267.69
587.502	1256.69
587.713	1291.69
587.923	1228.69
588.133	1239.69
588.343	1241.69
588.553	1228.69
588.762	1170.69
588.972	1188.69
589.182	1236.69
589.392	1227.69
589.602	1188.69
589.812	1187.69
590.022	1188.69
590.232	1197.69
590.441	1158.69
590.651	1176.69
590.861	1149.69
591.071	1154.69
591.281	1154.69
591.49	1161.69
591.7	1160.69
591.91	1182.69
592.119	1159.69
592.329	1163.69
592.539	1172.69
592.748	1195.69
592.958	1200.69
593.167	1187.69
593.377	1204.69
593.587	1201.69
593.796	1219.69
594.006	1204.69
594.215	1215.69
594.424	1224.69
594.634	1154.69
594.843	1185.69
595.053	1147.69
595.262	1116.69
595.472	1123.69
595.681	1108.69
595.89	1092.69
596.1	1078.69
596.309	1035.69
596.518	1063.69
596.727	1029.69
596.937	1028.69
597.146	1031.69
597.355	1029.69
597.564	999.69
597.774	983.69
597.983	984.69
598.192	946.69
598.401	972.69
598.61	970.69
598.819	944.69
599.028	961.69
599.237	953.69
599.446	937.69
599.655	936.69
599.864	938.69
600.073	933.69
600.282	916.69
600.491	940.69
600.7	945.69
600.909	934.69
601.118	913.69
601.327	936.69
601.536	935.69
601.745	942.69
601.953	1065.69
602.162	1202.69
602.371	1028.69
602.58	970.69
602.789	941.69
602.997	933.69
603.206	911.69
603.415	897.69
603.623	916.69
603.832	922.69
604.041	918.69
604.249	894.69
604.458	874.69
604.666	875.69
604.875	863.69
605.084	863.69
605.292	861.69
605.501	868.69
605.709	918.69
605.918	897.69
606.126	918.69
606.334	891.69
606.543	919.69
606.751	981.69
606.96	1106.69
607.168	1210.69
607.376	1027.69
607.585	950.69
607.793	918.69
608.001	909.69
608.21	873.69
608.418	853.69
608.626	866.69
608.834	860.69
609.043	851.69
609.251	837.69
609.459	843.69
609.667	828.69
609.875	806.69
610.083	840.69
610.291	830.69
610.499	827.69
610.707	820.69
610.916	814.69
611.124	794.69
611.332	804.69
611.54	802.69
611.748	811.69
611.955	820.69
612.163	800.69
612.371	828.69
612.579	793.69
612.787	784.69
612.995	786.69
613.203	787.69
613.411	785.69
613.618	804.69
613.826	789.69
614.034	780.69
614.242	757.69
614.449	759.69
614.657	737.69
614.865	749.69
615.072	798.69
615.28	813.69
615.488	778.69
615.695	776.69
615.903	780.69
616.111	763.69
616.318	799.69
616.526	781.69
616.733	764.69
616.941	769.69
617.148	748.69
617.356	797.69
617.563	761.69
617.771	738.69
617.978	740.69
618.185	761.69
618.393	760.69
618.6	730.69
618.807	734.69
619.015	731.69
619.222	737.69
619.429	730.69
619.637	723.69
619.844	728.69
620.051	712.69
620.258	723.69
620.466	719.69
620.673	674.69
620.88	674.69
621.087	671.69
621.294	685.69
621.501	674.69
621.708	676.69
621.915	679.69
622.122	660.69
622.329	704.69
622.536	697.69
622.743	681.69
622.95	677.69
623.157	681.69
623.364	676.69
623.571	701.69
623.778	664.69
623.985	660.69
624.192	666.69
624.399	644.69
624.606	692.69
624.812	666.69
625.019	650.69
625.226	649.69
625.433	654.69
625.639	634.69
625.846	620.69
626.053	635.69
626.259	628.69
626.466	638.69
626.673	612.69
626.879	606.69
627.086	632.69
627.293	610.69
627.499	615.69
627.706	617.69
627.912	630.69
628.119	607.69
628.325	642.69
628.532	624.69
628.738	638.69
628.945	639.69
629.151	598.69
629.357	609.69
629.564	592.69
629.77	607.69
629.976	599.69
630.183	604.69
630.389	595.69
630.595	600.69
630.802	587.69
631.008	576.69
631.214	586.69
631.42	595.69
631.627	597.69
631.833	566.69
632.039	595.69
632.245	574.69
632.451	569.69
632.657	567.69
632.863	573.69
633.069	573.69
633.275	576.69
633.481	560.69
633.688	564.69
633.893	564.69
634.099	569.69
634.305	564.69
634.511	577.69
634.717	581.69
634.923	606.69
635.129	654.69
635.335	784.69
635.541	664.69
635.747	612.69
635.952	599.69
636.158	583.69
636.364	592.69
636.57	587.69
636.775	568.69
636.981	580.69
637.187	573.69
637.392	556.69
637.598	572.69
637.804	587.69
638.009	571.69
638.215	587.69
638.421	584.69
638.626	585.69
638.832	584.69
639.037	570.69
639.243	564.69
639.448	574.69
639.654	583.69
639.859	595.69
640.065	589.69
640.27	596.69
640.475	610.69
640.681	594.69
640.886	613.69
641.091	613.69
641.297	603.69
641.502	610.69
641.707	630.69
641.913	634.69
642.118	624.69
642.323	644.69
642.528	670.69
642.733	676.69
642.939	701.69
643.144	718.69
643.349	728.69
643.554	770.69
643.759	786.69
643.964	834.69
644.169	870.69
644.374	944.69
644.579	1016.69
644.784	1102.69
644.989	1269.69
645.194	1500.69
645.399	1837.69
645.604	1951.69
645.809	1435.69
646.014	1155.69
646.219	942.69
646.423	836.69
646.628	754.69
646.833	698.69
647.038	666.69
647.243	662.69
647.447	615.69
647.652	597.69
647.857	578.69
648.062	584.69
648.266	551.69
648.471	554.69
648.676	572.69
648.88	546.69
649.085	516.69
649.289	492.69
649.494	499.69
649.698	510.69
649.903	478.69
650.107	496.69
650.312	478.69
650.516	472.69
650.721	464.69
650.925	441.69
651.13	451.69
651.334	444.69
651.539	426.69
651.743	417.69
651.947	454.69
652.152	428.69
652.356	423.69
652.56	470.69
652.764	473.69
652.969	457.69
653.173	420.69
653.377	391.69
653.581	370.69
653.785	368.69
653.99	385.69
654.194	359.69
654.398	352.69
654.602	368.69
654.806	335.69
655.01	329.69
655.214	348.69
655.418	332.69
655.622	347.69
655.826	349.69
656.03	354.69
656.234	375.69
656.438	388.69
656.642	358.69
656.846	356.69
657.049	348.69
657.253	317.69
657.457	289.69
657.661	269.69
657.865	279.69
658.068	258.69
658.272	261.69
658.476	228.69
658.68	225.69
658.883	204.69
659.087	208.69
659.291	209.69
659.494	172.69
659.698	179.69
659.901	184.69
660.105	167.69
660.309	172.69
660.512	152.69
660.716	156.69
660.919	144.69
661.123	145.69
661.326	128.69
661.53	142.69
661.733	129.69
661.936	132.69
662.14	120.69
662.343	123.69
662.546	124.69
662.75	106.69
662.953	112.69
663.156	104.69
663.36	99.69
663.563	94.69
663.766	113.69
663.969	98.69
664.173	84.69
664.376	92.69
664.579	99.69
664.782	104.69
664.985	94.69
665.188	89.69
665.391	96.69
665.594	100.69
665.797	79.69
666	83.69
666.203	86.69
666.406	92.69
666.609	98.69
666.812	96.69
667.015	88.69
667.218	80.69
667.421	100.69
667.624	88.69
667.827	84.69
668.03	76.69
668.232	73.69
668.435	81.69
668.638	88.69
668.841	88.69
669.043	87.69
669.246	68.69
669.449	86.69
669.651	95.69
669.854	94.69
670.057	82.69
670.259	90.69
670.462	75.69
670.665	80.69
670.867	98.69
671.07	89.69
671.272	92.69
671.475	88.69
671.677	74.69
671.88	93.69
672.082	86.69
672.284	88.69
672.487	75.69
672.689	79.69
672.892	85.69
