Data from SnStandardFlinnAPT0064_LampEnergy5.5_LIBS07252019.E.O._I.C._HRD10591_15-15-31-491.txt Node
Date: Thu Jul 25 15:15:31 EDT 2019
User: cochatt
Spectrometer: HR+D1059
Trigger mode: 1
Integration Time (sec): 1.000000E-1
Scans to average: 1
Electric dark correction enabled: true
Nonlinearity correction enabled: false
Boxcar width: 0
XAxis mode: Wavelengths
Number of Pixels in Spectrum: 2048
>>>>>Begin Spectral Data<<<<<
223.165	-12.88
223.4	-12.88
223.635	-12.88
223.869	-17.88
224.104	-12.88
224.338	-12.88
224.573	-24.88
224.808	-25.88
225.042	8.12
225.277	-17.88
225.511	5.12
225.746	1.12
225.98	4.12
226.215	11.12
226.449	13.12
226.683	14.12
226.918	36.12
227.152	32.12
227.387	34.12
227.621	51.12
227.856	34.12
228.09	35.12
228.324	47.12
228.559	51.12
228.793	76.12
229.027	128.12
229.262	151.12
229.496	138.12
229.73	159.12
229.964	148.12
230.199	145.12
230.433	148.12
230.667	169.12
230.901	177.12
231.136	162.12
231.37	177.12
231.604	183.12
231.838	195.12
232.072	191.12
232.306	239.12
232.541	201.12
232.775	196.12
233.009	203.12
233.243	201.12
233.477	217.12
233.711	231.12
233.945	236.12
234.179	223.12
234.413	190.12
234.647	207.12
234.881	212.12
235.115	242.12
235.349	267.12
235.583	328.12
235.817	382.12
236.051	389.12
236.285	291.12
236.519	234.12
236.753	231.12
236.987	215.12
237.221	251.12
237.455	223.12
237.689	220.12
237.922	217.12
238.156	201.12
238.39	222.12
238.624	222.12
238.858	224.12
239.091	212.12
239.325	219.12
239.559	221.12
239.793	209.12
240.027	239.12
240.26	232.12
240.494	243.12
240.728	243.12
240.961	235.12
241.195	276.12
241.429	300.12
241.662	290.12
241.896	325.12
242.13	366.12
242.363	461.12
242.597	539.12
242.83	539.12
243.064	540.12
243.298	658.12
243.531	549.12
243.765	374.12
243.998	321.12
244.232	295.12
244.465	301.12
244.699	284.12
244.932	284.12
245.166	296.12
245.399	291.12
245.633	289.12
245.866	297.12
246.099	297.12
246.333	293.12
246.566	295.12
246.8	272.12
247.033	302.12
247.266	289.12
247.5	281.12
247.733	284.12
247.966	314.12
248.2	326.12
248.433	339.12
248.666	364.12
248.899	345.12
249.133	340.12
249.366	340.12
249.599	364.12
249.832	390.12
250.066	394.12
250.299	345.12
250.532	329.12
250.765	324.12
250.998	333.12
251.231	325.12
251.465	337.12
251.698	325.12
251.931	320.12
252.164	318.12
252.397	316.12
252.63	341.12
252.863	317.12
253.096	331.12
253.329	339.12
253.562	321.12
253.795	348.12
254.028	325.12
254.261	351.12
254.494	366.12
254.727	413.12
254.96	464.12
255.193	455.12
255.426	385.12
255.659	381.12
255.892	380.12
256.124	374.12
256.357	367.12
256.59	354.12
256.823	383.12
257.056	434.12
257.289	481.12
257.521	507.12
257.754	483.12
257.987	407.12
258.22	384.12
258.452	377.12
258.685	379.12
258.918	395.12
259.151	389.12
259.383	422.12
259.616	470.12
259.849	487.12
260.081	431.12
260.314	416.12
260.547	393.12
260.779	381.12
261.012	402.12
261.244	419.12
261.477	435.12
261.71	422.12
261.942	424.12
262.175	439.12
262.407	441.12
262.64	445.12
262.872	455.12
263.105	479.12
263.337	496.12
263.57	534.12
263.802	568.12
264.035	540.12
264.267	564.12
264.499	587.12
264.732	589.12
264.964	595.12
265.197	604.12
265.429	599.12
265.661	598.12
265.894	635.12
266.126	684.12
266.358	777.12
266.591	717.12
266.823	654.12
267.055	589.12
267.287	594.12
267.52	559.12
267.752	536.12
267.984	533.12
268.216	547.12
268.448	551.12
268.681	551.12
268.913	492.12
269.145	499.12
269.377	521.12
269.609	529.12
269.841	520.12
270.073	553.12
270.306	619.12
270.538	781.12
270.77	1128.12
271.002	1323.12
271.234	986.12
271.466	697.12
271.698	606.12
271.93	574.12
272.162	532.12
272.394	551.12
272.626	525.12
272.858	536.12
273.09	520.12
273.322	499.12
273.553	506.12
273.785	503.12
274.017	486.12
274.249	515.12
274.481	499.12
274.713	503.12
274.945	519.12
275.176	492.12
275.408	507.12
275.64	505.12
275.872	527.12
276.104	524.12
276.335	537.12
276.567	533.12
276.799	513.12
277.031	539.12
277.262	533.12
277.494	561.12
277.726	584.12
277.957	666.12
278.189	719.12
278.421	697.12
278.652	638.12
278.884	612.12
279.115	588.12
279.347	575.12
279.579	573.12
279.81	555.12
280.042	567.12
280.273	576.12
280.505	585.12
280.736	583.12
280.968	584.12
281.199	661.12
281.431	748.12
281.662	741.12
281.894	677.12
282.125	636.12
282.356	637.12
282.588	648.12
282.819	684.12
283.051	699.12
283.282	763.12
283.513	890.12
283.745	1258.12
283.976	1929.12
284.207	2719.12
284.439	2441.12
284.67	1545.12
284.901	1261.12
285.132	1204.12
285.364	1170.12
285.595	943.12
285.826	892.12
286.057	1040.12
286.288	1331.12
286.52	1732.12
286.751	1605.12
286.982	1102.12
287.213	855.12
287.444	785.12
287.675	735.12
287.906	684.12
288.138	698.12
288.369	675.12
288.6	663.12
288.831	671.12
289.062	672.12
289.293	673.12
289.524	682.12
289.755	681.12
289.986	680.12
290.217	673.12
290.448	676.12
290.679	690.12
290.91	679.12
291.141	693.12
291.371	746.12
291.602	752.12
291.833	702.12
292.064	674.12
292.295	684.12
292.526	664.12
292.757	643.12
292.987	628.12
293.218	626.12
293.449	642.12
293.68	650.12
293.91	641.12
294.141	651.12
294.372	620.12
294.603	629.12
294.833	646.12
295.064	621.12
295.295	647.12
295.525	634.12
295.756	645.12
295.987	641.12
296.217	658.12
296.448	653.12
296.679	645.12
296.909	640.12
297.14	653.12
297.37	652.12
297.601	655.12
297.831	643.12
298.062	648.12
298.292	671.12
298.523	672.12
298.753	695.12
298.984	696.12
299.214	688.12
299.445	683.12
299.675	712.12
299.905	724.12
300.136	778.12
300.366	816.12
300.597	989.12
300.827	1334.12
301.057	1712.12
301.288	1699.12
301.518	1188.12
301.748	922.12
301.979	891.12
302.209	864.12
302.439	878.12
302.669	918.12
302.9	1043.12
303.13	1366.12
303.36	1912.12
303.59	2595.12
303.82	2290.12
304.051	1395.12
304.281	1071.12
304.511	936.12
304.741	855.12
304.971	819.12
305.201	800.12
305.431	769.12
305.661	777.12
305.891	760.12
306.121	749.12
306.352	757.12
306.582	730.12
306.812	718.12
307.042	748.12
307.272	751.12
307.502	769.12
307.731	744.12
307.961	728.12
308.191	720.12
308.421	717.12
308.651	732.12
308.881	725.12
309.111	732.12
309.341	748.12
309.571	745.12
309.8	739.12
310.03	764.12
310.26	785.12
310.49	769.12
310.72	754.12
310.949	760.12
311.179	722.12
311.409	757.12
311.639	746.12
311.868	791.12
312.098	777.12
312.328	782.12
312.557	817.12
312.787	786.12
313.017	780.12
313.246	799.12
313.476	810.12
313.706	820.12
313.935	844.12
314.165	872.12
314.394	895.12
314.624	881.12
314.853	850.12
315.083	838.12
315.312	844.12
315.542	860.12
315.771	879.12
316.001	892.12
316.23	908.12
316.46	941.12
316.689	983.12
316.919	1149.12
317.148	1576.12
317.377	2398.12
317.607	3383.12
317.836	3511.12
318.065	2140.12
318.295	1469.12
318.524	1217.12
318.753	1071.12
318.983	1036.12
319.212	988.12
319.441	953.12
319.67	977.12
319.9	936.12
320.129	916.12
320.358	937.12
320.587	919.12
320.816	921.12
321.046	915.12
321.275	932.12
321.504	925.12
321.733	963.12
321.962	955.12
322.191	977.12
322.42	989.12
322.649	978.12
322.878	955.12
323.108	964.12
323.337	962.12
323.566	1017.12
323.795	1042.12
324.024	1043.12
324.253	1067.12
324.482	1085.12
324.71	1136.12
324.939	1175.12
325.168	1202.12
325.397	1239.12
325.626	1440.12
325.855	1891.12
326.084	2844.12
326.313	4212.12
326.542	4512.12
326.77	2931.12
326.999	2042.12
327.228	1702.12
327.457	1657.12
327.686	1722.12
327.914	1787.12
328.143	2059.12
328.372	2353.12
328.6	2538.12
328.829	2365.12
329.058	2069.12
329.287	1917.12
329.515	1732.12
329.744	1585.12
329.972	1552.12
330.201	1492.12
330.43	1445.12
330.658	1379.12
330.887	1359.12
331.115	1365.12
331.344	1338.12
331.572	1337.12
331.801	1337.12
332.03	1371.12
332.258	1374.12
332.486	1396.12
332.715	1591.12
332.943	1830.12
333.172	2184.12
333.4	2137.12
333.629	1765.12
333.857	1663.12
334.085	1672.12
334.314	1749.12
334.542	1900.12
334.771	2153.12
334.999	2534.12
335.227	3041.12
335.455	3351.12
335.684	3179.12
335.912	2729.12
336.14	2391.12
336.369	2095.12
336.597	1984.12
336.825	1873.12
337.053	1677.12
337.281	1627.12
337.51	1531.12
337.738	1502.12
337.966	1427.12
338.194	1420.12
338.422	1367.12
338.65	1380.12
338.878	1304.12
339.106	1291.12
339.334	1264.12
339.562	1260.12
339.79	1205.12
340.018	1202.12
340.246	1223.12
340.474	1215.12
340.702	1212.12
340.93	1185.12
341.158	1183.12
341.386	1195.12
341.614	1172.12
341.842	1153.12
342.07	1126.12
342.298	1106.12
342.526	1106.12
342.754	1125.12
342.981	1069.12
343.209	1101.12
343.437	1088.12
343.665	1130.12
343.893	1149.12
344.12	1132.12
344.348	1096.12
344.576	1105.12
344.804	1093.12
345.031	1098.12
345.259	1065.12
345.487	1029.12
345.714	1056.12
345.942	1003.12
346.17	1051.12
346.397	1035.12
346.625	1043.12
346.853	988.12
347.08	994.12
347.308	1012.12
347.535	993.12
347.763	1036.12
347.99	990.12
348.218	961.12
348.445	984.12
348.673	984.12
348.9	1024.12
349.128	972.12
349.355	988.12
349.583	985.12
349.81	973.12
350.037	978.12
350.265	953.12
350.492	986.12
350.72	960.12
350.947	981.12
351.174	992.12
351.402	977.12
351.629	979.12
351.856	962.12
352.083	988.12
352.311	983.12
352.538	940.12
352.765	994.12
352.992	968.12
353.22	984.12
353.447	985.12
353.674	976.12
353.901	982.12
354.128	971.12
354.355	971.12
354.583	967.12
354.81	977.12
355.037	972.12
355.264	978.12
355.491	982.12
355.718	999.12
355.945	979.12
356.172	998.12
356.399	1013.12
356.626	1021.12
356.853	1007.12
357.08	1007.12
357.307	989.12
357.534	1040.12
357.761	1042.12
357.988	1029.12
358.215	1063.12
358.441	1041.12
358.668	1025.12
358.895	1025.12
359.122	1041.12
359.349	1043.12
359.576	1019.12
359.802	1027.12
360.029	1060.12
360.256	1030.12
360.483	1018.12
360.709	1044.12
360.936	1041.12
361.163	1044.12
361.39	1025.12
361.616	1031.12
361.843	1033.12
362.07	1035.12
362.296	1031.12
362.523	1035.12
362.749	1053.12
362.976	1040.12
363.203	1030.12
363.429	1030.12
363.656	1042.12
363.882	1045.12
364.109	1039.12
364.335	1027.12
364.562	1021.12
364.788	1029.12
365.015	1026.12
365.241	1066.12
365.468	1082.12
365.694	1119.12
365.92	1105.12
366.147	1035.12
366.373	1040.12
366.599	1089.12
366.826	1010.12
367.052	1037.12
367.278	1050.12
367.505	1065.12
367.731	1051.12
367.957	1046.12
368.184	1083.12
368.41	1063.12
368.636	1113.12
368.862	1055.12
369.089	1096.12
369.315	1073.12
369.541	1066.12
369.767	1102.12
369.993	1085.12
370.219	1056.12
370.445	1060.12
370.672	1073.12
370.898	1101.12
371.124	1127.12
371.35	1093.12
371.576	1104.12
371.802	1140.12
372.028	1118.12
372.254	1096.12
372.48	1115.12
372.706	1141.12
372.932	1117.12
373.158	1146.12
373.384	1123.12
373.61	1124.12
373.835	1156.12
374.061	1124.12
374.287	1124.12
374.513	1155.12
374.739	1208.12
374.965	1175.12
375.191	1181.12
375.416	1185.12
375.642	1205.12
375.868	1158.12
376.094	1159.12
376.319	1123.12
376.545	1137.12
376.771	1123.12
376.997	1123.12
377.222	1124.12
377.448	1143.12
377.674	1097.12
377.899	1099.12
378.125	1108.12
378.35	1105.12
378.576	1118.12
378.802	1125.12
379.027	1140.12
379.253	1193.12
379.478	1201.12
379.704	1335.12
379.929	1818.12
380.155	2541.12
380.38	2710.12
380.606	1780.12
380.831	1388.12
381.057	1223.12
381.282	1201.12
381.507	1143.12
381.733	1107.12
381.958	1086.12
382.184	1164.12
382.409	1084.12
382.634	1087.12
382.86	1107.12
383.085	1082.12
383.31	1107.12
383.535	1125.12
383.761	1110.12
383.986	1122.12
384.211	1129.12
384.436	1149.12
384.662	1129.12
384.887	1137.12
385.112	1109.12
385.337	1149.12
385.562	1143.12
385.787	1127.12
386.013	1140.12
386.238	1171.12
386.463	1145.12
386.688	1146.12
386.913	1135.12
387.138	1164.12
387.363	1167.12
387.588	1123.12
387.813	1143.12
388.038	1112.12
388.263	1136.12
388.488	1173.12
388.713	1163.12
388.938	1148.12
389.163	1116.12
389.387	1139.12
389.612	1136.12
389.837	1142.12
390.062	1155.12
390.287	1146.12
390.512	1166.12
390.736	1193.12
390.961	1187.12
391.186	1202.12
391.411	1172.12
391.636	1211.12
391.86	1215.12
392.085	1201.12
392.31	1218.12
392.534	1174.12
392.759	1156.12
392.984	1195.12
393.208	1152.12
393.433	1153.12
393.658	1128.12
393.882	1165.12
394.107	1169.12
394.331	1155.12
394.556	1139.12
394.78	1171.12
395.005	1173.12
395.229	1177.12
395.454	1203.12
395.678	1184.12
395.903	1149.12
396.127	1153.12
396.352	1153.12
396.576	1186.12
396.801	1194.12
397.025	1184.12
397.249	1207.12
397.474	1206.12
397.698	1192.12
397.922	1220.12
398.147	1195.12
398.371	1227.12
398.595	1274.12
398.82	1261.12
399.044	1315.12
399.268	1395.12
399.492	1469.12
399.717	1529.12
399.941	1541.12
400.165	1474.12
400.389	1420.12
400.613	1366.12
400.837	1344.12
401.062	1307.12
401.286	1323.12
401.51	1274.12
401.734	1250.12
401.958	1313.12
402.182	1257.12
402.406	1270.12
402.63	1261.12
402.854	1298.12
403.078	1287.12
403.302	1303.12
403.526	1304.12
403.75	1299.12
403.974	1317.12
404.198	1307.12
404.422	1343.12
404.645	1334.12
404.869	1349.12
405.093	1315.12
405.317	1306.12
405.541	1336.12
405.765	1361.12
405.988	1359.12
406.212	1353.12
406.436	1360.12
406.66	1383.12
406.883	1370.12
407.107	1380.12
407.331	1437.12
407.555	1450.12
407.778	1424.12
408.002	1436.12
408.226	1415.12
408.449	1421.12
408.673	1372.12
408.896	1347.12
409.12	1337.12
409.344	1335.12
409.567	1311.12
409.791	1331.12
410.014	1313.12
410.238	1288.12
410.461	1329.12
410.685	1272.12
410.908	1274.12
411.132	1291.12
411.355	1249.12
411.578	1262.12
411.802	1290.12
412.025	1283.12
412.249	1295.12
412.472	1279.12
412.695	1267.12
412.919	1270.12
413.142	1270.12
413.365	1246.12
413.589	1250.12
413.812	1223.12
414.035	1258.12
414.258	1270.12
414.482	1261.12
414.705	1223.12
414.928	1224.12
415.151	1299.12
415.374	1251.12
415.597	1224.12
415.821	1212.12
416.044	1201.12
416.267	1201.12
416.49	1193.12
416.713	1189.12
416.936	1219.12
417.159	1188.12
417.382	1221.12
417.605	1155.12
417.828	1199.12
418.051	1191.12
418.274	1207.12
418.497	1201.12
418.72	1226.12
418.943	1226.12
419.166	1257.12
419.389	1337.12
419.611	1301.12
419.834	1282.12
420.057	1291.12
420.28	1235.12
420.503	1202.12
420.726	1219.12
420.948	1202.12
421.171	1218.12
421.394	1198.12
421.617	1212.12
421.839	1208.12
422.062	1209.12
422.285	1199.12
422.507	1225.12
422.73	1207.12
422.953	1242.12
423.175	1235.12
423.398	1213.12
423.621	1227.12
423.843	1243.12
424.066	1219.12
424.288	1219.12
424.511	1230.12
424.733	1169.12
424.956	1219.12
425.178	1207.12
425.401	1195.12
425.623	1183.12
425.846	1165.12
426.068	1153.12
426.291	1164.12
426.513	1185.12
426.735	1157.12
426.958	1147.12
427.18	1143.12
427.402	1132.12
427.625	1171.12
427.847	1083.12
428.069	1133.12
428.292	1146.12
428.514	1106.12
428.736	1111.12
428.958	1125.12
429.181	1075.12
429.403	1099.12
429.625	1105.12
429.847	1083.12
430.069	1131.12
430.292	1155.12
430.514	1167.12
430.736	1178.12
430.958	1140.12
431.18	1111.12
431.402	1129.12
431.624	1104.12
431.846	1087.12
432.068	1090.12
432.29	1096.12
432.512	1087.12
432.734	1120.12
432.956	1126.12
433.178	1091.12
433.4	1114.12
433.622	1121.12
433.844	1148.12
434.066	1124.12
434.287	1097.12
434.509	1106.12
434.731	1129.12
434.953	1128.12
435.175	1154.12
435.397	1173.12
435.618	1122.12
435.84	1077.12
436.062	1079.12
436.284	1078.12
436.505	1107.12
436.727	1098.12
436.949	1138.12
437.17	1093.12
437.392	1112.12
437.614	1088.12
437.835	1051.12
438.057	1049.12
438.278	1057.12
438.5	1047.12
438.721	1108.12
438.943	1109.12
439.165	1116.12
439.386	1100.12
439.608	1166.12
439.829	1171.12
440.05	1178.12
440.272	1169.12
440.493	1145.12
440.715	1143.12
440.936	1124.12
441.158	1180.12
441.379	1175.12
441.6	1228.12
441.822	1199.12
442.043	1253.12
442.264	1280.12
442.486	1269.12
442.707	1202.12
442.928	1203.12
443.149	1211.12
443.371	1180.12
443.592	1192.12
443.813	1171.12
444.034	1236.12
444.255	1244.12
444.476	1258.12
444.698	1266.12
444.919	1300.12
445.14	1348.12
445.361	1253.12
445.582	1220.12
445.803	1211.12
446.024	1213.12
446.245	1206.12
446.466	1192.12
446.687	1165.12
446.908	1176.12
447.129	1135.12
447.35	1147.12
447.571	1120.12
447.792	1079.12
448.013	1102.12
448.234	1086.12
448.455	1074.12
448.675	1113.12
448.896	1127.12
449.117	1154.12
449.338	1233.12
449.559	1247.12
449.779	1130.12
450	1097.12
450.221	1108.12
450.442	1059.12
450.662	1041.12
450.883	1053.12
451.104	1073.12
451.324	1060.12
451.545	1091.12
451.766	1072.12
451.986	1067.12
452.207	1135.12
452.428	1271.12
452.648	1716.12
452.869	1531.12
453.089	1161.12
453.31	1113.12
453.53	1167.12
453.751	1189.12
453.971	1249.12
454.192	1230.12
454.412	1107.12
454.633	1032.12
454.853	1025.12
455.073	1011.12
455.294	1037.12
455.514	1027.12
455.734	1015.12
455.955	990.12
456.175	1022.12
456.395	968.12
456.616	1031.12
456.836	1040.12
457.056	1027.12
457.276	1011.12
457.497	1091.12
457.717	1055.12
457.937	1052.12
458.157	1049.12
458.377	1068.12
458.598	1058.12
458.818	1039.12
459.038	1066.12
459.258	1093.12
459.478	1073.12
459.698	1122.12
459.918	1131.12
460.138	1170.12
460.358	1160.12
460.578	1174.12
460.798	1192.12
461.018	1212.12
461.238	1175.12
461.458	1187.12
461.678	1201.12
461.898	1240.12
462.118	1209.12
462.338	1284.12
462.558	1265.12
462.777	1309.12
462.997	1349.12
463.217	1380.12
463.437	1421.12
463.657	1391.12
463.876	1375.12
464.096	1359.12
464.316	1281.12
464.536	1308.12
464.755	1321.12
464.975	1252.12
465.195	1212.12
465.414	1180.12
465.634	1126.12
465.854	1137.12
466.073	1160.12
466.293	1120.12
466.512	1114.12
466.732	1124.12
466.951	1168.12
467.171	1195.12
467.391	1215.12
467.61	1095.12
467.829	1103.12
468.049	1145.12
468.268	1087.12
468.488	1075.12
468.707	1075.12
468.927	1086.12
469.146	1065.12
469.365	1100.12
469.585	1119.12
469.804	1105.12
470.023	1128.12
470.243	1170.12
470.462	1184.12
470.681	1206.12
470.901	1315.12
471.12	1469.12
471.339	1493.12
471.558	1234.12
471.777	1197.12
471.997	1124.12
472.216	1118.12
472.435	1080.12
472.654	1087.12
472.873	1083.12
473.092	1094.12
473.311	1109.12
473.53	1138.12
473.749	1117.12
473.968	1154.12
474.187	1101.12
474.406	1076.12
474.625	1080.12
474.844	1114.12
475.063	1111.12
475.282	1085.12
475.501	1083.12
475.72	1099.12
475.939	1103.12
476.158	1133.12
476.377	1169.12
476.596	1130.12
476.814	1147.12
477.033	1172.12
477.252	1149.12
477.471	1164.12
477.69	1227.12
477.908	1230.12
478.127	1239.12
478.346	1241.12
478.564	1307.12
478.783	1292.12
479.002	1323.12
479.22	1312.12
479.439	1311.12
479.658	1286.12
479.876	1291.12
480.095	1308.12
480.313	1349.12
480.532	1325.12
480.751	1314.12
480.969	1314.12
481.188	1277.12
481.406	1274.12
481.624	1286.12
481.843	1283.12
482.061	1289.12
482.28	1300.12
482.498	1263.12
482.717	1306.12
482.935	1301.12
483.153	1347.12
483.372	1334.12
483.59	1354.12
483.808	1375.12
484.027	1382.12
484.245	1443.12
484.463	1581.12
484.681	1733.12
484.9	1574.12
485.118	1509.12
485.336	1461.12
485.554	1544.12
485.772	1606.12
485.99	1766.12
486.209	1874.12
486.427	1601.12
486.645	1487.12
486.863	1451.12
487.081	1421.12
487.299	1378.12
487.517	1400.12
487.735	1386.12
487.953	1403.12
488.171	1417.12
488.389	1403.12
488.607	1367.12
488.825	1347.12
489.043	1368.12
489.261	1321.12
489.479	1356.12
489.696	1345.12
489.914	1346.12
490.132	1350.12
490.35	1379.12
490.568	1356.12
490.786	1428.12
491.003	1404.12
491.221	1433.12
491.439	1446.12
491.657	1443.12
491.874	1464.12
492.092	1459.12
492.31	1494.12
492.527	1491.12
492.745	1515.12
492.963	1467.12
493.18	1466.12
493.398	1453.12
493.615	1477.12
493.833	1467.12
494.05	1449.12
494.268	1443.12
494.485	1428.12
494.703	1449.12
494.92	1441.12
495.138	1464.12
495.355	1451.12
495.573	1448.12
495.79	1487.12
496.008	1502.12
496.225	1463.12
496.442	1457.12
496.66	1500.12
496.877	1575.12
497.094	1567.12
497.312	1536.12
497.529	1505.12
497.746	1546.12
497.963	1581.12
498.181	1607.12
498.398	1627.12
498.615	1691.12
498.832	1748.12
499.049	1821.12
499.267	1944.12
499.484	2106.12
499.701	2126.12
499.918	2164.12
500.135	2324.12
500.352	2450.12
500.569	2519.12
500.786	2450.12
501.003	2383.12
501.22	2233.12
501.437	2130.12
501.654	1994.12
501.871	1887.12
502.088	1847.12
502.305	1760.12
502.522	1730.12
502.739	1653.12
502.956	1643.12
503.172	1589.12
503.389	1569.12
503.606	1530.12
503.823	1479.12
504.04	1528.12
504.256	1495.12
504.473	1444.12
504.69	1483.12
504.907	1479.12
505.123	1445.12
505.34	1384.12
505.557	1379.12
505.773	1379.12
505.99	1346.12
506.207	1321.12
506.423	1315.12
506.64	1290.12
506.856	1299.12
507.073	1316.12
507.289	1303.12
507.506	1264.12
507.722	1260.12
507.939	1229.12
508.155	1227.12
508.372	1236.12
508.588	1228.12
508.805	1241.12
509.021	1236.12
509.238	1255.12
509.454	1286.12
509.67	1347.12
509.887	1283.12
510.103	1233.12
510.319	1199.12
510.536	1221.12
510.752	1225.12
510.968	1194.12
511.184	1184.12
511.401	1185.12
511.617	1184.12
511.833	1169.12
512.049	1166.12
512.265	1168.12
512.481	1172.12
512.698	1176.12
512.914	1193.12
513.13	1157.12
513.346	1178.12
513.562	1192.12
513.778	1194.12
513.994	1180.12
514.21	1190.12
514.426	1234.12
514.642	1279.12
514.858	1215.12
515.074	1219.12
515.29	1179.12
515.506	1189.12
515.721	1218.12
515.937	1215.12
516.153	1204.12
516.369	1227.12
516.585	1229.12
516.801	1229.12
517.016	1277.12
517.232	1317.12
517.448	1331.12
517.664	1343.12
517.879	1361.12
518.095	1311.12
518.311	1307.12
518.527	1288.12
518.742	1303.12
518.958	1285.12
519.173	1315.12
519.389	1277.12
519.605	1244.12
519.82	1216.12
520.036	1236.12
520.251	1173.12
520.467	1158.12
520.682	1187.12
520.898	1132.12
521.113	1142.12
521.329	1189.12
521.544	1151.12
521.76	1144.12
521.975	1169.12
522.19	1157.12
522.406	1164.12
522.621	1151.12
522.836	1141.12
523.052	1144.12
523.267	1118.12
523.482	1125.12
523.698	1119.12
523.913	1107.12
524.128	1132.12
524.343	1139.12
524.559	1126.12
524.774	1123.12
524.989	1138.12
525.204	1167.12
525.419	1136.12
525.634	1116.12
525.849	1167.12
526.064	1144.12
526.28	1124.12
526.495	1141.12
526.71	1130.12
526.925	1113.12
527.14	1100.12
527.355	1114.12
527.57	1130.12
527.785	1124.12
527.999	1129.12
528.214	1148.12
528.429	1167.12
528.644	1172.12
528.859	1202.12
529.074	1219.12
529.289	1248.12
529.503	1241.12
529.718	1228.12
529.933	1207.12
530.148	1194.12
530.363	1189.12
530.577	1192.12
530.792	1188.12
531.007	1216.12
531.221	1236.12
531.436	1252.12
531.651	1226.12
531.865	1216.12
532.08	1257.12
532.295	1244.12
532.509	1343.12
532.724	1304.12
532.938	1333.12
533.153	1348.12
533.367	1427.12
533.582	1477.12
533.796	1484.12
534.011	1429.12
534.225	1392.12
534.44	1346.12
534.654	1346.12
534.868	1299.12
535.083	1300.12
535.297	1288.12
535.511	1264.12
535.726	1243.12
535.94	1234.12
536.154	1229.12
536.369	1183.12
536.583	1184.12
536.797	1168.12
537.011	1162.12
537.225	1148.12
537.44	1168.12
537.654	1175.12
537.868	1129.12
538.082	1138.12
538.296	1130.12
538.51	1140.12
538.724	1128.12
538.938	1108.12
539.153	1125.12
539.367	1153.12
539.581	1140.12
539.795	1088.12
540.009	1107.12
540.222	1083.12
540.436	1089.12
540.65	1087.12
540.864	1130.12
541.078	1119.12
541.292	1139.12
541.506	1340.12
541.72	1423.12
541.934	1273.12
542.147	1236.12
542.361	1172.12
542.575	1124.12
542.789	1116.12
543.002	1071.12
543.216	1047.12
543.43	1068.12
543.644	1024.12
543.857	1067.12
544.071	1097.12
544.285	1077.12
544.498	1110.12
544.712	1097.12
544.925	1143.12
545.139	1110.12
545.352	1125.12
545.566	1117.12
545.779	1088.12
545.993	1108.12
546.206	1120.12
546.42	1100.12
546.633	1085.12
546.847	1115.12
547.06	1074.12
547.274	1127.12
547.487	1122.12
547.7	1117.12
547.914	1098.12
548.127	1119.12
548.34	1116.12
548.554	1111.12
548.767	1103.12
548.98	1108.12
549.193	1100.12
549.407	1098.12
549.62	1133.12
549.833	1120.12
550.046	1135.12
550.259	1097.12
550.473	1099.12
550.686	1111.12
550.899	1108.12
551.112	1094.12
551.325	1097.12
551.538	1077.12
551.751	1060.12
551.964	1087.12
552.177	1092.12
552.39	1132.12
552.603	1116.12
552.816	1182.12
553.029	1177.12
553.242	1182.12
553.455	1185.12
553.667	1197.12
553.88	1229.12
554.093	1215.12
554.306	1220.12
554.519	1216.12
554.732	1240.12
554.944	1233.12
555.157	1286.12
555.37	1286.12
555.583	1331.12
555.795	1389.12
556.008	1430.12
556.221	1527.12
556.433	1548.12
556.646	1557.12
556.859	1531.12
557.071	1519.12
557.284	1491.12
557.496	1488.12
557.709	1435.12
557.921	1487.12
558.134	1464.12
558.346	1445.12
558.559	1523.12
558.771	1556.12
558.984	1647.12
559.196	1673.12
559.409	1704.12
559.621	1597.12
559.833	1487.12
560.046	1455.12
560.258	1398.12
560.47	1362.12
560.683	1324.12
560.895	1256.12
561.107	1243.12
561.32	1211.12
561.532	1185.12
561.744	1180.12
561.956	1137.12
562.168	1151.12
562.381	1155.12
562.593	1119.12
562.805	1123.12
563.017	1122.12
563.229	1116.12
563.441	1191.12
563.653	1080.12
563.865	1060.12
564.077	1035.12
564.289	1008.12
564.501	981.12
564.713	1021.12
564.925	1000.12
565.137	1019.12
565.349	995.12
565.561	1016.12
565.773	1013.12
565.985	1055.12
566.197	1047.12
566.408	1093.12
566.62	1079.12
566.832	1138.12
567.044	1125.12
567.255	1149.12
567.467	1157.12
567.679	1155.12
567.891	1208.12
568.102	1285.12
568.314	1457.12
568.526	1299.12
568.737	1132.12
568.949	1075.12
569.161	972.12
569.372	940.12
569.584	913.12
569.795	885.12
570.007	905.12
570.218	912.12
570.43	907.12
570.641	901.12
570.853	849.12
571.064	860.12
571.276	855.12
571.487	869.12
571.698	844.12
571.91	809.12
572.121	819.12
572.333	819.12
572.544	799.12
572.755	825.12
572.966	946.12
573.178	866.12
573.389	800.12
573.6	778.12
573.811	781.12
574.023	756.12
574.234	764.12
574.445	757.12
574.656	734.12
574.867	741.12
575.078	748.12
575.289	725.12
575.501	727.12
575.712	744.12
575.923	756.12
576.134	757.12
576.345	767.12
576.556	734.12
576.767	728.12
576.978	742.12
577.188	740.12
577.399	748.12
577.61	739.12
577.821	753.12
578.032	757.12
578.243	781.12
578.454	783.12
578.665	753.12
578.875	807.12
579.086	846.12
579.297	848.12
579.508	881.12
579.718	917.12
579.929	1034.12
580.14	1111.12
580.35	1137.12
580.561	1091.12
580.772	1018.12
580.982	1004.12
581.193	930.12
581.403	918.12
581.614	867.12
581.825	845.12
582.035	850.12
582.246	789.12
582.456	747.12
582.667	733.12
582.877	743.12
583.087	723.12
583.298	716.12
583.508	706.12
583.719	696.12
583.929	665.12
584.139	651.12
584.35	643.12
584.56	638.12
584.77	633.12
584.981	631.12
585.191	612.12
585.401	641.12
585.611	610.12
585.821	621.12
586.032	604.12
586.242	613.12
586.452	585.12
586.662	604.12
586.872	586.12
587.082	574.12
587.292	548.12
587.502	551.12
587.713	554.12
587.923	563.12
588.133	560.12
588.343	543.12
588.553	550.12
588.762	542.12
588.972	535.12
589.182	529.12
589.392	503.12
589.602	530.12
589.812	522.12
590.022	543.12
590.232	529.12
590.441	529.12
590.651	549.12
590.861	535.12
591.071	522.12
591.281	545.12
591.49	528.12
591.7	528.12
591.91	541.12
592.119	526.12
592.329	544.12
592.539	563.12
592.748	539.12
592.958	550.12
593.167	585.12
593.377	552.12
593.587	560.12
593.796	552.12
594.006	540.12
594.215	576.12
594.424	567.12
594.634	543.12
594.843	535.12
595.053	522.12
595.262	531.12
595.472	501.12
595.681	498.12
595.89	521.12
596.1	512.12
596.309	482.12
596.518	485.12
596.727	489.12
596.937	484.12
597.146	498.12
597.355	475.12
597.564	472.12
597.774	445.12
597.983	468.12
598.192	454.12
598.401	462.12
598.61	452.12
598.819	458.12
599.028	439.12
599.237	446.12
599.446	441.12
599.655	438.12
599.864	441.12
600.073	444.12
600.282	443.12
600.491	444.12
600.7	455.12
600.909	452.12
601.118	439.12
601.327	443.12
601.536	466.12
601.745	457.12
601.953	475.12
602.162	531.12
602.371	468.12
602.58	452.12
602.789	456.12
602.997	426.12
603.206	447.12
603.415	460.12
603.623	419.12
603.832	423.12
604.041	435.12
604.249	424.12
604.458	420.12
604.666	424.12
604.875	419.12
605.084	409.12
605.292	424.12
605.501	433.12
605.709	432.12
605.918	427.12
606.126	421.12
606.334	423.12
606.543	443.12
606.751	451.12
606.96	508.12
607.168	535.12
607.376	453.12
607.585	439.12
607.793	442.12
608.001	439.12
608.21	417.12
608.418	421.12
608.626	418.12
608.834	434.12
609.043	398.12
609.251	391.12
609.459	409.12
609.667	401.12
609.875	400.12
610.083	383.12
610.291	395.12
610.499	393.12
610.707	378.12
610.916	403.12
611.124	414.12
611.332	420.12
611.54	390.12
611.748	397.12
611.955	417.12
612.163	399.12
612.371	387.12
612.579	382.12
612.787	393.12
612.995	393.12
613.203	393.12
613.411	386.12
613.618	389.12
613.826	400.12
614.034	394.12
614.242	398.12
614.449	361.12
614.657	368.12
614.865	392.12
615.072	391.12
615.28	376.12
615.488	383.12
615.695	405.12
615.903	397.12
616.111	383.12
616.318	387.12
616.526	407.12
616.733	387.12
616.941	380.12
617.148	382.12
617.356	387.12
617.563	376.12
617.771	355.12
617.978	387.12
618.185	376.12
618.393	383.12
618.6	365.12
618.807	377.12
619.015	369.12
619.222	401.12
619.429	375.12
619.637	353.12
619.844	373.12
620.051	354.12
620.258	375.12
620.466	369.12
620.673	340.12
620.88	319.12
621.087	351.12
621.294	364.12
621.501	333.12
621.708	339.12
621.915	341.12
622.122	345.12
622.329	354.12
622.536	358.12
622.743	338.12
622.95	358.12
623.157	349.12
623.364	343.12
623.571	346.12
623.778	344.12
623.985	346.12
624.192	323.12
624.399	325.12
624.606	340.12
624.812	330.12
625.019	357.12
625.226	313.12
625.433	315.12
625.639	323.12
625.846	330.12
626.053	324.12
626.259	300.12
626.466	313.12
626.673	323.12
626.879	313.12
627.086	314.12
627.293	322.12
627.499	317.12
627.706	312.12
627.912	332.12
628.119	340.12
628.325	336.12
628.532	339.12
628.738	317.12
628.945	304.12
629.151	296.12
629.357	320.12
629.564	307.12
629.77	315.12
629.976	327.12
630.183	315.12
630.389	297.12
630.595	299.12
630.802	298.12
631.008	308.12
631.214	309.12
631.42	291.12
631.627	304.12
631.833	312.12
632.039	308.12
632.245	289.12
632.451	291.12
632.657	268.12
632.863	294.12
633.069	294.12
633.275	301.12
633.481	281.12
633.688	297.12
633.893	289.12
634.099	288.12
634.305	283.12
634.511	275.12
634.717	299.12
634.923	305.12
635.129	329.12
635.335	374.12
635.541	319.12
635.747	313.12
635.952	325.12
636.158	316.12
636.364	298.12
636.57	305.12
636.775	289.12
636.981	309.12
637.187	304.12
637.392	283.12
637.598	299.12
637.804	295.12
638.009	315.12
638.215	292.12
638.421	304.12
638.626	309.12
638.832	284.12
639.037	305.12
639.243	311.12
639.448	300.12
639.654	307.12
639.859	307.12
640.065	298.12
640.27	300.12
640.475	292.12
640.681	296.12
640.886	302.12
641.091	306.12
641.297	330.12
641.502	303.12
641.707	309.12
641.913	324.12
642.118	332.12
642.323	331.12
642.528	326.12
642.733	332.12
642.939	336.12
643.144	343.12
643.349	359.12
643.554	389.12
643.759	376.12
643.964	391.12
644.169	425.12
644.374	418.12
644.579	437.12
644.784	487.12
644.989	526.12
645.194	588.12
645.399	688.12
645.604	687.12
645.809	566.12
646.014	469.12
646.219	409.12
646.423	389.12
646.628	350.12
646.833	341.12
647.038	336.12
647.243	322.12
647.447	323.12
647.652	306.12
647.857	287.12
648.062	290.12
648.266	293.12
648.471	287.12
648.676	281.12
648.88	273.12
649.085	264.12
649.289	269.12
649.494	288.12
649.698	273.12
649.903	266.12
650.107	256.12
650.312	267.12
650.516	251.12
650.721	249.12
650.925	236.12
651.13	262.12
651.334	228.12
651.539	232.12
651.743	233.12
651.947	228.12
652.152	235.12
652.356	233.12
652.56	219.12
652.764	254.12
652.969	240.12
653.173	236.12
653.377	224.12
653.581	222.12
653.785	205.12
653.99	210.12
654.194	197.12
654.398	201.12
654.602	204.12
654.806	217.12
655.01	203.12
655.214	216.12
655.418	200.12
655.622	195.12
655.826	233.12
656.03	214.12
656.234	210.12
656.438	231.12
656.642	223.12
656.846	209.12
657.049	211.12
657.253	210.12
657.457	181.12
657.661	172.12
657.865	167.12
658.068	176.12
658.272	159.12
658.476	144.12
658.68	149.12
658.883	161.12
659.087	128.12
659.291	133.12
659.494	144.12
659.698	129.12
659.901	101.12
660.105	114.12
660.309	134.12
660.512	116.12
660.716	111.12
660.919	115.12
661.123	119.12
661.326	106.12
661.53	103.12
661.733	92.12
661.936	102.12
662.14	103.12
662.343	94.12
662.546	87.12
662.75	97.12
662.953	96.12
663.156	98.12
663.36	81.12
663.563	90.12
663.766	77.12
663.969	74.12
664.173	80.12
664.376	83.12
664.579	91.12
664.782	74.12
664.985	77.12
665.188	94.12
665.391	81.12
665.594	80.12
665.797	82.12
666	95.12
666.203	76.12
666.406	89.12
666.609	96.12
666.812	91.12
667.015	83.12
667.218	84.12
667.421	83.12
667.624	95.12
667.827	103.12
668.03	62.12
668.232	85.12
668.435	82.12
668.638	87.12
668.841	91.12
669.043	91.12
669.246	77.12
669.449	83.12
669.651	93.12
669.854	87.12
670.057	83.12
670.259	92.12
670.462	85.12
670.665	84.12
670.867	65.12
671.07	65.12
671.272	100.12
671.475	88.12
671.677	86.12
671.88	83.12
672.082	94.12
672.284	75.12
672.487	76.12
672.689	66.12
672.892	93.12
