Data from SnStandardFlinnAPT0064_LampEnergy5.5_LIBS07252019.E.O._I.C._HRD10591_15-14-49-491.txt Node
Date: Thu Jul 25 15:14:49 EDT 2019
User: cochatt
Spectrometer: HR+D1059
Trigger mode: 1
Integration Time (sec): 1.000000E-1
Scans to average: 1
Electric dark correction enabled: true
Nonlinearity correction enabled: false
Boxcar width: 0
XAxis mode: Wavelengths
Number of Pixels in Spectrum: 2048
>>>>>Begin Spectral Data<<<<<
223.165	-19.31
223.4	-19.31
223.635	-19.31
223.869	-27.31
224.104	-22.31
224.338	-21.31
224.573	-14.31
224.808	-1.31
225.042	-20.31
225.277	-1.31
225.511	4.69
225.746	6.69
225.98	-0.31
226.215	20.69
226.449	8.69
226.683	19.69
226.918	34.69
227.152	32.69
227.387	40.69
227.621	43.69
227.856	40.69
228.09	58.69
228.324	43.69
228.559	53.69
228.793	69.69
229.027	138.69
229.262	145.69
229.496	134.69
229.73	167.69
229.964	158.69
230.199	161.69
230.433	142.69
230.667	132.69
230.901	160.69
231.136	150.69
231.37	163.69
231.604	150.69
231.838	182.69
232.072	211.69
232.306	219.69
232.541	195.69
232.775	179.69
233.009	180.69
233.243	206.69
233.477	194.69
233.711	214.69
233.945	235.69
234.179	225.69
234.413	193.69
234.647	207.69
234.881	208.69
235.115	229.69
235.349	245.69
235.583	281.69
235.817	367.69
236.051	374.69
236.285	255.69
236.519	214.69
236.753	217.69
236.987	223.69
237.221	242.69
237.455	224.69
237.689	212.69
237.922	203.69
238.156	209.69
238.39	215.69
238.624	209.69
238.858	209.69
239.091	196.69
239.325	222.69
239.559	224.69
239.793	230.69
240.027	232.69
240.26	224.69
240.494	233.69
240.728	243.69
240.961	258.69
241.195	252.69
241.429	274.69
241.662	269.69
241.896	322.69
242.13	350.69
242.363	438.69
242.597	535.69
242.83	528.69
243.064	549.69
243.298	605.69
243.531	512.69
243.765	352.69
243.998	306.69
244.232	267.69
244.465	296.69
244.699	251.69
244.932	267.69
245.166	288.69
245.399	269.69
245.633	272.69
245.866	283.69
246.099	286.69
246.333	276.69
246.566	254.69
246.8	264.69
247.033	259.69
247.266	260.69
247.5	285.69
247.733	290.69
247.966	300.69
248.2	302.69
248.433	318.69
248.666	343.69
248.899	337.69
249.133	347.69
249.366	330.69
249.599	362.69
249.832	401.69
250.066	396.69
250.299	345.69
250.532	321.69
250.765	305.69
250.998	298.69
251.231	299.69
251.465	298.69
251.698	319.69
251.931	302.69
252.164	285.69
252.397	308.69
252.63	320.69
252.863	332.69
253.096	330.69
253.329	301.69
253.562	312.69
253.795	325.69
254.028	330.69
254.261	320.69
254.494	336.69
254.727	376.69
254.96	450.69
255.193	449.69
255.426	383.69
255.659	348.69
255.892	347.69
256.124	355.69
256.357	347.69
256.59	364.69
256.823	378.69
257.056	416.69
257.289	450.69
257.521	488.69
257.754	443.69
257.987	381.69
258.22	364.69
258.452	386.69
258.685	371.69
258.918	384.69
259.151	383.69
259.383	439.69
259.616	445.69
259.849	452.69
260.081	399.69
260.314	420.69
260.547	393.69
260.779	392.69
261.012	388.69
261.244	400.69
261.477	423.69
261.71	402.69
261.942	416.69
262.175	419.69
262.407	450.69
262.64	440.69
262.872	463.69
263.105	479.69
263.337	482.69
263.57	516.69
263.802	521.69
264.035	530.69
264.267	571.69
264.499	545.69
264.732	611.69
264.964	577.69
265.197	592.69
265.429	586.69
265.661	618.69
265.894	619.69
266.126	678.69
266.358	731.69
266.591	709.69
266.823	633.69
267.055	580.69
267.287	546.69
267.52	560.69
267.752	551.69
267.984	516.69
268.216	508.69
268.448	523.69
268.681	477.69
268.913	482.69
269.145	510.69
269.377	499.69
269.609	510.69
269.841	515.69
270.073	582.69
270.306	614.69
270.538	791.69
270.77	1039.69
271.002	1274.69
271.234	942.69
271.466	674.69
271.698	568.69
271.93	546.69
272.162	531.69
272.394	511.69
272.626	514.69
272.858	500.69
273.09	516.69
273.322	516.69
273.553	491.69
273.785	506.69
274.017	490.69
274.249	494.69
274.481	500.69
274.713	492.69
274.945	518.69
275.176	487.69
275.408	503.69
275.64	496.69
275.872	502.69
276.104	498.69
276.335	510.69
276.567	502.69
276.799	513.69
277.031	502.69
277.262	525.69
277.494	544.69
277.726	544.69
277.957	656.69
278.189	690.69
278.421	659.69
278.652	607.69
278.884	597.69
279.115	571.69
279.347	542.69
279.579	542.69
279.81	529.69
280.042	546.69
280.273	547.69
280.505	552.69
280.736	551.69
280.968	585.69
281.199	617.69
281.431	689.69
281.662	684.69
281.894	672.69
282.125	605.69
282.356	593.69
282.588	619.69
282.819	640.69
283.051	679.69
283.282	724.69
283.513	881.69
283.745	1184.69
283.976	1816.69
284.207	2464.69
284.439	2252.69
284.67	1448.69
284.901	1194.69
285.132	1167.69
285.364	1078.69
285.595	926.69
285.826	850.69
286.057	914.69
286.288	1223.69
286.52	1593.69
286.751	1530.69
286.982	1034.69
287.213	849.69
287.444	740.69
287.675	681.69
287.906	692.69
288.138	698.69
288.369	679.69
288.6	649.69
288.831	663.69
289.062	638.69
289.293	672.69
289.524	644.69
289.755	653.69
289.986	643.69
290.217	656.69
290.448	651.69
290.679	681.69
290.91	687.69
291.141	678.69
291.371	726.69
291.602	715.69
291.833	674.69
292.064	657.69
292.295	646.69
292.526	646.69
292.757	617.69
292.987	619.69
293.218	624.69
293.449	648.69
293.68	604.69
293.91	627.69
294.141	613.69
294.372	618.69
294.603	612.69
294.833	630.69
295.064	602.69
295.295	617.69
295.525	608.69
295.756	610.69
295.987	594.69
296.217	625.69
296.448	586.69
296.679	626.69
296.909	606.69
297.14	644.69
297.37	641.69
297.601	633.69
297.831	639.69
298.062	632.69
298.292	625.69
298.523	644.69
298.753	670.69
298.984	687.69
299.214	690.69
299.445	678.69
299.675	670.69
299.905	687.69
300.136	736.69
300.366	792.69
300.597	954.69
300.827	1236.69
301.057	1648.69
301.288	1593.69
301.518	1098.69
301.748	922.69
301.979	855.69
302.209	798.69
302.439	838.69
302.669	859.69
302.9	1038.69
303.13	1308.69
303.36	1863.69
303.59	2434.69
303.82	2130.69
304.051	1334.69
304.281	1017.69
304.511	872.69
304.741	832.69
304.971	782.69
305.201	753.69
305.431	788.69
305.661	757.69
305.891	746.69
306.121	700.69
306.352	710.69
306.582	708.69
306.812	711.69
307.042	722.69
307.272	724.69
307.502	714.69
307.731	703.69
307.961	679.69
308.191	703.69
308.421	724.69
308.651	704.69
308.881	672.69
309.111	699.69
309.341	710.69
309.571	738.69
309.8	717.69
310.03	749.69
310.26	742.69
310.49	718.69
310.72	734.69
310.949	716.69
311.179	764.69
311.409	740.69
311.639	752.69
311.868	754.69
312.098	738.69
312.328	755.69
312.557	740.69
312.787	748.69
313.017	742.69
313.246	792.69
313.476	784.69
313.706	777.69
313.935	831.69
314.165	858.69
314.394	887.69
314.624	849.69
314.853	806.69
315.083	812.69
315.312	826.69
315.542	831.69
315.771	837.69
316.001	858.69
316.23	853.69
316.46	889.69
316.689	927.69
316.919	1079.69
317.148	1489.69
317.377	2211.69
317.607	3210.69
317.836	3282.69
318.065	2011.69
318.295	1399.69
318.524	1186.69
318.753	1019.69
318.983	972.69
319.212	926.69
319.441	953.69
319.67	912.69
319.9	906.69
320.129	884.69
320.358	877.69
320.587	900.69
320.816	883.69
321.046	869.69
321.275	891.69
321.504	907.69
321.733	901.69
321.962	937.69
322.191	937.69
322.42	947.69
322.649	942.69
322.878	950.69
323.108	944.69
323.337	946.69
323.566	968.69
323.795	971.69
324.024	975.69
324.253	1014.69
324.482	1036.69
324.71	1071.69
324.939	1115.69
325.168	1171.69
325.397	1180.69
325.626	1345.69
325.855	1843.69
326.084	2696.69
326.313	3864.69
326.542	4133.69
326.77	2758.69
326.999	1927.69
327.228	1653.69
327.457	1572.69
327.686	1654.69
327.914	1719.69
328.143	1951.69
328.372	2208.69
328.6	2364.69
328.829	2243.69
329.058	1990.69
329.287	1800.69
329.515	1657.69
329.744	1536.69
329.972	1452.69
330.201	1431.69
330.43	1375.69
330.658	1361.69
330.887	1290.69
331.115	1284.69
331.344	1330.69
331.572	1311.69
331.801	1282.69
332.03	1278.69
332.258	1337.69
332.486	1375.69
332.715	1536.69
332.943	1729.69
333.172	2101.69
333.4	2060.69
333.629	1688.69
333.857	1645.69
334.085	1588.69
334.314	1726.69
334.542	1812.69
334.771	2053.69
334.999	2402.69
335.227	2851.69
335.455	3139.69
335.684	2927.69
335.912	2584.69
336.14	2283.69
336.369	2042.69
336.597	1918.69
336.825	1746.69
337.053	1667.69
337.281	1564.69
337.51	1498.69
337.738	1450.69
337.966	1378.69
338.194	1357.69
338.422	1318.69
338.65	1270.69
338.878	1270.69
339.106	1196.69
339.334	1227.69
339.562	1160.69
339.79	1178.69
340.018	1172.69
340.246	1159.69
340.474	1146.69
340.702	1161.69
340.93	1140.69
341.158	1137.69
341.386	1123.69
341.614	1114.69
341.842	1108.69
342.07	1099.69
342.298	1060.69
342.526	1084.69
342.754	1094.69
342.981	1077.69
343.209	1050.69
343.437	1067.69
343.665	1061.69
343.893	1093.69
344.12	1079.69
344.348	1071.69
344.576	1078.69
344.804	1040.69
345.031	1016.69
345.259	1016.69
345.487	1001.69
345.714	1013.69
345.942	992.69
346.17	994.69
346.397	989.69
346.625	990.69
346.853	990.69
347.08	983.69
347.308	942.69
347.535	976.69
347.763	975.69
347.99	971.69
348.218	972.69
348.445	968.69
348.673	951.69
348.9	944.69
349.128	956.69
349.355	954.69
349.583	944.69
349.81	932.69
350.037	955.69
350.265	946.69
350.492	939.69
350.72	930.69
350.947	918.69
351.174	935.69
351.402	967.69
351.629	918.69
351.856	951.69
352.083	948.69
352.311	909.69
352.538	958.69
352.765	943.69
352.992	931.69
353.22	899.69
353.447	918.69
353.674	915.69
353.901	946.69
354.128	946.69
354.355	930.69
354.583	950.69
354.81	937.69
355.037	938.69
355.264	930.69
355.491	952.69
355.718	942.69
355.945	980.69
356.172	986.69
356.399	954.69
356.626	970.69
356.853	956.69
357.08	967.69
357.307	986.69
357.534	989.69
357.761	979.69
357.988	989.69
358.215	1025.69
358.441	989.69
358.668	948.69
358.895	998.69
359.122	995.69
359.349	968.69
359.576	1014.69
359.802	982.69
360.029	994.69
360.256	972.69
360.483	971.69
360.709	1012.69
360.936	999.69
361.163	971.69
361.39	979.69
361.616	1014.69
361.843	1010.69
362.07	1009.69
362.296	992.69
362.523	982.69
362.749	974.69
362.976	1008.69
363.203	999.69
363.429	975.69
363.656	994.69
363.882	1001.69
364.109	1023.69
364.335	1008.69
364.562	985.69
364.788	1000.69
365.015	1013.69
365.241	1026.69
365.468	1041.69
365.694	1028.69
365.92	1040.69
366.147	1011.69
366.373	1018.69
366.599	1009.69
366.826	1004.69
367.052	990.69
367.278	1015.69
367.505	1032.69
367.731	1034.69
367.957	1033.69
368.184	1024.69
368.41	1025.69
368.636	1039.69
368.862	1045.69
369.089	1034.69
369.315	1012.69
369.541	1068.69
369.767	1049.69
369.993	1025.69
370.219	1043.69
370.445	1071.69
370.672	1070.69
370.898	1028.69
371.124	1063.69
371.35	1058.69
371.576	1051.69
371.802	1056.69
372.028	1051.69
372.254	1070.69
372.48	1125.69
372.706	1086.69
372.932	1072.69
373.158	1074.69
373.384	1072.69
373.61	1068.69
373.835	1098.69
374.061	1112.69
374.287	1106.69
374.513	1105.69
374.739	1122.69
374.965	1102.69
375.191	1138.69
375.416	1122.69
375.642	1107.69
375.868	1110.69
376.094	1092.69
376.319	1084.69
376.545	1102.69
376.771	1081.69
376.997	1073.69
377.222	1085.69
377.448	1078.69
377.674	1068.69
377.899	1090.69
378.125	1082.69
378.35	1067.69
378.576	1069.69
378.802	1080.69
379.027	1100.69
379.253	1113.69
379.478	1186.69
379.704	1314.69
379.929	1664.69
380.155	2375.69
380.38	2536.69
380.606	1696.69
380.831	1312.69
381.057	1192.69
381.282	1106.69
381.507	1077.69
381.733	1093.69
381.958	1076.69
382.184	1072.69
382.409	1078.69
382.634	1070.69
382.86	1046.69
383.085	1039.69
383.31	1071.69
383.535	1070.69
383.761	1059.69
383.986	1068.69
384.211	1085.69
384.436	1091.69
384.662	1124.69
384.887	1095.69
385.112	1099.69
385.337	1074.69
385.562	1082.69
385.787	1086.69
386.013	1095.69
386.238	1096.69
386.463	1101.69
386.688	1105.69
386.913	1066.69
387.138	1082.69
387.363	1107.69
387.588	1079.69
387.813	1093.69
388.038	1086.69
388.263	1094.69
388.488	1100.69
388.713	1131.69
388.938	1100.69
389.163	1104.69
389.387	1084.69
389.612	1098.69
389.837	1093.69
390.062	1118.69
390.287	1124.69
390.512	1137.69
390.736	1150.69
390.961	1118.69
391.186	1125.69
391.411	1162.69
391.636	1152.69
391.86	1173.69
392.085	1170.69
392.31	1159.69
392.534	1162.69
392.759	1134.69
392.984	1129.69
393.208	1104.69
393.433	1118.69
393.658	1105.69
393.882	1110.69
394.107	1098.69
394.331	1126.69
394.556	1116.69
394.78	1143.69
395.005	1140.69
395.229	1122.69
395.454	1125.69
395.678	1163.69
395.903	1144.69
396.127	1131.69
396.352	1136.69
396.576	1166.69
396.801	1153.69
397.025	1164.69
397.249	1186.69
397.474	1140.69
397.698	1152.69
397.922	1175.69
398.147	1185.69
398.371	1196.69
398.595	1235.69
398.82	1216.69
399.044	1274.69
399.268	1285.69
399.492	1407.69
399.717	1475.69
399.941	1445.69
400.165	1448.69
400.389	1367.69
400.613	1284.69
400.837	1279.69
401.062	1257.69
401.286	1249.69
401.51	1244.69
401.734	1225.69
401.958	1203.69
402.182	1221.69
402.406	1219.69
402.63	1234.69
402.854	1218.69
403.078	1229.69
403.302	1249.69
403.526	1281.69
403.75	1266.69
403.974	1267.69
404.198	1210.69
404.422	1275.69
404.645	1298.69
404.869	1247.69
405.093	1286.69
405.317	1255.69
405.541	1280.69
405.765	1266.69
405.988	1310.69
406.212	1303.69
406.436	1260.69
406.66	1345.69
406.883	1297.69
407.107	1310.69
407.331	1346.69
407.555	1387.69
407.778	1391.69
408.002	1354.69
408.226	1343.69
408.449	1339.69
408.673	1310.69
408.896	1257.69
409.12	1292.69
409.344	1292.69
409.567	1264.69
409.791	1271.69
410.014	1294.69
410.238	1278.69
410.461	1267.69
410.685	1247.69
410.908	1234.69
411.132	1240.69
411.355	1224.69
411.578	1246.69
411.802	1216.69
412.025	1235.69
412.249	1200.69
412.472	1256.69
412.695	1174.69
412.919	1187.69
413.142	1200.69
413.365	1186.69
413.589	1190.69
413.812	1164.69
414.035	1197.69
414.258	1204.69
414.482	1203.69
414.705	1184.69
414.928	1243.69
415.151	1179.69
415.374	1163.69
415.597	1174.69
415.821	1146.69
416.044	1177.69
416.267	1173.69
416.49	1142.69
416.713	1122.69
416.936	1150.69
417.159	1129.69
417.382	1155.69
417.605	1164.69
417.828	1163.69
418.051	1145.69
418.274	1181.69
418.497	1172.69
418.72	1168.69
418.943	1130.69
419.166	1230.69
419.389	1298.69
419.611	1255.69
419.834	1238.69
420.057	1215.69
420.28	1204.69
420.503	1177.69
420.726	1160.69
420.948	1186.69
421.171	1164.69
421.394	1160.69
421.617	1176.69
421.839	1162.69
422.062	1178.69
422.285	1150.69
422.507	1170.69
422.73	1170.69
422.953	1185.69
423.175	1172.69
423.398	1175.69
423.621	1163.69
423.843	1190.69
424.066	1189.69
424.288	1177.69
424.511	1147.69
424.733	1156.69
424.956	1135.69
425.178	1171.69
425.401	1147.69
425.623	1164.69
425.846	1117.69
426.068	1129.69
426.291	1117.69
426.513	1138.69
426.735	1115.69
426.958	1100.69
427.18	1073.69
427.402	1104.69
427.625	1103.69
427.847	1073.69
428.069	1080.69
428.292	1104.69
428.514	1087.69
428.736	1082.69
428.958	1082.69
429.181	1090.69
429.403	1038.69
429.625	1070.69
429.847	1075.69
430.069	1094.69
430.292	1110.69
430.514	1128.69
430.736	1111.69
430.958	1079.69
431.18	1066.69
431.402	1037.69
431.624	1075.69
431.846	1058.69
432.068	1012.69
432.29	1057.69
432.512	1059.69
432.734	1067.69
432.956	1055.69
433.178	1063.69
433.4	1079.69
433.622	1104.69
433.844	1052.69
434.066	1086.69
434.287	1064.69
434.509	1057.69
434.731	1102.69
434.953	1100.69
435.175	1097.69
435.397	1128.69
435.618	1081.69
435.84	1068.69
436.062	1063.69
436.284	1065.69
436.505	1074.69
436.727	1074.69
436.949	1072.69
437.17	1083.69
437.392	1058.69
437.614	1045.69
437.835	1011.69
438.057	1020.69
438.278	1025.69
438.5	1041.69
438.721	1048.69
438.943	1079.69
439.165	1081.69
439.386	1092.69
439.608	1110.69
439.829	1127.69
440.05	1113.69
440.272	1140.69
440.493	1117.69
440.715	1096.69
440.936	1082.69
441.158	1134.69
441.379	1140.69
441.6	1137.69
441.822	1174.69
442.043	1230.69
442.264	1238.69
442.486	1179.69
442.707	1154.69
442.928	1140.69
443.149	1150.69
443.371	1148.69
443.592	1126.69
443.813	1166.69
444.034	1148.69
444.255	1171.69
444.476	1236.69
444.698	1233.69
444.919	1256.69
445.14	1280.69
445.361	1230.69
445.582	1192.69
445.803	1170.69
446.024	1150.69
446.245	1153.69
446.466	1156.69
446.687	1119.69
446.908	1142.69
447.129	1074.69
447.35	1063.69
447.571	1080.69
447.792	1044.69
448.013	1043.69
448.234	1028.69
448.455	1046.69
448.675	1054.69
448.896	1099.69
449.117	1094.69
449.338	1157.69
449.559	1187.69
449.779	1126.69
450	1054.69
450.221	1042.69
450.442	1022.69
450.662	1024.69
450.883	1012.69
451.104	1020.69
451.324	988.69
451.545	1008.69
451.766	1031.69
451.986	1058.69
452.207	1062.69
452.428	1252.69
452.648	1654.69
452.869	1466.69
453.089	1134.69
453.31	1130.69
453.53	1091.69
453.751	1105.69
453.971	1177.69
454.192	1148.69
454.412	1025.69
454.633	1002.69
454.853	993.69
455.073	968.69
455.294	985.69
455.514	956.69
455.734	958.69
455.955	970.69
456.175	987.69
456.395	978.69
456.616	963.69
456.836	976.69
457.056	1015.69
457.276	998.69
457.497	1033.69
457.717	1071.69
457.937	1031.69
458.157	1020.69
458.377	1022.69
458.598	1003.69
458.818	1066.69
459.038	1013.69
459.258	1033.69
459.478	1051.69
459.698	1027.69
459.918	1100.69
460.138	1097.69
460.358	1144.69
460.578	1146.69
460.798	1178.69
461.018	1191.69
461.238	1121.69
461.458	1183.69
461.678	1163.69
461.898	1187.69
462.118	1188.69
462.338	1233.69
462.558	1234.69
462.777	1267.69
462.997	1302.69
463.217	1344.69
463.437	1402.69
463.657	1307.69
463.876	1326.69
464.096	1286.69
464.316	1249.69
464.536	1316.69
464.755	1237.69
464.975	1215.69
465.195	1161.69
465.414	1124.69
465.634	1107.69
465.854	1107.69
466.073	1111.69
466.293	1051.69
466.512	1051.69
466.732	1073.69
466.951	1136.69
467.171	1152.69
467.391	1165.69
467.61	1098.69
467.829	1071.69
468.049	1055.69
468.268	1035.69
468.488	1048.69
468.707	1007.69
468.927	1055.69
469.146	1061.69
469.365	1061.69
469.585	1051.69
469.804	1116.69
470.023	1090.69
470.243	1111.69
470.462	1140.69
470.681	1161.69
470.901	1242.69
471.12	1420.69
471.339	1417.69
471.558	1216.69
471.777	1156.69
471.997	1107.69
472.216	1085.69
472.435	1051.69
472.654	1044.69
472.873	1036.69
473.092	1038.69
473.311	1048.69
473.53	1069.69
473.749	1074.69
473.968	1120.69
474.187	1075.69
474.406	1040.69
474.625	1071.69
474.844	1056.69
475.063	1039.69
475.282	1073.69
475.501	1054.69
475.72	1052.69
475.939	1068.69
476.158	1105.69
476.377	1130.69
476.596	1127.69
476.814	1125.69
477.033	1079.69
477.252	1147.69
477.471	1137.69
477.69	1178.69
477.908	1173.69
478.127	1173.69
478.346	1180.69
478.564	1219.69
478.783	1248.69
479.002	1249.69
479.22	1265.69
479.439	1209.69
479.658	1239.69
479.876	1243.69
480.095	1267.69
480.313	1288.69
480.532	1301.69
480.751	1293.69
480.969	1263.69
481.188	1256.69
481.406	1238.69
481.624	1253.69
481.843	1248.69
482.061	1230.69
482.28	1240.69
482.498	1256.69
482.717	1223.69
482.935	1256.69
483.153	1282.69
483.372	1293.69
483.59	1303.69
483.808	1320.69
484.027	1336.69
484.245	1396.69
484.463	1511.69
484.681	1661.69
484.9	1572.69
485.118	1486.69
485.336	1448.69
485.554	1430.69
485.772	1504.69
485.99	1686.69
486.209	1751.69
486.427	1500.69
486.645	1404.69
486.863	1411.69
487.081	1334.69
487.299	1345.69
487.517	1338.69
487.735	1359.69
487.953	1397.69
488.171	1387.69
488.389	1381.69
488.607	1332.69
488.825	1309.69
489.043	1277.69
489.261	1313.69
489.479	1303.69
489.696	1301.69
489.914	1308.69
490.132	1334.69
490.35	1314.69
490.568	1356.69
490.786	1353.69
491.003	1335.69
491.221	1392.69
491.439	1396.69
491.657	1418.69
491.874	1403.69
492.092	1445.69
492.31	1484.69
492.527	1451.69
492.745	1420.69
492.963	1382.69
493.18	1394.69
493.398	1394.69
493.615	1413.69
493.833	1404.69
494.05	1393.69
494.268	1430.69
494.485	1366.69
494.703	1397.69
494.92	1426.69
495.138	1377.69
495.355	1388.69
495.573	1384.69
495.79	1375.69
496.008	1401.69
496.225	1413.69
496.442	1443.69
496.66	1481.69
496.877	1521.69
497.094	1501.69
497.312	1496.69
497.529	1484.69
497.746	1482.69
497.963	1506.69
498.181	1556.69
498.398	1589.69
498.615	1626.69
498.832	1646.69
499.049	1745.69
499.267	1876.69
499.484	1988.69
499.701	2055.69
499.918	2096.69
500.135	2219.69
500.352	2343.69
500.569	2392.69
500.786	2367.69
501.003	2265.69
501.22	2179.69
501.437	2069.69
501.654	1938.69
501.871	1826.69
502.088	1748.69
502.305	1674.69
502.522	1655.69
502.739	1595.69
502.956	1544.69
503.172	1515.69
503.389	1454.69
503.606	1482.69
503.823	1428.69
504.04	1409.69
504.256	1416.69
504.473	1430.69
504.69	1448.69
504.907	1424.69
505.123	1394.69
505.34	1341.69
505.557	1287.69
505.773	1302.69
505.99	1305.69
506.207	1241.69
506.423	1267.69
506.64	1240.69
506.856	1234.69
507.073	1211.69
507.289	1198.69
507.506	1212.69
507.722	1206.69
507.939	1199.69
508.155	1193.69
508.372	1192.69
508.588	1177.69
508.805	1190.69
509.021	1184.69
509.238	1244.69
509.454	1242.69
509.67	1296.69
509.887	1217.69
510.103	1190.69
510.319	1173.69
510.536	1177.69
510.752	1132.69
510.968	1133.69
511.184	1136.69
511.401	1129.69
511.617	1127.69
511.833	1110.69
512.049	1103.69
512.265	1108.69
512.481	1119.69
512.698	1123.69
512.914	1128.69
513.13	1136.69
513.346	1113.69
513.562	1118.69
513.778	1142.69
513.994	1157.69
514.21	1189.69
514.426	1175.69
514.642	1235.69
514.858	1204.69
515.074	1156.69
515.29	1150.69
515.506	1135.69
515.721	1150.69
515.937	1179.69
516.153	1156.69
516.369	1181.69
516.585	1200.69
516.801	1198.69
517.016	1242.69
517.232	1256.69
517.448	1285.69
517.664	1303.69
517.879	1302.69
518.095	1262.69
518.311	1297.69
518.527	1257.69
518.742	1265.69
518.958	1225.69
519.173	1265.69
519.389	1239.69
519.605	1177.69
519.82	1165.69
520.036	1164.69
520.251	1150.69
520.467	1146.69
520.682	1135.69
520.898	1100.69
521.113	1144.69
521.329	1129.69
521.544	1110.69
521.76	1127.69
521.975	1117.69
522.19	1110.69
522.406	1084.69
522.621	1090.69
522.836	1106.69
523.052	1118.69
523.267	1111.69
523.482	1134.69
523.698	1063.69
523.913	1096.69
524.128	1086.69
524.343	1109.69
524.559	1113.69
524.774	1089.69
524.989	1085.69
525.204	1104.69
525.419	1108.69
525.634	1068.69
525.849	1066.69
526.064	1080.69
526.28	1077.69
526.495	1075.69
526.71	1093.69
526.925	1072.69
527.14	1118.69
527.355	1077.69
527.57	1120.69
527.785	1100.69
527.999	1116.69
528.214	1107.69
528.429	1119.69
528.644	1150.69
528.859	1165.69
529.074	1182.69
529.289	1163.69
529.503	1184.69
529.718	1179.69
529.933	1116.69
530.148	1113.69
530.363	1153.69
530.577	1142.69
530.792	1161.69
531.007	1145.69
531.221	1177.69
531.436	1183.69
531.651	1176.69
531.865	1175.69
532.08	1195.69
532.295	1226.69
532.509	1264.69
532.724	1270.69
532.938	1262.69
533.153	1293.69
533.367	1339.69
533.582	1391.69
533.796	1404.69
534.011	1368.69
534.225	1334.69
534.44	1285.69
534.654	1303.69
534.868	1280.69
535.083	1248.69
535.297	1232.69
535.511	1219.69
535.726	1206.69
535.94	1194.69
536.154	1171.69
536.369	1152.69
536.583	1136.69
536.797	1128.69
537.011	1140.69
537.225	1136.69
537.44	1140.69
537.654	1121.69
537.868	1099.69
538.082	1089.69
538.296	1098.69
538.51	1080.69
538.724	1108.69
538.938	1070.69
539.153	1095.69
539.367	1093.69
539.581	1052.69
539.795	1021.69
540.009	1033.69
540.222	1047.69
540.436	1039.69
540.65	1045.69
540.864	1043.69
541.078	1082.69
541.292	1142.69
541.506	1259.69
541.72	1339.69
541.934	1207.69
542.147	1168.69
542.361	1112.69
542.575	1088.69
542.789	1063.69
543.002	1033.69
543.216	1001.69
543.43	984.69
543.644	1033.69
543.857	1051.69
544.071	1066.69
544.285	1049.69
544.498	1070.69
544.712	1042.69
544.925	1108.69
545.139	1069.69
545.352	1054.69
545.566	1060.69
545.779	1063.69
545.993	1099.69
546.206	1086.69
546.42	1067.69
546.633	1097.69
546.847	1084.69
547.06	1075.69
547.274	1050.69
547.487	1067.69
547.7	1100.69
547.914	1055.69
548.127	1060.69
548.34	1092.69
548.554	1082.69
548.767	1066.69
548.98	1069.69
549.193	1063.69
549.407	1035.69
549.62	1091.69
549.833	1082.69
550.046	1097.69
550.259	1086.69
550.473	1088.69
550.686	1046.69
550.899	1058.69
551.112	1034.69
551.325	1048.69
551.538	1042.69
551.751	1039.69
551.964	1074.69
552.177	1080.69
552.39	1090.69
552.603	1108.69
552.816	1127.69
553.029	1142.69
553.242	1126.69
553.455	1158.69
553.667	1158.69
553.88	1177.69
554.093	1183.69
554.306	1178.69
554.519	1150.69
554.732	1174.69
554.944	1208.69
555.157	1185.69
555.37	1230.69
555.583	1253.69
555.795	1313.69
556.008	1366.69
556.221	1406.69
556.433	1507.69
556.646	1490.69
556.859	1478.69
557.071	1479.69
557.284	1451.69
557.496	1417.69
557.709	1375.69
557.921	1412.69
558.134	1400.69
558.346	1384.69
558.559	1421.69
558.771	1479.69
558.984	1523.69
559.196	1626.69
559.409	1567.69
559.621	1466.69
559.833	1469.69
560.046	1390.69
560.258	1339.69
560.47	1281.69
560.683	1254.69
560.895	1223.69
561.107	1219.69
561.32	1136.69
561.532	1136.69
561.744	1127.69
561.956	1080.69
562.168	1092.69
562.381	1068.69
562.593	1071.69
562.805	1080.69
563.017	1081.69
563.229	1081.69
563.441	1151.69
563.653	1063.69
563.865	1016.69
564.077	975.69
564.289	960.69
564.501	999.69
564.713	987.69
564.925	969.69
565.137	976.69
565.349	971.69
565.561	995.69
565.773	983.69
565.985	992.69
566.197	1037.69
566.408	987.69
566.62	1040.69
566.832	1101.69
567.044	1076.69
567.255	1112.69
567.467	1132.69
567.679	1119.69
567.891	1161.69
568.102	1250.69
568.314	1419.69
568.526	1224.69
568.737	1112.69
568.949	1002.69
569.161	958.69
569.372	916.69
569.584	904.69
569.795	878.69
570.007	863.69
570.218	874.69
570.43	902.69
570.641	852.69
570.853	828.69
571.064	827.69
571.276	847.69
571.487	808.69
571.698	787.69
571.91	774.69
572.121	771.69
572.333	770.69
572.544	755.69
572.755	823.69
572.966	887.69
573.178	843.69
573.389	758.69
573.6	741.69
573.811	743.69
574.023	716.69
574.234	722.69
574.445	692.69
574.656	721.69
574.867	721.69
575.078	734.69
575.289	707.69
575.501	716.69
575.712	691.69
575.923	707.69
576.134	720.69
576.345	703.69
576.556	706.69
576.767	733.69
576.978	728.69
577.188	712.69
577.399	761.69
577.61	708.69
577.821	706.69
578.032	697.69
578.243	713.69
578.454	746.69
578.665	760.69
578.875	759.69
579.086	800.69
579.297	816.69
579.508	851.69
579.718	883.69
579.929	974.69
580.14	1065.69
580.35	1060.69
580.561	1061.69
580.772	1001.69
580.982	955.69
581.193	895.69
581.403	865.69
581.614	834.69
581.825	819.69
582.035	779.69
582.246	768.69
582.456	724.69
582.667	715.69
582.877	703.69
583.087	696.69
583.298	692.69
583.508	673.69
583.719	654.69
583.929	657.69
584.139	646.69
584.35	621.69
584.56	630.69
584.77	609.69
584.981	572.69
585.191	626.69
585.401	593.69
585.611	606.69
585.821	571.69
586.032	588.69
586.242	595.69
586.452	564.69
586.662	573.69
586.872	570.69
587.082	544.69
587.292	582.69
587.502	550.69
587.713	543.69
587.923	523.69
588.133	530.69
588.343	530.69
588.553	538.69
588.762	531.69
588.972	525.69
589.182	527.69
589.392	524.69
589.602	531.69
589.812	535.69
590.022	520.69
590.232	520.69
590.441	526.69
590.651	521.69
590.861	528.69
591.071	504.69
591.281	505.69
591.49	515.69
591.7	507.69
591.91	515.69
592.119	514.69
592.329	503.69
592.539	528.69
592.748	538.69
592.958	522.69
593.167	539.69
593.377	554.69
593.587	525.69
593.796	532.69
594.006	551.69
594.215	526.69
594.424	527.69
594.634	533.69
594.843	506.69
595.053	512.69
595.262	536.69
595.472	491.69
595.681	475.69
595.89	483.69
596.1	479.69
596.309	468.69
596.518	479.69
596.727	456.69
596.937	446.69
597.146	468.69
597.355	469.69
597.564	444.69
597.774	441.69
597.983	440.69
598.192	447.69
598.401	435.69
598.61	444.69
598.819	458.69
599.028	446.69
599.237	430.69
599.446	430.69
599.655	439.69
599.864	414.69
600.073	427.69
600.282	432.69
600.491	432.69
600.7	437.69
600.909	418.69
601.118	410.69
601.327	424.69
601.536	436.69
601.745	441.69
601.953	447.69
602.162	509.69
602.371	433.69
602.58	461.69
602.789	440.69
602.997	429.69
603.206	434.69
603.415	417.69
603.623	417.69
603.832	418.69
604.041	409.69
604.249	412.69
604.458	396.69
604.666	411.69
604.875	392.69
605.084	395.69
605.292	414.69
605.501	414.69
605.709	410.69
605.918	404.69
606.126	425.69
606.334	427.69
606.543	402.69
606.751	436.69
606.96	464.69
607.168	523.69
607.376	460.69
607.585	422.69
607.793	405.69
608.001	432.69
608.21	402.69
608.418	410.69
608.626	392.69
608.834	404.69
609.043	404.69
609.251	395.69
609.459	396.69
609.667	393.69
609.875	374.69
610.083	399.69
610.291	376.69
610.499	391.69
610.707	391.69
610.916	389.69
611.124	400.69
611.332	396.69
611.54	388.69
611.748	401.69
611.955	376.69
612.163	366.69
612.371	375.69
612.579	380.69
612.787	376.69
612.995	386.69
613.203	382.69
613.411	405.69
613.618	380.69
613.826	364.69
614.034	380.69
614.242	390.69
614.449	378.69
614.657	370.69
614.865	375.69
615.072	371.69
615.28	373.69
615.488	366.69
615.695	379.69
615.903	375.69
616.111	366.69
616.318	352.69
616.526	366.69
616.733	366.69
616.941	373.69
617.148	390.69
617.356	373.69
617.563	383.69
617.771	369.69
617.978	367.69
618.185	369.69
618.393	354.69
618.6	355.69
618.807	344.69
619.015	364.69
619.222	362.69
619.429	359.69
619.637	359.69
619.844	355.69
620.051	364.69
620.258	334.69
620.466	345.69
620.673	347.69
620.88	319.69
621.087	335.69
621.294	345.69
621.501	322.69
621.708	324.69
621.915	328.69
622.122	344.69
622.329	348.69
622.536	344.69
622.743	334.69
622.95	342.69
623.157	334.69
623.364	349.69
623.571	335.69
623.778	336.69
623.985	341.69
624.192	332.69
624.399	330.69
624.606	337.69
624.812	314.69
625.019	310.69
625.226	312.69
625.433	323.69
625.639	306.69
625.846	317.69
626.053	308.69
626.259	323.69
626.466	297.69
626.673	304.69
626.879	299.69
627.086	296.69
627.293	334.69
627.499	320.69
627.706	304.69
627.912	291.69
628.119	304.69
628.325	290.69
628.532	311.69
628.738	311.69
628.945	296.69
629.151	298.69
629.357	307.69
629.564	290.69
629.77	300.69
629.976	299.69
630.183	300.69
630.389	297.69
630.595	278.69
630.802	287.69
631.008	277.69
631.214	299.69
631.42	282.69
631.627	274.69
631.833	289.69
632.039	293.69
632.245	289.69
632.451	286.69
632.657	297.69
632.863	290.69
633.069	273.69
633.275	266.69
633.481	270.69
633.688	286.69
633.893	292.69
634.099	265.69
634.305	283.69
634.511	278.69
634.717	279.69
634.923	289.69
635.129	303.69
635.335	325.69
635.541	344.69
635.747	313.69
635.952	295.69
636.158	293.69
636.364	284.69
636.57	285.69
636.775	283.69
636.981	284.69
637.187	296.69
637.392	277.69
637.598	287.69
637.804	278.69
638.009	291.69
638.215	304.69
638.421	291.69
638.626	285.69
638.832	274.69
639.037	289.69
639.243	302.69
639.448	292.69
639.654	300.69
639.859	287.69
640.065	288.69
640.27	289.69
640.475	285.69
640.681	293.69
640.886	287.69
641.091	288.69
641.297	279.69
641.502	296.69
641.707	307.69
641.913	313.69
642.118	313.69
642.323	326.69
642.528	327.69
642.733	328.69
642.939	334.69
643.144	341.69
643.349	341.69
643.554	359.69
643.759	369.69
643.964	370.69
644.169	395.69
644.374	406.69
644.579	438.69
644.784	446.69
644.989	484.69
645.194	544.69
645.399	651.69
645.604	637.69
645.809	523.69
646.014	432.69
646.219	415.69
646.423	370.69
646.628	345.69
646.833	343.69
647.038	321.69
647.243	315.69
647.447	302.69
647.652	311.69
647.857	315.69
648.062	267.69
648.266	278.69
648.471	280.69
648.676	286.69
648.88	258.69
649.085	277.69
649.289	276.69
649.494	265.69
649.698	259.69
649.903	241.69
650.107	250.69
650.312	266.69
650.516	246.69
650.721	234.69
650.925	212.69
651.13	239.69
651.334	237.69
651.539	227.69
651.743	234.69
651.947	244.69
652.152	237.69
652.356	223.69
652.56	241.69
652.764	242.69
652.969	245.69
653.173	211.69
653.377	211.69
653.581	221.69
653.785	208.69
653.99	205.69
654.194	204.69
654.398	203.69
654.602	207.69
654.806	200.69
655.01	201.69
655.214	216.69
655.418	174.69
655.622	199.69
655.826	203.69
656.03	210.69
656.234	210.69
656.438	213.69
656.642	223.69
656.846	211.69
657.049	178.69
657.253	195.69
657.457	170.69
657.661	180.69
657.865	183.69
658.068	163.69
658.272	142.69
658.476	153.69
658.68	138.69
658.883	129.69
659.087	139.69
659.291	139.69
659.494	139.69
659.698	138.69
659.901	109.69
660.105	132.69
660.309	119.69
660.512	114.69
660.716	112.69
660.919	116.69
661.123	102.69
661.326	98.69
661.53	106.69
661.733	101.69
661.936	82.69
662.14	104.69
662.343	106.69
662.546	82.69
662.75	89.69
662.953	88.69
663.156	94.69
663.36	75.69
663.563	93.69
663.766	69.69
663.969	93.69
664.173	91.69
664.376	81.69
664.579	91.69
664.782	94.69
664.985	90.69
665.188	84.69
665.391	91.69
665.594	72.69
665.797	67.69
666	79.69
666.203	72.69
666.406	78.69
666.609	91.69
666.812	87.69
667.015	82.69
667.218	77.69
667.421	83.69
667.624	88.69
667.827	89.69
668.03	95.69
668.232	89.69
668.435	89.69
668.638	83.69
668.841	94.69
669.043	80.69
669.246	65.69
669.449	73.69
669.651	91.69
669.854	84.69
670.057	83.69
670.259	95.69
670.462	88.69
670.665	92.69
670.867	92.69
671.07	91.69
671.272	84.69
671.475	86.69
671.677	89.69
671.88	71.69
672.082	81.69
672.284	97.69
672.487	75.69
672.689	88.69
672.892	80.69
