Data from SnStandardFlinnAPT0064_QswitchEnergy10_LIBS07252019.E.O._I.C._HRD10591_15-28-06-974.txt Node
Date: Thu Jul 25 15:28:06 EDT 2019
User: cochatt
Spectrometer: HR+D1059
Trigger mode: 1
Integration Time (sec): 1.000000E-1
Scans to average: 1
Electric dark correction enabled: true
Nonlinearity correction enabled: false
Boxcar width: 0
XAxis mode: Wavelengths
Number of Pixels in Spectrum: 2048
>>>>>Begin Spectral Data<<<<<
223.165	-9.94
223.4	-9.94
223.635	-9.94
223.869	-27.94
224.104	-19.94
224.338	-9.94
224.573	-26.94
224.808	-13.94
225.042	-6.94
225.277	-3.94
225.511	-0.94
225.746	5.06
225.98	4.06
226.215	23.06
226.449	11.06
226.683	23.06
226.918	28.06
227.152	26.06
227.387	34.06
227.621	42.06
227.856	40.06
228.09	45.06
228.324	52.06
228.559	52.06
228.793	56.06
229.027	69.06
229.262	72.06
229.496	77.06
229.73	56.06
229.964	85.06
230.199	78.06
230.433	87.06
230.667	76.06
230.901	62.06
231.136	77.06
231.37	83.06
231.604	98.06
231.838	105.06
232.072	125.06
232.306	120.06
232.541	102.06
232.775	101.06
233.009	92.06
233.243	74.06
233.477	79.06
233.711	92.06
233.945	101.06
234.179	86.06
234.413	82.06
234.647	84.06
234.881	67.06
235.115	95.06
235.349	88.06
235.583	111.06
235.817	118.06
236.051	130.06
236.285	84.06
236.519	85.06
236.753	74.06
236.987	81.06
237.221	94.06
237.455	74.06
237.689	77.06
237.922	73.06
238.156	76.06
238.39	75.06
238.624	100.06
238.858	78.06
239.091	81.06
239.325	86.06
239.559	78.06
239.793	71.06
240.027	89.06
240.26	88.06
240.494	87.06
240.728	95.06
240.961	84.06
241.195	92.06
241.429	84.06
241.662	89.06
241.896	91.06
242.13	97.06
242.363	116.06
242.597	166.06
242.83	145.06
243.064	150.06
243.298	167.06
243.531	154.06
243.765	100.06
243.998	82.06
244.232	76.06
244.465	78.06
244.699	76.06
244.932	74.06
245.166	80.06
245.399	78.06
245.633	78.06
245.866	85.06
246.099	81.06
246.333	90.06
246.566	80.06
246.8	71.06
247.033	69.06
247.266	92.06
247.5	90.06
247.733	92.06
247.966	89.06
248.2	87.06
248.433	107.06
248.666	134.06
248.899	121.06
249.133	96.06
249.366	107.06
249.599	94.06
249.832	117.06
250.066	140.06
250.299	86.06
250.532	82.06
250.765	65.06
250.998	69.06
251.231	89.06
251.465	89.06
251.698	88.06
251.931	89.06
252.164	84.06
252.397	81.06
252.63	100.06
252.863	101.06
253.096	86.06
253.329	93.06
253.562	94.06
253.795	80.06
254.028	95.06
254.261	90.06
254.494	101.06
254.727	117.06
254.96	161.06
255.193	132.06
255.426	97.06
255.659	90.06
255.892	81.06
256.124	84.06
256.357	94.06
256.59	99.06
256.823	80.06
257.056	125.06
257.289	154.06
257.521	184.06
257.754	128.06
257.987	95.06
258.22	82.06
258.452	87.06
258.685	83.06
258.918	97.06
259.151	90.06
259.383	110.06
259.616	152.06
259.849	144.06
260.081	93.06
260.314	96.06
260.547	73.06
260.779	84.06
261.012	84.06
261.244	73.06
261.477	84.06
261.71	88.06
261.942	100.06
262.175	77.06
262.407	60.06
262.64	74.06
262.872	92.06
263.105	86.06
263.337	97.06
263.57	81.06
263.802	86.06
264.035	96.06
264.267	97.06
264.499	88.06
264.732	93.06
264.964	89.06
265.197	90.06
265.429	87.06
265.661	87.06
265.894	100.06
266.126	115.06
266.358	157.06
266.591	153.06
266.823	98.06
267.055	85.06
267.287	92.06
267.52	76.06
267.752	86.06
267.984	67.06
268.216	90.06
268.448	99.06
268.681	93.06
268.913	82.06
269.145	79.06
269.377	87.06
269.609	100.06
269.841	100.06
270.073	105.06
270.306	128.06
270.538	201.06
270.77	336.06
271.002	412.06
271.234	200.06
271.466	100.06
271.698	101.06
271.93	86.06
272.162	84.06
272.394	88.06
272.626	89.06
272.858	78.06
273.09	85.06
273.322	86.06
273.553	83.06
273.785	97.06
274.017	85.06
274.249	95.06
274.481	81.06
274.713	82.06
274.945	89.06
275.176	84.06
275.408	91.06
275.64	109.06
275.872	96.06
276.104	86.06
276.335	91.06
276.567	87.06
276.799	88.06
277.031	70.06
277.262	84.06
277.494	104.06
277.726	121.06
277.957	205.06
278.189	282.06
278.421	240.06
278.652	180.06
278.884	188.06
279.115	146.06
279.347	108.06
279.579	96.06
279.81	88.06
280.042	97.06
280.273	108.06
280.505	104.06
280.736	103.06
280.968	128.06
281.199	166.06
281.431	256.06
281.662	274.06
281.894	157.06
282.125	124.06
282.356	126.06
282.588	101.06
282.819	106.06
283.051	119.06
283.282	144.06
283.513	211.06
283.745	315.06
283.976	570.06
284.207	863.06
284.439	634.06
284.67	276.06
284.901	272.06
285.132	371.06
285.364	396.06
285.595	233.06
285.826	188.06
286.057	254.06
286.288	444.06
286.52	646.06
286.751	534.06
286.982	200.06
287.213	116.06
287.444	117.06
287.675	102.06
287.906	101.06
288.138	88.06
288.369	99.06
288.6	99.06
288.831	91.06
289.062	97.06
289.293	101.06
289.524	101.06
289.755	97.06
289.986	93.06
290.217	113.06
290.448	108.06
290.679	105.06
290.91	134.06
291.141	175.06
291.371	247.06
291.602	297.06
291.833	201.06
292.064	125.06
292.295	111.06
292.526	122.06
292.757	100.06
292.987	111.06
293.218	95.06
293.449	102.06
293.68	92.06
293.91	100.06
294.141	102.06
294.372	98.06
294.603	97.06
294.833	93.06
295.064	88.06
295.295	82.06
295.525	102.06
295.756	89.06
295.987	80.06
296.217	100.06
296.448	99.06
296.679	93.06
296.909	80.06
297.14	97.06
297.37	109.06
297.601	108.06
297.831	92.06
298.062	102.06
298.292	98.06
298.523	98.06
298.753	111.06
298.984	100.06
299.214	118.06
299.445	122.06
299.675	105.06
299.905	120.06
300.136	127.06
300.366	187.06
300.597	307.06
300.827	506.06
301.057	748.06
301.288	647.06
301.518	278.06
301.748	167.06
301.979	137.06
302.209	137.06
302.439	149.06
302.669	189.06
302.9	283.06
303.13	523.06
303.36	914.06
303.59	1294.06
303.82	906.06
304.051	319.06
304.281	161.06
304.511	132.06
304.741	120.06
304.971	122.06
305.201	117.06
305.431	106.06
305.661	110.06
305.891	118.06
306.121	115.06
306.352	108.06
306.582	105.06
306.812	103.06
307.042	110.06
307.272	96.06
307.502	104.06
307.731	100.06
307.961	110.06
308.191	92.06
308.421	106.06
308.651	104.06
308.881	109.06
309.111	105.06
309.341	108.06
309.571	116.06
309.8	119.06
310.03	114.06
310.26	105.06
310.49	108.06
310.72	106.06
310.949	92.06
311.179	110.06
311.409	116.06
311.639	92.06
311.868	99.06
312.098	103.06
312.328	117.06
312.557	128.06
312.787	108.06
313.017	106.06
313.246	112.06
313.476	120.06
313.706	128.06
313.935	161.06
314.165	202.06
314.394	243.06
314.624	180.06
314.853	133.06
315.083	136.06
315.312	113.06
315.542	129.06
315.771	130.06
316.001	124.06
316.23	143.06
316.46	153.06
316.689	175.06
316.919	284.06
317.148	523.06
317.377	985.06
317.607	1624.06
317.836	1537.06
318.065	555.06
318.295	217.06
318.524	172.06
318.753	128.06
318.983	118.06
319.212	122.06
319.441	127.06
319.67	122.06
319.9	102.06
320.129	105.06
320.358	125.06
320.587	125.06
320.816	117.06
321.046	134.06
321.275	138.06
321.504	115.06
321.733	155.06
321.962	172.06
322.191	175.06
322.42	139.06
322.649	136.06
322.878	113.06
323.108	116.06
323.337	134.06
323.566	126.06
323.795	132.06
324.024	133.06
324.253	164.06
324.482	178.06
324.71	233.06
324.939	297.06
325.168	260.06
325.397	204.06
325.626	269.06
325.855	503.06
326.084	1015.06
326.313	1708.06
326.542	1730.06
326.77	633.06
326.999	268.06
327.228	228.06
327.457	239.06
327.686	246.06
327.914	157.06
328.143	130.06
328.372	149.06
328.6	128.06
328.829	135.06
329.058	126.06
329.287	119.06
329.515	136.06
329.744	121.06
329.972	117.06
330.201	118.06
330.43	119.06
330.658	122.06
330.887	121.06
331.115	101.06
331.344	112.06
331.572	118.06
331.801	132.06
332.03	111.06
332.258	138.06
332.486	181.06
332.715	305.06
332.943	557.06
333.172	830.06
333.4	711.06
333.629	279.06
333.857	158.06
334.085	119.06
334.314	124.06
334.542	126.06
334.771	130.06
334.999	142.06
335.227	127.06
335.455	134.06
335.684	117.06
335.912	128.06
336.14	124.06
336.369	126.06
336.597	117.06
336.825	111.06
337.053	103.06
337.281	124.06
337.51	120.06
337.738	119.06
337.966	120.06
338.194	122.06
338.422	135.06
338.65	118.06
338.878	123.06
339.106	113.06
339.334	125.06
339.562	122.06
339.79	104.06
340.018	116.06
340.246	122.06
340.474	118.06
340.702	109.06
340.93	108.06
341.158	121.06
341.386	119.06
341.614	112.06
341.842	108.06
342.07	108.06
342.298	111.06
342.526	115.06
342.754	114.06
342.981	111.06
343.209	122.06
343.437	119.06
343.665	120.06
343.893	122.06
344.12	105.06
344.348	100.06
344.576	110.06
344.804	120.06
345.031	116.06
345.259	120.06
345.487	105.06
345.714	110.06
345.942	116.06
346.17	114.06
346.397	112.06
346.625	111.06
346.853	93.06
347.08	114.06
347.308	97.06
347.535	102.06
347.763	95.06
347.99	105.06
348.218	102.06
348.445	106.06
348.673	105.06
348.9	118.06
349.128	121.06
349.355	112.06
349.583	118.06
349.81	117.06
350.037	111.06
350.265	120.06
350.492	118.06
350.72	119.06
350.947	111.06
351.174	111.06
351.402	121.06
351.629	124.06
351.856	122.06
352.083	106.06
352.311	114.06
352.538	117.06
352.765	110.06
352.992	101.06
353.22	105.06
353.447	96.06
353.674	109.06
353.901	93.06
354.128	100.06
354.355	104.06
354.583	109.06
354.81	90.06
355.037	100.06
355.264	92.06
355.491	111.06
355.718	106.06
355.945	83.06
356.172	101.06
356.399	110.06
356.626	112.06
356.853	112.06
357.08	127.06
357.307	96.06
357.534	121.06
357.761	114.06
357.988	103.06
358.215	102.06
358.441	107.06
358.668	115.06
358.895	106.06
359.122	132.06
359.349	114.06
359.576	114.06
359.802	128.06
360.029	110.06
360.256	115.06
360.483	101.06
360.709	114.06
360.936	126.06
361.163	104.06
361.39	116.06
361.616	104.06
361.843	112.06
362.07	120.06
362.296	104.06
362.523	108.06
362.749	99.06
362.976	110.06
363.203	120.06
363.429	128.06
363.656	111.06
363.882	113.06
364.109	104.06
364.335	108.06
364.562	86.06
364.788	98.06
365.015	116.06
365.241	135.06
365.468	194.06
365.694	260.06
365.92	209.06
366.147	118.06
366.373	103.06
366.599	87.06
366.826	95.06
367.052	108.06
367.278	95.06
367.505	96.06
367.731	104.06
367.957	103.06
368.184	102.06
368.41	104.06
368.636	117.06
368.862	107.06
369.089	96.06
369.315	112.06
369.541	113.06
369.767	108.06
369.993	101.06
370.219	98.06
370.445	116.06
370.672	106.06
370.898	108.06
371.124	103.06
371.35	109.06
371.576	110.06
371.802	109.06
372.028	130.06
372.254	93.06
372.48	117.06
372.706	118.06
372.932	103.06
373.158	93.06
373.384	101.06
373.61	123.06
373.835	113.06
374.061	114.06
374.287	103.06
374.513	113.06
374.739	108.06
374.965	108.06
375.191	118.06
375.416	100.06
375.642	92.06
375.868	108.06
376.094	111.06
376.319	110.06
376.545	109.06
376.771	109.06
376.997	112.06
377.222	114.06
377.448	98.06
377.674	110.06
377.899	103.06
378.125	114.06
378.35	120.06
378.576	133.06
378.802	124.06
379.027	129.06
379.253	156.06
379.478	168.06
379.704	353.06
379.929	838.06
380.155	1698.06
380.38	1756.06
380.606	568.06
380.831	195.06
381.057	149.06
381.282	112.06
381.507	113.06
381.733	116.06
381.958	111.06
382.184	112.06
382.409	111.06
382.634	96.06
382.86	95.06
383.085	105.06
383.31	117.06
383.535	106.06
383.761	103.06
383.986	103.06
384.211	111.06
384.436	110.06
384.662	113.06
384.887	105.06
385.112	93.06
385.337	115.06
385.562	108.06
385.787	110.06
386.013	101.06
386.238	98.06
386.463	94.06
386.688	105.06
386.913	102.06
387.138	102.06
387.363	116.06
387.588	108.06
387.813	98.06
388.038	110.06
388.263	111.06
388.488	101.06
388.713	106.06
388.938	110.06
389.163	102.06
389.387	90.06
389.612	96.06
389.837	102.06
390.062	114.06
390.287	90.06
390.512	91.06
390.736	105.06
390.961	97.06
391.186	112.06
391.411	98.06
391.636	91.06
391.86	102.06
392.085	102.06
392.31	95.06
392.534	101.06
392.759	96.06
392.984	90.06
393.208	119.06
393.433	136.06
393.658	134.06
393.882	99.06
394.107	111.06
394.331	113.06
394.556	87.06
394.78	88.06
395.005	102.06
395.229	101.06
395.454	104.06
395.678	96.06
395.903	93.06
396.127	92.06
396.352	110.06
396.576	97.06
396.801	103.06
397.025	130.06
397.249	112.06
397.474	103.06
397.698	98.06
397.922	94.06
398.147	93.06
398.371	78.06
398.595	97.06
398.82	97.06
399.044	92.06
399.268	119.06
399.492	96.06
399.717	108.06
399.941	79.06
400.165	114.06
400.389	110.06
400.613	95.06
400.837	90.06
401.062	80.06
401.286	97.06
401.51	89.06
401.734	98.06
401.958	92.06
402.182	99.06
402.406	117.06
402.63	98.06
402.854	94.06
403.078	105.06
403.302	93.06
403.526	92.06
403.75	87.06
403.974	81.06
404.198	91.06
404.422	87.06
404.645	71.06
404.869	98.06
405.093	106.06
405.317	85.06
405.541	105.06
405.765	148.06
405.988	156.06
406.212	122.06
406.436	108.06
406.66	88.06
406.883	90.06
407.107	98.06
407.331	102.06
407.555	97.06
407.778	98.06
408.002	102.06
408.226	113.06
408.449	104.06
408.673	92.06
408.896	93.06
409.12	101.06
409.344	104.06
409.567	109.06
409.791	97.06
410.014	105.06
410.238	112.06
410.461	108.06
410.685	90.06
410.908	91.06
411.132	108.06
411.355	94.06
411.578	96.06
411.802	103.06
412.025	95.06
412.249	87.06
412.472	102.06
412.695	82.06
412.919	86.06
413.142	104.06
413.365	107.06
413.589	104.06
413.812	92.06
414.035	102.06
414.258	109.06
414.482	106.06
414.705	114.06
414.928	119.06
415.151	98.06
415.374	99.06
415.597	105.06
415.821	95.06
416.044	94.06
416.267	85.06
416.49	93.06
416.713	99.06
416.936	85.06
417.159	96.06
417.382	98.06
417.605	106.06
417.828	112.06
418.051	89.06
418.274	100.06
418.497	78.06
418.72	92.06
418.943	95.06
419.166	118.06
419.389	108.06
419.611	114.06
419.834	96.06
420.057	84.06
420.28	87.06
420.503	97.06
420.726	103.06
420.948	111.06
421.171	96.06
421.394	89.06
421.617	100.06
421.839	87.06
422.062	82.06
422.285	101.06
422.507	121.06
422.73	122.06
422.953	125.06
423.175	114.06
423.398	98.06
423.621	113.06
423.843	97.06
424.066	74.06
424.288	85.06
424.511	102.06
424.733	101.06
424.956	108.06
425.178	104.06
425.401	96.06
425.623	94.06
425.846	96.06
426.068	92.06
426.291	88.06
426.513	93.06
426.735	97.06
426.958	94.06
427.18	105.06
427.402	96.06
427.625	91.06
427.847	100.06
428.069	93.06
428.292	84.06
428.514	93.06
428.736	83.06
428.958	95.06
429.181	94.06
429.403	97.06
429.625	98.06
429.847	88.06
430.069	109.06
430.292	92.06
430.514	103.06
430.736	92.06
430.958	99.06
431.18	86.06
431.402	102.06
431.624	83.06
431.846	98.06
432.068	75.06
432.29	98.06
432.512	92.06
432.734	93.06
432.956	97.06
433.178	109.06
433.4	97.06
433.622	99.06
433.844	100.06
434.066	93.06
434.287	91.06
434.509	101.06
434.731	101.06
434.953	96.06
435.175	79.06
435.397	98.06
435.618	93.06
435.84	101.06
436.062	95.06
436.284	88.06
436.505	99.06
436.727	85.06
436.949	100.06
437.17	95.06
437.392	92.06
437.614	95.06
437.835	96.06
438.057	80.06
438.278	79.06
438.5	110.06
438.721	110.06
438.943	94.06
439.165	116.06
439.386	112.06
439.608	101.06
439.829	100.06
440.05	114.06
440.272	120.06
440.493	100.06
440.715	106.06
440.936	99.06
441.158	86.06
441.379	88.06
441.6	95.06
441.822	114.06
442.043	129.06
442.264	139.06
442.486	113.06
442.707	106.06
442.928	109.06
443.149	83.06
443.371	99.06
443.592	92.06
443.813	102.06
444.034	101.06
444.255	91.06
444.476	87.06
444.698	96.06
444.919	94.06
445.14	179.06
445.361	142.06
445.582	96.06
445.803	103.06
446.024	88.06
446.245	103.06
446.466	98.06
446.687	86.06
446.908	98.06
447.129	100.06
447.35	101.06
447.571	89.06
447.792	87.06
448.013	91.06
448.234	102.06
448.455	88.06
448.675	90.06
448.896	109.06
449.117	111.06
449.338	150.06
449.559	156.06
449.779	118.06
450	105.06
450.221	101.06
450.442	111.06
450.662	121.06
450.883	107.06
451.104	99.06
451.324	116.06
451.545	107.06
451.766	120.06
451.986	134.06
452.207	212.06
452.428	543.06
452.648	1468.06
452.869	802.06
453.089	206.06
453.31	119.06
453.53	125.06
453.751	133.06
453.971	159.06
454.192	159.06
454.412	120.06
454.633	95.06
454.853	100.06
455.073	97.06
455.294	87.06
455.514	89.06
455.734	94.06
455.955	101.06
456.175	101.06
456.395	90.06
456.616	97.06
456.836	101.06
457.056	99.06
457.276	109.06
457.497	120.06
457.717	125.06
457.937	80.06
458.157	87.06
458.377	88.06
458.598	98.06
458.818	101.06
459.038	107.06
459.258	64.06
459.478	68.06
459.698	89.06
459.918	91.06
460.138	73.06
460.358	79.06
460.578	89.06
460.798	98.06
461.018	87.06
461.238	87.06
461.458	91.06
461.678	79.06
461.898	78.06
462.118	94.06
462.338	99.06
462.558	92.06
462.777	100.06
462.997	95.06
463.217	94.06
463.437	122.06
463.657	185.06
463.876	200.06
464.096	133.06
464.316	99.06
464.536	97.06
464.755	100.06
464.975	101.06
465.195	103.06
465.414	93.06
465.634	99.06
465.854	99.06
466.073	96.06
466.293	97.06
466.512	100.06
466.732	98.06
466.951	108.06
467.171	148.06
467.391	126.06
467.61	97.06
467.829	88.06
468.049	117.06
468.268	108.06
468.488	104.06
468.707	98.06
468.927	93.06
469.146	107.06
469.365	95.06
469.585	94.06
469.804	97.06
470.023	95.06
470.243	90.06
470.462	104.06
470.681	101.06
470.901	111.06
471.12	204.06
471.339	208.06
471.558	143.06
471.777	116.06
471.997	98.06
472.216	90.06
472.435	105.06
472.654	97.06
472.873	90.06
473.092	94.06
473.311	101.06
473.53	89.06
473.749	102.06
473.968	85.06
474.187	67.06
474.406	87.06
474.625	91.06
474.844	94.06
475.063	101.06
475.282	89.06
475.501	93.06
475.72	97.06
475.939	97.06
476.158	94.06
476.377	102.06
476.596	104.06
476.814	91.06
477.033	97.06
477.252	86.06
477.471	98.06
477.69	95.06
477.908	105.06
478.127	86.06
478.346	102.06
478.564	94.06
478.783	90.06
479.002	87.06
479.22	108.06
479.439	115.06
479.658	109.06
479.876	89.06
480.095	91.06
480.313	99.06
480.532	111.06
480.751	89.06
480.969	88.06
481.188	93.06
481.406	102.06
481.624	113.06
481.843	128.06
482.061	114.06
482.28	90.06
482.498	103.06
482.717	99.06
482.935	108.06
483.153	91.06
483.372	100.06
483.59	99.06
483.808	92.06
484.027	116.06
484.245	116.06
484.463	166.06
484.681	239.06
484.9	134.06
485.118	114.06
485.336	114.06
485.554	123.06
485.772	118.06
485.99	186.06
486.209	261.06
486.427	185.06
486.645	131.06
486.863	116.06
487.081	105.06
487.299	108.06
487.517	102.06
487.735	93.06
487.953	105.06
488.171	104.06
488.389	90.06
488.607	90.06
488.825	101.06
489.043	108.06
489.261	104.06
489.479	112.06
489.696	105.06
489.914	101.06
490.132	112.06
490.35	107.06
490.568	103.06
490.786	102.06
491.003	103.06
491.221	121.06
491.439	103.06
491.657	101.06
491.874	103.06
492.092	111.06
492.31	108.06
492.527	113.06
492.745	95.06
492.963	91.06
493.18	95.06
493.398	94.06
493.615	111.06
493.833	100.06
494.05	98.06
494.268	95.06
494.485	113.06
494.703	104.06
494.92	115.06
495.138	102.06
495.355	102.06
495.573	119.06
495.79	118.06
496.008	118.06
496.225	108.06
496.442	116.06
496.66	145.06
496.877	183.06
497.094	156.06
497.312	114.06
497.529	109.06
497.746	109.06
497.963	109.06
498.181	114.06
498.398	101.06
498.615	95.06
498.832	90.06
499.049	116.06
499.267	140.06
499.484	164.06
499.701	117.06
499.918	92.06
500.135	113.06
500.352	88.06
500.569	94.06
500.786	101.06
501.003	111.06
501.22	86.06
501.437	106.06
501.654	96.06
501.871	104.06
502.088	92.06
502.305	84.06
502.522	100.06
502.739	104.06
502.956	96.06
503.172	102.06
503.389	120.06
503.606	96.06
503.823	102.06
504.04	92.06
504.256	96.06
504.473	116.06
504.69	86.06
504.907	116.06
505.123	128.06
505.34	100.06
505.557	82.06
505.773	103.06
505.99	104.06
506.207	103.06
506.423	105.06
506.64	124.06
506.856	106.06
507.073	105.06
507.289	93.06
507.506	102.06
507.722	90.06
507.939	104.06
508.155	103.06
508.372	107.06
508.588	90.06
508.805	83.06
509.021	97.06
509.238	109.06
509.454	136.06
509.67	151.06
509.887	117.06
510.103	111.06
510.319	97.06
510.536	109.06
510.752	120.06
510.968	102.06
511.184	98.06
511.401	103.06
511.617	88.06
511.833	89.06
512.049	107.06
512.265	93.06
512.481	97.06
512.698	95.06
512.914	102.06
513.13	104.06
513.346	80.06
513.562	102.06
513.778	116.06
513.994	103.06
514.21	113.06
514.426	140.06
514.642	182.06
514.858	117.06
515.074	112.06
515.29	102.06
515.506	105.06
515.721	109.06
515.937	98.06
516.153	108.06
516.369	118.06
516.585	81.06
516.801	98.06
517.016	90.06
517.232	85.06
517.448	88.06
517.664	96.06
517.879	114.06
518.095	97.06
518.311	88.06
518.527	112.06
518.742	108.06
518.958	111.06
519.173	154.06
519.389	127.06
519.605	98.06
519.82	110.06
520.036	91.06
520.251	116.06
520.467	99.06
520.682	98.06
520.898	100.06
521.113	110.06
521.329	82.06
521.544	90.06
521.76	101.06
521.975	108.06
522.19	104.06
522.406	91.06
522.621	94.06
522.836	104.06
523.052	100.06
523.267	98.06
523.482	96.06
523.698	102.06
523.913	105.06
524.128	95.06
524.343	86.06
524.559	108.06
524.774	90.06
524.989	112.06
525.204	104.06
525.419	100.06
525.634	108.06
525.849	95.06
526.064	94.06
526.28	96.06
526.495	100.06
526.71	106.06
526.925	96.06
527.14	93.06
527.355	95.06
527.57	94.06
527.785	98.06
527.999	86.06
528.214	102.06
528.429	84.06
528.644	102.06
528.859	100.06
529.074	94.06
529.289	106.06
529.503	92.06
529.718	99.06
529.933	81.06
530.148	88.06
530.363	98.06
530.577	94.06
530.792	100.06
531.007	92.06
531.221	92.06
531.436	86.06
531.651	88.06
531.865	103.06
532.08	95.06
532.295	111.06
532.509	132.06
532.724	118.06
532.938	103.06
533.153	101.06
533.367	110.06
533.582	94.06
533.796	89.06
534.011	110.06
534.225	96.06
534.44	92.06
534.654	101.06
534.868	94.06
535.083	112.06
535.297	92.06
535.511	96.06
535.726	88.06
535.94	98.06
536.154	114.06
536.369	82.06
536.583	92.06
536.797	112.06
537.011	98.06
537.225	89.06
537.44	100.06
537.654	89.06
537.868	86.06
538.082	91.06
538.296	102.06
538.51	96.06
538.724	101.06
538.938	86.06
539.153	94.06
539.367	97.06
539.581	105.06
539.795	89.06
540.009	110.06
540.222	102.06
540.436	89.06
540.65	88.06
540.864	111.06
541.078	112.06
541.292	129.06
541.506	236.06
541.72	214.06
541.934	128.06
542.147	111.06
542.361	116.06
542.575	105.06
542.789	90.06
543.002	104.06
543.216	97.06
543.43	87.06
543.644	97.06
543.857	99.06
544.071	94.06
544.285	109.06
544.498	103.06
544.712	108.06
544.925	96.06
545.139	94.06
545.352	102.06
545.566	100.06
545.779	110.06
545.993	101.06
546.206	112.06
546.42	101.06
546.633	104.06
546.847	104.06
547.06	88.06
547.274	110.06
547.487	97.06
547.7	102.06
547.914	100.06
548.127	97.06
548.34	93.06
548.554	104.06
548.767	103.06
548.98	115.06
549.193	100.06
549.407	108.06
549.62	104.06
549.833	90.06
550.046	95.06
550.259	87.06
550.473	96.06
550.686	108.06
550.899	104.06
551.112	94.06
551.325	92.06
551.538	103.06
551.751	95.06
551.964	101.06
552.177	103.06
552.39	104.06
552.603	114.06
552.816	104.06
553.029	91.06
553.242	109.06
553.455	109.06
553.667	109.06
553.88	101.06
554.093	96.06
554.306	119.06
554.519	100.06
554.732	100.06
554.944	102.06
555.157	98.06
555.37	92.06
555.583	94.06
555.795	108.06
556.008	115.06
556.221	151.06
556.433	133.06
556.646	120.06
556.859	97.06
557.071	95.06
557.284	147.06
557.496	111.06
557.709	101.06
557.921	104.06
558.134	87.06
558.346	110.06
558.559	112.06
558.771	105.06
558.984	106.06
559.196	114.06
559.409	111.06
559.621	114.06
559.833	99.06
560.046	98.06
560.258	94.06
560.47	101.06
560.683	95.06
560.895	103.06
561.107	91.06
561.32	104.06
561.532	83.06
561.744	101.06
561.956	105.06
562.168	97.06
562.381	109.06
562.593	120.06
562.805	145.06
563.017	174.06
563.229	245.06
563.441	620.06
563.653	225.06
563.865	117.06
564.077	114.06
564.289	113.06
564.501	99.06
564.713	86.06
564.925	87.06
565.137	96.06
565.349	95.06
565.561	92.06
565.773	89.06
565.985	94.06
566.197	102.06
566.408	111.06
566.62	90.06
566.832	91.06
567.044	97.06
567.255	96.06
567.467	99.06
567.679	103.06
567.891	124.06
568.102	175.06
568.314	262.06
568.526	153.06
568.737	116.06
568.949	100.06
569.161	101.06
569.372	95.06
569.584	93.06
569.795	97.06
570.007	108.06
570.218	133.06
570.43	182.06
570.641	110.06
570.853	86.06
571.064	89.06
571.276	91.06
571.487	111.06
571.698	93.06
571.91	96.06
572.121	98.06
572.333	81.06
572.544	108.06
572.755	158.06
572.966	197.06
573.178	135.06
573.389	109.06
573.6	84.06
573.811	87.06
574.023	110.06
574.234	101.06
574.445	101.06
574.656	110.06
574.867	113.06
575.078	93.06
575.289	92.06
575.501	112.06
575.712	97.06
575.923	93.06
576.134	92.06
576.345	98.06
576.556	94.06
576.767	85.06
576.978	103.06
577.188	98.06
577.399	93.06
577.61	94.06
577.821	96.06
578.032	82.06
578.243	102.06
578.454	96.06
578.665	90.06
578.875	81.06
579.086	101.06
579.297	82.06
579.508	85.06
579.718	97.06
579.929	92.06
580.14	93.06
580.35	96.06
580.561	87.06
580.772	89.06
580.982	93.06
581.193	88.06
581.403	87.06
581.614	86.06
581.825	91.06
582.035	88.06
582.246	99.06
582.456	103.06
582.667	91.06
582.877	121.06
583.087	112.06
583.298	96.06
583.508	100.06
583.719	93.06
583.929	86.06
584.139	92.06
584.35	93.06
584.56	92.06
584.77	106.06
584.981	102.06
585.191	76.06
585.401	103.06
585.611	96.06
585.821	81.06
586.032	93.06
586.242	93.06
586.452	93.06
586.662	93.06
586.872	96.06
587.082	90.06
587.292	91.06
587.502	92.06
587.713	95.06
587.923	97.06
588.133	93.06
588.343	101.06
588.553	95.06
588.762	101.06
588.972	93.06
589.182	113.06
589.392	97.06
589.602	88.06
589.812	96.06
590.022	103.06
590.232	82.06
590.441	97.06
590.651	93.06
590.861	99.06
591.071	92.06
591.281	91.06
591.49	80.06
591.7	77.06
591.91	97.06
592.119	86.06
592.329	95.06
592.539	97.06
592.748	90.06
592.958	99.06
593.167	84.06
593.377	82.06
593.587	97.06
593.796	99.06
594.006	85.06
594.215	87.06
594.424	100.06
594.634	86.06
594.843	84.06
595.053	95.06
595.262	78.06
595.472	85.06
595.681	96.06
595.89	102.06
596.1	103.06
596.309	102.06
596.518	78.06
596.727	78.06
596.937	92.06
597.146	101.06
597.355	114.06
597.564	100.06
597.774	94.06
597.983	75.06
598.192	98.06
598.401	92.06
598.61	94.06
598.819	76.06
599.028	83.06
599.237	92.06
599.446	81.06
599.655	101.06
599.864	94.06
600.073	93.06
600.282	95.06
600.491	93.06
600.7	93.06
600.909	97.06
601.118	97.06
601.327	96.06
601.536	89.06
601.745	103.06
601.953	150.06
602.162	151.06
602.371	128.06
602.58	111.06
602.789	74.06
602.997	88.06
603.206	90.06
603.415	93.06
603.623	95.06
603.832	96.06
604.041	98.06
604.249	92.06
604.458	89.06
604.666	101.06
604.875	79.06
605.084	99.06
605.292	94.06
605.501	93.06
605.709	108.06
605.918	102.06
606.126	102.06
606.334	89.06
606.543	96.06
606.751	124.06
606.96	162.06
607.168	175.06
607.376	120.06
607.585	119.06
607.793	87.06
608.001	103.06
608.21	94.06
608.418	79.06
608.626	95.06
608.834	93.06
609.043	100.06
609.251	97.06
609.459	86.06
609.667	94.06
609.875	83.06
610.083	90.06
610.291	85.06
610.499	96.06
610.707	88.06
610.916	89.06
611.124	86.06
611.332	94.06
611.54	88.06
611.748	110.06
611.955	84.06
612.163	100.06
612.371	105.06
612.579	109.06
612.787	93.06
612.995	73.06
613.203	89.06
613.411	110.06
613.618	95.06
613.826	94.06
614.034	106.06
614.242	88.06
614.449	102.06
614.657	96.06
614.865	100.06
615.072	98.06
615.28	113.06
615.488	100.06
615.695	104.06
615.903	113.06
616.111	100.06
616.318	85.06
616.526	102.06
616.733	92.06
616.941	86.06
617.148	103.06
617.356	96.06
617.563	89.06
617.771	110.06
617.978	96.06
618.185	89.06
618.393	83.06
618.6	90.06
618.807	88.06
619.015	78.06
619.222	78.06
619.429	101.06
619.637	88.06
619.844	92.06
620.051	100.06
620.258	88.06
620.466	97.06
620.673	99.06
620.88	91.06
621.087	91.06
621.294	90.06
621.501	91.06
621.708	81.06
621.915	80.06
622.122	113.06
622.329	91.06
622.536	82.06
622.743	115.06
622.95	93.06
623.157	87.06
623.364	106.06
623.571	92.06
623.778	87.06
623.985	104.06
624.192	89.06
624.399	87.06
624.606	103.06
624.812	84.06
625.019	109.06
625.226	81.06
625.433	89.06
625.639	93.06
625.846	78.06
626.053	105.06
626.259	92.06
626.466	100.06
626.673	71.06
626.879	87.06
627.086	92.06
627.293	92.06
627.499	98.06
627.706	93.06
627.912	83.06
628.119	91.06
628.325	86.06
628.532	105.06
628.738	93.06
628.945	98.06
629.151	86.06
629.357	93.06
629.564	95.06
629.77	97.06
629.976	85.06
630.183	78.06
630.389	90.06
630.595	92.06
630.802	86.06
631.008	102.06
631.214	100.06
631.42	79.06
631.627	103.06
631.833	97.06
632.039	82.06
632.245	84.06
632.451	94.06
632.657	92.06
632.863	81.06
633.069	86.06
633.275	68.06
633.481	85.06
633.688	81.06
633.893	87.06
634.099	78.06
634.305	89.06
634.511	100.06
634.717	84.06
634.923	96.06
635.129	123.06
635.335	121.06
635.541	95.06
635.747	108.06
635.952	95.06
636.158	82.06
636.364	97.06
636.57	86.06
636.775	75.06
636.981	83.06
637.187	79.06
637.392	83.06
637.598	86.06
637.804	85.06
638.009	81.06
638.215	76.06
638.421	86.06
638.626	83.06
638.832	88.06
639.037	83.06
639.243	87.06
639.448	95.06
639.654	97.06
639.859	91.06
640.065	88.06
640.27	89.06
640.475	93.06
640.681	73.06
640.886	90.06
641.091	97.06
641.297	99.06
641.502	81.06
641.707	86.06
641.913	78.06
642.118	92.06
642.323	84.06
642.528	85.06
642.733	111.06
642.939	98.06
643.144	101.06
643.349	95.06
643.554	97.06
643.759	94.06
643.964	92.06
644.169	89.06
644.374	96.06
644.579	81.06
644.784	79.06
644.989	77.06
645.194	82.06
645.399	101.06
645.604	120.06
645.809	124.06
646.014	81.06
646.219	64.06
646.423	80.06
646.628	94.06
646.833	82.06
647.038	97.06
647.243	85.06
647.447	85.06
647.652	97.06
647.857	77.06
648.062	81.06
648.266	84.06
648.471	99.06
648.676	95.06
648.88	76.06
649.085	74.06
649.289	84.06
649.494	95.06
649.698	102.06
649.903	87.06
650.107	76.06
650.312	85.06
650.516	101.06
650.721	92.06
650.925	75.06
651.13	86.06
651.334	94.06
651.539	79.06
651.743	88.06
651.947	81.06
652.152	83.06
652.356	82.06
652.56	101.06
652.764	99.06
652.969	90.06
653.173	89.06
653.377	77.06
653.581	84.06
653.785	86.06
653.99	79.06
654.194	82.06
654.398	78.06
654.602	69.06
654.806	71.06
655.01	75.06
655.214	74.06
655.418	83.06
655.622	79.06
655.826	97.06
656.03	87.06
656.234	81.06
656.438	80.06
656.642	74.06
656.846	92.06
657.049	87.06
657.253	90.06
657.457	78.06
657.661	69.06
657.865	98.06
658.068	85.06
658.272	85.06
658.476	81.06
658.68	96.06
658.883	69.06
659.087	77.06
659.291	71.06
659.494	95.06
659.698	77.06
659.901	84.06
660.105	75.06
660.309	77.06
660.512	84.06
660.716	81.06
660.919	96.06
661.123	90.06
661.326	84.06
661.53	76.06
661.733	82.06
661.936	90.06
662.14	85.06
662.343	78.06
662.546	78.06
662.75	93.06
662.953	74.06
663.156	74.06
663.36	77.06
663.563	96.06
663.766	68.06
663.969	60.06
664.173	68.06
664.376	74.06
664.579	77.06
664.782	77.06
664.985	80.06
665.188	80.06
665.391	83.06
665.594	69.06
665.797	74.06
666	83.06
666.203	75.06
666.406	94.06
666.609	89.06
666.812	93.06
667.015	82.06
667.218	96.06
667.421	83.06
667.624	70.06
667.827	66.06
668.03	92.06
668.232	89.06
668.435	96.06
668.638	80.06
668.841	64.06
669.043	80.06
669.246	74.06
669.449	81.06
669.651	79.06
669.854	92.06
670.057	85.06
670.259	91.06
670.462	84.06
670.665	80.06
670.867	76.06
671.07	83.06
671.272	75.06
671.475	77.06
671.677	84.06
671.88	66.06
672.082	77.06
672.284	76.06
672.487	73.06
672.689	73.06
672.892	80.06
