Data from SnStandardFlinnAPT0064_LampEnergy5.5_LIBS07252019.E.O._I.C._HRD10591_15-16-10-491.txt Node
Date: Thu Jul 25 15:16:10 EDT 2019
User: cochatt
Spectrometer: HR+D1059
Trigger mode: 1
Integration Time (sec): 1.000000E-1
Scans to average: 1
Electric dark correction enabled: true
Nonlinearity correction enabled: false
Boxcar width: 0
XAxis mode: Wavelengths
Number of Pixels in Spectrum: 2048
>>>>>Begin Spectral Data<<<<<
223.165	-21.12
223.4	-21.12
223.635	-21.12
223.869	-30.12
224.104	-24.12
224.338	-9.12
224.573	-19.12
224.808	-15.12
225.042	-3.12
225.277	-17.12
225.511	5.88
225.746	14.88
225.98	14.88
226.215	5.88
226.449	11.88
226.683	11.88
226.918	28.88
227.152	44.88
227.387	35.88
227.621	45.88
227.856	26.88
228.09	36.88
228.324	45.88
228.559	47.88
228.793	84.88
229.027	148.88
229.262	167.88
229.496	145.88
229.73	170.88
229.964	163.88
230.199	156.88
230.433	167.88
230.667	179.88
230.901	168.88
231.136	160.88
231.37	177.88
231.604	174.88
231.838	218.88
232.072	233.88
232.306	221.88
232.541	204.88
232.775	199.88
233.009	208.88
233.243	209.88
233.477	226.88
233.711	242.88
233.945	247.88
234.179	242.88
234.413	207.88
234.647	224.88
234.881	228.88
235.115	241.88
235.349	292.88
235.583	313.88
235.817	413.88
236.051	414.88
236.285	296.88
236.519	214.88
236.753	225.88
236.987	221.88
237.221	228.88
237.455	238.88
237.689	215.88
237.922	215.88
238.156	216.88
238.39	225.88
238.624	202.88
238.858	240.88
239.091	237.88
239.325	220.88
239.559	236.88
239.793	224.88
240.027	231.88
240.26	260.88
240.494	268.88
240.728	266.88
240.961	262.88
241.195	273.88
241.429	290.88
241.662	322.88
241.896	339.88
242.13	393.88
242.363	508.88
242.597	615.88
242.83	600.88
243.064	614.88
243.298	696.88
243.531	602.88
243.765	396.88
243.998	333.88
244.232	304.88
244.465	289.88
244.699	290.88
244.932	281.88
245.166	300.88
245.399	281.88
245.633	300.88
245.866	295.88
246.099	300.88
246.333	300.88
246.566	303.88
246.8	284.88
247.033	277.88
247.266	310.88
247.5	295.88
247.733	306.88
247.966	295.88
248.2	317.88
248.433	360.88
248.666	415.88
248.899	379.88
249.133	352.88
249.366	366.88
249.599	400.88
249.832	438.88
250.066	431.88
250.299	370.88
250.532	348.88
250.765	342.88
250.998	333.88
251.231	328.88
251.465	328.88
251.698	322.88
251.931	327.88
252.164	334.88
252.397	328.88
252.63	345.88
252.863	349.88
253.096	356.88
253.329	363.88
253.562	338.88
253.795	326.88
254.028	351.88
254.261	353.88
254.494	368.88
254.727	420.88
254.96	496.88
255.193	496.88
255.426	412.88
255.659	382.88
255.892	376.88
256.124	370.88
256.357	366.88
256.59	386.88
256.823	419.88
257.056	468.88
257.289	530.88
257.521	565.88
257.754	466.88
257.987	404.88
258.22	418.88
258.452	413.88
258.685	386.88
258.918	411.88
259.151	412.88
259.383	463.88
259.616	492.88
259.849	489.88
260.081	474.88
260.314	432.88
260.547	421.88
260.779	417.88
261.012	421.88
261.244	410.88
261.477	423.88
261.71	459.88
261.942	438.88
262.175	442.88
262.407	473.88
262.64	445.88
262.872	483.88
263.105	518.88
263.337	522.88
263.57	563.88
263.802	560.88
264.035	567.88
264.267	566.88
264.499	599.88
264.732	634.88
264.964	632.88
265.197	627.88
265.429	622.88
265.661	631.88
265.894	680.88
266.126	713.88
266.358	775.88
266.591	754.88
266.823	700.88
267.055	626.88
267.287	610.88
267.52	594.88
267.752	570.88
267.984	574.88
268.216	559.88
268.448	556.88
268.681	549.88
268.913	518.88
269.145	550.88
269.377	545.88
269.609	529.88
269.841	573.88
270.073	593.88
270.306	666.88
270.538	841.88
270.77	1249.88
271.002	1464.88
271.234	1051.88
271.466	729.88
271.698	628.88
271.93	572.88
272.162	538.88
272.394	540.88
272.626	530.88
272.858	528.88
273.09	496.88
273.322	529.88
273.553	498.88
273.785	489.88
274.017	520.88
274.249	522.88
274.481	526.88
274.713	521.88
274.945	540.88
275.176	528.88
275.408	553.88
275.64	523.88
275.872	532.88
276.104	537.88
276.335	531.88
276.567	544.88
276.799	547.88
277.031	547.88
277.262	568.88
277.494	592.88
277.726	634.88
277.957	708.88
278.189	784.88
278.421	746.88
278.652	673.88
278.884	665.88
279.115	599.88
279.347	603.88
279.579	605.88
279.81	608.88
280.042	601.88
280.273	619.88
280.505	619.88
280.736	613.88
280.968	670.88
281.199	674.88
281.431	776.88
281.662	797.88
281.894	698.88
282.125	673.88
282.356	656.88
282.588	700.88
282.819	713.88
283.051	734.88
283.282	800.88
283.513	977.88
283.745	1368.88
283.976	2160.88
284.207	3010.88
284.439	2704.88
284.67	1681.88
284.901	1349.88
285.132	1312.88
285.364	1288.88
285.595	1028.88
285.826	909.88
286.057	1075.88
286.288	1456.88
286.52	1946.88
286.751	1794.88
286.982	1146.88
287.213	860.88
287.444	812.88
287.675	737.88
287.906	736.88
288.138	701.88
288.369	708.88
288.6	681.88
288.831	689.88
289.062	720.88
289.293	719.88
289.524	712.88
289.755	698.88
289.986	691.88
290.217	723.88
290.448	697.88
290.679	725.88
290.91	687.88
291.141	732.88
291.371	766.88
291.602	806.88
291.833	760.88
292.064	713.88
292.295	704.88
292.526	708.88
292.757	696.88
292.987	669.88
293.218	670.88
293.449	677.88
293.68	656.88
293.91	652.88
294.141	654.88
294.372	654.88
294.603	663.88
294.833	672.88
295.064	650.88
295.295	662.88
295.525	650.88
295.756	659.88
295.987	656.88
296.217	681.88
296.448	654.88
296.679	653.88
296.909	690.88
297.14	665.88
297.37	693.88
297.601	658.88
297.831	680.88
298.062	689.88
298.292	696.88
298.523	668.88
298.753	702.88
298.984	693.88
299.214	700.88
299.445	719.88
299.675	724.88
299.905	741.88
300.136	781.88
300.366	860.88
300.597	1074.88
300.827	1464.88
301.057	1920.88
301.288	1937.88
301.518	1254.88
301.748	981.88
301.979	900.88
302.209	882.88
302.439	909.88
302.669	936.88
302.9	1133.88
303.13	1525.88
303.36	2230.88
303.59	2939.88
303.82	2595.88
304.051	1544.88
304.281	1132.88
304.511	980.88
304.741	880.88
304.971	867.88
305.201	826.88
305.431	816.88
305.661	804.88
305.891	776.88
306.121	756.88
306.352	774.88
306.582	760.88
306.812	765.88
307.042	768.88
307.272	748.88
307.502	756.88
307.731	771.88
307.961	788.88
308.191	755.88
308.421	735.88
308.651	754.88
308.881	748.88
309.111	748.88
309.341	766.88
309.571	774.88
309.8	772.88
310.03	761.88
310.26	792.88
310.49	783.88
310.72	799.88
310.949	768.88
311.179	805.88
311.409	799.88
311.639	803.88
311.868	825.88
312.098	834.88
312.328	821.88
312.557	841.88
312.787	823.88
313.017	826.88
313.246	852.88
313.476	830.88
313.706	847.88
313.935	902.88
314.165	928.88
314.394	981.88
314.624	940.88
314.853	908.88
315.083	873.88
315.312	902.88
315.542	902.88
315.771	891.88
316.001	897.88
316.23	941.88
316.46	966.88
316.689	1049.88
316.919	1250.88
317.148	1735.88
317.377	2666.88
317.607	3909.88
317.836	4000.88
318.065	2399.88
318.295	1559.88
318.524	1313.88
318.753	1143.88
318.983	1065.88
319.212	1056.88
319.441	992.88
319.67	967.88
319.9	970.88
320.129	940.88
320.358	932.88
320.587	949.88
320.816	962.88
321.046	954.88
321.275	967.88
321.504	973.88
321.733	1007.88
321.962	1012.88
322.191	1005.88
322.42	1026.88
322.649	1006.88
322.878	1010.88
323.108	1041.88
323.337	1027.88
323.566	1048.88
323.795	1054.88
324.024	1084.88
324.253	1077.88
324.482	1153.88
324.71	1213.88
324.939	1214.88
325.168	1284.88
325.397	1328.88
325.626	1492.88
325.855	2095.88
326.084	3238.88
326.313	4836.88
326.542	5100.88
326.77	3230.88
326.999	2161.88
327.228	1819.88
327.457	1770.88
327.686	1752.88
327.914	1878.88
328.143	2139.88
328.372	2483.88
328.6	2696.88
328.829	2489.88
329.058	2178.88
329.287	1930.88
329.515	1811.88
329.744	1652.88
329.972	1652.88
330.201	1569.88
330.43	1483.88
330.658	1449.88
330.887	1391.88
331.115	1383.88
331.344	1414.88
331.572	1392.88
331.801	1398.88
332.03	1401.88
332.258	1433.88
332.486	1461.88
332.715	1652.88
332.943	2035.88
333.172	2386.88
333.4	2343.88
333.629	1879.88
333.857	1728.88
334.085	1741.88
334.314	1828.88
334.542	1908.88
334.771	2226.88
334.999	2681.88
335.227	3270.88
335.455	3641.88
335.684	3353.88
335.912	2882.88
336.14	2466.88
336.369	2265.88
336.597	2075.88
336.825	1911.88
337.053	1812.88
337.281	1705.88
337.51	1615.88
337.738	1553.88
337.966	1473.88
338.194	1457.88
338.422	1434.88
338.65	1357.88
338.878	1338.88
339.106	1281.88
339.334	1268.88
339.562	1278.88
339.79	1229.88
340.018	1238.88
340.246	1251.88
340.474	1261.88
340.702	1247.88
340.93	1230.88
341.158	1247.88
341.386	1193.88
341.614	1207.88
341.842	1178.88
342.07	1170.88
342.298	1159.88
342.526	1150.88
342.754	1118.88
342.981	1147.88
343.209	1155.88
343.437	1146.88
343.665	1155.88
343.893	1172.88
344.12	1204.88
344.348	1175.88
344.576	1148.88
344.804	1152.88
345.031	1119.88
345.259	1064.88
345.487	1054.88
345.714	1087.88
345.942	1041.88
346.17	1093.88
346.397	1069.88
346.625	1077.88
346.853	1046.88
347.08	1044.88
347.308	1025.88
347.535	1039.88
347.763	1024.88
347.99	1014.88
348.218	994.88
348.445	1020.88
348.673	1005.88
348.9	1048.88
349.128	1040.88
349.355	1026.88
349.583	1051.88
349.81	1017.88
350.037	1028.88
350.265	989.88
350.492	988.88
350.72	1029.88
350.947	1010.88
351.174	1009.88
351.402	1008.88
351.629	1009.88
351.856	1017.88
352.083	1014.88
352.311	1013.88
352.538	1032.88
352.765	1034.88
352.992	1010.88
353.22	998.88
353.447	985.88
353.674	998.88
353.901	1030.88
354.128	1007.88
354.355	1041.88
354.583	997.88
354.81	988.88
355.037	993.88
355.264	1007.88
355.491	1011.88
355.718	1037.88
355.945	1016.88
356.172	1064.88
356.399	1005.88
356.626	1038.88
356.853	1035.88
357.08	1037.88
357.307	1053.88
357.534	1040.88
357.761	1073.88
357.988	1078.88
358.215	1076.88
358.441	1046.88
358.668	1040.88
358.895	1049.88
359.122	1062.88
359.349	1057.88
359.576	1065.88
359.802	1069.88
360.029	1070.88
360.256	1065.88
360.483	1076.88
360.709	1068.88
360.936	1082.88
361.163	1068.88
361.39	1064.88
361.616	1061.88
361.843	1090.88
362.07	1095.88
362.296	1080.88
362.523	1091.88
362.749	1088.88
362.976	1068.88
363.203	1080.88
363.429	1060.88
363.656	1081.88
363.882	1068.88
364.109	1086.88
364.335	1049.88
364.562	1083.88
364.788	1094.88
365.015	1082.88
365.241	1077.88
365.468	1153.88
365.694	1139.88
365.92	1157.88
366.147	1112.88
366.373	1120.88
366.599	1079.88
366.826	1099.88
367.052	1070.88
367.278	1093.88
367.505	1095.88
367.731	1116.88
367.957	1108.88
368.184	1108.88
368.41	1143.88
368.636	1118.88
368.862	1108.88
369.089	1123.88
369.315	1125.88
369.541	1111.88
369.767	1106.88
369.993	1100.88
370.219	1141.88
370.445	1104.88
370.672	1112.88
370.898	1135.88
371.124	1105.88
371.35	1140.88
371.576	1150.88
371.802	1134.88
372.028	1125.88
372.254	1130.88
372.48	1153.88
372.706	1171.88
372.932	1181.88
373.158	1176.88
373.384	1202.88
373.61	1191.88
373.835	1161.88
374.061	1203.88
374.287	1178.88
374.513	1208.88
374.739	1192.88
374.965	1240.88
375.191	1210.88
375.416	1213.88
375.642	1184.88
375.868	1192.88
376.094	1160.88
376.319	1178.88
376.545	1164.88
376.771	1141.88
376.997	1153.88
377.222	1147.88
377.448	1143.88
377.674	1149.88
377.899	1130.88
378.125	1134.88
378.35	1109.88
378.576	1150.88
378.802	1168.88
379.027	1186.88
379.253	1191.88
379.478	1234.88
379.704	1428.88
379.929	1943.88
380.155	2840.88
380.38	3033.88
380.606	1938.88
380.831	1474.88
381.057	1297.88
381.282	1215.88
381.507	1186.88
381.733	1168.88
381.958	1159.88
382.184	1154.88
382.409	1196.88
382.634	1139.88
382.86	1161.88
383.085	1134.88
383.31	1126.88
383.535	1128.88
383.761	1167.88
383.986	1150.88
384.211	1157.88
384.436	1190.88
384.662	1184.88
384.887	1166.88
385.112	1170.88
385.337	1160.88
385.562	1152.88
385.787	1161.88
386.013	1191.88
386.238	1145.88
386.463	1178.88
386.688	1190.88
386.913	1170.88
387.138	1168.88
387.363	1180.88
387.588	1188.88
387.813	1193.88
388.038	1173.88
388.263	1197.88
388.488	1198.88
388.713	1199.88
388.938	1164.88
389.163	1184.88
389.387	1159.88
389.612	1172.88
389.837	1202.88
390.062	1155.88
390.287	1213.88
390.512	1184.88
390.736	1233.88
390.961	1217.88
391.186	1201.88
391.411	1205.88
391.636	1255.88
391.86	1283.88
392.085	1240.88
392.31	1225.88
392.534	1187.88
392.759	1223.88
392.984	1226.88
393.208	1242.88
393.433	1290.88
393.658	1272.88
393.882	1232.88
394.107	1186.88
394.331	1193.88
394.556	1212.88
394.78	1183.88
395.005	1233.88
395.229	1233.88
395.454	1236.88
395.678	1240.88
395.903	1230.88
396.127	1257.88
396.352	1218.88
396.576	1219.88
396.801	1263.88
397.025	1257.88
397.249	1239.88
397.474	1242.88
397.698	1284.88
397.922	1276.88
398.147	1256.88
398.371	1265.88
398.595	1290.88
398.82	1338.88
399.044	1394.88
399.268	1456.88
399.492	1501.88
399.717	1566.88
399.941	1564.88
400.165	1496.88
400.389	1418.88
400.613	1371.88
400.837	1346.88
401.062	1317.88
401.286	1348.88
401.51	1329.88
401.734	1298.88
401.958	1310.88
402.182	1337.88
402.406	1290.88
402.63	1280.88
402.854	1320.88
403.078	1353.88
403.302	1368.88
403.526	1328.88
403.75	1358.88
403.974	1346.88
404.198	1373.88
404.422	1351.88
404.645	1358.88
404.869	1343.88
405.093	1385.88
405.317	1352.88
405.541	1362.88
405.765	1375.88
405.988	1378.88
406.212	1389.88
406.436	1392.88
406.66	1408.88
406.883	1388.88
407.107	1437.88
407.331	1457.88
407.555	1498.88
407.778	1486.88
408.002	1418.88
408.226	1401.88
408.449	1433.88
408.673	1377.88
408.896	1392.88
409.12	1350.88
409.344	1382.88
409.567	1322.88
409.791	1352.88
410.014	1330.88
410.238	1324.88
410.461	1335.88
410.685	1341.88
410.908	1329.88
411.132	1337.88
411.355	1325.88
411.578	1326.88
411.802	1293.88
412.025	1320.88
412.249	1306.88
412.472	1332.88
412.695	1290.88
412.919	1313.88
413.142	1288.88
413.365	1271.88
413.589	1284.88
413.812	1276.88
414.035	1306.88
414.258	1251.88
414.482	1292.88
414.705	1288.88
414.928	1311.88
415.151	1297.88
415.374	1266.88
415.597	1284.88
415.821	1234.88
416.044	1274.88
416.267	1209.88
416.49	1244.88
416.713	1218.88
416.936	1219.88
417.159	1220.88
417.382	1261.88
417.605	1198.88
417.828	1212.88
418.051	1231.88
418.274	1254.88
418.497	1251.88
418.72	1281.88
418.943	1226.88
419.166	1335.88
419.389	1354.88
419.611	1348.88
419.834	1328.88
420.057	1297.88
420.28	1260.88
420.503	1267.88
420.726	1233.88
420.948	1210.88
421.171	1218.88
421.394	1260.88
421.617	1236.88
421.839	1218.88
422.062	1283.88
422.285	1216.88
422.507	1280.88
422.73	1298.88
422.953	1309.88
423.175	1273.88
423.398	1279.88
423.621	1239.88
423.843	1235.88
424.066	1275.88
424.288	1260.88
424.511	1231.88
424.733	1244.88
424.956	1237.88
425.178	1226.88
425.401	1249.88
425.623	1242.88
425.846	1189.88
426.068	1189.88
426.291	1212.88
426.513	1234.88
426.735	1158.88
426.958	1216.88
427.18	1150.88
427.402	1188.88
427.625	1171.88
427.847	1198.88
428.069	1176.88
428.292	1162.88
428.514	1138.88
428.736	1149.88
428.958	1146.88
429.181	1176.88
429.403	1160.88
429.625	1146.88
429.847	1152.88
430.069	1146.88
430.292	1226.88
430.514	1222.88
430.736	1192.88
430.958	1122.88
431.18	1134.88
431.402	1160.88
431.624	1118.88
431.846	1141.88
432.068	1124.88
432.29	1136.88
432.512	1138.88
432.734	1138.88
432.956	1133.88
433.178	1143.88
433.4	1144.88
433.622	1169.88
433.844	1175.88
434.066	1132.88
434.287	1112.88
434.509	1144.88
434.731	1139.88
434.953	1188.88
435.175	1189.88
435.397	1180.88
435.618	1146.88
435.84	1124.88
436.062	1116.88
436.284	1106.88
436.505	1116.88
436.727	1141.88
436.949	1154.88
437.17	1146.88
437.392	1146.88
437.614	1116.88
437.835	1105.88
438.057	1112.88
438.278	1068.88
438.5	1083.88
438.721	1154.88
438.943	1172.88
439.165	1149.88
439.386	1196.88
439.608	1206.88
439.829	1225.88
440.05	1182.88
440.272	1244.88
440.493	1192.88
440.715	1157.88
440.936	1143.88
441.158	1184.88
441.379	1247.88
441.6	1223.88
441.822	1239.88
442.043	1333.88
442.264	1334.88
442.486	1271.88
442.707	1235.88
442.928	1233.88
443.149	1206.88
443.371	1218.88
443.592	1248.88
443.813	1239.88
444.034	1244.88
444.255	1270.88
444.476	1294.88
444.698	1304.88
444.919	1318.88
445.14	1378.88
445.361	1315.88
445.582	1276.88
445.803	1236.88
446.024	1227.88
446.245	1243.88
446.466	1233.88
446.687	1202.88
446.908	1209.88
447.129	1186.88
447.35	1172.88
447.571	1165.88
447.792	1176.88
448.013	1160.88
448.234	1126.88
448.455	1150.88
448.675	1154.88
448.896	1148.88
449.117	1159.88
449.338	1285.88
449.559	1300.88
449.779	1180.88
450	1112.88
450.221	1105.88
450.442	1088.88
450.662	1095.88
450.883	1079.88
451.104	1122.88
451.324	1078.88
451.545	1081.88
451.766	1109.88
451.986	1095.88
452.207	1180.88
452.428	1370.88
452.648	1861.88
452.869	1613.88
453.089	1244.88
453.31	1172.88
453.53	1173.88
453.751	1229.88
453.971	1294.88
454.192	1308.88
454.412	1132.88
454.633	1101.88
454.853	1063.88
455.073	1059.88
455.294	1036.88
455.514	1041.88
455.734	1062.88
455.955	1027.88
456.175	1050.88
456.395	1033.88
456.616	1042.88
456.836	1040.88
457.056	1061.88
457.276	1064.88
457.497	1113.88
457.717	1101.88
457.937	1098.88
458.157	1112.88
458.377	1096.88
458.598	1109.88
458.818	1111.88
459.038	1098.88
459.258	1134.88
459.478	1123.88
459.698	1132.88
459.918	1180.88
460.138	1178.88
460.358	1203.88
460.578	1220.88
460.798	1223.88
461.018	1270.88
461.238	1215.88
461.458	1272.88
461.678	1236.88
461.898	1266.88
462.118	1271.88
462.338	1287.88
462.558	1304.88
462.777	1340.88
462.997	1408.88
463.217	1447.88
463.437	1468.88
463.657	1509.88
463.876	1478.88
464.096	1404.88
464.316	1333.88
464.536	1337.88
464.755	1314.88
464.975	1294.88
465.195	1228.88
465.414	1253.88
465.634	1185.88
465.854	1180.88
466.073	1175.88
466.293	1166.88
466.512	1183.88
466.732	1159.88
466.951	1193.88
467.171	1263.88
467.391	1255.88
467.61	1150.88
467.829	1129.88
468.049	1148.88
468.268	1139.88
468.488	1094.88
468.707	1108.88
468.927	1134.88
469.146	1096.88
469.365	1103.88
469.585	1146.88
469.804	1138.88
470.023	1180.88
470.243	1178.88
470.462	1210.88
470.681	1254.88
470.901	1355.88
471.12	1552.88
471.339	1580.88
471.558	1335.88
471.777	1192.88
471.997	1216.88
472.216	1134.88
472.435	1129.88
472.654	1117.88
472.873	1103.88
473.092	1126.88
473.311	1104.88
473.53	1126.88
473.749	1110.88
473.968	1196.88
474.187	1130.88
474.406	1136.88
474.625	1118.88
474.844	1146.88
475.063	1111.88
475.282	1142.88
475.501	1123.88
475.72	1121.88
475.939	1134.88
476.158	1174.88
476.377	1185.88
476.596	1184.88
476.814	1190.88
477.033	1216.88
477.252	1226.88
477.471	1226.88
477.69	1218.88
477.908	1281.88
478.127	1291.88
478.346	1260.88
478.564	1285.88
478.783	1313.88
479.002	1338.88
479.22	1339.88
479.439	1342.88
479.658	1367.88
479.876	1377.88
480.095	1307.88
480.313	1367.88
480.532	1353.88
480.751	1356.88
480.969	1327.88
481.188	1342.88
481.406	1334.88
481.624	1304.88
481.843	1365.88
482.061	1328.88
482.28	1334.88
482.498	1327.88
482.717	1300.88
482.935	1332.88
483.153	1350.88
483.372	1416.88
483.59	1428.88
483.808	1401.88
484.027	1418.88
484.245	1510.88
484.463	1660.88
484.681	1813.88
484.9	1687.88
485.118	1550.88
485.336	1512.88
485.554	1565.88
485.772	1612.88
485.99	1817.88
486.209	2005.88
486.427	1677.88
486.645	1522.88
486.863	1523.88
487.081	1436.88
487.299	1458.88
487.517	1403.88
487.735	1432.88
487.953	1490.88
488.171	1414.88
488.389	1439.88
488.607	1419.88
488.825	1405.88
489.043	1394.88
489.261	1400.88
489.479	1391.88
489.696	1385.88
489.914	1377.88
490.132	1417.88
490.35	1461.88
490.568	1429.88
490.786	1463.88
491.003	1455.88
491.221	1481.88
491.439	1473.88
491.657	1465.88
491.874	1510.88
492.092	1511.88
492.31	1536.88
492.527	1537.88
492.745	1528.88
492.963	1492.88
493.18	1495.88
493.398	1514.88
493.615	1481.88
493.833	1454.88
494.05	1473.88
494.268	1494.88
494.485	1496.88
494.703	1476.88
494.92	1473.88
495.138	1498.88
495.355	1509.88
495.573	1490.88
495.79	1508.88
496.008	1512.88
496.225	1518.88
496.442	1552.88
496.66	1588.88
496.877	1642.88
497.094	1638.88
497.312	1585.88
497.529	1594.88
497.746	1593.88
497.963	1624.88
498.181	1664.88
498.398	1658.88
498.615	1737.88
498.832	1790.88
499.049	1879.88
499.267	1992.88
499.484	2158.88
499.701	2161.88
499.918	2233.88
500.135	2411.88
500.352	2457.88
500.569	2515.88
500.786	2524.88
501.003	2439.88
501.22	2271.88
501.437	2185.88
501.654	2052.88
501.871	2000.88
502.088	1912.88
502.305	1822.88
502.522	1760.88
502.739	1747.88
502.956	1654.88
503.172	1635.88
503.389	1614.88
503.606	1570.88
503.823	1527.88
504.04	1524.88
504.256	1541.88
504.473	1504.88
504.69	1525.88
504.907	1487.88
505.123	1475.88
505.34	1432.88
505.557	1398.88
505.773	1413.88
505.99	1397.88
506.207	1349.88
506.423	1307.88
506.64	1332.88
506.856	1314.88
507.073	1295.88
507.289	1281.88
507.506	1304.88
507.722	1300.88
507.939	1307.88
508.155	1282.88
508.372	1253.88
508.588	1260.88
508.805	1256.88
509.021	1270.88
509.238	1278.88
509.454	1338.88
509.67	1398.88
509.887	1305.88
510.103	1268.88
510.319	1242.88
510.536	1261.88
510.752	1209.88
510.968	1250.88
511.184	1214.88
511.401	1216.88
511.617	1222.88
511.833	1203.88
512.049	1209.88
512.265	1218.88
512.481	1219.88
512.698	1201.88
512.914	1194.88
513.13	1173.88
513.346	1192.88
513.562	1189.88
513.778	1188.88
513.994	1220.88
514.21	1229.88
514.426	1282.88
514.642	1313.88
514.858	1254.88
515.074	1222.88
515.29	1222.88
515.506	1243.88
515.721	1225.88
515.937	1262.88
516.153	1233.88
516.369	1274.88
516.585	1251.88
516.801	1306.88
517.016	1291.88
517.232	1387.88
517.448	1356.88
517.664	1356.88
517.879	1380.88
518.095	1350.88
518.311	1374.88
518.527	1332.88
518.742	1360.88
518.958	1348.88
519.173	1380.88
519.389	1296.88
519.605	1260.88
519.82	1263.88
520.036	1261.88
520.251	1208.88
520.467	1202.88
520.682	1176.88
520.898	1183.88
521.113	1217.88
521.329	1209.88
521.544	1170.88
521.76	1204.88
521.975	1175.88
522.19	1188.88
522.406	1169.88
522.621	1170.88
522.836	1188.88
523.052	1170.88
523.267	1163.88
523.482	1149.88
523.698	1150.88
523.913	1161.88
524.128	1131.88
524.343	1179.88
524.559	1164.88
524.774	1228.88
524.989	1200.88
525.204	1148.88
525.419	1172.88
525.634	1175.88
525.849	1148.88
526.064	1133.88
526.28	1153.88
526.495	1177.88
526.71	1141.88
526.925	1185.88
527.14	1145.88
527.355	1176.88
527.57	1174.88
527.785	1188.88
527.999	1187.88
528.214	1205.88
528.429	1188.88
528.644	1203.88
528.859	1247.88
529.074	1240.88
529.289	1273.88
529.503	1282.88
529.718	1232.88
529.933	1230.88
530.148	1243.88
530.363	1242.88
530.577	1180.88
530.792	1228.88
531.007	1241.88
531.221	1242.88
531.436	1253.88
531.651	1240.88
531.865	1266.88
532.08	1258.88
532.295	1308.88
532.509	1366.88
532.724	1352.88
532.938	1406.88
533.153	1399.88
533.367	1509.88
533.582	1540.88
533.796	1540.88
534.011	1480.88
534.225	1425.88
534.44	1416.88
534.654	1394.88
534.868	1380.88
535.083	1372.88
535.297	1352.88
535.511	1308.88
535.726	1294.88
535.94	1294.88
536.154	1249.88
536.369	1256.88
536.583	1229.88
536.797	1241.88
537.011	1225.88
537.225	1176.88
537.44	1173.88
537.654	1210.88
537.868	1166.88
538.082	1155.88
538.296	1158.88
538.51	1157.88
538.724	1152.88
538.938	1183.88
539.153	1141.88
539.367	1150.88
539.581	1162.88
539.795	1113.88
540.009	1142.88
540.222	1133.88
540.436	1158.88
540.65	1121.88
540.864	1118.88
541.078	1172.88
541.292	1234.88
541.506	1403.88
541.72	1478.88
541.934	1323.88
542.147	1258.88
542.361	1209.88
542.575	1172.88
542.789	1120.88
543.002	1100.88
543.216	1107.88
543.43	1128.88
543.644	1107.88
543.857	1112.88
544.071	1109.88
544.285	1125.88
544.498	1121.88
544.712	1124.88
544.925	1122.88
545.139	1133.88
545.352	1130.88
545.566	1143.88
545.779	1128.88
545.993	1158.88
546.206	1162.88
546.42	1090.88
546.633	1114.88
546.847	1130.88
547.06	1126.88
547.274	1150.88
547.487	1172.88
547.7	1146.88
547.914	1140.88
548.127	1143.88
548.34	1136.88
548.554	1117.88
548.767	1120.88
548.98	1145.88
549.193	1108.88
549.407	1132.88
549.62	1164.88
549.833	1114.88
550.046	1128.88
550.259	1146.88
550.473	1113.88
550.686	1152.88
550.899	1117.88
551.112	1137.88
551.325	1113.88
551.538	1111.88
551.751	1113.88
551.964	1088.88
552.177	1134.88
552.39	1160.88
552.603	1199.88
552.816	1200.88
553.029	1212.88
553.242	1214.88
553.455	1232.88
553.667	1248.88
553.88	1233.88
554.093	1234.88
554.306	1261.88
554.519	1243.88
554.732	1270.88
554.944	1283.88
555.157	1292.88
555.37	1310.88
555.583	1332.88
555.795	1389.88
556.008	1466.88
556.221	1582.88
556.433	1648.88
556.646	1674.88
556.859	1637.88
557.071	1594.88
557.284	1553.88
557.496	1531.88
557.709	1498.88
557.921	1514.88
558.134	1487.88
558.346	1511.88
558.559	1552.88
558.771	1622.88
558.984	1704.88
559.196	1824.88
559.409	1786.88
559.621	1669.88
559.833	1620.88
560.046	1487.88
560.258	1436.88
560.47	1414.88
560.683	1379.88
560.895	1310.88
561.107	1280.88
561.32	1253.88
561.532	1218.88
561.744	1189.88
561.956	1174.88
562.168	1118.88
562.381	1157.88
562.593	1150.88
562.805	1141.88
563.017	1147.88
563.229	1140.88
563.441	1268.88
563.653	1133.88
563.865	1077.88
564.077	1045.88
564.289	1041.88
564.501	1044.88
564.713	1044.88
564.925	1041.88
565.137	1034.88
565.349	1056.88
565.561	1039.88
565.773	1052.88
565.985	1060.88
566.197	1077.88
566.408	1102.88
566.62	1119.88
566.832	1148.88
567.044	1154.88
567.255	1165.88
567.467	1156.88
567.679	1200.88
567.891	1232.88
568.102	1372.88
568.314	1561.88
568.526	1328.88
568.737	1172.88
568.949	1077.88
569.161	1025.88
569.372	957.88
569.584	954.88
569.795	917.88
570.007	935.88
570.218	932.88
570.43	965.88
570.641	898.88
570.853	880.88
571.064	850.88
571.276	852.88
571.487	851.88
571.698	856.88
571.91	858.88
572.121	799.88
572.333	830.88
572.544	808.88
572.755	862.88
572.966	1028.88
573.178	904.88
573.389	814.88
573.6	792.88
573.811	777.88
574.023	791.88
574.234	778.88
574.445	777.88
574.656	745.88
574.867	759.88
575.078	749.88
575.289	756.88
575.501	783.88
575.712	729.88
575.923	745.88
576.134	754.88
576.345	754.88
576.556	739.88
576.767	768.88
576.978	782.88
577.188	791.88
577.399	768.88
577.61	772.88
577.821	770.88
578.032	776.88
578.243	794.88
578.454	807.88
578.665	819.88
578.875	820.88
579.086	856.88
579.297	883.88
579.508	905.88
579.718	989.88
579.929	1058.88
580.14	1163.88
580.35	1208.88
580.561	1144.88
580.772	1077.88
580.982	1029.88
581.193	976.88
581.403	928.88
581.614	878.88
581.825	870.88
582.035	823.88
582.246	802.88
582.456	796.88
582.667	773.88
582.877	736.88
583.087	755.88
583.298	722.88
583.508	702.88
583.719	679.88
583.929	700.88
584.139	670.88
584.35	668.88
584.56	657.88
584.77	678.88
584.981	656.88
585.191	654.88
585.401	632.88
585.611	615.88
585.821	618.88
586.032	609.88
586.242	605.88
586.452	583.88
586.662	596.88
586.872	596.88
587.082	597.88
587.292	595.88
587.502	569.88
587.713	545.88
587.923	559.88
588.133	552.88
588.343	553.88
588.553	546.88
588.762	570.88
588.972	552.88
589.182	573.88
589.392	564.88
589.602	551.88
589.812	563.88
590.022	555.88
590.232	543.88
590.441	541.88
590.651	537.88
590.861	529.88
591.071	537.88
591.281	542.88
591.49	564.88
591.7	542.88
591.91	535.88
592.119	530.88
592.329	558.88
592.539	562.88
592.748	555.88
592.958	564.88
593.167	576.88
593.377	558.88
593.587	568.88
593.796	576.88
594.006	592.88
594.215	570.88
594.424	553.88
594.634	572.88
594.843	564.88
595.053	540.88
595.262	538.88
595.472	549.88
595.681	526.88
595.89	496.88
596.1	520.88
596.309	522.88
596.518	511.88
596.727	497.88
596.937	478.88
597.146	482.88
597.355	481.88
597.564	459.88
597.774	466.88
597.983	492.88
598.192	468.88
598.401	465.88
598.61	462.88
598.819	460.88
599.028	471.88
599.237	447.88
599.446	455.88
599.655	441.88
599.864	452.88
600.073	446.88
600.282	445.88
600.491	434.88
600.7	442.88
600.909	450.88
601.118	472.88
601.327	450.88
601.536	456.88
601.745	476.88
601.953	494.88
602.162	562.88
602.371	500.88
602.58	473.88
602.789	448.88
602.997	454.88
603.206	452.88
603.415	433.88
603.623	448.88
603.832	438.88
604.041	447.88
604.249	418.88
604.458	436.88
604.666	421.88
604.875	417.88
605.084	406.88
605.292	432.88
605.501	437.88
605.709	464.88
605.918	433.88
606.126	428.88
606.334	439.88
606.543	454.88
606.751	461.88
606.96	516.88
607.168	585.88
607.376	515.88
607.585	448.88
607.793	449.88
608.001	439.88
608.21	439.88
608.418	432.88
608.626	410.88
608.834	420.88
609.043	428.88
609.251	414.88
609.459	433.88
609.667	421.88
609.875	410.88
610.083	416.88
610.291	423.88
610.499	392.88
610.707	391.88
610.916	403.88
611.124	418.88
611.332	402.88
611.54	399.88
611.748	421.88
611.955	403.88
612.163	402.88
612.371	402.88
612.579	406.88
612.787	404.88
612.995	397.88
613.203	399.88
613.411	386.88
613.618	404.88
613.826	389.88
614.034	382.88
614.242	360.88
614.449	406.88
614.657	396.88
614.865	405.88
615.072	392.88
615.28	402.88
615.488	387.88
615.695	392.88
615.903	391.88
616.111	377.88
616.318	412.88
616.526	376.88
616.733	382.88
616.941	397.88
617.148	394.88
617.356	382.88
617.563	389.88
617.771	383.88
617.978	380.88
618.185	370.88
618.393	370.88
618.6	377.88
618.807	378.88
619.015	374.88
619.222	370.88
619.429	366.88
619.637	350.88
619.844	366.88
620.051	352.88
620.258	357.88
620.466	347.88
620.673	357.88
620.88	344.88
621.087	349.88
621.294	358.88
621.501	349.88
621.708	369.88
621.915	354.88
622.122	367.88
622.329	345.88
622.536	375.88
622.743	353.88
622.95	361.88
623.157	339.88
623.364	330.88
623.571	328.88
623.778	336.88
623.985	356.88
624.192	352.88
624.399	357.88
624.606	330.88
624.812	355.88
625.019	344.88
625.226	341.88
625.433	322.88
625.639	330.88
625.846	325.88
626.053	309.88
626.259	328.88
626.466	319.88
626.673	308.88
626.879	321.88
627.086	320.88
627.293	317.88
627.499	330.88
627.706	318.88
627.912	323.88
628.119	320.88
628.325	342.88
628.532	307.88
628.738	314.88
628.945	323.88
629.151	317.88
629.357	303.88
629.564	302.88
629.77	310.88
629.976	328.88
630.183	322.88
630.389	308.88
630.595	286.88
630.802	313.88
631.008	303.88
631.214	307.88
631.42	328.88
631.627	320.88
631.833	314.88
632.039	315.88
632.245	311.88
632.451	304.88
632.657	317.88
632.863	297.88
633.069	300.88
633.275	301.88
633.481	298.88
633.688	298.88
633.893	312.88
634.099	312.88
634.305	293.88
634.511	287.88
634.717	303.88
634.923	309.88
635.129	340.88
635.335	374.88
635.541	349.88
635.747	320.88
635.952	310.88
636.158	295.88
636.364	285.88
636.57	295.88
636.775	294.88
636.981	295.88
637.187	288.88
637.392	301.88
637.598	298.88
637.804	319.88
638.009	295.88
638.215	297.88
638.421	286.88
638.626	300.88
638.832	311.88
639.037	291.88
639.243	297.88
639.448	289.88
639.654	306.88
639.859	310.88
640.065	304.88
640.27	310.88
640.475	320.88
640.681	306.88
640.886	329.88
641.091	313.88
641.297	318.88
641.502	312.88
641.707	312.88
641.913	319.88
642.118	327.88
642.323	332.88
642.528	358.88
642.733	378.88
642.939	349.88
643.144	347.88
643.349	371.88
643.554	378.88
643.759	387.88
643.964	400.88
644.169	434.88
644.374	416.88
644.579	465.88
644.784	484.88
644.989	523.88
645.194	611.88
645.399	722.88
645.604	724.88
645.809	576.88
646.014	479.88
646.219	442.88
646.423	400.88
646.628	352.88
646.833	345.88
647.038	337.88
647.243	332.88
647.447	321.88
647.652	319.88
647.857	302.88
648.062	293.88
648.266	284.88
648.471	305.88
648.676	286.88
648.88	274.88
649.085	266.88
649.289	269.88
649.494	277.88
649.698	275.88
649.903	260.88
650.107	270.88
650.312	240.88
650.516	249.88
650.721	261.88
650.925	262.88
651.13	250.88
651.334	239.88
651.539	242.88
651.743	229.88
651.947	241.88
652.152	220.88
652.356	225.88
652.56	237.88
652.764	265.88
652.969	267.88
653.173	231.88
653.377	221.88
653.581	217.88
653.785	201.88
653.99	204.88
654.194	209.88
654.398	203.88
654.602	197.88
654.806	205.88
655.01	222.88
655.214	207.88
655.418	205.88
655.622	201.88
655.826	217.88
656.03	225.88
656.234	233.88
656.438	242.88
656.642	225.88
656.846	202.88
657.049	198.88
657.253	201.88
657.457	183.88
657.661	174.88
657.865	165.88
658.068	160.88
658.272	160.88
658.476	152.88
658.68	131.88
658.883	135.88
659.087	122.88
659.291	136.88
659.494	128.88
659.698	126.88
659.901	128.88
660.105	118.88
660.309	115.88
660.512	114.88
660.716	118.88
660.919	105.88
661.123	108.88
661.326	110.88
661.53	101.88
661.733	101.88
661.936	101.88
662.14	85.88
662.343	90.88
662.546	95.88
662.75	92.88
662.953	98.88
663.156	93.88
663.36	98.88
663.563	77.88
663.766	93.88
663.969	90.88
664.173	76.88
664.376	87.88
664.579	90.88
664.782	67.88
664.985	86.88
665.188	82.88
665.391	91.88
665.594	75.88
665.797	83.88
666	92.88
666.203	81.88
666.406	72.88
666.609	89.88
666.812	79.88
667.015	83.88
667.218	79.88
667.421	81.88
667.624	83.88
667.827	82.88
668.03	77.88
668.232	72.88
668.435	80.88
668.638	83.88
668.841	63.88
669.043	77.88
669.246	74.88
669.449	74.88
669.651	97.88
669.854	95.88
670.057	83.88
670.259	80.88
670.462	73.88
670.665	80.88
670.867	81.88
671.07	91.88
671.272	71.88
671.475	75.88
671.677	73.88
671.88	67.88
672.082	81.88
672.284	72.88
672.487	81.88
672.689	65.88
672.892	85.88
