Data from SnStandardFlinnAPT0064_QswitchEnergy10_LIBS07252019.E.O._I.C._HRD10591_15-27-49-973.txt Node
Date: Thu Jul 25 15:27:49 EDT 2019
User: cochatt
Spectrometer: HR+D1059
Trigger mode: 1
Integration Time (sec): 1.000000E-1
Scans to average: 1
Electric dark correction enabled: true
Nonlinearity correction enabled: false
Boxcar width: 0
XAxis mode: Wavelengths
Number of Pixels in Spectrum: 2048
>>>>>Begin Spectral Data<<<<<
223.165	-7.94
223.4	-7.94
223.635	-7.94
223.869	-26.94
224.104	-41.94
224.338	-11.94
224.573	-12.94
224.808	-3.94
225.042	-11.94
225.277	-11.94
225.511	8.06
225.746	5.06
225.98	12.06
226.215	11.06
226.449	7.06
226.683	20.06
226.918	23.06
227.152	43.06
227.387	32.06
227.621	48.06
227.856	57.06
228.09	43.06
228.324	43.06
228.559	58.06
228.793	70.06
229.027	76.06
229.262	76.06
229.496	82.06
229.73	73.06
229.964	63.06
230.199	81.06
230.433	64.06
230.667	79.06
230.901	75.06
231.136	88.06
231.37	85.06
231.604	91.06
231.838	105.06
232.072	124.06
232.306	112.06
232.541	100.06
232.775	92.06
233.009	90.06
233.243	85.06
233.477	105.06
233.711	99.06
233.945	102.06
234.179	109.06
234.413	88.06
234.647	95.06
234.881	93.06
235.115	80.06
235.349	95.06
235.583	110.06
235.817	129.06
236.051	133.06
236.285	87.06
236.519	82.06
236.753	79.06
236.987	86.06
237.221	73.06
237.455	69.06
237.689	75.06
237.922	72.06
238.156	88.06
238.39	76.06
238.624	75.06
238.858	74.06
239.091	86.06
239.325	84.06
239.559	82.06
239.793	81.06
240.027	81.06
240.26	72.06
240.494	84.06
240.728	84.06
240.961	75.06
241.195	79.06
241.429	100.06
241.662	87.06
241.896	102.06
242.13	95.06
242.363	132.06
242.597	150.06
242.83	121.06
243.064	130.06
243.298	165.06
243.531	148.06
243.765	110.06
243.998	85.06
244.232	76.06
244.465	72.06
244.699	73.06
244.932	76.06
245.166	91.06
245.399	86.06
245.633	99.06
245.866	93.06
246.099	91.06
246.333	83.06
246.566	85.06
246.8	85.06
247.033	81.06
247.266	70.06
247.5	72.06
247.733	90.06
247.966	86.06
248.2	98.06
248.433	114.06
248.666	124.06
248.899	123.06
249.133	107.06
249.366	113.06
249.599	95.06
249.832	140.06
250.066	123.06
250.299	87.06
250.532	68.06
250.765	67.06
250.998	84.06
251.231	76.06
251.465	67.06
251.698	73.06
251.931	81.06
252.164	78.06
252.397	98.06
252.63	103.06
252.863	86.06
253.096	103.06
253.329	107.06
253.562	104.06
253.795	94.06
254.028	75.06
254.261	91.06
254.494	90.06
254.727	137.06
254.96	138.06
255.193	131.06
255.426	89.06
255.659	92.06
255.892	101.06
256.124	91.06
256.357	89.06
256.59	91.06
256.823	104.06
257.056	116.06
257.289	135.06
257.521	171.06
257.754	133.06
257.987	95.06
258.22	95.06
258.452	97.06
258.685	80.06
258.918	92.06
259.151	97.06
259.383	120.06
259.616	134.06
259.849	137.06
260.081	103.06
260.314	71.06
260.547	80.06
260.779	93.06
261.012	96.06
261.244	92.06
261.477	98.06
261.71	86.06
261.942	91.06
262.175	86.06
262.407	78.06
262.64	68.06
262.872	75.06
263.105	82.06
263.337	96.06
263.57	94.06
263.802	92.06
264.035	80.06
264.267	74.06
264.499	79.06
264.732	80.06
264.964	87.06
265.197	82.06
265.429	85.06
265.661	92.06
265.894	95.06
266.126	104.06
266.358	156.06
266.591	147.06
266.823	105.06
267.055	100.06
267.287	105.06
267.52	77.06
267.752	83.06
267.984	84.06
268.216	90.06
268.448	89.06
268.681	93.06
268.913	90.06
269.145	97.06
269.377	86.06
269.609	94.06
269.841	84.06
270.073	111.06
270.306	111.06
270.538	182.06
270.77	313.06
271.002	357.06
271.234	198.06
271.466	111.06
271.698	100.06
271.93	97.06
272.162	84.06
272.394	85.06
272.626	90.06
272.858	96.06
273.09	79.06
273.322	80.06
273.553	94.06
273.785	92.06
274.017	79.06
274.249	95.06
274.481	89.06
274.713	84.06
274.945	98.06
275.176	96.06
275.408	85.06
275.64	93.06
275.872	95.06
276.104	97.06
276.335	93.06
276.567	112.06
276.799	85.06
277.031	92.06
277.262	90.06
277.494	107.06
277.726	137.06
277.957	164.06
278.189	217.06
278.421	224.06
278.652	192.06
278.884	188.06
279.115	129.06
279.347	115.06
279.579	102.06
279.81	85.06
280.042	101.06
280.273	106.06
280.505	97.06
280.736	117.06
280.968	115.06
281.199	168.06
281.431	236.06
281.662	271.06
281.894	153.06
282.125	115.06
282.356	108.06
282.588	104.06
282.819	100.06
283.051	119.06
283.282	134.06
283.513	183.06
283.745	303.06
283.976	535.06
284.207	748.06
284.439	561.06
284.67	267.06
284.901	251.06
285.132	339.06
285.364	379.06
285.595	217.06
285.826	172.06
286.057	230.06
286.288	406.06
286.52	591.06
286.751	488.06
286.982	197.06
287.213	111.06
287.444	104.06
287.675	106.06
287.906	107.06
288.138	87.06
288.369	89.06
288.6	90.06
288.831	104.06
289.062	117.06
289.293	99.06
289.524	97.06
289.755	99.06
289.986	103.06
290.217	101.06
290.448	108.06
290.679	114.06
290.91	120.06
291.141	156.06
291.371	229.06
291.602	272.06
291.833	195.06
292.064	114.06
292.295	88.06
292.526	105.06
292.757	89.06
292.987	92.06
293.218	103.06
293.449	98.06
293.68	93.06
293.91	102.06
294.141	99.06
294.372	95.06
294.603	100.06
294.833	88.06
295.064	91.06
295.295	92.06
295.525	92.06
295.756	82.06
295.987	102.06
296.217	97.06
296.448	93.06
296.679	99.06
296.909	90.06
297.14	91.06
297.37	103.06
297.601	104.06
297.831	86.06
298.062	88.06
298.292	112.06
298.523	111.06
298.753	111.06
298.984	114.06
299.214	102.06
299.445	120.06
299.675	115.06
299.905	122.06
300.136	128.06
300.366	164.06
300.597	274.06
300.827	433.06
301.057	667.06
301.288	599.06
301.518	255.06
301.748	137.06
301.979	122.06
302.209	135.06
302.439	141.06
302.669	166.06
302.9	279.06
303.13	465.06
303.36	841.06
303.59	1186.06
303.82	815.06
304.051	286.06
304.281	162.06
304.511	119.06
304.741	125.06
304.971	116.06
305.201	113.06
305.431	102.06
305.661	100.06
305.891	105.06
306.121	111.06
306.352	112.06
306.582	107.06
306.812	91.06
307.042	119.06
307.272	103.06
307.502	104.06
307.731	101.06
307.961	103.06
308.191	115.06
308.421	115.06
308.651	95.06
308.881	90.06
309.111	117.06
309.341	121.06
309.571	107.06
309.8	114.06
310.03	108.06
310.26	98.06
310.49	105.06
310.72	102.06
310.949	105.06
311.179	98.06
311.409	97.06
311.639	108.06
311.868	110.06
312.098	123.06
312.328	114.06
312.557	113.06
312.787	114.06
313.017	116.06
313.246	101.06
313.476	104.06
313.706	129.06
313.935	166.06
314.165	191.06
314.394	201.06
314.624	172.06
314.853	132.06
315.083	131.06
315.312	130.06
315.542	134.06
315.771	132.06
316.001	122.06
316.23	141.06
316.46	148.06
316.689	177.06
316.919	258.06
317.148	477.06
317.377	881.06
317.607	1431.06
317.836	1356.06
318.065	500.06
318.295	217.06
318.524	167.06
318.753	137.06
318.983	127.06
319.212	141.06
319.441	123.06
319.67	130.06
319.9	111.06
320.129	101.06
320.358	111.06
320.587	115.06
320.816	119.06
321.046	123.06
321.275	122.06
321.504	125.06
321.733	131.06
321.962	147.06
322.191	156.06
322.42	148.06
322.649	128.06
322.878	128.06
323.108	132.06
323.337	116.06
323.566	120.06
323.795	135.06
324.024	134.06
324.253	139.06
324.482	173.06
324.71	227.06
324.939	286.06
325.168	248.06
325.397	186.06
325.626	247.06
325.855	470.06
326.084	915.06
326.313	1557.06
326.542	1463.06
326.77	577.06
326.999	261.06
327.228	197.06
327.457	227.06
327.686	217.06
327.914	177.06
328.143	124.06
328.372	133.06
328.6	122.06
328.829	109.06
329.058	107.06
329.287	123.06
329.515	111.06
329.744	119.06
329.972	121.06
330.201	121.06
330.43	113.06
330.658	114.06
330.887	120.06
331.115	110.06
331.344	108.06
331.572	119.06
331.801	122.06
332.03	124.06
332.258	141.06
332.486	175.06
332.715	283.06
332.943	501.06
333.172	776.06
333.4	645.06
333.629	241.06
333.857	153.06
334.085	148.06
334.314	124.06
334.542	113.06
334.771	108.06
334.999	117.06
335.227	126.06
335.455	117.06
335.684	114.06
335.912	116.06
336.14	116.06
336.369	113.06
336.597	116.06
336.825	102.06
337.053	100.06
337.281	116.06
337.51	105.06
337.738	109.06
337.966	104.06
338.194	115.06
338.422	113.06
338.65	119.06
338.878	115.06
339.106	124.06
339.334	117.06
339.562	117.06
339.79	103.06
340.018	109.06
340.246	103.06
340.474	111.06
340.702	112.06
340.93	120.06
341.158	123.06
341.386	118.06
341.614	115.06
341.842	119.06
342.07	113.06
342.298	123.06
342.526	125.06
342.754	127.06
342.981	117.06
343.209	119.06
343.437	111.06
343.665	118.06
343.893	101.06
344.12	117.06
344.348	118.06
344.576	108.06
344.804	111.06
345.031	115.06
345.259	101.06
345.487	111.06
345.714	111.06
345.942	131.06
346.17	108.06
346.397	96.06
346.625	101.06
346.853	105.06
347.08	100.06
347.308	113.06
347.535	102.06
347.763	111.06
347.99	103.06
348.218	107.06
348.445	112.06
348.673	119.06
348.9	98.06
349.128	120.06
349.355	130.06
349.583	111.06
349.81	123.06
350.037	123.06
350.265	122.06
350.492	118.06
350.72	101.06
350.947	108.06
351.174	121.06
351.402	95.06
351.629	111.06
351.856	124.06
352.083	102.06
352.311	104.06
352.538	114.06
352.765	117.06
352.992	128.06
353.22	96.06
353.447	103.06
353.674	112.06
353.901	100.06
354.128	99.06
354.355	105.06
354.583	95.06
354.81	112.06
355.037	114.06
355.264	104.06
355.491	89.06
355.718	108.06
355.945	127.06
356.172	108.06
356.399	103.06
356.626	115.06
356.853	126.06
357.08	111.06
357.307	110.06
357.534	102.06
357.761	113.06
357.988	113.06
358.215	119.06
358.441	107.06
358.668	108.06
358.895	115.06
359.122	122.06
359.349	104.06
359.576	115.06
359.802	111.06
360.029	111.06
360.256	98.06
360.483	117.06
360.709	113.06
360.936	122.06
361.163	104.06
361.39	107.06
361.616	110.06
361.843	108.06
362.07	119.06
362.296	107.06
362.523	103.06
362.749	98.06
362.976	109.06
363.203	99.06
363.429	106.06
363.656	93.06
363.882	119.06
364.109	117.06
364.335	119.06
364.562	108.06
364.788	101.06
365.015	120.06
365.241	133.06
365.468	164.06
365.694	250.06
365.92	204.06
366.147	119.06
366.373	102.06
366.599	103.06
366.826	97.06
367.052	98.06
367.278	94.06
367.505	97.06
367.731	96.06
367.957	103.06
368.184	105.06
368.41	134.06
368.636	123.06
368.862	107.06
369.089	89.06
369.315	104.06
369.541	95.06
369.767	97.06
369.993	111.06
370.219	105.06
370.445	108.06
370.672	109.06
370.898	108.06
371.124	101.06
371.35	98.06
371.576	113.06
371.802	119.06
372.028	98.06
372.254	96.06
372.48	101.06
372.706	123.06
372.932	103.06
373.158	122.06
373.384	120.06
373.61	116.06
373.835	124.06
374.061	101.06
374.287	112.06
374.513	113.06
374.739	118.06
374.965	113.06
375.191	111.06
375.416	103.06
375.642	113.06
375.868	103.06
376.094	108.06
376.319	103.06
376.545	115.06
376.771	119.06
376.997	96.06
377.222	104.06
377.448	120.06
377.674	108.06
377.899	117.06
378.125	116.06
378.35	115.06
378.576	120.06
378.802	125.06
379.027	132.06
379.253	150.06
379.478	173.06
379.704	309.06
379.929	779.06
380.155	1542.06
380.38	1563.06
380.606	500.06
380.831	186.06
381.057	147.06
381.282	115.06
381.507	117.06
381.733	112.06
381.958	104.06
382.184	101.06
382.409	92.06
382.634	111.06
382.86	97.06
383.085	101.06
383.31	95.06
383.535	98.06
383.761	104.06
383.986	106.06
384.211	103.06
384.436	112.06
384.662	90.06
384.887	111.06
385.112	99.06
385.337	99.06
385.562	114.06
385.787	100.06
386.013	105.06
386.238	95.06
386.463	114.06
386.688	101.06
386.913	127.06
387.138	101.06
387.363	102.06
387.588	100.06
387.813	119.06
388.038	106.06
388.263	107.06
388.488	101.06
388.713	112.06
388.938	113.06
389.163	100.06
389.387	97.06
389.612	107.06
389.837	99.06
390.062	78.06
390.287	108.06
390.512	97.06
390.736	111.06
390.961	105.06
391.186	101.06
391.411	91.06
391.636	90.06
391.86	95.06
392.085	95.06
392.31	112.06
392.534	107.06
392.759	107.06
392.984	108.06
393.208	124.06
393.433	133.06
393.658	139.06
393.882	114.06
394.107	100.06
394.331	111.06
394.556	105.06
394.78	103.06
395.005	113.06
395.229	95.06
395.454	99.06
395.678	110.06
395.903	100.06
396.127	100.06
396.352	114.06
396.576	114.06
396.801	119.06
397.025	125.06
397.249	113.06
397.474	113.06
397.698	104.06
397.922	106.06
398.147	102.06
398.371	89.06
398.595	92.06
398.82	101.06
399.044	101.06
399.268	96.06
399.492	71.06
399.717	99.06
399.941	88.06
400.165	113.06
400.389	91.06
400.613	93.06
400.837	96.06
401.062	92.06
401.286	89.06
401.51	102.06
401.734	108.06
401.958	104.06
402.182	89.06
402.406	77.06
402.63	96.06
402.854	83.06
403.078	91.06
403.302	101.06
403.526	102.06
403.75	94.06
403.974	95.06
404.198	87.06
404.422	97.06
404.645	98.06
404.869	91.06
405.093	100.06
405.317	93.06
405.541	113.06
405.765	127.06
405.988	133.06
406.212	119.06
406.436	93.06
406.66	111.06
406.883	115.06
407.107	103.06
407.331	92.06
407.555	89.06
407.778	106.06
408.002	112.06
408.226	108.06
408.449	97.06
408.673	104.06
408.896	92.06
409.12	115.06
409.344	87.06
409.567	91.06
409.791	91.06
410.014	105.06
410.238	108.06
410.461	104.06
410.685	103.06
410.908	104.06
411.132	96.06
411.355	97.06
411.578	97.06
411.802	80.06
412.025	98.06
412.249	77.06
412.472	93.06
412.695	98.06
412.919	105.06
413.142	83.06
413.365	108.06
413.589	106.06
413.812	112.06
414.035	107.06
414.258	101.06
414.482	101.06
414.705	100.06
414.928	107.06
415.151	104.06
415.374	101.06
415.597	109.06
415.821	99.06
416.044	102.06
416.267	96.06
416.49	93.06
416.713	114.06
416.936	94.06
417.159	83.06
417.382	83.06
417.605	89.06
417.828	97.06
418.051	78.06
418.274	88.06
418.497	96.06
418.72	114.06
418.943	99.06
419.166	122.06
419.389	103.06
419.611	105.06
419.834	111.06
420.057	98.06
420.28	101.06
420.503	95.06
420.726	98.06
420.948	104.06
421.171	93.06
421.394	89.06
421.617	93.06
421.839	108.06
422.062	100.06
422.285	102.06
422.507	107.06
422.73	129.06
422.953	132.06
423.175	112.06
423.398	101.06
423.621	111.06
423.843	95.06
424.066	101.06
424.288	81.06
424.511	101.06
424.733	96.06
424.956	97.06
425.178	97.06
425.401	97.06
425.623	95.06
425.846	99.06
426.068	97.06
426.291	90.06
426.513	100.06
426.735	121.06
426.958	99.06
427.18	107.06
427.402	97.06
427.625	89.06
427.847	92.06
428.069	84.06
428.292	98.06
428.514	89.06
428.736	88.06
428.958	107.06
429.181	93.06
429.403	84.06
429.625	104.06
429.847	96.06
430.069	100.06
430.292	113.06
430.514	115.06
430.736	101.06
430.958	91.06
431.18	88.06
431.402	94.06
431.624	88.06
431.846	98.06
432.068	104.06
432.29	93.06
432.512	99.06
432.734	86.06
432.956	105.06
433.178	86.06
433.4	92.06
433.622	104.06
433.844	100.06
434.066	108.06
434.287	96.06
434.509	92.06
434.731	107.06
434.953	97.06
435.175	79.06
435.397	95.06
435.618	89.06
435.84	93.06
436.062	103.06
436.284	111.06
436.505	105.06
436.727	90.06
436.949	82.06
437.17	91.06
437.392	88.06
437.614	107.06
437.835	90.06
438.057	103.06
438.278	94.06
438.5	104.06
438.721	94.06
438.943	96.06
439.165	108.06
439.386	123.06
439.608	106.06
439.829	112.06
440.05	108.06
440.272	123.06
440.493	100.06
440.715	100.06
440.936	104.06
441.158	100.06
441.379	108.06
441.6	96.06
441.822	97.06
442.043	121.06
442.264	120.06
442.486	102.06
442.707	116.06
442.928	99.06
443.149	99.06
443.371	95.06
443.592	95.06
443.813	103.06
444.034	101.06
444.255	98.06
444.476	90.06
444.698	87.06
444.919	100.06
445.14	192.06
445.361	147.06
445.582	102.06
445.803	96.06
446.024	89.06
446.245	112.06
446.466	94.06
446.687	103.06
446.908	105.06
447.129	90.06
447.35	96.06
447.571	92.06
447.792	104.06
448.013	117.06
448.234	89.06
448.455	111.06
448.675	102.06
448.896	98.06
449.117	102.06
449.338	135.06
449.559	149.06
449.779	121.06
450	102.06
450.221	106.06
450.442	114.06
450.662	105.06
450.883	107.06
451.104	103.06
451.324	120.06
451.545	121.06
451.766	124.06
451.986	140.06
452.207	201.06
452.428	534.06
452.648	1291.06
452.869	731.06
453.089	205.06
453.31	126.06
453.53	112.06
453.751	136.06
453.971	152.06
454.192	160.06
454.412	116.06
454.633	84.06
454.853	98.06
455.073	84.06
455.294	94.06
455.514	103.06
455.734	83.06
455.955	95.06
456.175	89.06
456.395	96.06
456.616	76.06
456.836	96.06
457.056	94.06
457.276	92.06
457.497	116.06
457.717	111.06
457.937	89.06
458.157	80.06
458.377	92.06
458.598	97.06
458.818	95.06
459.038	99.06
459.258	90.06
459.478	96.06
459.698	97.06
459.918	95.06
460.138	76.06
460.358	91.06
460.578	97.06
460.798	90.06
461.018	87.06
461.238	99.06
461.458	83.06
461.678	107.06
461.898	98.06
462.118	84.06
462.338	101.06
462.558	95.06
462.777	105.06
462.997	97.06
463.217	114.06
463.437	128.06
463.657	178.06
463.876	188.06
464.096	114.06
464.316	108.06
464.536	88.06
464.755	89.06
464.975	105.06
465.195	91.06
465.414	85.06
465.634	95.06
465.854	97.06
466.073	96.06
466.293	97.06
466.512	95.06
466.732	96.06
466.951	111.06
467.171	135.06
467.391	135.06
467.61	103.06
467.829	99.06
468.049	85.06
468.268	85.06
468.488	108.06
468.707	111.06
468.927	106.06
469.146	104.06
469.365	99.06
469.585	94.06
469.804	104.06
470.023	99.06
470.243	105.06
470.462	93.06
470.681	110.06
470.901	131.06
471.12	193.06
471.339	210.06
471.558	142.06
471.777	118.06
471.997	107.06
472.216	92.06
472.435	86.06
472.654	93.06
472.873	108.06
473.092	100.06
473.311	87.06
473.53	105.06
473.749	88.06
473.968	108.06
474.187	101.06
474.406	104.06
474.625	83.06
474.844	108.06
475.063	105.06
475.282	105.06
475.501	98.06
475.72	101.06
475.939	92.06
476.158	97.06
476.377	105.06
476.596	107.06
476.814	105.06
477.033	98.06
477.252	102.06
477.471	104.06
477.69	110.06
477.908	100.06
478.127	109.06
478.346	101.06
478.564	87.06
478.783	103.06
479.002	112.06
479.22	93.06
479.439	107.06
479.658	96.06
479.876	92.06
480.095	99.06
480.313	87.06
480.532	101.06
480.751	97.06
480.969	77.06
481.188	86.06
481.406	91.06
481.624	102.06
481.843	109.06
482.061	112.06
482.28	104.06
482.498	97.06
482.717	87.06
482.935	102.06
483.153	116.06
483.372	111.06
483.59	101.06
483.808	116.06
484.027	103.06
484.245	117.06
484.463	184.06
484.681	247.06
484.9	155.06
485.118	115.06
485.336	104.06
485.554	111.06
485.772	132.06
485.99	200.06
486.209	257.06
486.427	177.06
486.645	123.06
486.863	120.06
487.081	115.06
487.299	103.06
487.517	99.06
487.735	98.06
487.953	97.06
488.171	100.06
488.389	111.06
488.607	95.06
488.825	85.06
489.043	116.06
489.261	95.06
489.479	93.06
489.696	86.06
489.914	92.06
490.132	102.06
490.35	94.06
490.568	87.06
490.786	112.06
491.003	107.06
491.221	116.06
491.439	119.06
491.657	99.06
491.874	120.06
492.092	131.06
492.31	122.06
492.527	95.06
492.745	109.06
492.963	122.06
493.18	99.06
493.398	115.06
493.615	96.06
493.833	99.06
494.05	104.06
494.268	109.06
494.485	93.06
494.703	102.06
494.92	93.06
495.138	106.06
495.355	100.06
495.573	111.06
495.79	118.06
496.008	98.06
496.225	97.06
496.442	103.06
496.66	129.06
496.877	141.06
497.094	157.06
497.312	117.06
497.529	103.06
497.746	106.06
497.963	105.06
498.181	101.06
498.398	106.06
498.615	108.06
498.832	99.06
499.049	110.06
499.267	133.06
499.484	155.06
499.701	117.06
499.918	118.06
500.135	96.06
500.352	118.06
500.569	96.06
500.786	90.06
501.003	105.06
501.22	94.06
501.437	97.06
501.654	103.06
501.871	117.06
502.088	98.06
502.305	108.06
502.522	99.06
502.739	103.06
502.956	93.06
503.172	92.06
503.389	103.06
503.606	100.06
503.823	96.06
504.04	110.06
504.256	91.06
504.473	95.06
504.69	97.06
504.907	124.06
505.123	123.06
505.34	99.06
505.557	108.06
505.773	113.06
505.99	93.06
506.207	85.06
506.423	100.06
506.64	115.06
506.856	93.06
507.073	86.06
507.289	99.06
507.506	101.06
507.722	89.06
507.939	102.06
508.155	92.06
508.372	88.06
508.588	100.06
508.805	89.06
509.021	100.06
509.238	115.06
509.454	140.06
509.67	145.06
509.887	130.06
510.103	86.06
510.319	95.06
510.536	107.06
510.752	108.06
510.968	109.06
511.184	88.06
511.401	106.06
511.617	86.06
511.833	98.06
512.049	109.06
512.265	94.06
512.481	109.06
512.698	104.06
512.914	97.06
513.13	101.06
513.346	88.06
513.562	104.06
513.778	110.06
513.994	107.06
514.21	104.06
514.426	136.06
514.642	171.06
514.858	124.06
515.074	112.06
515.29	94.06
515.506	92.06
515.721	95.06
515.937	84.06
516.153	105.06
516.369	94.06
516.585	88.06
516.801	92.06
517.016	97.06
517.232	100.06
517.448	93.06
517.664	103.06
517.879	109.06
518.095	102.06
518.311	103.06
518.527	97.06
518.742	98.06
518.958	114.06
519.173	146.06
519.389	108.06
519.605	122.06
519.82	101.06
520.036	89.06
520.251	94.06
520.467	105.06
520.682	95.06
520.898	119.06
521.113	104.06
521.329	91.06
521.544	89.06
521.76	88.06
521.975	108.06
522.19	120.06
522.406	96.06
522.621	103.06
522.836	91.06
523.052	104.06
523.267	112.06
523.482	104.06
523.698	97.06
523.913	106.06
524.128	112.06
524.343	92.06
524.559	96.06
524.774	100.06
524.989	104.06
525.204	95.06
525.419	105.06
525.634	95.06
525.849	95.06
526.064	74.06
526.28	96.06
526.495	98.06
526.71	102.06
526.925	97.06
527.14	95.06
527.355	99.06
527.57	103.06
527.785	95.06
527.999	99.06
528.214	90.06
528.429	96.06
528.644	107.06
528.859	92.06
529.074	106.06
529.289	108.06
529.503	91.06
529.718	100.06
529.933	105.06
530.148	91.06
530.363	84.06
530.577	93.06
530.792	101.06
531.007	98.06
531.221	100.06
531.436	77.06
531.651	94.06
531.865	100.06
532.08	100.06
532.295	108.06
532.509	145.06
532.724	115.06
532.938	107.06
533.153	103.06
533.367	94.06
533.582	90.06
533.796	115.06
534.011	107.06
534.225	84.06
534.44	101.06
534.654	93.06
534.868	102.06
535.083	108.06
535.297	92.06
535.511	103.06
535.726	100.06
535.94	92.06
536.154	100.06
536.369	101.06
536.583	80.06
536.797	98.06
537.011	92.06
537.225	100.06
537.44	87.06
537.654	96.06
537.868	90.06
538.082	99.06
538.296	100.06
538.51	99.06
538.724	93.06
538.938	103.06
539.153	96.06
539.367	105.06
539.581	104.06
539.795	94.06
540.009	102.06
540.222	106.06
540.436	112.06
540.65	107.06
540.864	99.06
541.078	116.06
541.292	131.06
541.506	211.06
541.72	228.06
541.934	139.06
542.147	100.06
542.361	117.06
542.575	99.06
542.789	113.06
543.002	94.06
543.216	101.06
543.43	95.06
543.644	111.06
543.857	110.06
544.071	111.06
544.285	106.06
544.498	100.06
544.712	100.06
544.925	107.06
545.139	101.06
545.352	112.06
545.566	106.06
545.779	98.06
545.993	108.06
546.206	112.06
546.42	96.06
546.633	103.06
546.847	97.06
547.06	103.06
547.274	113.06
547.487	108.06
547.7	113.06
547.914	100.06
548.127	104.06
548.34	101.06
548.554	123.06
548.767	112.06
548.98	111.06
549.193	104.06
549.407	111.06
549.62	88.06
549.833	113.06
550.046	103.06
550.259	98.06
550.473	94.06
550.686	100.06
550.899	89.06
551.112	95.06
551.325	112.06
551.538	94.06
551.751	88.06
551.964	98.06
552.177	109.06
552.39	98.06
552.603	110.06
552.816	109.06
553.029	117.06
553.242	103.06
553.455	101.06
553.667	111.06
553.88	95.06
554.093	97.06
554.306	105.06
554.519	100.06
554.732	95.06
554.944	99.06
555.157	112.06
555.37	101.06
555.583	104.06
555.795	91.06
556.008	122.06
556.221	165.06
556.433	127.06
556.646	109.06
556.859	93.06
557.071	127.06
557.284	127.06
557.496	121.06
557.709	103.06
557.921	119.06
558.134	105.06
558.346	104.06
558.559	100.06
558.771	91.06
558.984	98.06
559.196	107.06
559.409	97.06
559.621	108.06
559.833	104.06
560.046	81.06
560.258	97.06
560.47	102.06
560.683	96.06
560.895	102.06
561.107	113.06
561.32	95.06
561.532	95.06
561.744	112.06
561.956	91.06
562.168	102.06
562.381	107.06
562.593	124.06
562.805	136.06
563.017	175.06
563.229	247.06
563.441	577.06
563.653	196.06
563.865	95.06
564.077	102.06
564.289	111.06
564.501	100.06
564.713	99.06
564.925	96.06
565.137	91.06
565.349	98.06
565.561	105.06
565.773	95.06
565.985	109.06
566.197	94.06
566.408	109.06
566.62	102.06
566.832	102.06
567.044	95.06
567.255	104.06
567.467	110.06
567.679	99.06
567.891	125.06
568.102	183.06
568.314	260.06
568.526	145.06
568.737	119.06
568.949	101.06
569.161	111.06
569.372	111.06
569.584	97.06
569.795	100.06
570.007	101.06
570.218	122.06
570.43	147.06
570.641	125.06
570.853	111.06
571.064	87.06
571.276	93.06
571.487	96.06
571.698	104.06
571.91	103.06
572.121	91.06
572.333	102.06
572.544	116.06
572.755	147.06
572.966	195.06
573.178	135.06
573.389	106.06
573.6	113.06
573.811	98.06
574.023	99.06
574.234	95.06
574.445	92.06
574.656	85.06
574.867	102.06
575.078	88.06
575.289	94.06
575.501	106.06
575.712	103.06
575.923	88.06
576.134	99.06
576.345	91.06
576.556	90.06
576.767	98.06
576.978	89.06
577.188	85.06
577.399	100.06
577.61	86.06
577.821	93.06
578.032	97.06
578.243	88.06
578.454	89.06
578.665	101.06
578.875	97.06
579.086	81.06
579.297	92.06
579.508	103.06
579.718	106.06
579.929	112.06
580.14	107.06
580.35	104.06
580.561	93.06
580.772	97.06
580.982	92.06
581.193	98.06
581.403	84.06
581.614	106.06
581.825	92.06
582.035	88.06
582.246	92.06
582.456	96.06
582.667	97.06
582.877	119.06
583.087	118.06
583.298	97.06
583.508	97.06
583.719	85.06
583.929	112.06
584.139	105.06
584.35	105.06
584.56	95.06
584.77	94.06
584.981	92.06
585.191	96.06
585.401	103.06
585.611	88.06
585.821	87.06
586.032	96.06
586.242	95.06
586.452	82.06
586.662	84.06
586.872	95.06
587.082	93.06
587.292	86.06
587.502	88.06
587.713	109.06
587.923	84.06
588.133	85.06
588.343	87.06
588.553	97.06
588.762	95.06
588.972	93.06
589.182	122.06
589.392	114.06
589.602	82.06
589.812	95.06
590.022	117.06
590.232	86.06
590.441	88.06
590.651	83.06
590.861	99.06
591.071	95.06
591.281	107.06
591.49	89.06
591.7	89.06
591.91	79.06
592.119	87.06
592.329	87.06
592.539	98.06
592.748	117.06
592.958	103.06
593.167	85.06
593.377	95.06
593.587	102.06
593.796	92.06
594.006	103.06
594.215	88.06
594.424	91.06
594.634	86.06
594.843	87.06
595.053	100.06
595.262	83.06
595.472	101.06
595.681	88.06
595.89	88.06
596.1	93.06
596.309	93.06
596.518	80.06
596.727	89.06
596.937	89.06
597.146	91.06
597.355	114.06
597.564	85.06
597.774	105.06
597.983	96.06
598.192	113.06
598.401	91.06
598.61	102.06
598.819	97.06
599.028	86.06
599.237	94.06
599.446	87.06
599.655	98.06
599.864	86.06
600.073	89.06
600.282	94.06
600.491	99.06
600.7	101.06
600.909	91.06
601.118	104.06
601.327	87.06
601.536	92.06
601.745	101.06
601.953	125.06
602.162	155.06
602.371	103.06
602.58	92.06
602.789	85.06
602.997	89.06
603.206	104.06
603.415	98.06
603.623	96.06
603.832	105.06
604.041	104.06
604.249	97.06
604.458	89.06
604.666	88.06
604.875	79.06
605.084	111.06
605.292	89.06
605.501	83.06
605.709	90.06
605.918	99.06
606.126	115.06
606.334	109.06
606.543	101.06
606.751	134.06
606.96	163.06
607.168	169.06
607.376	114.06
607.585	109.06
607.793	97.06
608.001	91.06
608.21	91.06
608.418	85.06
608.626	100.06
608.834	110.06
609.043	86.06
609.251	101.06
609.459	98.06
609.667	91.06
609.875	105.06
610.083	101.06
610.291	88.06
610.499	91.06
610.707	86.06
610.916	99.06
611.124	100.06
611.332	98.06
611.54	91.06
611.748	91.06
611.955	107.06
612.163	95.06
612.371	99.06
612.579	97.06
612.787	94.06
612.995	95.06
613.203	93.06
613.411	95.06
613.618	96.06
613.826	94.06
614.034	98.06
614.242	101.06
614.449	87.06
614.657	94.06
614.865	95.06
615.072	105.06
615.28	123.06
615.488	95.06
615.695	115.06
615.903	93.06
616.111	106.06
616.318	101.06
616.526	104.06
616.733	118.06
616.941	107.06
617.148	93.06
617.356	96.06
617.563	94.06
617.771	104.06
617.978	90.06
618.185	86.06
618.393	90.06
618.6	89.06
618.807	94.06
619.015	91.06
619.222	83.06
619.429	92.06
619.637	92.06
619.844	93.06
620.051	93.06
620.258	87.06
620.466	95.06
620.673	98.06
620.88	90.06
621.087	88.06
621.294	102.06
621.501	62.06
621.708	91.06
621.915	79.06
622.122	87.06
622.329	103.06
622.536	84.06
622.743	77.06
622.95	95.06
623.157	91.06
623.364	87.06
623.571	92.06
623.778	88.06
623.985	77.06
624.192	80.06
624.399	87.06
624.606	102.06
624.812	88.06
625.019	95.06
625.226	106.06
625.433	88.06
625.639	94.06
625.846	100.06
626.053	85.06
626.259	107.06
626.466	95.06
626.673	95.06
626.879	84.06
627.086	92.06
627.293	90.06
627.499	84.06
627.706	81.06
627.912	80.06
628.119	92.06
628.325	97.06
628.532	83.06
628.738	96.06
628.945	96.06
629.151	85.06
629.357	89.06
629.564	95.06
629.77	96.06
629.976	95.06
630.183	86.06
630.389	89.06
630.595	86.06
630.802	73.06
631.008	101.06
631.214	74.06
631.42	102.06
631.627	91.06
631.833	97.06
632.039	81.06
632.245	96.06
632.451	87.06
632.657	88.06
632.863	84.06
633.069	89.06
633.275	96.06
633.481	101.06
633.688	87.06
633.893	82.06
634.099	92.06
634.305	108.06
634.511	100.06
634.717	88.06
634.923	94.06
635.129	123.06
635.335	120.06
635.541	108.06
635.747	87.06
635.952	84.06
636.158	95.06
636.364	109.06
636.57	81.06
636.775	95.06
636.981	87.06
637.187	104.06
637.392	99.06
637.598	108.06
637.804	95.06
638.009	87.06
638.215	81.06
638.421	88.06
638.626	87.06
638.832	86.06
639.037	72.06
639.243	87.06
639.448	79.06
639.654	85.06
639.859	89.06
640.065	96.06
640.27	99.06
640.475	89.06
640.681	101.06
640.886	101.06
641.091	101.06
641.297	85.06
641.502	90.06
641.707	77.06
641.913	100.06
642.118	94.06
642.323	90.06
642.528	101.06
642.733	77.06
642.939	93.06
643.144	95.06
643.349	81.06
643.554	86.06
643.759	83.06
643.964	95.06
644.169	105.06
644.374	97.06
644.579	96.06
644.784	86.06
644.989	83.06
645.194	91.06
645.399	96.06
645.604	100.06
645.809	94.06
646.014	88.06
646.219	94.06
646.423	85.06
646.628	88.06
646.833	87.06
647.038	83.06
647.243	89.06
647.447	89.06
647.652	91.06
647.857	103.06
648.062	90.06
648.266	95.06
648.471	83.06
648.676	77.06
648.88	94.06
649.085	86.06
649.289	90.06
649.494	84.06
649.698	93.06
649.903	93.06
650.107	81.06
650.312	90.06
650.516	81.06
650.721	85.06
650.925	79.06
651.13	88.06
651.334	77.06
651.539	90.06
651.743	92.06
651.947	88.06
652.152	88.06
652.356	88.06
652.56	91.06
652.764	103.06
652.969	97.06
653.173	85.06
653.377	99.06
653.581	76.06
653.785	79.06
653.99	82.06
654.194	87.06
654.398	88.06
654.602	99.06
654.806	88.06
655.01	76.06
655.214	85.06
655.418	75.06
655.622	85.06
655.826	88.06
656.03	80.06
656.234	81.06
656.438	91.06
656.642	93.06
656.846	77.06
657.049	76.06
657.253	77.06
657.457	96.06
657.661	82.06
657.865	77.06
658.068	74.06
658.272	99.06
658.476	97.06
658.68	89.06
658.883	103.06
659.087	90.06
659.291	95.06
659.494	94.06
659.698	85.06
659.901	70.06
660.105	91.06
660.309	90.06
660.512	96.06
660.716	90.06
660.919	94.06
661.123	86.06
661.326	73.06
661.53	77.06
661.733	87.06
661.936	89.06
662.14	88.06
662.343	74.06
662.546	96.06
662.75	76.06
662.953	85.06
663.156	90.06
663.36	76.06
663.563	95.06
663.766	96.06
663.969	88.06
664.173	85.06
664.376	91.06
664.579	87.06
664.782	89.06
664.985	81.06
665.188	92.06
665.391	90.06
665.594	89.06
665.797	69.06
666	83.06
666.203	81.06
666.406	77.06
666.609	82.06
666.812	81.06
667.015	72.06
667.218	88.06
667.421	91.06
667.624	90.06
667.827	82.06
668.03	84.06
668.232	91.06
668.435	93.06
668.638	72.06
668.841	76.06
669.043	72.06
669.246	83.06
669.449	72.06
669.651	93.06
669.854	75.06
670.057	69.06
670.259	66.06
670.462	74.06
670.665	82.06
670.867	86.06
671.07	72.06
671.272	92.06
671.475	89.06
671.677	86.06
671.88	85.06
672.082	64.06
672.284	76.06
672.487	97.06
672.689	73.06
672.892	86.06
