Data from SnStandardFlinnAPT0064_LampEnergy5.5_LIBS07252019.E.O._I.C._HRD10591_15-15-43-491.txt Node
Date: Thu Jul 25 15:15:43 EDT 2019
User: cochatt
Spectrometer: HR+D1059
Trigger mode: 1
Integration Time (sec): 1.000000E-1
Scans to average: 1
Electric dark correction enabled: true
Nonlinearity correction enabled: false
Boxcar width: 0
XAxis mode: Wavelengths
Number of Pixels in Spectrum: 2048
>>>>>Begin Spectral Data<<<<<
223.165	-11.5
223.4	-11.5
223.635	-11.5
223.869	-8.5
224.104	-14.5
224.338	-17.5
224.573	-24.5
224.808	-17.5
225.042	3.5
225.277	-13.5
225.511	-5.5
225.746	5.5
225.98	9.5
226.215	16.5
226.449	14.5
226.683	5.5
226.918	27.5
227.152	30.5
227.387	39.5
227.621	27.5
227.856	46.5
228.09	57.5
228.324	60.5
228.559	50.5
228.793	84.5
229.027	156.5
229.262	160.5
229.496	153.5
229.73	158.5
229.964	142.5
230.199	141.5
230.433	153.5
230.667	181.5
230.901	161.5
231.136	171.5
231.37	174.5
231.604	178.5
231.838	215.5
232.072	210.5
232.306	226.5
232.541	212.5
232.775	190.5
233.009	217.5
233.243	191.5
233.477	209.5
233.711	210.5
233.945	248.5
234.179	217.5
234.413	211.5
234.647	208.5
234.881	214.5
235.115	235.5
235.349	250.5
235.583	318.5
235.817	394.5
236.051	380.5
236.285	261.5
236.519	244.5
236.753	233.5
236.987	240.5
237.221	246.5
237.455	236.5
237.689	230.5
237.922	219.5
238.156	209.5
238.39	206.5
238.624	217.5
238.858	228.5
239.091	213.5
239.325	225.5
239.559	215.5
239.793	228.5
240.027	227.5
240.26	266.5
240.494	242.5
240.728	256.5
240.961	262.5
241.195	265.5
241.429	271.5
241.662	296.5
241.896	303.5
242.13	365.5
242.363	451.5
242.597	584.5
242.83	553.5
243.064	577.5
243.298	676.5
243.531	539.5
243.765	364.5
243.998	322.5
244.232	305.5
244.465	291.5
244.699	293.5
244.932	285.5
245.166	279.5
245.399	288.5
245.633	269.5
245.866	288.5
246.099	303.5
246.333	291.5
246.566	274.5
246.8	278.5
247.033	295.5
247.266	271.5
247.5	297.5
247.733	292.5
247.966	321.5
248.2	336.5
248.433	344.5
248.666	385.5
248.899	364.5
249.133	322.5
249.366	350.5
249.599	363.5
249.832	426.5
250.066	421.5
250.299	336.5
250.532	330.5
250.765	328.5
250.998	308.5
251.231	309.5
251.465	320.5
251.698	309.5
251.931	329.5
252.164	331.5
252.397	321.5
252.63	352.5
252.863	329.5
253.096	318.5
253.329	329.5
253.562	335.5
253.795	322.5
254.028	343.5
254.261	347.5
254.494	368.5
254.727	413.5
254.96	448.5
255.193	477.5
255.426	413.5
255.659	381.5
255.892	367.5
256.124	375.5
256.357	378.5
256.59	384.5
256.823	378.5
257.056	431.5
257.289	523.5
257.521	543.5
257.754	452.5
257.987	409.5
258.22	397.5
258.452	392.5
258.685	387.5
258.918	394.5
259.151	411.5
259.383	424.5
259.616	466.5
259.849	471.5
260.081	440.5
260.314	405.5
260.547	408.5
260.779	425.5
261.012	410.5
261.244	404.5
261.477	422.5
261.71	419.5
261.942	427.5
262.175	440.5
262.407	438.5
262.64	450.5
262.872	467.5
263.105	494.5
263.337	542.5
263.57	523.5
263.802	547.5
264.035	537.5
264.267	569.5
264.499	593.5
264.732	597.5
264.964	610.5
265.197	599.5
265.429	597.5
265.661	580.5
265.894	639.5
266.126	705.5
266.358	763.5
266.591	738.5
266.823	658.5
267.055	612.5
267.287	593.5
267.52	565.5
267.752	558.5
267.984	546.5
268.216	553.5
268.448	538.5
268.681	531.5
268.913	499.5
269.145	534.5
269.377	522.5
269.609	532.5
269.841	512.5
270.073	567.5
270.306	635.5
270.538	808.5
270.77	1137.5
271.002	1362.5
271.234	990.5
271.466	697.5
271.698	602.5
271.93	562.5
272.162	558.5
272.394	528.5
272.626	527.5
272.858	511.5
273.09	528.5
273.322	514.5
273.553	490.5
273.785	502.5
274.017	509.5
274.249	486.5
274.481	498.5
274.713	505.5
274.945	497.5
275.176	505.5
275.408	516.5
275.64	522.5
275.872	514.5
276.104	514.5
276.335	536.5
276.567	529.5
276.799	511.5
277.031	540.5
277.262	532.5
277.494	547.5
277.726	595.5
277.957	674.5
278.189	753.5
278.421	702.5
278.652	662.5
278.884	633.5
279.115	576.5
279.347	576.5
279.579	556.5
279.81	569.5
280.042	552.5
280.273	575.5
280.505	558.5
280.736	595.5
280.968	623.5
281.199	667.5
281.431	711.5
281.662	750.5
281.894	671.5
282.125	625.5
282.356	634.5
282.588	657.5
282.819	661.5
283.051	696.5
283.282	759.5
283.513	924.5
283.745	1306.5
283.976	1982.5
284.207	2764.5
284.439	2527.5
284.67	1571.5
284.901	1264.5
285.132	1236.5
285.364	1162.5
285.595	954.5
285.826	890.5
286.057	1035.5
286.288	1352.5
286.52	1779.5
286.751	1654.5
286.982	1096.5
287.213	864.5
287.444	761.5
287.675	713.5
287.906	692.5
288.138	689.5
288.369	698.5
288.6	679.5
288.831	698.5
289.062	682.5
289.293	682.5
289.524	693.5
289.755	668.5
289.986	683.5
290.217	695.5
290.448	693.5
290.679	680.5
290.91	702.5
291.141	728.5
291.371	738.5
291.602	770.5
291.833	723.5
292.064	682.5
292.295	666.5
292.526	657.5
292.757	668.5
292.987	658.5
293.218	650.5
293.449	652.5
293.68	641.5
293.91	662.5
294.141	633.5
294.372	619.5
294.603	658.5
294.833	646.5
295.064	648.5
295.295	619.5
295.525	646.5
295.756	640.5
295.987	656.5
296.217	634.5
296.448	631.5
296.679	642.5
296.909	624.5
297.14	659.5
297.37	662.5
297.601	660.5
297.831	678.5
298.062	681.5
298.292	652.5
298.523	668.5
298.753	660.5
298.984	707.5
299.214	706.5
299.445	699.5
299.675	722.5
299.905	741.5
300.136	750.5
300.366	791.5
300.597	1011.5
300.827	1330.5
301.057	1794.5
301.288	1753.5
301.518	1204.5
301.748	945.5
301.979	898.5
302.209	845.5
302.439	862.5
302.669	901.5
302.9	1093.5
303.13	1395.5
303.36	2024.5
303.59	2633.5
303.82	2346.5
304.051	1434.5
304.281	1068.5
304.511	939.5
304.741	883.5
304.971	835.5
305.201	812.5
305.431	788.5
305.661	776.5
305.891	777.5
306.121	742.5
306.352	746.5
306.582	745.5
306.812	730.5
307.042	738.5
307.272	728.5
307.502	728.5
307.731	746.5
307.961	742.5
308.191	746.5
308.421	730.5
308.651	734.5
308.881	745.5
309.111	765.5
309.341	742.5
309.571	754.5
309.8	786.5
310.03	762.5
310.26	726.5
310.49	780.5
310.72	786.5
310.949	747.5
311.179	777.5
311.409	752.5
311.639	803.5
311.868	779.5
312.098	804.5
312.328	778.5
312.557	793.5
312.787	802.5
313.017	833.5
313.246	834.5
313.476	804.5
313.706	823.5
313.935	841.5
314.165	900.5
314.394	916.5
314.624	875.5
314.853	856.5
315.083	826.5
315.312	876.5
315.542	872.5
315.771	875.5
316.001	879.5
316.23	907.5
316.46	948.5
316.689	1007.5
316.919	1186.5
317.148	1661.5
317.377	2450.5
317.607	3570.5
317.836	3646.5
318.065	2226.5
318.295	1466.5
318.524	1234.5
318.753	1076.5
318.983	1036.5
319.212	977.5
319.441	948.5
319.67	956.5
319.9	922.5
320.129	962.5
320.358	966.5
320.587	936.5
320.816	970.5
321.046	926.5
321.275	934.5
321.504	942.5
321.733	964.5
321.962	990.5
322.191	976.5
322.42	968.5
322.649	963.5
322.878	982.5
323.108	984.5
323.337	982.5
323.566	1046.5
323.795	1009.5
324.024	1040.5
324.253	1043.5
324.482	1142.5
324.71	1129.5
324.939	1179.5
325.168	1203.5
325.397	1275.5
325.626	1428.5
325.855	1958.5
326.084	3004.5
326.313	4368.5
326.542	4669.5
326.77	3020.5
326.999	2066.5
327.228	1794.5
327.457	1633.5
327.686	1718.5
327.914	1806.5
328.143	2053.5
328.372	2341.5
328.6	2554.5
328.829	2379.5
329.058	2149.5
329.287	1924.5
329.515	1731.5
329.744	1592.5
329.972	1561.5
330.201	1462.5
330.43	1412.5
330.658	1372.5
330.887	1345.5
331.115	1332.5
331.344	1343.5
331.572	1345.5
331.801	1360.5
332.03	1358.5
332.258	1358.5
332.486	1454.5
332.715	1562.5
332.943	1910.5
333.172	2191.5
333.4	2207.5
333.629	1850.5
333.857	1674.5
334.085	1672.5
334.314	1748.5
334.542	1893.5
334.771	2159.5
334.999	2544.5
335.227	3070.5
335.455	3410.5
335.684	3169.5
335.912	2754.5
336.14	2402.5
336.369	2123.5
336.597	1994.5
336.825	1794.5
337.053	1710.5
337.281	1628.5
337.51	1554.5
337.738	1480.5
337.966	1457.5
338.194	1431.5
338.422	1342.5
338.65	1308.5
338.878	1270.5
339.106	1302.5
339.334	1306.5
339.562	1262.5
339.79	1223.5
340.018	1189.5
340.246	1205.5
340.474	1193.5
340.702	1223.5
340.93	1177.5
341.158	1182.5
341.386	1205.5
341.614	1164.5
341.842	1164.5
342.07	1141.5
342.298	1130.5
342.526	1124.5
342.754	1097.5
342.981	1100.5
343.209	1107.5
343.437	1116.5
343.665	1095.5
343.893	1129.5
344.12	1162.5
344.348	1121.5
344.576	1086.5
344.804	1109.5
345.031	1038.5
345.259	1036.5
345.487	1025.5
345.714	1030.5
345.942	1043.5
346.17	1045.5
346.397	1029.5
346.625	1043.5
346.853	1024.5
347.08	994.5
347.308	1013.5
347.535	998.5
347.763	1013.5
347.99	982.5
348.218	979.5
348.445	994.5
348.673	997.5
348.9	1020.5
349.128	999.5
349.355	997.5
349.583	1026.5
349.81	1025.5
350.037	961.5
350.265	989.5
350.492	971.5
350.72	971.5
350.947	985.5
351.174	971.5
351.402	994.5
351.629	971.5
351.856	1001.5
352.083	987.5
352.311	977.5
352.538	967.5
352.765	953.5
352.992	965.5
353.22	954.5
353.447	967.5
353.674	975.5
353.901	972.5
354.128	980.5
354.355	1012.5
354.583	987.5
354.81	989.5
355.037	971.5
355.264	997.5
355.491	1002.5
355.718	986.5
355.945	1004.5
356.172	1024.5
356.399	1009.5
356.626	1038.5
356.853	993.5
357.08	1008.5
357.307	1018.5
357.534	1034.5
357.761	1033.5
357.988	1031.5
358.215	1006.5
358.441	1020.5
358.668	1033.5
358.895	1010.5
359.122	1028.5
359.349	1028.5
359.576	1019.5
359.802	1039.5
360.029	1043.5
360.256	1012.5
360.483	1057.5
360.709	1017.5
360.936	1043.5
361.163	1036.5
361.39	1024.5
361.616	1033.5
361.843	1057.5
362.07	1045.5
362.296	1045.5
362.523	1033.5
362.749	1036.5
362.976	1027.5
363.203	1057.5
363.429	1036.5
363.656	1024.5
363.882	1047.5
364.109	1044.5
364.335	1034.5
364.562	1028.5
364.788	1039.5
365.015	1025.5
365.241	1047.5
365.468	1099.5
365.694	1094.5
365.92	1099.5
366.147	1072.5
366.373	1049.5
366.599	1070.5
366.826	1051.5
367.052	1074.5
367.278	1058.5
367.505	1063.5
367.731	1059.5
367.957	1042.5
368.184	1064.5
368.41	1099.5
368.636	1095.5
368.862	1060.5
369.089	1063.5
369.315	1075.5
369.541	1062.5
369.767	1086.5
369.993	1084.5
370.219	1042.5
370.445	1078.5
370.672	1076.5
370.898	1104.5
371.124	1122.5
371.35	1119.5
371.576	1119.5
371.802	1127.5
372.028	1124.5
372.254	1112.5
372.48	1120.5
372.706	1139.5
372.932	1144.5
373.158	1093.5
373.384	1090.5
373.61	1154.5
373.835	1145.5
374.061	1172.5
374.287	1171.5
374.513	1173.5
374.739	1189.5
374.965	1178.5
375.191	1174.5
375.416	1177.5
375.642	1163.5
375.868	1149.5
376.094	1177.5
376.319	1130.5
376.545	1146.5
376.771	1130.5
376.997	1148.5
377.222	1142.5
377.448	1103.5
377.674	1142.5
377.899	1126.5
378.125	1118.5
378.35	1145.5
378.576	1114.5
378.802	1127.5
379.027	1126.5
379.253	1148.5
379.478	1223.5
379.704	1392.5
379.929	1832.5
380.155	2605.5
380.38	2736.5
380.606	1819.5
380.831	1378.5
381.057	1254.5
381.282	1171.5
381.507	1158.5
381.733	1115.5
381.958	1123.5
382.184	1113.5
382.409	1115.5
382.634	1135.5
382.86	1082.5
383.085	1075.5
383.31	1110.5
383.535	1087.5
383.761	1111.5
383.986	1130.5
384.211	1134.5
384.436	1153.5
384.662	1128.5
384.887	1134.5
385.112	1144.5
385.337	1176.5
385.562	1168.5
385.787	1162.5
386.013	1160.5
386.238	1145.5
386.463	1157.5
386.688	1144.5
386.913	1147.5
387.138	1167.5
387.363	1147.5
387.588	1118.5
387.813	1149.5
388.038	1118.5
388.263	1150.5
388.488	1145.5
388.713	1148.5
388.938	1146.5
389.163	1174.5
389.387	1131.5
389.612	1126.5
389.837	1151.5
390.062	1167.5
390.287	1171.5
390.512	1179.5
390.736	1177.5
390.961	1178.5
391.186	1181.5
391.411	1204.5
391.636	1218.5
391.86	1219.5
392.085	1230.5
392.31	1186.5
392.534	1179.5
392.759	1148.5
392.984	1156.5
393.208	1183.5
393.433	1109.5
393.658	1169.5
393.882	1158.5
394.107	1177.5
394.331	1150.5
394.556	1189.5
394.78	1165.5
395.005	1160.5
395.229	1174.5
395.454	1209.5
395.678	1167.5
395.903	1207.5
396.127	1215.5
396.352	1177.5
396.576	1226.5
396.801	1174.5
397.025	1161.5
397.249	1232.5
397.474	1226.5
397.698	1231.5
397.922	1218.5
398.147	1220.5
398.371	1248.5
398.595	1248.5
398.82	1298.5
399.044	1318.5
399.268	1394.5
399.492	1471.5
399.717	1529.5
399.941	1548.5
400.165	1488.5
400.389	1405.5
400.613	1354.5
400.837	1315.5
401.062	1321.5
401.286	1286.5
401.51	1286.5
401.734	1283.5
401.958	1304.5
402.182	1291.5
402.406	1263.5
402.63	1291.5
402.854	1290.5
403.078	1282.5
403.302	1300.5
403.526	1299.5
403.75	1313.5
403.974	1302.5
404.198	1303.5
404.422	1361.5
404.645	1313.5
404.869	1303.5
405.093	1322.5
405.317	1311.5
405.541	1351.5
405.765	1317.5
405.988	1328.5
406.212	1342.5
406.436	1324.5
406.66	1420.5
406.883	1348.5
407.107	1382.5
407.331	1409.5
407.555	1407.5
407.778	1385.5
408.002	1398.5
408.226	1428.5
408.449	1379.5
408.673	1359.5
408.896	1349.5
409.12	1361.5
409.344	1351.5
409.567	1332.5
409.791	1327.5
410.014	1318.5
410.238	1315.5
410.461	1321.5
410.685	1328.5
410.908	1284.5
411.132	1279.5
411.355	1296.5
411.578	1253.5
411.802	1268.5
412.025	1287.5
412.249	1280.5
412.472	1282.5
412.695	1274.5
412.919	1300.5
413.142	1249.5
413.365	1236.5
413.589	1280.5
413.812	1235.5
414.035	1268.5
414.258	1254.5
414.482	1262.5
414.705	1258.5
414.928	1232.5
415.151	1251.5
415.374	1240.5
415.597	1229.5
415.821	1241.5
416.044	1225.5
416.267	1190.5
416.49	1224.5
416.713	1201.5
416.936	1218.5
417.159	1181.5
417.382	1192.5
417.605	1191.5
417.828	1189.5
418.051	1195.5
418.274	1229.5
418.497	1205.5
418.72	1244.5
418.943	1206.5
419.166	1291.5
419.389	1345.5
419.611	1341.5
419.834	1291.5
420.057	1230.5
420.28	1232.5
420.503	1198.5
420.726	1153.5
420.948	1204.5
421.171	1201.5
421.394	1244.5
421.617	1226.5
421.839	1231.5
422.062	1268.5
422.285	1211.5
422.507	1223.5
422.73	1201.5
422.953	1292.5
423.175	1234.5
423.398	1258.5
423.621	1210.5
423.843	1220.5
424.066	1228.5
424.288	1188.5
424.511	1200.5
424.733	1229.5
424.956	1198.5
425.178	1216.5
425.401	1194.5
425.623	1206.5
425.846	1150.5
426.068	1177.5
426.291	1174.5
426.513	1168.5
426.735	1164.5
426.958	1150.5
427.18	1148.5
427.402	1132.5
427.625	1155.5
427.847	1129.5
428.069	1131.5
428.292	1151.5
428.514	1120.5
428.736	1115.5
428.958	1142.5
429.181	1092.5
429.403	1104.5
429.625	1144.5
429.847	1126.5
430.069	1136.5
430.292	1142.5
430.514	1200.5
430.736	1172.5
430.958	1130.5
431.18	1113.5
431.402	1103.5
431.624	1122.5
431.846	1108.5
432.068	1083.5
432.29	1093.5
432.512	1082.5
432.734	1102.5
432.956	1131.5
433.178	1144.5
433.4	1139.5
433.622	1141.5
433.844	1156.5
434.066	1121.5
434.287	1110.5
434.509	1100.5
434.731	1126.5
434.953	1156.5
435.175	1181.5
435.397	1158.5
435.618	1152.5
435.84	1104.5
436.062	1105.5
436.284	1129.5
436.505	1073.5
436.727	1102.5
436.949	1110.5
437.17	1129.5
437.392	1061.5
437.614	1109.5
437.835	1031.5
438.057	1066.5
438.278	1048.5
438.5	1051.5
438.721	1097.5
438.943	1120.5
439.165	1133.5
439.386	1162.5
439.608	1166.5
439.829	1145.5
440.05	1168.5
440.272	1170.5
440.493	1155.5
440.715	1136.5
440.936	1150.5
441.158	1147.5
441.379	1183.5
441.6	1206.5
441.822	1248.5
442.043	1280.5
442.264	1354.5
442.486	1228.5
442.707	1199.5
442.928	1157.5
443.149	1204.5
443.371	1195.5
443.592	1186.5
443.813	1200.5
444.034	1209.5
444.255	1228.5
444.476	1278.5
444.698	1290.5
444.919	1286.5
445.14	1352.5
445.361	1276.5
445.582	1238.5
445.803	1202.5
446.024	1200.5
446.245	1204.5
446.466	1188.5
446.687	1192.5
446.908	1191.5
447.129	1154.5
447.35	1128.5
447.571	1111.5
447.792	1120.5
448.013	1111.5
448.234	1107.5
448.455	1081.5
448.675	1096.5
448.896	1140.5
449.117	1152.5
449.338	1228.5
449.559	1239.5
449.779	1153.5
450	1072.5
450.221	1063.5
450.442	1081.5
450.662	1078.5
450.883	1063.5
451.104	1078.5
451.324	1048.5
451.545	1059.5
451.766	1076.5
451.986	1104.5
452.207	1092.5
452.428	1336.5
452.648	1733.5
452.869	1536.5
453.089	1235.5
453.31	1112.5
453.53	1159.5
453.751	1172.5
453.971	1205.5
454.192	1244.5
454.412	1095.5
454.633	1077.5
454.853	1064.5
455.073	1006.5
455.294	1050.5
455.514	1034.5
455.734	1011.5
455.955	1012.5
456.175	1025.5
456.395	1007.5
456.616	1008.5
456.836	1003.5
457.056	1018.5
457.276	1029.5
457.497	1091.5
457.717	1079.5
457.937	1043.5
458.157	1068.5
458.377	1078.5
458.598	1057.5
458.818	1085.5
459.038	1058.5
459.258	1088.5
459.478	1096.5
459.698	1097.5
459.918	1116.5
460.138	1138.5
460.358	1207.5
460.578	1183.5
460.798	1162.5
461.018	1211.5
461.238	1205.5
461.458	1233.5
461.678	1205.5
461.898	1266.5
462.118	1257.5
462.338	1272.5
462.558	1262.5
462.777	1301.5
462.997	1361.5
463.217	1438.5
463.437	1433.5
463.657	1398.5
463.876	1365.5
464.096	1361.5
464.316	1296.5
464.536	1297.5
464.755	1312.5
464.975	1240.5
465.195	1229.5
465.414	1198.5
465.634	1152.5
465.854	1175.5
466.073	1126.5
466.293	1139.5
466.512	1130.5
466.732	1125.5
466.951	1208.5
467.171	1231.5
467.391	1212.5
467.61	1139.5
467.829	1109.5
468.049	1113.5
468.268	1090.5
468.488	1092.5
468.707	1112.5
468.927	1131.5
469.146	1092.5
469.365	1101.5
469.585	1124.5
469.804	1135.5
470.023	1144.5
470.243	1132.5
470.462	1200.5
470.681	1224.5
470.901	1317.5
471.12	1484.5
471.339	1492.5
471.558	1271.5
471.777	1198.5
471.997	1154.5
472.216	1104.5
472.435	1119.5
472.654	1077.5
472.873	1091.5
473.092	1079.5
473.311	1084.5
473.53	1079.5
473.749	1124.5
473.968	1153.5
474.187	1086.5
474.406	1103.5
474.625	1086.5
474.844	1120.5
475.063	1110.5
475.282	1090.5
475.501	1099.5
475.72	1124.5
475.939	1099.5
476.158	1131.5
476.377	1152.5
476.596	1146.5
476.814	1122.5
477.033	1140.5
477.252	1151.5
477.471	1207.5
477.69	1231.5
477.908	1251.5
478.127	1219.5
478.346	1242.5
478.564	1269.5
478.783	1214.5
479.002	1264.5
479.22	1298.5
479.439	1315.5
479.658	1342.5
479.876	1309.5
480.095	1318.5
480.313	1363.5
480.532	1353.5
480.751	1346.5
480.969	1314.5
481.188	1299.5
481.406	1289.5
481.624	1300.5
481.843	1294.5
482.061	1310.5
482.28	1318.5
482.498	1267.5
482.717	1310.5
482.935	1334.5
483.153	1340.5
483.372	1347.5
483.59	1366.5
483.808	1378.5
484.027	1403.5
484.245	1427.5
484.463	1602.5
484.681	1749.5
484.9	1634.5
485.118	1479.5
485.336	1496.5
485.554	1515.5
485.772	1599.5
485.99	1766.5
486.209	1916.5
486.427	1611.5
486.645	1504.5
486.863	1440.5
487.081	1418.5
487.299	1408.5
487.517	1422.5
487.735	1420.5
487.953	1448.5
488.171	1441.5
488.389	1412.5
488.607	1394.5
488.825	1366.5
489.043	1366.5
489.261	1338.5
489.479	1348.5
489.696	1359.5
489.914	1348.5
490.132	1358.5
490.35	1356.5
490.568	1392.5
490.786	1401.5
491.003	1421.5
491.221	1451.5
491.439	1460.5
491.657	1407.5
491.874	1454.5
492.092	1511.5
492.31	1538.5
492.527	1468.5
492.745	1453.5
492.963	1450.5
493.18	1437.5
493.398	1449.5
493.615	1448.5
493.833	1462.5
494.05	1446.5
494.268	1469.5
494.485	1444.5
494.703	1466.5
494.92	1482.5
495.138	1431.5
495.355	1456.5
495.573	1435.5
495.79	1467.5
496.008	1430.5
496.225	1483.5
496.442	1494.5
496.66	1531.5
496.877	1568.5
497.094	1574.5
497.312	1535.5
497.529	1584.5
497.746	1581.5
497.963	1556.5
498.181	1620.5
498.398	1646.5
498.615	1672.5
498.832	1759.5
499.049	1826.5
499.267	1960.5
499.484	2046.5
499.701	2117.5
499.918	2187.5
500.135	2332.5
500.352	2448.5
500.569	2471.5
500.786	2462.5
501.003	2366.5
501.22	2230.5
501.437	2161.5
501.654	2023.5
501.871	1919.5
502.088	1828.5
502.305	1786.5
502.522	1737.5
502.739	1665.5
502.956	1627.5
503.172	1592.5
503.389	1529.5
503.606	1504.5
503.823	1480.5
504.04	1507.5
504.256	1506.5
504.473	1513.5
504.69	1505.5
504.907	1483.5
505.123	1449.5
505.34	1400.5
505.557	1353.5
505.773	1352.5
505.99	1342.5
506.207	1327.5
506.423	1311.5
506.64	1336.5
506.856	1291.5
507.073	1285.5
507.289	1260.5
507.506	1284.5
507.722	1243.5
507.939	1284.5
508.155	1264.5
508.372	1218.5
508.588	1241.5
508.805	1242.5
509.021	1227.5
509.238	1243.5
509.454	1284.5
509.67	1365.5
509.887	1272.5
510.103	1218.5
510.319	1243.5
510.536	1239.5
510.752	1211.5
510.968	1209.5
511.184	1177.5
511.401	1192.5
511.617	1174.5
511.833	1164.5
512.049	1179.5
512.265	1158.5
512.481	1188.5
512.698	1153.5
512.914	1182.5
513.13	1178.5
513.346	1190.5
513.562	1145.5
513.778	1179.5
513.994	1187.5
514.21	1208.5
514.426	1238.5
514.642	1263.5
514.858	1220.5
515.074	1199.5
515.29	1199.5
515.506	1188.5
515.721	1192.5
515.937	1220.5
516.153	1194.5
516.369	1225.5
516.585	1233.5
516.801	1241.5
517.016	1260.5
517.232	1314.5
517.448	1306.5
517.664	1323.5
517.879	1350.5
518.095	1347.5
518.311	1305.5
518.527	1321.5
518.742	1327.5
518.958	1313.5
519.173	1330.5
519.389	1292.5
519.605	1235.5
519.82	1225.5
520.036	1209.5
520.251	1206.5
520.467	1168.5
520.682	1164.5
520.898	1154.5
521.113	1150.5
521.329	1179.5
521.544	1150.5
521.76	1152.5
521.975	1158.5
522.19	1153.5
522.406	1152.5
522.621	1152.5
522.836	1161.5
523.052	1152.5
523.267	1138.5
523.482	1127.5
523.698	1128.5
523.913	1097.5
524.128	1146.5
524.343	1128.5
524.559	1141.5
524.774	1124.5
524.989	1118.5
525.204	1143.5
525.419	1129.5
525.634	1132.5
525.849	1143.5
526.064	1145.5
526.28	1134.5
526.495	1123.5
526.71	1146.5
526.925	1147.5
527.14	1105.5
527.355	1161.5
527.57	1136.5
527.785	1118.5
527.999	1122.5
528.214	1149.5
528.429	1142.5
528.644	1176.5
528.859	1211.5
529.074	1209.5
529.289	1241.5
529.503	1216.5
529.718	1227.5
529.933	1192.5
530.148	1183.5
530.363	1157.5
530.577	1172.5
530.792	1190.5
531.007	1191.5
531.221	1237.5
531.436	1235.5
531.651	1224.5
531.865	1246.5
532.08	1254.5
532.295	1245.5
532.509	1282.5
532.724	1314.5
532.938	1309.5
533.153	1353.5
533.367	1424.5
533.582	1470.5
533.796	1458.5
534.011	1428.5
534.225	1401.5
534.44	1347.5
534.654	1367.5
534.868	1335.5
535.083	1305.5
535.297	1286.5
535.511	1265.5
535.726	1275.5
535.94	1288.5
536.154	1223.5
536.369	1206.5
536.583	1217.5
536.797	1144.5
537.011	1198.5
537.225	1128.5
537.44	1173.5
537.654	1195.5
537.868	1151.5
538.082	1156.5
538.296	1123.5
538.51	1128.5
538.724	1144.5
538.938	1110.5
539.153	1138.5
539.367	1140.5
539.581	1134.5
539.795	1092.5
540.009	1065.5
540.222	1073.5
540.436	1094.5
540.65	1096.5
540.864	1083.5
541.078	1123.5
541.292	1177.5
541.506	1372.5
541.72	1439.5
541.934	1292.5
542.147	1219.5
542.361	1184.5
542.575	1134.5
542.789	1138.5
543.002	1066.5
543.216	1069.5
543.43	1062.5
543.644	1070.5
543.857	1100.5
544.071	1100.5
544.285	1091.5
544.498	1097.5
544.712	1099.5
544.925	1121.5
545.139	1144.5
545.352	1128.5
545.566	1112.5
545.779	1100.5
545.993	1089.5
546.206	1111.5
546.42	1124.5
546.633	1095.5
546.847	1116.5
547.06	1095.5
547.274	1096.5
547.487	1118.5
547.7	1080.5
547.914	1096.5
548.127	1109.5
548.34	1120.5
548.554	1118.5
548.767	1105.5
548.98	1100.5
549.193	1098.5
549.407	1090.5
549.62	1113.5
549.833	1125.5
550.046	1108.5
550.259	1107.5
550.473	1105.5
550.686	1097.5
550.899	1093.5
551.112	1110.5
551.325	1108.5
551.538	1092.5
551.751	1061.5
551.964	1050.5
552.177	1099.5
552.39	1090.5
552.603	1140.5
552.816	1162.5
553.029	1189.5
553.242	1188.5
553.455	1198.5
553.667	1196.5
553.88	1230.5
554.093	1210.5
554.306	1196.5
554.519	1198.5
554.732	1221.5
554.944	1247.5
555.157	1264.5
555.37	1278.5
555.583	1297.5
555.795	1340.5
556.008	1434.5
556.221	1494.5
556.433	1579.5
556.646	1578.5
556.859	1534.5
557.071	1537.5
557.284	1495.5
557.496	1483.5
557.709	1486.5
557.921	1434.5
558.134	1448.5
558.346	1444.5
558.559	1521.5
558.771	1576.5
558.984	1643.5
559.196	1750.5
559.409	1665.5
559.621	1567.5
559.833	1554.5
560.046	1457.5
560.258	1426.5
560.47	1352.5
560.683	1318.5
560.895	1267.5
561.107	1231.5
561.32	1225.5
561.532	1182.5
561.744	1168.5
561.956	1151.5
562.168	1115.5
562.381	1112.5
562.593	1110.5
562.805	1114.5
563.017	1112.5
563.229	1114.5
563.441	1191.5
563.653	1106.5
563.865	1008.5
564.077	1024.5
564.289	1020.5
564.501	1006.5
564.713	999.5
564.925	1015.5
565.137	1030.5
565.349	987.5
565.561	1033.5
565.773	1043.5
565.985	1052.5
566.197	1040.5
566.408	1092.5
566.62	1101.5
566.832	1128.5
567.044	1118.5
567.255	1144.5
567.467	1143.5
567.679	1141.5
567.891	1227.5
568.102	1325.5
568.314	1487.5
568.526	1343.5
568.737	1146.5
568.949	1068.5
569.161	1006.5
569.372	964.5
569.584	910.5
569.795	941.5
570.007	892.5
570.218	931.5
570.43	928.5
570.641	876.5
570.853	866.5
571.064	863.5
571.276	840.5
571.487	834.5
571.698	807.5
571.91	816.5
572.121	803.5
572.333	830.5
572.544	824.5
572.755	841.5
572.966	934.5
573.178	888.5
573.389	804.5
573.6	758.5
573.811	766.5
574.023	747.5
574.234	751.5
574.445	768.5
574.656	725.5
574.867	725.5
575.078	750.5
575.289	714.5
575.501	735.5
575.712	745.5
575.923	748.5
576.134	768.5
576.345	733.5
576.556	754.5
576.767	741.5
576.978	743.5
577.188	772.5
577.399	752.5
577.61	741.5
577.821	729.5
578.032	765.5
578.243	758.5
578.454	760.5
578.665	797.5
578.875	807.5
579.086	795.5
579.297	862.5
579.508	874.5
579.718	948.5
579.929	1000.5
580.14	1150.5
580.35	1147.5
580.561	1110.5
580.772	1044.5
580.982	984.5
581.193	934.5
581.403	891.5
581.614	864.5
581.825	838.5
582.035	807.5
582.246	796.5
582.456	776.5
582.667	770.5
582.877	736.5
583.087	739.5
583.298	705.5
583.508	677.5
583.719	683.5
583.929	647.5
584.139	652.5
584.35	655.5
584.56	647.5
584.77	642.5
584.981	635.5
585.191	616.5
585.401	613.5
585.611	590.5
585.821	623.5
586.032	596.5
586.242	608.5
586.452	598.5
586.662	587.5
586.872	555.5
587.082	581.5
587.292	587.5
587.502	597.5
587.713	549.5
587.923	560.5
588.133	566.5
588.343	563.5
588.553	544.5
588.762	544.5
588.972	551.5
589.182	545.5
589.392	545.5
589.602	545.5
589.812	532.5
590.022	539.5
590.232	544.5
590.441	536.5
590.651	518.5
590.861	536.5
591.071	540.5
591.281	518.5
591.49	548.5
591.7	524.5
591.91	539.5
592.119	540.5
592.329	542.5
592.539	546.5
592.748	556.5
592.958	567.5
593.167	566.5
593.377	538.5
593.587	577.5
593.796	564.5
594.006	539.5
594.215	582.5
594.424	556.5
594.634	572.5
594.843	547.5
595.053	555.5
595.262	541.5
595.472	528.5
595.681	519.5
595.89	509.5
596.1	520.5
596.309	495.5
596.518	474.5
596.727	488.5
596.937	479.5
597.146	454.5
597.355	477.5
597.564	483.5
597.774	471.5
597.983	451.5
598.192	451.5
598.401	446.5
598.61	452.5
598.819	439.5
599.028	444.5
599.237	432.5
599.446	452.5
599.655	436.5
599.864	447.5
600.073	426.5
600.282	440.5
600.491	443.5
600.7	436.5
600.909	441.5
601.118	441.5
601.327	436.5
601.536	431.5
601.745	451.5
601.953	489.5
602.162	523.5
602.371	482.5
602.58	459.5
602.789	462.5
602.997	449.5
603.206	410.5
603.415	444.5
603.623	442.5
603.832	427.5
604.041	432.5
604.249	424.5
604.458	414.5
604.666	402.5
604.875	410.5
605.084	417.5
605.292	424.5
605.501	443.5
605.709	430.5
605.918	433.5
606.126	451.5
606.334	430.5
606.543	417.5
606.751	452.5
606.96	483.5
607.168	546.5
607.376	483.5
607.585	447.5
607.793	426.5
608.001	434.5
608.21	414.5
608.418	414.5
608.626	409.5
608.834	416.5
609.043	404.5
609.251	423.5
609.459	412.5
609.667	412.5
609.875	419.5
610.083	417.5
610.291	391.5
610.499	405.5
610.707	409.5
610.916	402.5
611.124	401.5
611.332	392.5
611.54	406.5
611.748	406.5
611.955	396.5
612.163	382.5
612.371	402.5
612.579	391.5
612.787	406.5
612.995	379.5
613.203	386.5
613.411	401.5
613.618	389.5
613.826	397.5
614.034	384.5
614.242	392.5
614.449	384.5
614.657	374.5
614.865	394.5
615.072	368.5
615.28	406.5
615.488	398.5
615.695	382.5
615.903	389.5
616.111	412.5
616.318	394.5
616.526	391.5
616.733	368.5
616.941	383.5
617.148	394.5
617.356	396.5
617.563	378.5
617.771	380.5
617.978	389.5
618.185	357.5
618.393	378.5
618.6	368.5
618.807	384.5
619.015	384.5
619.222	374.5
619.429	375.5
619.637	360.5
619.844	345.5
620.051	356.5
620.258	362.5
620.466	355.5
620.673	342.5
620.88	345.5
621.087	357.5
621.294	352.5
621.501	327.5
621.708	352.5
621.915	335.5
622.122	366.5
622.329	364.5
622.536	341.5
622.743	350.5
622.95	327.5
623.157	334.5
623.364	329.5
623.571	355.5
623.778	344.5
623.985	341.5
624.192	345.5
624.399	343.5
624.606	339.5
624.812	345.5
625.019	347.5
625.226	331.5
625.433	326.5
625.639	341.5
625.846	310.5
626.053	314.5
626.259	311.5
626.466	307.5
626.673	303.5
626.879	319.5
627.086	323.5
627.293	321.5
627.499	331.5
627.706	333.5
627.912	327.5
628.119	335.5
628.325	329.5
628.532	312.5
628.738	309.5
628.945	303.5
629.151	296.5
629.357	310.5
629.564	297.5
629.77	309.5
629.976	318.5
630.183	307.5
630.389	305.5
630.595	310.5
630.802	290.5
631.008	304.5
631.214	317.5
631.42	316.5
631.627	298.5
631.833	305.5
632.039	286.5
632.245	302.5
632.451	293.5
632.657	295.5
632.863	283.5
633.069	304.5
633.275	306.5
633.481	299.5
633.688	296.5
633.893	303.5
634.099	290.5
634.305	291.5
634.511	294.5
634.717	288.5
634.923	304.5
635.129	320.5
635.335	360.5
635.541	326.5
635.747	318.5
635.952	295.5
636.158	304.5
636.364	302.5
636.57	295.5
636.775	292.5
636.981	312.5
637.187	288.5
637.392	290.5
637.598	288.5
637.804	305.5
638.009	299.5
638.215	294.5
638.421	291.5
638.626	292.5
638.832	306.5
639.037	305.5
639.243	284.5
639.448	299.5
639.654	295.5
639.859	297.5
640.065	302.5
640.27	296.5
640.475	296.5
640.681	311.5
640.886	303.5
641.091	326.5
641.297	320.5
641.502	303.5
641.707	303.5
641.913	331.5
642.118	320.5
642.323	322.5
642.528	331.5
642.733	345.5
642.939	345.5
643.144	355.5
643.349	363.5
643.554	392.5
643.759	384.5
643.964	385.5
644.169	403.5
644.374	421.5
644.579	445.5
644.784	502.5
644.989	520.5
645.194	580.5
645.399	667.5
645.604	690.5
645.809	570.5
646.014	467.5
646.219	414.5
646.423	368.5
646.628	370.5
646.833	339.5
647.038	312.5
647.243	310.5
647.447	302.5
647.652	309.5
647.857	283.5
648.062	299.5
648.266	270.5
648.471	284.5
648.676	266.5
648.88	273.5
649.085	282.5
649.289	268.5
649.494	268.5
649.698	263.5
649.903	262.5
650.107	258.5
650.312	276.5
650.516	246.5
650.721	233.5
650.925	238.5
651.13	235.5
651.334	232.5
651.539	231.5
651.743	224.5
651.947	234.5
652.152	226.5
652.356	223.5
652.56	221.5
652.764	242.5
652.969	249.5
653.173	220.5
653.377	225.5
653.581	220.5
653.785	212.5
653.99	218.5
654.194	218.5
654.398	202.5
654.602	186.5
654.806	191.5
655.01	231.5
655.214	204.5
655.418	190.5
655.622	193.5
655.826	198.5
656.03	206.5
656.234	219.5
656.438	222.5
656.642	234.5
656.846	215.5
657.049	206.5
657.253	195.5
657.457	178.5
657.661	159.5
657.865	164.5
658.068	161.5
658.272	171.5
658.476	151.5
658.68	138.5
658.883	136.5
659.087	129.5
659.291	131.5
659.494	134.5
659.698	126.5
659.901	132.5
660.105	137.5
660.309	129.5
660.512	113.5
660.716	108.5
660.919	116.5
661.123	117.5
661.326	113.5
661.53	97.5
661.733	110.5
661.936	99.5
662.14	99.5
662.343	91.5
662.546	97.5
662.75	104.5
662.953	92.5
663.156	94.5
663.36	96.5
663.563	85.5
663.766	84.5
663.969	70.5
664.173	67.5
664.376	82.5
664.579	90.5
664.782	83.5
664.985	75.5
665.188	68.5
665.391	73.5
665.594	79.5
665.797	82.5
666	88.5
666.203	80.5
666.406	96.5
666.609	83.5
666.812	85.5
667.015	84.5
667.218	74.5
667.421	74.5
667.624	73.5
667.827	72.5
668.03	71.5
668.232	87.5
668.435	85.5
668.638	76.5
668.841	91.5
669.043	74.5
669.246	88.5
669.449	91.5
669.651	88.5
669.854	84.5
670.057	84.5
670.259	93.5
670.462	82.5
670.665	82.5
670.867	75.5
671.07	80.5
671.272	76.5
671.475	86.5
671.677	73.5
671.88	88.5
672.082	77.5
672.284	72.5
672.487	78.5
672.689	80.5
672.892	87.5
