Data from SnStandardFlinnAPT0064_LampEnergy5.5_LIBS07252019.E.O._I.C._HRD10591_15-15-01-492.txt Node
Date: Thu Jul 25 15:15:01 EDT 2019
User: cochatt
Spectrometer: HR+D1059
Trigger mode: 1
Integration Time (sec): 1.000000E-1
Scans to average: 1
Electric dark correction enabled: true
Nonlinearity correction enabled: false
Boxcar width: 0
XAxis mode: Wavelengths
Number of Pixels in Spectrum: 2048
>>>>>Begin Spectral Data<<<<<
223.165	-23.31
223.4	-23.31
223.635	-23.31
223.869	-28.31
224.104	-23.31
224.338	-0.31
224.573	-19.31
224.808	-12.31
225.042	-10.31
225.277	-10.31
225.511	17.69
225.746	-5.31
225.98	7.69
226.215	5.69
226.449	14.69
226.683	13.69
226.918	35.69
227.152	37.69
227.387	29.69
227.621	32.69
227.856	42.69
228.09	44.69
228.324	58.69
228.559	51.69
228.793	63.69
229.027	133.69
229.262	155.69
229.496	133.69
229.73	161.69
229.964	159.69
230.199	155.69
230.433	156.69
230.667	151.69
230.901	157.69
231.136	166.69
231.37	167.69
231.604	167.69
231.838	190.69
232.072	203.69
232.306	216.69
232.541	201.69
232.775	177.69
233.009	179.69
233.243	191.69
233.477	199.69
233.711	214.69
233.945	231.69
234.179	215.69
234.413	183.69
234.647	205.69
234.881	208.69
235.115	226.69
235.349	254.69
235.583	301.69
235.817	381.69
236.051	375.69
236.285	257.69
236.519	240.69
236.753	225.69
236.987	215.69
237.221	221.69
237.455	225.69
237.689	214.69
237.922	207.69
238.156	212.69
238.39	211.69
238.624	209.69
238.858	219.69
239.091	229.69
239.325	215.69
239.559	215.69
239.793	237.69
240.027	241.69
240.26	249.69
240.494	231.69
240.728	244.69
240.961	265.69
241.195	255.69
241.429	275.69
241.662	271.69
241.896	306.69
242.13	356.69
242.363	415.69
242.597	524.69
242.83	532.69
243.064	524.69
243.298	623.69
243.531	515.69
243.765	351.69
243.998	311.69
244.232	283.69
244.465	283.69
244.699	281.69
244.932	265.69
245.166	287.69
245.399	283.69
245.633	270.69
245.866	296.69
246.099	278.69
246.333	283.69
246.566	267.69
246.8	284.69
247.033	280.69
247.266	289.69
247.5	292.69
247.733	300.69
247.966	305.69
248.2	319.69
248.433	362.69
248.666	362.69
248.899	372.69
249.133	330.69
249.366	353.69
249.599	379.69
249.832	395.69
250.066	412.69
250.299	352.69
250.532	344.69
250.765	309.69
250.998	316.69
251.231	311.69
251.465	303.69
251.698	321.69
251.931	318.69
252.164	330.69
252.397	344.69
252.63	307.69
252.863	305.69
253.096	322.69
253.329	329.69
253.562	331.69
253.795	337.69
254.028	338.69
254.261	326.69
254.494	372.69
254.727	407.69
254.96	457.69
255.193	442.69
255.426	377.69
255.659	373.69
255.892	348.69
256.124	358.69
256.357	360.69
256.59	371.69
256.823	389.69
257.056	404.69
257.289	464.69
257.521	507.69
257.754	449.69
257.987	394.69
258.22	368.69
258.452	377.69
258.685	393.69
258.918	403.69
259.151	395.69
259.383	421.69
259.616	455.69
259.849	464.69
260.081	416.69
260.314	386.69
260.547	400.69
260.779	410.69
261.012	390.69
261.244	403.69
261.477	419.69
261.71	409.69
261.942	416.69
262.175	444.69
262.407	436.69
262.64	444.69
262.872	448.69
263.105	495.69
263.337	504.69
263.57	526.69
263.802	551.69
264.035	539.69
264.267	574.69
264.499	571.69
264.732	576.69
264.964	596.69
265.197	581.69
265.429	575.69
265.661	577.69
265.894	627.69
266.126	667.69
266.358	752.69
266.591	739.69
266.823	643.69
267.055	587.69
267.287	562.69
267.52	545.69
267.752	549.69
267.984	550.69
268.216	529.69
268.448	520.69
268.681	532.69
268.913	520.69
269.145	523.69
269.377	523.69
269.609	506.69
269.841	527.69
270.073	549.69
270.306	596.69
270.538	786.69
270.77	1069.69
271.002	1281.69
271.234	932.69
271.466	671.69
271.698	592.69
271.93	539.69
272.162	516.69
272.394	513.69
272.626	524.69
272.858	509.69
273.09	491.69
273.322	492.69
273.553	492.69
273.785	509.69
274.017	478.69
274.249	529.69
274.481	513.69
274.713	519.69
274.945	530.69
275.176	523.69
275.408	489.69
275.64	492.69
275.872	498.69
276.104	491.69
276.335	513.69
276.567	518.69
276.799	537.69
277.031	521.69
277.262	532.69
277.494	550.69
277.726	586.69
277.957	658.69
278.189	713.69
278.421	654.69
278.652	639.69
278.884	626.69
279.115	576.69
279.347	549.69
279.579	553.69
279.81	544.69
280.042	582.69
280.273	563.69
280.505	564.69
280.736	574.69
280.968	603.69
281.199	625.69
281.431	697.69
281.662	698.69
281.894	636.69
282.125	628.69
282.356	620.69
282.588	647.69
282.819	635.69
283.051	677.69
283.282	727.69
283.513	881.69
283.745	1175.69
283.976	1843.69
284.207	2554.69
284.439	2326.69
284.67	1477.69
284.901	1203.69
285.132	1154.69
285.364	1120.69
285.595	917.69
285.826	858.69
286.057	980.69
286.288	1232.69
286.52	1633.69
286.751	1549.69
286.982	1044.69
287.213	836.69
287.444	733.69
287.675	708.69
287.906	677.69
288.138	687.69
288.369	647.69
288.6	626.69
288.831	679.69
289.062	620.69
289.293	664.69
289.524	689.69
289.755	685.69
289.986	674.69
290.217	688.69
290.448	678.69
290.679	695.69
290.91	677.69
291.141	697.69
291.371	721.69
291.602	728.69
291.833	694.69
292.064	672.69
292.295	665.69
292.526	643.69
292.757	636.69
292.987	649.69
293.218	625.69
293.449	631.69
293.68	621.69
293.91	632.69
294.141	623.69
294.372	590.69
294.603	643.69
294.833	633.69
295.064	650.69
295.295	634.69
295.525	639.69
295.756	625.69
295.987	612.69
296.217	629.69
296.448	613.69
296.679	637.69
296.909	615.69
297.14	603.69
297.37	635.69
297.601	643.69
297.831	639.69
298.062	640.69
298.292	668.69
298.523	676.69
298.753	677.69
298.984	671.69
299.214	678.69
299.445	689.69
299.675	715.69
299.905	701.69
300.136	724.69
300.366	778.69
300.597	952.69
300.827	1239.69
301.057	1635.69
301.288	1638.69
301.518	1126.69
301.748	941.69
301.979	830.69
302.209	828.69
302.439	840.69
302.669	867.69
302.9	1003.69
303.13	1355.69
303.36	1887.69
303.59	2485.69
303.82	2169.69
304.051	1390.69
304.281	1025.69
304.511	879.69
304.741	827.69
304.971	826.69
305.201	788.69
305.431	792.69
305.661	744.69
305.891	748.69
306.121	748.69
306.352	721.69
306.582	715.69
306.812	705.69
307.042	718.69
307.272	722.69
307.502	721.69
307.731	730.69
307.961	744.69
308.191	737.69
308.421	713.69
308.651	725.69
308.881	712.69
309.111	705.69
309.341	703.69
309.571	715.69
309.8	742.69
310.03	707.69
310.26	722.69
310.49	749.69
310.72	729.69
310.949	725.69
311.179	749.69
311.409	772.69
311.639	747.69
311.868	783.69
312.098	749.69
312.328	761.69
312.557	769.69
312.787	775.69
313.017	773.69
313.246	784.69
313.476	797.69
313.706	829.69
313.935	816.69
314.165	870.69
314.394	868.69
314.624	866.69
314.853	829.69
315.083	844.69
315.312	873.69
315.542	864.69
315.771	852.69
316.001	846.69
316.23	857.69
316.46	941.69
316.689	972.69
316.919	1128.69
317.148	1490.69
317.377	2251.69
317.607	3226.69
317.836	3331.69
318.065	2051.69
318.295	1427.69
318.524	1202.69
318.753	1056.69
318.983	1004.69
319.212	944.69
319.441	960.69
319.67	917.69
319.9	899.69
320.129	880.69
320.358	911.69
320.587	887.69
320.816	896.69
321.046	917.69
321.275	927.69
321.504	915.69
321.733	921.69
321.962	935.69
322.191	946.69
322.42	979.69
322.649	960.69
322.878	937.69
323.108	955.69
323.337	984.69
323.566	962.69
323.795	995.69
324.024	1010.69
324.253	1030.69
324.482	1038.69
324.71	1081.69
324.939	1130.69
325.168	1190.69
325.397	1201.69
325.626	1393.69
325.855	1829.69
326.084	2787.69
326.313	3988.69
326.542	4283.69
326.77	2841.69
326.999	1983.69
327.228	1701.69
327.457	1635.69
327.686	1644.69
327.914	1749.69
328.143	1947.69
328.372	2212.69
328.6	2450.69
328.829	2258.69
329.058	2034.69
329.287	1808.69
329.515	1643.69
329.744	1596.69
329.972	1509.69
330.201	1421.69
330.43	1372.69
330.658	1350.69
330.887	1327.69
331.115	1305.69
331.344	1335.69
331.572	1311.69
331.801	1334.69
332.03	1285.69
332.258	1373.69
332.486	1354.69
332.715	1547.69
332.943	1789.69
333.172	2082.69
333.4	2073.69
333.629	1681.69
333.857	1616.69
334.085	1649.69
334.314	1680.69
334.542	1826.69
334.771	2065.69
334.999	2409.69
335.227	2849.69
335.455	3251.69
335.684	3072.69
335.912	2601.69
336.14	2318.69
336.369	2044.69
336.597	1898.69
336.825	1812.69
337.053	1716.69
337.281	1608.69
337.51	1522.69
337.738	1485.69
337.966	1415.69
338.194	1352.69
338.422	1312.69
338.65	1306.69
338.878	1275.69
339.106	1260.69
339.334	1223.69
339.562	1225.69
339.79	1159.69
340.018	1168.69
340.246	1173.69
340.474	1152.69
340.702	1185.69
340.93	1197.69
341.158	1177.69
341.386	1152.69
341.614	1136.69
341.842	1151.69
342.07	1101.69
342.298	1111.69
342.526	1088.69
342.754	1071.69
342.981	1064.69
343.209	1071.69
343.437	1085.69
343.665	1093.69
343.893	1086.69
344.12	1094.69
344.348	1080.69
344.576	1049.69
344.804	1031.69
345.031	1031.69
345.259	1042.69
345.487	1010.69
345.714	1030.69
345.942	992.69
346.17	998.69
346.397	1010.69
346.625	984.69
346.853	987.69
347.08	991.69
347.308	964.69
347.535	968.69
347.763	996.69
347.99	977.69
348.218	963.69
348.445	974.69
348.673	985.69
348.9	992.69
349.128	996.69
349.355	950.69
349.583	956.69
349.81	953.69
350.037	955.69
350.265	973.69
350.492	956.69
350.72	945.69
350.947	929.69
351.174	943.69
351.402	953.69
351.629	960.69
351.856	945.69
352.083	938.69
352.311	941.69
352.538	949.69
352.765	955.69
352.992	952.69
353.22	921.69
353.447	931.69
353.674	949.69
353.901	964.69
354.128	947.69
354.355	936.69
354.583	957.69
354.81	986.69
355.037	946.69
355.264	956.69
355.491	966.69
355.718	977.69
355.945	1000.69
356.172	969.69
356.399	968.69
356.626	956.69
356.853	1003.69
357.08	983.69
357.307	979.69
357.534	1004.69
357.761	1015.69
357.988	1025.69
358.215	985.69
358.441	1001.69
358.668	1002.69
358.895	1017.69
359.122	996.69
359.349	982.69
359.576	989.69
359.802	994.69
360.029	1007.69
360.256	1003.69
360.483	991.69
360.709	983.69
360.936	996.69
361.163	993.69
361.39	1005.69
361.616	980.69
361.843	994.69
362.07	1027.69
362.296	974.69
362.523	1001.69
362.749	1029.69
362.976	1008.69
363.203	1007.69
363.429	1002.69
363.656	1002.69
363.882	1029.69
364.109	1025.69
364.335	1030.69
364.562	1002.69
364.788	994.69
365.015	1025.69
365.241	1031.69
365.468	1028.69
365.694	1080.69
365.92	1071.69
366.147	1032.69
366.373	1004.69
366.599	1056.69
366.826	1019.69
367.052	999.69
367.278	1037.69
367.505	1058.69
367.731	1036.69
367.957	1020.69
368.184	1029.69
368.41	1046.69
368.636	1064.69
368.862	1063.69
369.089	1066.69
369.315	1055.69
369.541	1021.69
369.767	1091.69
369.993	1055.69
370.219	1031.69
370.445	1063.69
370.672	1077.69
370.898	1086.69
371.124	1085.69
371.35	1062.69
371.576	1061.69
371.802	1080.69
372.028	1114.69
372.254	1083.69
372.48	1092.69
372.706	1083.69
372.932	1081.69
373.158	1105.69
373.384	1083.69
373.61	1124.69
373.835	1117.69
374.061	1113.69
374.287	1088.69
374.513	1131.69
374.739	1163.69
374.965	1114.69
375.191	1132.69
375.416	1140.69
375.642	1123.69
375.868	1152.69
376.094	1079.69
376.319	1076.69
376.545	1112.69
376.771	1121.69
376.997	1074.69
377.222	1076.69
377.448	1065.69
377.674	1080.69
377.899	1083.69
378.125	1079.69
378.35	1087.69
378.576	1093.69
378.802	1089.69
379.027	1088.69
379.253	1154.69
379.478	1159.69
379.704	1321.69
379.929	1722.69
380.155	2403.69
380.38	2619.69
380.606	1748.69
380.831	1350.69
381.057	1207.69
381.282	1154.69
381.507	1127.69
381.733	1089.69
381.958	1067.69
382.184	1096.69
382.409	1076.69
382.634	1066.69
382.86	1080.69
383.085	1071.69
383.31	1085.69
383.535	1073.69
383.761	1085.69
383.986	1061.69
384.211	1092.69
384.436	1110.69
384.662	1107.69
384.887	1111.69
385.112	1104.69
385.337	1127.69
385.562	1140.69
385.787	1123.69
386.013	1137.69
386.238	1097.69
386.463	1137.69
386.688	1130.69
386.913	1106.69
387.138	1105.69
387.363	1122.69
387.588	1103.69
387.813	1112.69
388.038	1105.69
388.263	1114.69
388.488	1089.69
388.713	1137.69
388.938	1069.69
389.163	1082.69
389.387	1137.69
389.612	1105.69
389.837	1131.69
390.062	1118.69
390.287	1145.69
390.512	1141.69
390.736	1129.69
390.961	1138.69
391.186	1136.69
391.411	1160.69
391.636	1161.69
391.86	1178.69
392.085	1169.69
392.31	1157.69
392.534	1143.69
392.759	1142.69
392.984	1114.69
393.208	1105.69
393.433	1117.69
393.658	1128.69
393.882	1135.69
394.107	1128.69
394.331	1151.69
394.556	1159.69
394.78	1136.69
395.005	1110.69
395.229	1137.69
395.454	1159.69
395.678	1157.69
395.903	1165.69
396.127	1170.69
396.352	1143.69
396.576	1130.69
396.801	1171.69
397.025	1130.69
397.249	1174.69
397.474	1194.69
397.698	1167.69
397.922	1200.69
398.147	1200.69
398.371	1204.69
398.595	1226.69
398.82	1263.69
399.044	1304.69
399.268	1339.69
399.492	1453.69
399.717	1481.69
399.941	1497.69
400.165	1415.69
400.389	1371.69
400.613	1326.69
400.837	1270.69
401.062	1271.69
401.286	1281.69
401.51	1239.69
401.734	1233.69
401.958	1255.69
402.182	1235.69
402.406	1243.69
402.63	1260.69
402.854	1232.69
403.078	1256.69
403.302	1272.69
403.526	1249.69
403.75	1297.69
403.974	1291.69
404.198	1288.69
404.422	1299.69
404.645	1307.69
404.869	1316.69
405.093	1287.69
405.317	1276.69
405.541	1276.69
405.765	1296.69
405.988	1316.69
406.212	1329.69
406.436	1315.69
406.66	1330.69
406.883	1295.69
407.107	1366.69
407.331	1380.69
407.555	1381.69
407.778	1374.69
408.002	1363.69
408.226	1358.69
408.449	1387.69
408.673	1321.69
408.896	1300.69
409.12	1270.69
409.344	1276.69
409.567	1279.69
409.791	1289.69
410.014	1260.69
410.238	1295.69
410.461	1263.69
410.685	1258.69
410.908	1253.69
411.132	1276.69
411.355	1223.69
411.578	1240.69
411.802	1213.69
412.025	1239.69
412.249	1250.69
412.472	1234.69
412.695	1247.69
412.919	1201.69
413.142	1206.69
413.365	1176.69
413.589	1194.69
413.812	1211.69
414.035	1224.69
414.258	1226.69
414.482	1254.69
414.705	1236.69
414.928	1214.69
415.151	1219.69
415.374	1206.69
415.597	1207.69
415.821	1187.69
416.044	1179.69
416.267	1184.69
416.49	1165.69
416.713	1151.69
416.936	1193.69
417.159	1165.69
417.382	1144.69
417.605	1129.69
417.828	1166.69
418.051	1173.69
418.274	1184.69
418.497	1179.69
418.72	1187.69
418.943	1148.69
419.166	1206.69
419.389	1319.69
419.611	1243.69
419.834	1253.69
420.057	1214.69
420.28	1178.69
420.503	1173.69
420.726	1161.69
420.948	1128.69
421.171	1171.69
421.394	1197.69
421.617	1195.69
421.839	1192.69
422.062	1201.69
422.285	1165.69
422.507	1191.69
422.73	1194.69
422.953	1179.69
423.175	1196.69
423.398	1215.69
423.621	1203.69
423.843	1199.69
424.066	1203.69
424.288	1169.69
424.511	1189.69
424.733	1185.69
424.956	1142.69
425.178	1185.69
425.401	1173.69
425.623	1185.69
425.846	1140.69
426.068	1150.69
426.291	1098.69
426.513	1121.69
426.735	1144.69
426.958	1115.69
427.18	1100.69
427.402	1114.69
427.625	1123.69
427.847	1114.69
428.069	1103.69
428.292	1103.69
428.514	1091.69
428.736	1096.69
428.958	1102.69
429.181	1073.69
429.403	1082.69
429.625	1080.69
429.847	1092.69
430.069	1084.69
430.292	1086.69
430.514	1159.69
430.736	1145.69
430.958	1132.69
431.18	1104.69
431.402	1057.69
431.624	1054.69
431.846	1048.69
432.068	1056.69
432.29	1073.69
432.512	1059.69
432.734	1091.69
432.956	1084.69
433.178	1067.69
433.4	1077.69
433.622	1132.69
433.844	1101.69
434.066	1079.69
434.287	1067.69
434.509	1097.69
434.731	1089.69
434.953	1150.69
435.175	1135.69
435.397	1157.69
435.618	1076.69
435.84	1100.69
436.062	1064.69
436.284	1090.69
436.505	1077.69
436.727	1083.69
436.949	1084.69
437.17	1075.69
437.392	1045.69
437.614	1068.69
437.835	1009.69
438.057	1035.69
438.278	1035.69
438.5	1051.69
438.721	1024.69
438.943	1099.69
439.165	1164.69
439.386	1089.69
439.608	1106.69
439.829	1107.69
440.05	1172.69
440.272	1153.69
440.493	1121.69
440.715	1085.69
440.936	1122.69
441.158	1146.69
441.379	1138.69
441.6	1183.69
441.822	1207.69
442.043	1196.69
442.264	1271.69
442.486	1184.69
442.707	1175.69
442.928	1143.69
443.149	1183.69
443.371	1147.69
443.592	1151.69
443.813	1161.69
444.034	1144.69
444.255	1179.69
444.476	1209.69
444.698	1247.69
444.919	1268.69
445.14	1298.69
445.361	1254.69
445.582	1225.69
445.803	1167.69
446.024	1158.69
446.245	1177.69
446.466	1160.69
446.687	1153.69
446.908	1148.69
447.129	1106.69
447.35	1107.69
447.571	1105.69
447.792	1097.69
448.013	1060.69
448.234	1072.69
448.455	1073.69
448.675	1092.69
448.896	1084.69
449.117	1107.69
449.338	1150.69
449.559	1225.69
449.779	1116.69
450	1043.69
450.221	1043.69
450.442	1049.69
450.662	1035.69
450.883	1027.69
451.104	1007.69
451.324	1047.69
451.545	1017.69
451.766	1022.69
451.986	1049.69
452.207	1077.69
452.428	1274.69
452.648	1683.69
452.869	1457.69
453.089	1151.69
453.31	1137.69
453.53	1138.69
453.751	1147.69
453.971	1188.69
454.192	1155.69
454.412	1020.69
454.633	1041.69
454.853	1007.69
455.073	985.69
455.294	982.69
455.514	973.69
455.734	987.69
455.955	976.69
456.175	990.69
456.395	984.69
456.616	1005.69
456.836	984.69
457.056	1002.69
457.276	1004.69
457.497	1041.69
457.717	1043.69
457.937	1005.69
458.157	1027.69
458.377	1029.69
458.598	1038.69
458.818	1047.69
459.038	1071.69
459.258	1083.69
459.478	1074.69
459.698	1091.69
459.918	1077.69
460.138	1090.69
460.358	1126.69
460.578	1177.69
460.798	1192.69
461.018	1186.69
461.238	1181.69
461.458	1175.69
461.678	1181.69
461.898	1208.69
462.118	1225.69
462.338	1229.69
462.558	1272.69
462.777	1256.69
462.997	1297.69
463.217	1373.69
463.437	1427.69
463.657	1370.69
463.876	1390.69
464.096	1316.69
464.316	1269.69
464.536	1275.69
464.755	1267.69
464.975	1214.69
465.195	1166.69
465.414	1144.69
465.634	1144.69
465.854	1101.69
466.073	1109.69
466.293	1117.69
466.512	1095.69
466.732	1098.69
466.951	1144.69
467.171	1184.69
467.391	1147.69
467.61	1081.69
467.829	1061.69
468.049	1076.69
468.268	1033.69
468.488	1061.69
468.707	1083.69
468.927	1053.69
469.146	1048.69
469.365	1083.69
469.585	1103.69
469.804	1099.69
470.023	1101.69
470.243	1103.69
470.462	1147.69
470.681	1164.69
470.901	1271.69
471.12	1431.69
471.339	1427.69
471.558	1242.69
471.777	1130.69
471.997	1108.69
472.216	1094.69
472.435	1090.69
472.654	1041.69
472.873	1039.69
473.092	1066.69
473.311	1058.69
473.53	1088.69
473.749	1114.69
473.968	1103.69
474.187	1048.69
474.406	1075.69
474.625	1062.69
474.844	1082.69
475.063	1063.69
475.282	1037.69
475.501	1085.69
475.72	1096.69
475.939	1129.69
476.158	1095.69
476.377	1116.69
476.596	1109.69
476.814	1119.69
477.033	1110.69
477.252	1113.69
477.471	1159.69
477.69	1180.69
477.908	1192.69
478.127	1201.69
478.346	1215.69
478.564	1219.69
478.783	1259.69
479.002	1242.69
479.22	1268.69
479.439	1271.69
479.658	1251.69
479.876	1244.69
480.095	1275.69
480.313	1288.69
480.532	1309.69
480.751	1311.69
480.969	1286.69
481.188	1268.69
481.406	1270.69
481.624	1246.69
481.843	1273.69
482.061	1266.69
482.28	1248.69
482.498	1253.69
482.717	1256.69
482.935	1339.69
483.153	1294.69
483.372	1323.69
483.59	1324.69
483.808	1344.69
484.027	1317.69
484.245	1399.69
484.463	1525.69
484.681	1675.69
484.9	1574.69
485.118	1462.69
485.336	1479.69
485.554	1465.69
485.772	1547.69
485.99	1711.69
486.209	1804.69
486.427	1559.69
486.645	1427.69
486.863	1414.69
487.081	1384.69
487.299	1352.69
487.517	1352.69
487.735	1360.69
487.953	1418.69
488.171	1399.69
488.389	1376.69
488.607	1351.69
488.825	1280.69
489.043	1327.69
489.261	1309.69
489.479	1299.69
489.696	1363.69
489.914	1313.69
490.132	1331.69
490.35	1352.69
490.568	1375.69
490.786	1404.69
491.003	1385.69
491.221	1403.69
491.439	1421.69
491.657	1420.69
491.874	1403.69
492.092	1409.69
492.31	1449.69
492.527	1419.69
492.745	1444.69
492.963	1427.69
493.18	1428.69
493.398	1404.69
493.615	1436.69
493.833	1433.69
494.05	1405.69
494.268	1397.69
494.485	1433.69
494.703	1411.69
494.92	1417.69
495.138	1402.69
495.355	1391.69
495.573	1436.69
495.79	1399.69
496.008	1453.69
496.225	1428.69
496.442	1468.69
496.66	1476.69
496.877	1557.69
497.094	1547.69
497.312	1485.69
497.529	1541.69
497.746	1501.69
497.963	1549.69
498.181	1592.69
498.398	1576.69
498.615	1637.69
498.832	1689.69
499.049	1786.69
499.267	1899.69
499.484	1952.69
499.701	2025.69
499.918	2095.69
500.135	2233.69
500.352	2400.69
500.569	2379.69
500.786	2392.69
501.003	2363.69
501.22	2179.69
501.437	2025.69
501.654	1962.69
501.871	1878.69
502.088	1759.69
502.305	1761.69
502.522	1663.69
502.739	1624.69
502.956	1602.69
503.172	1548.69
503.389	1522.69
503.606	1476.69
503.823	1441.69
504.04	1415.69
504.256	1457.69
504.473	1467.69
504.69	1462.69
504.907	1449.69
505.123	1355.69
505.34	1378.69
505.557	1331.69
505.773	1304.69
505.99	1296.69
506.207	1275.69
506.423	1239.69
506.64	1251.69
506.856	1261.69
507.073	1217.69
507.289	1221.69
507.506	1211.69
507.722	1193.69
507.939	1236.69
508.155	1213.69
508.372	1203.69
508.588	1208.69
508.805	1201.69
509.021	1178.69
509.238	1233.69
509.454	1273.69
509.67	1291.69
509.887	1241.69
510.103	1217.69
510.319	1179.69
510.536	1194.69
510.752	1135.69
510.968	1165.69
511.184	1128.69
511.401	1155.69
511.617	1112.69
511.833	1141.69
512.049	1128.69
512.265	1142.69
512.481	1126.69
512.698	1126.69
512.914	1145.69
513.13	1148.69
513.346	1159.69
513.562	1105.69
513.778	1140.69
513.994	1181.69
514.21	1170.69
514.426	1195.69
514.642	1207.69
514.858	1179.69
515.074	1154.69
515.29	1149.69
515.506	1154.69
515.721	1165.69
515.937	1179.69
516.153	1175.69
516.369	1172.69
516.585	1210.69
516.801	1231.69
517.016	1240.69
517.232	1257.69
517.448	1306.69
517.664	1302.69
517.879	1285.69
518.095	1316.69
518.311	1330.69
518.527	1267.69
518.742	1253.69
518.958	1273.69
519.173	1266.69
519.389	1221.69
519.605	1189.69
519.82	1173.69
520.036	1184.69
520.251	1156.69
520.467	1125.69
520.682	1143.69
520.898	1130.69
521.113	1136.69
521.329	1128.69
521.544	1139.69
521.76	1141.69
521.975	1152.69
522.19	1138.69
522.406	1105.69
522.621	1097.69
522.836	1081.69
523.052	1118.69
523.267	1125.69
523.482	1117.69
523.698	1115.69
523.913	1113.69
524.128	1122.69
524.343	1115.69
524.559	1099.69
524.774	1108.69
524.989	1095.69
525.204	1138.69
525.419	1111.69
525.634	1101.69
525.849	1081.69
526.064	1087.69
526.28	1121.69
526.495	1116.69
526.71	1117.69
526.925	1095.69
527.14	1119.69
527.355	1080.69
527.57	1101.69
527.785	1130.69
527.999	1086.69
528.214	1107.69
528.429	1147.69
528.644	1150.69
528.859	1170.69
529.074	1147.69
529.289	1187.69
529.503	1166.69
529.718	1172.69
529.933	1173.69
530.148	1133.69
530.363	1149.69
530.577	1147.69
530.792	1148.69
531.007	1169.69
531.221	1160.69
531.436	1175.69
531.651	1163.69
531.865	1183.69
532.08	1217.69
532.295	1236.69
532.509	1251.69
532.724	1282.69
532.938	1293.69
533.153	1320.69
533.367	1356.69
533.582	1419.69
533.796	1365.69
534.011	1379.69
534.225	1333.69
534.44	1317.69
534.654	1292.69
534.868	1265.69
535.083	1284.69
535.297	1275.69
535.511	1239.69
535.726	1220.69
535.94	1232.69
536.154	1183.69
536.369	1137.69
536.583	1153.69
536.797	1132.69
537.011	1138.69
537.225	1105.69
537.44	1089.69
537.654	1126.69
537.868	1121.69
538.082	1118.69
538.296	1112.69
538.51	1081.69
538.724	1121.69
538.938	1098.69
539.153	1099.69
539.367	1114.69
539.581	1072.69
539.795	1039.69
540.009	1056.69
540.222	1047.69
540.436	1067.69
540.65	1080.69
540.864	1092.69
541.078	1107.69
541.292	1171.69
541.506	1292.69
541.72	1370.69
541.934	1209.69
542.147	1183.69
542.361	1147.69
542.575	1104.69
542.789	1079.69
543.002	1028.69
543.216	1067.69
543.43	1045.69
543.644	1043.69
543.857	1073.69
544.071	1071.69
544.285	1071.69
544.498	1075.69
544.712	1078.69
544.925	1087.69
545.139	1077.69
545.352	1080.69
545.566	1081.69
545.779	1083.69
545.993	1074.69
546.206	1094.69
546.42	1103.69
546.633	1083.69
546.847	1080.69
547.06	1089.69
547.274	1095.69
547.487	1063.69
547.7	1096.69
547.914	1090.69
548.127	1080.69
548.34	1070.69
548.554	1078.69
548.767	1051.69
548.98	1100.69
549.193	1089.69
549.407	1080.69
549.62	1106.69
549.833	1091.69
550.046	1083.69
550.259	1095.69
550.473	1095.69
550.686	1072.69
550.899	1096.69
551.112	1075.69
551.325	1065.69
551.538	1057.69
551.751	1028.69
551.964	1063.69
552.177	1095.69
552.39	1111.69
552.603	1124.69
552.816	1153.69
553.029	1151.69
553.242	1177.69
553.455	1171.69
553.667	1212.69
553.88	1168.69
554.093	1187.69
554.306	1176.69
554.519	1149.69
554.732	1172.69
554.944	1212.69
555.157	1232.69
555.37	1259.69
555.583	1306.69
555.795	1291.69
556.008	1350.69
556.221	1455.69
556.433	1513.69
556.646	1466.69
556.859	1502.69
557.071	1514.69
557.284	1469.69
557.496	1439.69
557.709	1407.69
557.921	1428.69
558.134	1388.69
558.346	1409.69
558.559	1473.69
558.771	1497.69
558.984	1571.69
559.196	1640.69
559.409	1595.69
559.621	1523.69
559.833	1462.69
560.046	1402.69
560.258	1344.69
560.47	1310.69
560.683	1268.69
560.895	1234.69
561.107	1213.69
561.32	1175.69
561.532	1162.69
561.744	1143.69
561.956	1106.69
562.168	1102.69
562.381	1089.69
562.593	1091.69
562.805	1048.69
563.017	1061.69
563.229	1058.69
563.441	1178.69
563.653	1090.69
563.865	1048.69
564.077	996.69
564.289	993.69
564.501	965.69
564.713	993.69
564.925	1011.69
565.137	1005.69
565.349	973.69
565.561	978.69
565.773	990.69
565.985	998.69
566.197	1043.69
566.408	1047.69
566.62	1087.69
566.832	1078.69
567.044	1103.69
567.255	1084.69
567.467	1108.69
567.679	1138.69
567.891	1168.69
568.102	1262.69
568.314	1426.69
568.526	1256.69
568.737	1094.69
568.949	1039.69
569.161	956.69
569.372	907.69
569.584	895.69
569.795	883.69
570.007	875.69
570.218	885.69
570.43	936.69
570.641	854.69
570.853	823.69
571.064	837.69
571.276	807.69
571.487	817.69
571.698	805.69
571.91	803.69
572.121	821.69
572.333	794.69
572.544	748.69
572.755	807.69
572.966	911.69
573.178	831.69
573.389	793.69
573.6	752.69
573.811	729.69
574.023	740.69
574.234	723.69
574.445	725.69
574.656	712.69
574.867	731.69
575.078	731.69
575.289	733.69
575.501	720.69
575.712	714.69
575.923	708.69
576.134	703.69
576.345	743.69
576.556	732.69
576.767	723.69
576.978	711.69
577.188	711.69
577.399	728.69
577.61	726.69
577.821	752.69
578.032	727.69
578.243	759.69
578.454	757.69
578.665	762.69
578.875	777.69
579.086	823.69
579.297	832.69
579.508	865.69
579.718	903.69
579.929	965.69
580.14	1036.69
580.35	1077.69
580.561	1057.69
580.772	990.69
580.982	955.69
581.193	927.69
581.403	889.69
581.614	865.69
581.825	830.69
582.035	805.69
582.246	764.69
582.456	753.69
582.667	733.69
582.877	715.69
583.087	687.69
583.298	699.69
583.508	664.69
583.719	667.69
583.929	634.69
584.139	629.69
584.35	660.69
584.56	605.69
584.77	625.69
584.981	635.69
585.191	604.69
585.401	592.69
585.611	595.69
585.821	605.69
586.032	593.69
586.242	569.69
586.452	580.69
586.662	561.69
586.872	563.69
587.082	552.69
587.292	561.69
587.502	554.69
587.713	563.69
587.923	548.69
588.133	548.69
588.343	550.69
588.553	546.69
588.762	541.69
588.972	543.69
589.182	548.69
589.392	537.69
589.602	513.69
589.812	522.69
590.022	516.69
590.232	501.69
590.441	533.69
590.651	522.69
590.861	523.69
591.071	502.69
591.281	511.69
591.49	519.69
591.7	505.69
591.91	550.69
592.119	514.69
592.329	532.69
592.539	532.69
592.748	534.69
592.958	547.69
593.167	556.69
593.377	555.69
593.587	546.69
593.796	563.69
594.006	525.69
594.215	525.69
594.424	540.69
594.634	522.69
594.843	514.69
595.053	525.69
595.262	487.69
595.472	507.69
595.681	501.69
595.89	489.69
596.1	490.69
596.309	469.69
596.518	471.69
596.727	466.69
596.937	461.69
597.146	477.69
597.355	444.69
597.564	464.69
597.774	467.69
597.983	449.69
598.192	450.69
598.401	439.69
598.61	429.69
598.819	440.69
599.028	416.69
599.237	418.69
599.446	418.69
599.655	422.69
599.864	411.69
600.073	445.69
600.282	415.69
600.491	419.69
600.7	412.69
600.909	410.69
601.118	422.69
601.327	440.69
601.536	442.69
601.745	416.69
601.953	459.69
602.162	514.69
602.371	473.69
602.58	470.69
602.789	433.69
602.997	422.69
603.206	441.69
603.415	412.69
603.623	424.69
603.832	406.69
604.041	424.69
604.249	416.69
604.458	408.69
604.666	403.69
604.875	388.69
605.084	387.69
605.292	415.69
605.501	411.69
605.709	427.69
605.918	429.69
606.126	416.69
606.334	410.69
606.543	425.69
606.751	435.69
606.96	477.69
607.168	535.69
607.376	440.69
607.585	426.69
607.793	409.69
608.001	442.69
608.21	418.69
608.418	407.69
608.626	411.69
608.834	402.69
609.043	388.69
609.251	407.69
609.459	393.69
609.667	393.69
609.875	404.69
610.083	397.69
610.291	389.69
610.499	402.69
610.707	395.69
610.916	411.69
611.124	405.69
611.332	369.69
611.54	413.69
611.748	384.69
611.955	387.69
612.163	356.69
612.371	387.69
612.579	388.69
612.787	388.69
612.995	396.69
613.203	358.69
613.411	366.69
613.618	387.69
613.826	375.69
614.034	398.69
614.242	381.69
614.449	381.69
614.657	362.69
614.865	377.69
615.072	383.69
615.28	390.69
615.488	383.69
615.695	397.69
615.903	369.69
616.111	377.69
616.318	377.69
616.526	372.69
616.733	380.69
616.941	390.69
617.148	380.69
617.356	359.69
617.563	385.69
617.771	361.69
617.978	366.69
618.185	367.69
618.393	376.69
618.6	367.69
618.807	344.69
619.015	367.69
619.222	366.69
619.429	370.69
619.637	376.69
619.844	346.69
620.051	339.69
620.258	353.69
620.466	339.69
620.673	349.69
620.88	336.69
621.087	330.69
621.294	331.69
621.501	328.69
621.708	349.69
621.915	362.69
622.122	347.69
622.329	321.69
622.536	329.69
622.743	353.69
622.95	341.69
623.157	331.69
623.364	350.69
623.571	322.69
623.778	352.69
623.985	333.69
624.192	335.69
624.399	356.69
624.606	324.69
624.812	321.69
625.019	319.69
625.226	326.69
625.433	326.69
625.639	312.69
625.846	320.69
626.053	313.69
626.259	295.69
626.466	319.69
626.673	304.69
626.879	295.69
627.086	296.69
627.293	306.69
627.499	307.69
627.706	336.69
627.912	318.69
628.119	315.69
628.325	303.69
628.532	316.69
628.738	297.69
628.945	304.69
629.151	309.69
629.357	316.69
629.564	318.69
629.77	294.69
629.976	313.69
630.183	296.69
630.389	303.69
630.595	299.69
630.802	304.69
631.008	299.69
631.214	315.69
631.42	307.69
631.627	308.69
631.833	305.69
632.039	304.69
632.245	282.69
632.451	269.69
632.657	285.69
632.863	281.69
633.069	284.69
633.275	287.69
633.481	297.69
633.688	287.69
633.893	295.69
634.099	287.69
634.305	286.69
634.511	293.69
634.717	266.69
634.923	287.69
635.129	327.69
635.335	348.69
635.541	319.69
635.747	299.69
635.952	303.69
636.158	309.69
636.364	294.69
636.57	298.69
636.775	288.69
636.981	293.69
637.187	290.69
637.392	282.69
637.598	303.69
637.804	276.69
638.009	297.69
638.215	295.69
638.421	291.69
638.626	274.69
638.832	288.69
639.037	291.69
639.243	294.69
639.448	271.69
639.654	305.69
639.859	296.69
640.065	283.69
640.27	300.69
640.475	306.69
640.681	291.69
640.886	316.69
641.091	323.69
641.297	290.69
641.502	314.69
641.707	318.69
641.913	297.69
642.118	316.69
642.323	325.69
642.528	321.69
642.733	330.69
642.939	341.69
643.144	339.69
643.349	346.69
643.554	371.69
643.759	377.69
643.964	354.69
644.169	391.69
644.374	415.69
644.579	440.69
644.784	450.69
644.989	516.69
645.194	550.69
645.399	623.69
645.604	632.69
645.809	527.69
646.014	451.69
646.219	408.69
646.423	375.69
646.628	333.69
646.833	326.69
647.038	327.69
647.243	299.69
647.447	300.69
647.652	291.69
647.857	285.69
648.062	299.69
648.266	279.69
648.471	280.69
648.676	279.69
648.88	267.69
649.085	265.69
649.289	262.69
649.494	290.69
649.698	264.69
649.903	250.69
650.107	259.69
650.312	255.69
650.516	254.69
650.721	243.69
650.925	242.69
651.13	231.69
651.334	212.69
651.539	236.69
651.743	212.69
651.947	228.69
652.152	224.69
652.356	230.69
652.56	228.69
652.764	268.69
652.969	232.69
653.173	241.69
653.377	215.69
653.581	194.69
653.785	194.69
653.99	212.69
654.194	201.69
654.398	214.69
654.602	198.69
654.806	202.69
655.01	204.69
655.214	192.69
655.418	217.69
655.622	204.69
655.826	211.69
656.03	195.69
656.234	211.69
656.438	224.69
656.642	220.69
656.846	218.69
657.049	207.69
657.253	175.69
657.457	180.69
657.661	175.69
657.865	163.69
658.068	158.69
658.272	164.69
658.476	144.69
658.68	147.69
658.883	138.69
659.087	137.69
659.291	139.69
659.494	139.69
659.698	107.69
659.901	123.69
660.105	119.69
660.309	112.69
660.512	122.69
660.716	118.69
660.919	113.69
661.123	124.69
661.326	120.69
661.53	103.69
661.733	124.69
661.936	95.69
662.14	104.69
662.343	91.69
662.546	95.69
662.75	98.69
662.953	82.69
663.156	94.69
663.36	85.69
663.563	104.69
663.766	98.69
663.969	90.69
664.173	91.69
664.376	94.69
664.579	72.69
664.782	86.69
664.985	82.69
665.188	96.69
665.391	88.69
665.594	88.69
665.797	96.69
666	84.69
666.203	83.69
666.406	84.69
666.609	76.69
666.812	83.69
667.015	74.69
667.218	89.69
667.421	77.69
667.624	74.69
667.827	97.69
668.03	101.69
668.232	95.69
668.435	91.69
668.638	75.69
668.841	83.69
669.043	92.69
669.246	81.69
669.449	86.69
669.651	82.69
669.854	82.69
670.057	105.69
670.259	87.69
670.462	86.69
670.665	86.69
670.867	71.69
671.07	81.69
671.272	94.69
671.475	95.69
671.677	84.69
671.88	76.69
672.082	81.69
672.284	72.69
672.487	74.69
672.689	85.69
672.892	77.69
