Data from SnStandardFlinnAPT0064_LampEnergy5.5_LIBS07252019.E.O._I.C._HRD10591_15-14-30-490.txt Node
Date: Thu Jul 25 15:14:30 EDT 2019
User: cochatt
Spectrometer: HR+D1059
Trigger mode: 1
Integration Time (sec): 1.000000E-1
Scans to average: 1
Electric dark correction enabled: true
Nonlinearity correction enabled: false
Boxcar width: 0
XAxis mode: Wavelengths
Number of Pixels in Spectrum: 2048
>>>>>Begin Spectral Data<<<<<
223.165	-18.19
223.4	-18.19
223.635	-18.19
223.869	-35.19
224.104	-15.19
224.338	-4.19
224.573	-33.19
224.808	-13.19
225.042	-19.19
225.277	-6.19
225.511	8.81
225.746	6.81
225.98	15.81
226.215	17.81
226.449	15.81
226.683	28.81
226.918	18.81
227.152	31.81
227.387	26.81
227.621	37.81
227.856	49.81
228.09	49.81
228.324	44.81
228.559	59.81
228.793	69.81
229.027	145.81
229.262	151.81
229.496	152.81
229.73	145.81
229.964	155.81
230.199	149.81
230.433	155.81
230.667	159.81
230.901	149.81
231.136	162.81
231.37	174.81
231.604	178.81
231.838	181.81
232.072	225.81
232.306	227.81
232.541	192.81
232.775	196.81
233.009	188.81
233.243	184.81
233.477	181.81
233.711	215.81
233.945	231.81
234.179	207.81
234.413	210.81
234.647	199.81
234.881	196.81
235.115	223.81
235.349	247.81
235.583	300.81
235.817	369.81
236.051	365.81
236.285	291.81
236.519	223.81
236.753	195.81
236.987	214.81
237.221	231.81
237.455	223.81
237.689	203.81
237.922	217.81
238.156	196.81
238.39	214.81
238.624	222.81
238.858	211.81
239.091	202.81
239.325	227.81
239.559	225.81
239.793	216.81
240.027	226.81
240.26	235.81
240.494	224.81
240.728	247.81
240.961	246.81
241.195	274.81
241.429	263.81
241.662	289.81
241.896	307.81
242.13	354.81
242.363	415.81
242.597	537.81
242.83	516.81
243.064	528.81
243.298	600.81
243.531	521.81
243.765	375.81
243.998	323.81
244.232	283.81
244.465	287.81
244.699	287.81
244.932	296.81
245.166	277.81
245.399	285.81
245.633	291.81
245.866	284.81
246.099	276.81
246.333	280.81
246.566	280.81
246.8	272.81
247.033	279.81
247.266	275.81
247.5	279.81
247.733	278.81
247.966	283.81
248.2	317.81
248.433	335.81
248.666	364.81
248.899	367.81
249.133	323.81
249.366	321.81
249.599	342.81
249.832	393.81
250.066	389.81
250.299	345.81
250.532	323.81
250.765	313.81
250.998	313.81
251.231	335.81
251.465	315.81
251.698	329.81
251.931	308.81
252.164	310.81
252.397	312.81
252.63	316.81
252.863	327.81
253.096	323.81
253.329	333.81
253.562	321.81
253.795	337.81
254.028	344.81
254.261	320.81
254.494	356.81
254.727	411.81
254.96	439.81
255.193	445.81
255.426	372.81
255.659	348.81
255.892	356.81
256.124	333.81
256.357	357.81
256.59	374.81
256.823	379.81
257.056	427.81
257.289	459.81
257.521	523.81
257.754	432.81
257.987	394.81
258.22	390.81
258.452	383.81
258.685	400.81
258.918	391.81
259.151	389.81
259.383	418.81
259.616	453.81
259.849	447.81
260.081	415.81
260.314	405.81
260.547	408.81
260.779	386.81
261.012	384.81
261.244	391.81
261.477	416.81
261.71	407.81
261.942	416.81
262.175	439.81
262.407	413.81
262.64	424.81
262.872	472.81
263.105	455.81
263.337	512.81
263.57	525.81
263.802	521.81
264.035	575.81
264.267	545.81
264.499	572.81
264.732	582.81
264.964	581.81
265.197	593.81
265.429	612.81
265.661	584.81
265.894	643.81
266.126	715.81
266.358	733.81
266.591	710.81
266.823	642.81
267.055	608.81
267.287	571.81
267.52	539.81
267.752	526.81
267.984	539.81
268.216	541.81
268.448	499.81
268.681	521.81
268.913	514.81
269.145	503.81
269.377	499.81
269.609	510.81
269.841	531.81
270.073	537.81
270.306	615.81
270.538	742.81
270.77	1069.81
271.002	1279.81
271.234	927.81
271.466	657.81
271.698	564.81
271.93	551.81
272.162	510.81
272.394	522.81
272.626	517.81
272.858	507.81
273.09	502.81
273.322	514.81
273.553	506.81
273.785	508.81
274.017	470.81
274.249	489.81
274.481	505.81
274.713	477.81
274.945	480.81
275.176	496.81
275.408	481.81
275.64	496.81
275.872	469.81
276.104	511.81
276.335	505.81
276.567	530.81
276.799	499.81
277.031	530.81
277.262	531.81
277.494	550.81
277.726	583.81
277.957	646.81
278.189	679.81
278.421	681.81
278.652	636.81
278.884	615.81
279.115	571.81
279.347	559.81
279.579	545.81
279.81	562.81
280.042	546.81
280.273	535.81
280.505	549.81
280.736	562.81
280.968	602.81
281.199	669.81
281.431	686.81
281.662	701.81
281.894	648.81
282.125	643.81
282.356	617.81
282.588	613.81
282.819	654.81
283.051	645.81
283.282	732.81
283.513	871.81
283.745	1205.81
283.976	1806.81
284.207	2509.81
284.439	2278.81
284.67	1453.81
284.901	1214.81
285.132	1171.81
285.364	1111.81
285.595	909.81
285.826	878.81
286.057	992.81
286.288	1251.81
286.52	1636.81
286.751	1554.81
286.982	1027.81
287.213	820.81
287.444	775.81
287.675	687.81
287.906	689.81
288.138	696.81
288.369	663.81
288.6	653.81
288.831	647.81
289.062	665.81
289.293	653.81
289.524	648.81
289.755	654.81
289.986	671.81
290.217	644.81
290.448	666.81
290.679	668.81
290.91	678.81
291.141	705.81
291.371	725.81
291.602	736.81
291.833	715.81
292.064	663.81
292.295	672.81
292.526	635.81
292.757	633.81
292.987	636.81
293.218	619.81
293.449	626.81
293.68	628.81
293.91	629.81
294.141	608.81
294.372	633.81
294.603	635.81
294.833	623.81
295.064	619.81
295.295	631.81
295.525	624.81
295.756	623.81
295.987	627.81
296.217	628.81
296.448	631.81
296.679	638.81
296.909	629.81
297.14	639.81
297.37	636.81
297.601	637.81
297.831	652.81
298.062	639.81
298.292	651.81
298.523	668.81
298.753	692.81
298.984	660.81
299.214	704.81
299.445	669.81
299.675	665.81
299.905	687.81
300.136	707.81
300.366	803.81
300.597	961.81
300.827	1260.81
301.057	1616.81
301.288	1628.81
301.518	1123.81
301.748	920.81
301.979	847.81
302.209	827.81
302.439	835.81
302.669	857.81
302.9	1016.81
303.13	1325.81
303.36	1848.81
303.59	2476.81
303.82	2169.81
304.051	1352.81
304.281	1046.81
304.511	904.81
304.741	848.81
304.971	821.81
305.201	789.81
305.431	781.81
305.661	771.81
305.891	748.81
306.121	753.81
306.352	750.81
306.582	735.81
306.812	707.81
307.042	752.81
307.272	725.81
307.502	734.81
307.731	706.81
307.961	705.81
308.191	719.81
308.421	733.81
308.651	726.81
308.881	724.81
309.111	728.81
309.341	711.81
309.571	758.81
309.8	744.81
310.03	763.81
310.26	711.81
310.49	719.81
310.72	736.81
310.949	730.81
311.179	736.81
311.409	731.81
311.639	739.81
311.868	750.81
312.098	745.81
312.328	765.81
312.557	775.81
312.787	760.81
313.017	775.81
313.246	767.81
313.476	797.81
313.706	805.81
313.935	804.81
314.165	844.81
314.394	864.81
314.624	835.81
314.853	822.81
315.083	821.81
315.312	839.81
315.542	854.81
315.771	863.81
316.001	833.81
316.23	872.81
316.46	901.81
316.689	977.81
316.919	1139.81
317.148	1531.81
317.377	2231.81
317.607	3238.81
317.836	3375.81
318.065	2044.81
318.295	1393.81
318.524	1178.81
318.753	1069.81
318.983	990.81
319.212	929.81
319.441	923.81
319.67	910.81
319.9	913.81
320.129	897.81
320.358	922.81
320.587	896.81
320.816	887.81
321.046	919.81
321.275	888.81
321.504	896.81
321.733	923.81
321.962	934.81
322.191	965.81
322.42	934.81
322.649	934.81
322.878	956.81
323.108	945.81
323.337	953.81
323.566	954.81
323.795	987.81
324.024	1022.81
324.253	1033.81
324.482	1027.81
324.71	1062.81
324.939	1147.81
325.168	1177.81
325.397	1195.81
325.626	1367.81
325.855	1838.81
326.084	2725.81
326.313	3945.81
326.542	4205.81
326.77	2804.81
326.999	1954.81
327.228	1705.81
327.457	1655.81
327.686	1650.81
327.914	1751.81
328.143	1982.81
328.372	2256.81
328.6	2412.81
328.829	2275.81
329.058	2056.81
329.287	1854.81
329.515	1672.81
329.744	1580.81
329.972	1459.81
330.201	1432.81
330.43	1403.81
330.658	1351.81
330.887	1342.81
331.115	1287.81
331.344	1325.81
331.572	1295.81
331.801	1316.81
332.03	1299.81
332.258	1360.81
332.486	1387.81
332.715	1537.81
332.943	1792.81
333.172	2062.81
333.4	2079.81
333.629	1726.81
333.857	1615.81
334.085	1644.81
334.314	1754.81
334.542	1873.81
334.771	2104.81
334.999	2439.81
335.227	2907.81
335.455	3207.81
335.684	3048.81
335.912	2651.81
336.14	2374.81
336.369	2079.81
336.597	1933.81
336.825	1775.81
337.053	1698.81
337.281	1560.81
337.51	1495.81
337.738	1442.81
337.966	1372.81
338.194	1357.81
338.422	1307.81
338.65	1300.81
338.878	1260.81
339.106	1230.81
339.334	1224.81
339.562	1192.81
339.79	1164.81
340.018	1183.81
340.246	1171.81
340.474	1159.81
340.702	1168.81
340.93	1154.81
341.158	1161.81
341.386	1151.81
341.614	1157.81
341.842	1123.81
342.07	1102.81
342.298	1095.81
342.526	1093.81
342.754	1064.81
342.981	1090.81
343.209	1052.81
343.437	1085.81
343.665	1090.81
343.893	1101.81
344.12	1109.81
344.348	1073.81
344.576	1095.81
344.804	1063.81
345.031	1037.81
345.259	1036.81
345.487	1024.81
345.714	1033.81
345.942	1026.81
346.17	1008.81
346.397	980.81
346.625	998.81
346.853	976.81
347.08	971.81
347.308	979.81
347.535	971.81
347.763	991.81
347.99	996.81
348.218	969.81
348.445	955.81
348.673	955.81
348.9	993.81
349.128	957.81
349.355	985.81
349.583	949.81
349.81	961.81
350.037	960.81
350.265	945.81
350.492	930.81
350.72	936.81
350.947	918.81
351.174	956.81
351.402	973.81
351.629	964.81
351.856	955.81
352.083	956.81
352.311	953.81
352.538	932.81
352.765	947.81
352.992	947.81
353.22	947.81
353.447	961.81
353.674	919.81
353.901	964.81
354.128	944.81
354.355	944.81
354.583	929.81
354.81	958.81
355.037	961.81
355.264	963.81
355.491	964.81
355.718	935.81
355.945	965.81
356.172	979.81
356.399	966.81
356.626	975.81
356.853	968.81
357.08	977.81
357.307	968.81
357.534	1002.81
357.761	990.81
357.988	1012.81
358.215	1006.81
358.441	986.81
358.668	989.81
358.895	1010.81
359.122	1007.81
359.349	984.81
359.576	996.81
359.802	1003.81
360.029	1002.81
360.256	1006.81
360.483	987.81
360.709	1003.81
360.936	1001.81
361.163	1013.81
361.39	1031.81
361.616	1010.81
361.843	987.81
362.07	1052.81
362.296	1009.81
362.523	988.81
362.749	1045.81
362.976	1018.81
363.203	1009.81
363.429	994.81
363.656	1015.81
363.882	1017.81
364.109	1036.81
364.335	989.81
364.562	982.81
364.788	1019.81
365.015	1014.81
365.241	1024.81
365.468	1063.81
365.694	1091.81
365.92	1055.81
366.147	1042.81
366.373	1036.81
366.599	1013.81
366.826	1035.81
367.052	1052.81
367.278	1044.81
367.505	1047.81
367.731	1055.81
367.957	1016.81
368.184	1029.81
368.41	1024.81
368.636	1061.81
368.862	1060.81
369.089	1037.81
369.315	1056.81
369.541	1059.81
369.767	1027.81
369.993	1029.81
370.219	1028.81
370.445	1044.81
370.672	1052.81
370.898	1024.81
371.124	1060.81
371.35	1098.81
371.576	1075.81
371.802	1091.81
372.028	1079.81
372.254	1089.81
372.48	1123.81
372.706	1117.81
372.932	1114.81
373.158	1105.81
373.384	1102.81
373.61	1127.81
373.835	1090.81
374.061	1094.81
374.287	1105.81
374.513	1118.81
374.739	1140.81
374.965	1161.81
375.191	1145.81
375.416	1141.81
375.642	1096.81
375.868	1147.81
376.094	1116.81
376.319	1101.81
376.545	1087.81
376.771	1107.81
376.997	1099.81
377.222	1095.81
377.448	1082.81
377.674	1094.81
377.899	1055.81
378.125	1089.81
378.35	1093.81
378.576	1079.81
378.802	1104.81
379.027	1110.81
379.253	1098.81
379.478	1157.81
379.704	1295.81
379.929	1718.81
380.155	2423.81
380.38	2588.81
380.606	1778.81
380.831	1359.81
381.057	1223.81
381.282	1153.81
381.507	1131.81
381.733	1116.81
381.958	1081.81
382.184	1084.81
382.409	1055.81
382.634	1101.81
382.86	1075.81
383.085	1078.81
383.31	1099.81
383.535	1091.81
383.761	1075.81
383.986	1079.81
384.211	1102.81
384.436	1099.81
384.662	1120.81
384.887	1105.81
385.112	1129.81
385.337	1083.81
385.562	1096.81
385.787	1101.81
386.013	1145.81
386.238	1103.81
386.463	1101.81
386.688	1135.81
386.913	1096.81
387.138	1100.81
387.363	1093.81
387.588	1087.81
387.813	1114.81
388.038	1109.81
388.263	1115.81
388.488	1110.81
388.713	1125.81
388.938	1133.81
389.163	1079.81
389.387	1107.81
389.612	1093.81
389.837	1134.81
390.062	1135.81
390.287	1103.81
390.512	1123.81
390.736	1113.81
390.961	1151.81
391.186	1143.81
391.411	1154.81
391.636	1152.81
391.86	1163.81
392.085	1175.81
392.31	1159.81
392.534	1155.81
392.759	1161.81
392.984	1136.81
393.208	1135.81
393.433	1110.81
393.658	1123.81
393.882	1106.81
394.107	1121.81
394.331	1119.81
394.556	1142.81
394.78	1146.81
395.005	1153.81
395.229	1135.81
395.454	1132.81
395.678	1140.81
395.903	1188.81
396.127	1165.81
396.352	1145.81
396.576	1134.81
396.801	1151.81
397.025	1163.81
397.249	1123.81
397.474	1169.81
397.698	1155.81
397.922	1179.81
398.147	1149.81
398.371	1196.81
398.595	1211.81
398.82	1275.81
399.044	1286.81
399.268	1353.81
399.492	1405.81
399.717	1475.81
399.941	1477.81
400.165	1414.81
400.389	1341.81
400.613	1291.81
400.837	1265.81
401.062	1272.81
401.286	1237.81
401.51	1234.81
401.734	1212.81
401.958	1231.81
402.182	1234.81
402.406	1218.81
402.63	1245.81
402.854	1285.81
403.078	1265.81
403.302	1287.81
403.526	1243.81
403.75	1282.81
403.974	1305.81
404.198	1253.81
404.422	1280.81
404.645	1291.81
404.869	1303.81
405.093	1294.81
405.317	1264.81
405.541	1281.81
405.765	1305.81
405.988	1325.81
406.212	1312.81
406.436	1307.81
406.66	1312.81
406.883	1313.81
407.107	1334.81
407.331	1392.81
407.555	1383.81
407.778	1396.81
408.002	1375.81
408.226	1327.81
408.449	1372.81
408.673	1322.81
408.896	1316.81
409.12	1309.81
409.344	1307.81
409.567	1261.81
409.791	1296.81
410.014	1276.81
410.238	1266.81
410.461	1262.81
410.685	1259.81
410.908	1271.81
411.132	1231.81
411.355	1249.81
411.578	1239.81
411.802	1249.81
412.025	1244.81
412.249	1259.81
412.472	1256.81
412.695	1206.81
412.919	1209.81
413.142	1228.81
413.365	1192.81
413.589	1206.81
413.812	1204.81
414.035	1183.81
414.258	1187.81
414.482	1200.81
414.705	1197.81
414.928	1203.81
415.151	1220.81
415.374	1192.81
415.597	1198.81
415.821	1167.81
416.044	1169.81
416.267	1185.81
416.49	1157.81
416.713	1189.81
416.936	1154.81
417.159	1146.81
417.382	1146.81
417.605	1158.81
417.828	1165.81
418.051	1143.81
418.274	1152.81
418.497	1196.81
418.72	1221.81
418.943	1171.81
419.166	1231.81
419.389	1302.81
419.611	1248.81
419.834	1244.81
420.057	1223.81
420.28	1171.81
420.503	1192.81
420.726	1155.81
420.948	1167.81
421.171	1176.81
421.394	1179.81
421.617	1177.81
421.839	1150.81
422.062	1170.81
422.285	1153.81
422.507	1200.81
422.73	1184.81
422.953	1188.81
423.175	1189.81
423.398	1223.81
423.621	1189.81
423.843	1183.81
424.066	1165.81
424.288	1176.81
424.511	1192.81
424.733	1169.81
424.956	1173.81
425.178	1148.81
425.401	1175.81
425.623	1181.81
425.846	1148.81
426.068	1157.81
426.291	1123.81
426.513	1140.81
426.735	1107.81
426.958	1143.81
427.18	1109.81
427.402	1143.81
427.625	1111.81
427.847	1106.81
428.069	1084.81
428.292	1083.81
428.514	1101.81
428.736	1089.81
428.958	1098.81
429.181	1069.81
429.403	1092.81
429.625	1074.81
429.847	1065.81
430.069	1109.81
430.292	1118.81
430.514	1147.81
430.736	1156.81
430.958	1091.81
431.18	1063.81
431.402	1085.81
431.624	1065.81
431.846	1044.81
432.068	1065.81
432.29	1069.81
432.512	1045.81
432.734	1079.81
432.956	1103.81
433.178	1114.81
433.4	1112.81
433.622	1107.81
433.844	1097.81
434.066	1073.81
434.287	1045.81
434.509	1097.81
434.731	1110.81
434.953	1118.81
435.175	1111.81
435.397	1119.81
435.618	1082.81
435.84	1058.81
436.062	1091.81
436.284	1078.81
436.505	1036.81
436.727	1060.81
436.949	1091.81
437.17	1071.81
437.392	1055.81
437.614	1081.81
437.835	1027.81
438.057	1029.81
438.278	1051.81
438.5	1048.81
438.721	1047.81
438.943	1094.81
439.165	1088.81
439.386	1110.81
439.608	1102.81
439.829	1087.81
440.05	1105.81
440.272	1174.81
440.493	1153.81
440.715	1110.81
440.936	1115.81
441.158	1123.81
441.379	1138.81
441.6	1172.81
441.822	1224.81
442.043	1256.81
442.264	1253.81
442.486	1162.81
442.707	1149.81
442.928	1149.81
443.149	1126.81
443.371	1143.81
443.592	1167.81
443.813	1161.81
444.034	1177.81
444.255	1178.81
444.476	1212.81
444.698	1266.81
444.919	1239.81
445.14	1302.81
445.361	1243.81
445.582	1171.81
445.803	1182.81
446.024	1153.81
446.245	1182.81
446.466	1157.81
446.687	1129.81
446.908	1112.81
447.129	1116.81
447.35	1097.81
447.571	1088.81
447.792	1053.81
448.013	1059.81
448.234	1037.81
448.455	1091.81
448.675	1099.81
448.896	1095.81
449.117	1089.81
449.338	1188.81
449.559	1217.81
449.779	1103.81
450	1047.81
450.221	1056.81
450.442	1046.81
450.662	1028.81
450.883	1039.81
451.104	1038.81
451.324	1027.81
451.545	1037.81
451.766	1034.81
451.986	1074.81
452.207	1105.81
452.428	1225.81
452.648	1669.81
452.869	1485.81
453.089	1171.81
453.31	1133.81
453.53	1125.81
453.751	1115.81
453.971	1193.81
454.192	1181.81
454.412	1077.81
454.633	1016.81
454.853	999.81
455.073	970.81
455.294	989.81
455.514	998.81
455.734	1000.81
455.955	974.81
456.175	979.81
456.395	993.81
456.616	961.81
456.836	989.81
457.056	984.81
457.276	989.81
457.497	1038.81
457.717	1036.81
457.937	1045.81
458.157	1060.81
458.377	1050.81
458.598	1039.81
458.818	1068.81
459.038	1041.81
459.258	1039.81
459.478	1033.81
459.698	1079.81
459.918	1097.81
460.138	1098.81
460.358	1141.81
460.578	1167.81
460.798	1141.81
461.018	1174.81
461.238	1175.81
461.458	1204.81
461.678	1179.81
461.898	1199.81
462.118	1211.81
462.338	1246.81
462.558	1218.81
462.777	1273.81
462.997	1347.81
463.217	1350.81
463.437	1390.81
463.657	1365.81
463.876	1368.81
464.096	1277.81
464.316	1307.81
464.536	1229.81
464.755	1257.81
464.975	1177.81
465.195	1168.81
465.414	1144.81
465.634	1104.81
465.854	1117.81
466.073	1124.81
466.293	1105.81
466.512	1071.81
466.732	1072.81
466.951	1120.81
467.171	1184.81
467.391	1183.81
467.61	1078.81
467.829	1055.81
468.049	1083.81
468.268	1072.81
468.488	1039.81
468.707	1083.81
468.927	1054.81
469.146	1032.81
469.365	1086.81
469.585	1081.81
469.804	1121.81
470.023	1132.81
470.243	1126.81
470.462	1143.81
470.681	1179.81
470.901	1242.81
471.12	1406.81
471.339	1411.81
471.558	1231.81
471.777	1127.81
471.997	1119.81
472.216	1085.81
472.435	1094.81
472.654	1079.81
472.873	1036.81
473.092	1054.81
473.311	1063.81
473.53	1096.81
473.749	1101.81
473.968	1148.81
474.187	1079.81
474.406	1041.81
474.625	1087.81
474.844	1075.81
475.063	1065.81
475.282	1062.81
475.501	1071.81
475.72	1080.81
475.939	1088.81
476.158	1096.81
476.377	1129.81
476.596	1124.81
476.814	1113.81
477.033	1098.81
477.252	1108.81
477.471	1141.81
477.69	1203.81
477.908	1205.81
478.127	1217.81
478.346	1181.81
478.564	1260.81
478.783	1263.81
479.002	1281.81
479.22	1255.81
479.439	1302.81
479.658	1279.81
479.876	1264.81
480.095	1290.81
480.313	1269.81
480.532	1311.81
480.751	1289.81
480.969	1327.81
481.188	1267.81
481.406	1219.81
481.624	1231.81
481.843	1275.81
482.061	1233.81
482.28	1275.81
482.498	1262.81
482.717	1257.81
482.935	1307.81
483.153	1303.81
483.372	1306.81
483.59	1315.81
483.808	1328.81
484.027	1340.81
484.245	1378.81
484.463	1544.81
484.681	1654.81
484.9	1558.81
485.118	1484.81
485.336	1451.81
485.554	1455.81
485.772	1535.81
485.99	1679.81
486.209	1775.81
486.427	1568.81
486.645	1438.81
486.863	1400.81
487.081	1344.81
487.299	1350.81
487.517	1353.81
487.735	1380.81
487.953	1394.81
488.171	1386.81
488.389	1382.81
488.607	1362.81
488.825	1308.81
489.043	1309.81
489.261	1304.81
489.479	1333.81
489.696	1296.81
489.914	1311.81
490.132	1346.81
490.35	1325.81
490.568	1352.81
490.786	1361.81
491.003	1380.81
491.221	1399.81
491.439	1419.81
491.657	1424.81
491.874	1408.81
492.092	1478.81
492.31	1455.81
492.527	1467.81
492.745	1446.81
492.963	1419.81
493.18	1387.81
493.398	1419.81
493.615	1405.81
493.833	1417.81
494.05	1407.81
494.268	1424.81
494.485	1409.81
494.703	1415.81
494.92	1420.81
495.138	1393.81
495.355	1428.81
495.573	1427.81
495.79	1416.81
496.008	1411.81
496.225	1465.81
496.442	1479.81
496.66	1464.81
496.877	1524.81
497.094	1542.81
497.312	1503.81
497.529	1463.81
497.746	1512.81
497.963	1536.81
498.181	1577.81
498.398	1575.81
498.615	1627.81
498.832	1640.81
499.049	1807.81
499.267	1904.81
499.484	2016.81
499.701	2017.81
499.918	2090.81
500.135	2248.81
500.352	2364.81
500.569	2429.81
500.786	2388.81
501.003	2273.81
501.22	2189.81
501.437	2047.81
501.654	1936.81
501.871	1868.81
502.088	1797.81
502.305	1730.81
502.522	1681.81
502.739	1581.81
502.956	1562.81
503.172	1539.81
503.389	1467.81
503.606	1469.81
503.823	1457.81
504.04	1460.81
504.256	1451.81
504.473	1444.81
504.69	1456.81
504.907	1468.81
505.123	1416.81
505.34	1362.81
505.557	1342.81
505.773	1333.81
505.99	1329.81
506.207	1317.81
506.423	1289.81
506.64	1256.81
506.856	1250.81
507.073	1230.81
507.289	1255.81
507.506	1238.81
507.722	1212.81
507.939	1221.81
508.155	1223.81
508.372	1198.81
508.588	1193.81
508.805	1152.81
509.021	1179.81
509.238	1190.81
509.454	1244.81
509.67	1280.81
509.887	1241.81
510.103	1214.81
510.319	1221.81
510.536	1195.81
510.752	1186.81
510.968	1181.81
511.184	1144.81
511.401	1147.81
511.617	1137.81
511.833	1163.81
512.049	1143.81
512.265	1156.81
512.481	1153.81
512.698	1134.81
512.914	1139.81
513.13	1154.81
513.346	1133.81
513.562	1175.81
513.778	1119.81
513.994	1169.81
514.21	1168.81
514.426	1200.81
514.642	1233.81
514.858	1172.81
515.074	1147.81
515.29	1205.81
515.506	1159.81
515.721	1171.81
515.937	1170.81
516.153	1183.81
516.369	1184.81
516.585	1188.81
516.801	1237.81
517.016	1218.81
517.232	1280.81
517.448	1295.81
517.664	1296.81
517.879	1300.81
518.095	1297.81
518.311	1302.81
518.527	1251.81
518.742	1270.81
518.958	1272.81
519.173	1282.81
519.389	1250.81
519.605	1209.81
519.82	1184.81
520.036	1159.81
520.251	1149.81
520.467	1177.81
520.682	1139.81
520.898	1140.81
521.113	1131.81
521.329	1125.81
521.544	1112.81
521.76	1116.81
521.975	1119.81
522.19	1108.81
522.406	1122.81
522.621	1118.81
522.836	1141.81
523.052	1163.81
523.267	1132.81
523.482	1102.81
523.698	1111.81
523.913	1140.81
524.128	1121.81
524.343	1085.81
524.559	1117.81
524.774	1112.81
524.989	1112.81
525.204	1115.81
525.419	1099.81
525.634	1097.81
525.849	1104.81
526.064	1080.81
526.28	1084.81
526.495	1117.81
526.71	1111.81
526.925	1068.81
527.14	1093.81
527.355	1118.81
527.57	1107.81
527.785	1125.81
527.999	1120.81
528.214	1163.81
528.429	1143.81
528.644	1137.81
528.859	1200.81
529.074	1171.81
529.289	1208.81
529.503	1234.81
529.718	1204.81
529.933	1182.81
530.148	1159.81
530.363	1118.81
530.577	1143.81
530.792	1184.81
531.007	1184.81
531.221	1158.81
531.436	1171.81
531.651	1213.81
531.865	1238.81
532.08	1187.81
532.295	1245.81
532.509	1294.81
532.724	1295.81
532.938	1294.81
533.153	1333.81
533.367	1370.81
533.582	1400.81
533.796	1409.81
534.011	1413.81
534.225	1368.81
534.44	1345.81
534.654	1296.81
534.868	1276.81
535.083	1285.81
535.297	1266.81
535.511	1240.81
535.726	1217.81
535.94	1204.81
536.154	1174.81
536.369	1187.81
536.583	1161.81
536.797	1180.81
537.011	1168.81
537.225	1155.81
537.44	1127.81
537.654	1155.81
537.868	1121.81
538.082	1114.81
538.296	1111.81
538.51	1057.81
538.724	1116.81
538.938	1132.81
539.153	1088.81
539.367	1071.81
539.581	1076.81
539.795	1075.81
540.009	1041.81
540.222	1057.81
540.436	1038.81
540.65	1046.81
540.864	1104.81
541.078	1116.81
541.292	1160.81
541.506	1310.81
541.72	1369.81
541.934	1261.81
542.147	1179.81
542.361	1164.81
542.575	1100.81
542.789	1077.81
543.002	1058.81
543.216	1047.81
543.43	1005.81
543.644	1019.81
543.857	1041.81
544.071	1088.81
544.285	1080.81
544.498	1046.81
544.712	1087.81
544.925	1098.81
545.139	1076.81
545.352	1065.81
545.566	1081.81
545.779	1084.81
545.993	1070.81
546.206	1079.81
546.42	1078.81
546.633	1111.81
546.847	1077.81
547.06	1086.81
547.274	1097.81
547.487	1117.81
547.7	1120.81
547.914	1097.81
548.127	1107.81
548.34	1055.81
548.554	1080.81
548.767	1089.81
548.98	1075.81
549.193	1076.81
549.407	1055.81
549.62	1092.81
549.833	1085.81
550.046	1069.81
550.259	1080.81
550.473	1058.81
550.686	1094.81
550.899	1102.81
551.112	1067.81
551.325	1040.81
551.538	1074.81
551.751	1034.81
551.964	1044.81
552.177	1064.81
552.39	1110.81
552.603	1131.81
552.816	1151.81
553.029	1139.81
553.242	1187.81
553.455	1185.81
553.667	1196.81
553.88	1168.81
554.093	1197.81
554.306	1156.81
554.519	1163.81
554.732	1162.81
554.944	1187.81
555.157	1213.81
555.37	1231.81
555.583	1241.81
555.795	1344.81
556.008	1339.81
556.221	1462.81
556.433	1549.81
556.646	1501.81
556.859	1511.81
557.071	1458.81
557.284	1485.81
557.496	1442.81
557.709	1395.81
557.921	1428.81
558.134	1426.81
558.346	1432.81
558.559	1441.81
558.771	1484.81
558.984	1579.81
559.196	1687.81
559.409	1601.81
559.621	1563.81
559.833	1475.81
560.046	1390.81
560.258	1363.81
560.47	1333.81
560.683	1311.81
560.895	1263.81
561.107	1165.81
561.32	1160.81
561.532	1197.81
561.744	1149.81
561.956	1120.81
562.168	1112.81
562.381	1075.81
562.593	1101.81
562.805	1067.81
563.017	1069.81
563.229	1056.81
563.441	1165.81
563.653	1089.81
563.865	1045.81
564.077	1007.81
564.289	985.81
564.501	1006.81
564.713	970.81
564.925	987.81
565.137	984.81
565.349	990.81
565.561	986.81
565.773	1006.81
565.985	1001.81
566.197	1025.81
566.408	1081.81
566.62	1079.81
566.832	1088.81
567.044	1089.81
567.255	1083.81
567.467	1096.81
567.679	1122.81
567.891	1174.81
568.102	1284.81
568.314	1419.81
568.526	1255.81
568.737	1069.81
568.949	1003.81
569.161	979.81
569.372	939.81
569.584	890.81
569.795	919.81
570.007	871.81
570.218	885.81
570.43	893.81
570.641	830.81
570.853	836.81
571.064	843.81
571.276	837.81
571.487	823.81
571.698	804.81
571.91	784.81
572.121	813.81
572.333	795.81
572.544	762.81
572.755	821.81
572.966	904.81
573.178	837.81
573.389	755.81
573.6	753.81
573.811	738.81
574.023	715.81
574.234	741.81
574.445	733.81
574.656	725.81
574.867	707.81
575.078	682.81
575.289	702.81
575.501	732.81
575.712	709.81
575.923	715.81
576.134	713.81
576.345	719.81
576.556	738.81
576.767	706.81
576.978	716.81
577.188	728.81
577.399	751.81
577.61	727.81
577.821	752.81
578.032	732.81
578.243	762.81
578.454	750.81
578.665	742.81
578.875	765.81
579.086	784.81
579.297	816.81
579.508	853.81
579.718	898.81
579.929	979.81
580.14	1075.81
580.35	1126.81
580.561	1071.81
580.772	1000.81
580.982	941.81
581.193	923.81
581.403	891.81
581.614	849.81
581.825	835.81
582.035	775.81
582.246	768.81
582.456	749.81
582.667	728.81
582.877	722.81
583.087	686.81
583.298	691.81
583.508	660.81
583.719	665.81
583.929	681.81
584.139	672.81
584.35	644.81
584.56	607.81
584.77	643.81
584.981	611.81
585.191	605.81
585.401	573.81
585.611	596.81
585.821	580.81
586.032	583.81
586.242	576.81
586.452	589.81
586.662	557.81
586.872	553.81
587.082	553.81
587.292	557.81
587.502	568.81
587.713	549.81
587.923	547.81
588.133	536.81
588.343	522.81
588.553	520.81
588.762	543.81
588.972	539.81
589.182	546.81
589.392	536.81
589.602	528.81
589.812	516.81
590.022	515.81
590.232	508.81
590.441	518.81
590.651	528.81
590.861	513.81
591.071	512.81
591.281	518.81
591.49	498.81
591.7	505.81
591.91	532.81
592.119	517.81
592.329	478.81
592.539	520.81
592.748	552.81
592.958	548.81
593.167	530.81
593.377	552.81
593.587	545.81
593.796	532.81
594.006	521.81
594.215	553.81
594.424	531.81
594.634	532.81
594.843	520.81
595.053	533.81
595.262	512.81
595.472	487.81
595.681	491.81
595.89	485.81
596.1	470.81
596.309	479.81
596.518	459.81
596.727	475.81
596.937	445.81
597.146	470.81
597.355	461.81
597.564	449.81
597.774	461.81
597.983	433.81
598.192	461.81
598.401	443.81
598.61	440.81
598.819	442.81
599.028	440.81
599.237	442.81
599.446	420.81
599.655	419.81
599.864	404.81
600.073	413.81
600.282	422.81
600.491	431.81
600.7	420.81
600.909	413.81
601.118	455.81
601.327	415.81
601.536	445.81
601.745	446.81
601.953	441.81
602.162	507.81
602.371	462.81
602.58	451.81
602.789	435.81
602.997	429.81
603.206	419.81
603.415	418.81
603.623	423.81
603.832	424.81
604.041	416.81
604.249	424.81
604.458	413.81
604.666	399.81
604.875	411.81
605.084	399.81
605.292	397.81
605.501	407.81
605.709	405.81
605.918	428.81
606.126	412.81
606.334	404.81
606.543	416.81
606.751	451.81
606.96	491.81
607.168	506.81
607.376	450.81
607.585	430.81
607.793	407.81
608.001	422.81
608.21	394.81
608.418	410.81
608.626	388.81
608.834	397.81
609.043	394.81
609.251	415.81
609.459	407.81
609.667	419.81
609.875	395.81
610.083	392.81
610.291	397.81
610.499	381.81
610.707	398.81
610.916	384.81
611.124	388.81
611.332	382.81
611.54	390.81
611.748	381.81
611.955	389.81
612.163	386.81
612.371	386.81
612.579	392.81
612.787	360.81
612.995	377.81
613.203	372.81
613.411	375.81
613.618	386.81
613.826	372.81
614.034	399.81
614.242	388.81
614.449	391.81
614.657	358.81
614.865	393.81
615.072	387.81
615.28	362.81
615.488	370.81
615.695	361.81
615.903	381.81
616.111	371.81
616.318	372.81
616.526	367.81
616.733	386.81
616.941	379.81
617.148	363.81
617.356	369.81
617.563	360.81
617.771	366.81
617.978	374.81
618.185	353.81
618.393	365.81
618.6	359.81
618.807	349.81
619.015	369.81
619.222	357.81
619.429	353.81
619.637	353.81
619.844	348.81
620.051	335.81
620.258	336.81
620.466	351.81
620.673	331.81
620.88	334.81
621.087	335.81
621.294	343.81
621.501	321.81
621.708	334.81
621.915	337.81
622.122	333.81
622.329	348.81
622.536	343.81
622.743	363.81
622.95	331.81
623.157	350.81
623.364	351.81
623.571	325.81
623.778	347.81
623.985	331.81
624.192	345.81
624.399	338.81
624.606	323.81
624.812	322.81
625.019	328.81
625.226	320.81
625.433	308.81
625.639	320.81
625.846	295.81
626.053	305.81
626.259	317.81
626.466	311.81
626.673	302.81
626.879	310.81
627.086	315.81
627.293	317.81
627.499	326.81
627.706	307.81
627.912	302.81
628.119	317.81
628.325	308.81
628.532	315.81
628.738	302.81
628.945	309.81
629.151	302.81
629.357	291.81
629.564	287.81
629.77	289.81
629.976	303.81
630.183	311.81
630.389	300.81
630.595	290.81
630.802	287.81
631.008	308.81
631.214	283.81
631.42	279.81
631.627	286.81
631.833	282.81
632.039	285.81
632.245	284.81
632.451	284.81
632.657	286.81
632.863	286.81
633.069	304.81
633.275	282.81
633.481	281.81
633.688	291.81
633.893	298.81
634.099	287.81
634.305	281.81
634.511	299.81
634.717	287.81
634.923	309.81
635.129	323.81
635.335	351.81
635.541	309.81
635.747	280.81
635.952	283.81
636.158	296.81
636.364	281.81
636.57	296.81
636.775	293.81
636.981	296.81
637.187	289.81
637.392	278.81
637.598	287.81
637.804	278.81
638.009	269.81
638.215	303.81
638.421	286.81
638.626	293.81
638.832	295.81
639.037	282.81
639.243	296.81
639.448	270.81
639.654	302.81
639.859	286.81
640.065	286.81
640.27	300.81
640.475	301.81
640.681	304.81
640.886	331.81
641.091	292.81
641.297	302.81
641.502	317.81
641.707	306.81
641.913	316.81
642.118	321.81
642.323	310.81
642.528	330.81
642.733	340.81
642.939	341.81
643.144	345.81
643.349	360.81
643.554	348.81
643.759	352.81
643.964	378.81
644.169	395.81
644.374	405.81
644.579	433.81
644.784	447.81
644.989	520.81
645.194	572.81
645.399	619.81
645.604	625.81
645.809	533.81
646.014	463.81
646.219	410.81
646.423	369.81
646.628	336.81
646.833	329.81
647.038	325.81
647.243	302.81
647.447	299.81
647.652	295.81
647.857	287.81
648.062	273.81
648.266	270.81
648.471	276.81
648.676	261.81
648.88	279.81
649.085	264.81
649.289	253.81
649.494	261.81
649.698	260.81
649.903	247.81
650.107	256.81
650.312	244.81
650.516	220.81
650.721	244.81
650.925	237.81
651.13	225.81
651.334	245.81
651.539	223.81
651.743	228.81
651.947	223.81
652.152	222.81
652.356	220.81
652.56	244.81
652.764	238.81
652.969	224.81
653.173	203.81
653.377	215.81
653.581	194.81
653.785	208.81
653.99	220.81
654.194	200.81
654.398	196.81
654.602	185.81
654.806	189.81
655.01	205.81
655.214	199.81
655.418	195.81
655.622	198.81
655.826	207.81
656.03	194.81
656.234	222.81
656.438	213.81
656.642	221.81
656.846	200.81
657.049	199.81
657.253	192.81
657.457	186.81
657.661	194.81
657.865	171.81
658.068	154.81
658.272	157.81
658.476	142.81
658.68	135.81
658.883	133.81
659.087	148.81
659.291	124.81
659.494	128.81
659.698	134.81
659.901	114.81
660.105	113.81
660.309	122.81
660.512	117.81
660.716	104.81
660.919	103.81
661.123	123.81
661.326	111.81
661.53	103.81
661.733	96.81
661.936	86.81
662.14	80.81
662.343	94.81
662.546	85.81
662.75	99.81
662.953	82.81
663.156	94.81
663.36	95.81
663.563	85.81
663.766	86.81
663.969	75.81
664.173	78.81
664.376	83.81
664.579	78.81
664.782	77.81
664.985	83.81
665.188	81.81
665.391	69.81
665.594	88.81
665.797	76.81
666	80.81
666.203	72.81
666.406	87.81
666.609	71.81
666.812	84.81
667.015	78.81
667.218	77.81
667.421	78.81
667.624	79.81
667.827	79.81
668.03	89.81
668.232	77.81
668.435	92.81
668.638	80.81
668.841	81.81
669.043	80.81
669.246	70.81
669.449	80.81
669.651	78.81
669.854	86.81
670.057	73.81
670.259	80.81
670.462	79.81
670.665	72.81
670.867	86.81
671.07	87.81
671.272	77.81
671.475	71.81
671.677	83.81
671.88	70.81
672.082	75.81
672.284	79.81
672.487	83.81
672.689	81.81
672.892	74.81
