Data from SnStandardFlinnAPT0064_LampEnergy10_LIBS07252019.E.O._I.C._HRD10591_15-20-24-493.txt Node
Date: Thu Jul 25 15:20:24 EDT 2019
User: cochatt
Spectrometer: HR+D1059
Trigger mode: 1
Integration Time (sec): 1.000000E-1
Scans to average: 1
Electric dark correction enabled: true
Nonlinearity correction enabled: false
Boxcar width: 0
XAxis mode: Wavelengths
Number of Pixels in Spectrum: 2048
>>>>>Begin Spectral Data<<<<<
223.165	-12.25
223.4	-12.25
223.635	-12.25
223.869	-27.25
224.104	-8.25
224.338	-8.25
224.573	-17.25
224.808	-21.25
225.042	-16.25
225.277	1.75
225.511	-11.25
225.746	-0.25
225.98	5.75
226.215	13.75
226.449	14.75
226.683	25.75
226.918	25.75
227.152	34.75
227.387	38.75
227.621	39.75
227.856	49.75
228.09	63.75
228.324	55.75
228.559	60.75
228.793	133.75
229.027	307.75
229.262	332.75
229.496	299.75
229.73	299.75
229.964	288.75
230.199	293.75
230.433	287.75
230.667	315.75
230.901	324.75
231.136	347.75
231.37	346.75
231.604	398.75
231.838	467.75
232.072	542.75
232.306	588.75
232.541	474.75
232.775	427.75
233.009	436.75
233.243	421.75
233.477	460.75
233.711	533.75
233.945	582.75
234.179	528.75
234.413	462.75
234.647	455.75
234.881	455.75
235.115	523.75
235.349	616.75
235.583	778.75
235.817	1033.75
236.051	1020.75
236.285	664.75
236.519	542.75
236.753	493.75
236.987	491.75
237.221	541.75
237.455	522.75
237.689	471.75
237.922	458.75
238.156	473.75
238.39	485.75
238.624	497.75
238.858	497.75
239.091	490.75
239.325	461.75
239.559	481.75
239.793	515.75
240.027	538.75
240.26	535.75
240.494	558.75
240.728	580.75
240.961	606.75
241.195	645.75
241.429	685.75
241.662	704.75
241.896	787.75
242.13	964.75
242.363	1269.75
242.597	1632.75
242.83	1579.75
243.064	1578.75
243.298	1889.75
243.531	1533.75
243.765	995.75
243.998	798.75
244.232	719.75
244.465	669.75
244.699	645.75
244.932	650.75
245.166	657.75
245.399	682.75
245.633	674.75
245.866	679.75
246.099	663.75
246.333	659.75
246.566	647.75
246.8	622.75
247.033	645.75
247.266	653.75
247.5	656.75
247.733	687.75
247.966	706.75
248.2	770.75
248.433	900.75
248.666	1033.75
248.899	980.75
249.133	863.75
249.366	865.75
249.599	956.75
249.832	1091.75
250.066	1111.75
250.299	867.75
250.532	785.75
250.765	741.75
250.998	736.75
251.231	729.75
251.465	713.75
251.698	723.75
251.931	740.75
252.164	739.75
252.397	743.75
252.63	789.75
252.863	815.75
253.096	779.75
253.329	770.75
253.562	748.75
253.795	781.75
254.028	795.75
254.261	851.75
254.494	866.75
254.727	1047.75
254.96	1247.75
255.193	1220.75
255.426	974.75
255.659	884.75
255.892	853.75
256.124	856.75
256.357	900.75
256.59	910.75
256.823	993.75
257.056	1118.75
257.289	1390.75
257.521	1516.75
257.754	1207.75
257.987	958.75
258.22	909.75
258.452	901.75
258.685	927.75
258.918	954.75
259.151	1007.75
259.383	1101.75
259.616	1212.75
259.849	1290.75
260.081	1088.75
260.314	982.75
260.547	983.75
260.779	919.75
261.012	919.75
261.244	956.75
261.477	984.75
261.71	985.75
261.942	967.75
262.175	985.75
262.407	1026.75
262.64	1022.75
262.872	1087.75
263.105	1107.75
263.337	1166.75
263.57	1266.75
263.802	1270.75
264.035	1287.75
264.267	1301.75
264.499	1343.75
264.732	1437.75
264.964	1378.75
265.197	1417.75
265.429	1421.75
265.661	1419.75
265.894	1525.75
266.126	1722.75
266.358	1941.75
266.591	1917.75
266.823	1593.75
267.055	1415.75
267.287	1378.75
267.52	1299.75
267.752	1291.75
267.984	1257.75
268.216	1243.75
268.448	1209.75
268.681	1207.75
268.913	1225.75
269.145	1201.75
269.377	1245.75
269.609	1266.75
269.841	1284.75
270.073	1332.75
270.306	1582.75
270.538	2177.75
270.77	3289.75
271.002	4019.75
271.234	2843.75
271.466	1910.75
271.698	1545.75
271.93	1417.75
272.162	1315.75
272.394	1274.75
272.626	1238.75
272.858	1206.75
273.09	1193.75
273.322	1213.75
273.553	1204.75
273.785	1189.75
274.017	1191.75
274.249	1179.75
274.481	1185.75
274.713	1205.75
274.945	1163.75
275.176	1244.75
275.408	1230.75
275.64	1244.75
275.872	1205.75
276.104	1244.75
276.335	1254.75
276.567	1258.75
276.799	1257.75
277.031	1283.75
277.262	1344.75
277.494	1420.75
277.726	1589.75
277.957	1883.75
278.189	2144.75
278.421	2037.75
278.652	1787.75
278.884	1661.75
279.115	1493.75
279.347	1421.75
279.579	1395.75
279.81	1400.75
280.042	1378.75
280.273	1429.75
280.505	1415.75
280.736	1487.75
280.968	1590.75
281.199	1766.75
281.431	2028.75
281.662	2126.75
281.894	1800.75
282.125	1660.75
282.356	1663.75
282.588	1692.75
282.819	1676.75
283.051	1823.75
283.282	2017.75
283.513	2530.75
283.745	3634.75
283.976	5801.75
284.207	8198.75
284.439	7569.75
284.67	4645.75
284.901	3837.75
285.132	3889.75
285.364	3716.75
285.595	2772.75
285.826	2472.75
286.057	2892.75
286.288	4036.75
286.52	5438.75
286.751	5008.75
286.982	3139.75
287.213	2309.75
287.444	2019.75
287.675	1882.75
287.906	1796.75
288.138	1719.75
288.369	1668.75
288.6	1676.75
288.831	1657.75
289.062	1679.75
289.293	1665.75
289.524	1647.75
289.755	1723.75
289.986	1682.75
290.217	1704.75
290.448	1693.75
290.679	1736.75
290.91	1772.75
291.141	1853.75
291.371	2020.75
291.602	2165.75
291.833	1977.75
292.064	1767.75
292.295	1670.75
292.526	1659.75
292.757	1611.75
292.987	1559.75
293.218	1590.75
293.449	1573.75
293.68	1549.75
293.91	1553.75
294.141	1523.75
294.372	1516.75
294.603	1563.75
294.833	1565.75
295.064	1525.75
295.295	1558.75
295.525	1563.75
295.756	1556.75
295.987	1549.75
296.217	1589.75
296.448	1575.75
296.679	1546.75
296.909	1585.75
297.14	1595.75
297.37	1618.75
297.601	1628.75
297.831	1619.75
298.062	1606.75
298.292	1581.75
298.523	1638.75
298.753	1677.75
298.984	1683.75
299.214	1721.75
299.445	1713.75
299.675	1765.75
299.905	1843.75
300.136	1921.75
300.366	2175.75
300.597	2745.75
300.827	3962.75
301.057	5503.75
301.288	5420.75
301.518	3489.75
301.748	2588.75
301.979	2402.75
302.209	2278.75
302.439	2305.75
302.669	2445.75
302.9	2976.75
303.13	4239.75
303.36	6397.75
303.59	8511.75
303.82	7446.75
304.051	4261.75
304.281	3082.75
304.511	2547.75
304.741	2354.75
304.971	2209.75
305.201	2079.75
305.431	1994.75
305.661	1921.75
305.891	1932.75
306.121	1880.75
306.352	1901.75
306.582	1837.75
306.812	1834.75
307.042	1836.75
307.272	1837.75
307.502	1818.75
307.731	1842.75
307.961	1812.75
308.191	1798.75
308.421	1772.75
308.651	1801.75
308.881	1811.75
309.111	1807.75
309.341	1795.75
309.571	1831.75
309.8	1812.75
310.03	1839.75
310.26	1836.75
310.49	1848.75
310.72	1849.75
310.949	1858.75
311.179	1856.75
311.409	1877.75
311.639	1886.75
311.868	1905.75
312.098	1881.75
312.328	1913.75
312.557	1913.75
312.787	1952.75
313.017	1975.75
313.246	1987.75
313.476	1990.75
313.706	2011.75
313.935	2230.75
314.165	2330.75
314.394	2550.75
314.624	2369.75
314.853	2171.75
315.083	2113.75
315.312	2153.75
315.542	2195.75
315.771	2201.75
316.001	2223.75
316.23	2303.75
316.46	2377.75
316.689	2693.75
316.919	3261.75
317.148	4747.75
317.377	7323.75
317.607	10817.75
317.836	11209.75
318.065	6741.75
318.295	4348.75
318.524	3406.75
318.753	3020.75
318.983	2766.75
319.212	2605.75
319.441	2540.75
319.67	2406.75
319.9	2382.75
320.129	2379.75
320.358	2325.75
320.587	2303.75
320.816	2340.75
321.046	2320.75
321.275	2337.75
321.504	2346.75
321.733	2463.75
321.962	2497.75
322.191	2475.75
322.42	2479.75
322.649	2477.75
322.878	2435.75
323.108	2488.75
323.337	2501.75
323.566	2505.75
323.795	2574.75
324.024	2610.75
324.253	2715.75
324.482	2807.75
324.71	3038.75
324.939	3234.75
325.168	3300.75
325.397	3433.75
325.626	4071.75
325.855	5653.75
326.084	9023.75
326.313	12930.75
326.542	13689.75
326.77	9378.75
326.999	5950.75
327.228	5036.75
327.457	4785.75
327.686	4843.75
327.914	5139.75
328.143	5909.75
328.372	6998.75
328.6	7754.75
328.829	6908.75
329.058	5791.75
329.287	5078.75
329.515	4569.75
329.744	4227.75
329.972	4013.75
330.201	3835.75
330.43	3703.75
330.658	3554.75
330.887	3574.75
331.115	3452.75
331.344	3487.75
331.572	3477.75
331.801	3426.75
332.03	3511.75
332.258	3565.75
332.486	3709.75
332.715	4330.75
332.943	5316.75
333.172	6713.75
333.4	6716.75
333.629	4974.75
333.857	4478.75
334.085	4479.75
334.314	4647.75
334.542	5080.75
334.771	5915.75
334.999	7307.75
335.227	9179.75
335.455	10329.75
335.684	9320.75
335.912	7657.75
336.14	6434.75
336.369	5668.75
336.597	5163.75
336.825	4747.75
337.053	4513.75
337.281	4229.75
337.51	3956.75
337.738	3844.75
337.966	3668.75
338.194	3526.75
338.422	3448.75
338.65	3259.75
338.878	3267.75
339.106	3202.75
339.334	3204.75
339.562	3112.75
339.79	3043.75
340.018	3035.75
340.246	3039.75
340.474	2970.75
340.702	2961.75
340.93	2992.75
341.158	2981.75
341.386	2967.75
341.614	2934.75
341.842	2834.75
342.07	2796.75
342.298	2753.75
342.526	2723.75
342.754	2725.75
342.981	2662.75
343.209	2676.75
343.437	2739.75
343.665	2750.75
343.893	2785.75
344.12	2771.75
344.348	2726.75
344.576	2664.75
344.804	2649.75
345.031	2608.75
345.259	2604.75
345.487	2532.75
345.714	2532.75
345.942	2503.75
346.17	2500.75
346.397	2552.75
346.625	2496.75
346.853	2505.75
347.08	2526.75
347.308	2541.75
347.535	2505.75
347.763	2509.75
347.99	2467.75
348.218	2473.75
348.445	2432.75
348.673	2440.75
348.9	2430.75
349.128	2465.75
349.355	2401.75
349.583	2415.75
349.81	2353.75
350.037	2383.75
350.265	2371.75
350.492	2352.75
350.72	2403.75
350.947	2332.75
351.174	2408.75
351.402	2407.75
351.629	2388.75
351.856	2365.75
352.083	2357.75
352.311	2356.75
352.538	2347.75
352.765	2327.75
352.992	2311.75
353.22	2328.75
353.447	2315.75
353.674	2381.75
353.901	2388.75
354.128	2339.75
354.355	2358.75
354.583	2357.75
354.81	2405.75
355.037	2403.75
355.264	2403.75
355.491	2439.75
355.718	2398.75
355.945	2402.75
356.172	2429.75
356.399	2405.75
356.626	2463.75
356.853	2509.75
357.08	2497.75
357.307	2484.75
357.534	2529.75
357.761	2520.75
357.988	2564.75
358.215	2521.75
358.441	2525.75
358.668	2514.75
358.895	2517.75
359.122	2483.75
359.349	2485.75
359.576	2478.75
359.802	2481.75
360.029	2468.75
360.256	2497.75
360.483	2503.75
360.709	2482.75
360.936	2489.75
361.163	2511.75
361.39	2524.75
361.616	2525.75
361.843	2554.75
362.07	2496.75
362.296	2503.75
362.523	2560.75
362.749	2501.75
362.976	2475.75
363.203	2469.75
363.429	2468.75
363.656	2498.75
363.882	2516.75
364.109	2517.75
364.335	2459.75
364.562	2532.75
364.788	2545.75
365.015	2536.75
365.241	2619.75
365.468	2798.75
365.694	2895.75
365.92	2830.75
366.147	2615.75
366.373	2569.75
366.599	2540.75
366.826	2561.75
367.052	2563.75
367.278	2612.75
367.505	2492.75
367.731	2596.75
367.957	2591.75
368.184	2604.75
368.41	2632.75
368.636	2652.75
368.862	2638.75
369.089	2620.75
369.315	2588.75
369.541	2599.75
369.767	2619.75
369.993	2593.75
370.219	2574.75
370.445	2598.75
370.672	2604.75
370.898	2627.75
371.124	2663.75
371.35	2676.75
371.576	2652.75
371.802	2740.75
372.028	2668.75
372.254	2689.75
372.48	2727.75
372.706	2693.75
372.932	2787.75
373.158	2719.75
373.384	2741.75
373.61	2740.75
373.835	2734.75
374.061	2771.75
374.287	2783.75
374.513	2835.75
374.739	2819.75
374.965	2883.75
375.191	2851.75
375.416	2849.75
375.642	2826.75
375.868	2812.75
376.094	2822.75
376.319	2767.75
376.545	2715.75
376.771	2749.75
376.997	2712.75
377.222	2715.75
377.448	2663.75
377.674	2696.75
377.899	2703.75
378.125	2766.75
378.35	2689.75
378.576	2691.75
378.802	2737.75
379.027	2760.75
379.253	2830.75
379.478	2980.75
379.704	3522.75
379.929	5179.75
380.155	8174.75
380.38	8903.75
380.606	5390.75
380.831	3736.75
381.057	3195.75
381.282	2953.75
381.507	2840.75
381.733	2766.75
381.958	2725.75
382.184	2672.75
382.409	2648.75
382.634	2687.75
382.86	2665.75
383.085	2682.75
383.31	2622.75
383.535	2640.75
383.761	2670.75
383.986	2726.75
384.211	2671.75
384.436	2762.75
384.662	2722.75
384.887	2773.75
385.112	2744.75
385.337	2729.75
385.562	2757.75
385.787	2761.75
386.013	2796.75
386.238	2804.75
386.463	2722.75
386.688	2745.75
386.913	2735.75
387.138	2732.75
387.363	2756.75
387.588	2704.75
387.813	2735.75
388.038	2748.75
388.263	2712.75
388.488	2754.75
388.713	2707.75
388.938	2743.75
389.163	2761.75
389.387	2689.75
389.612	2744.75
389.837	2728.75
390.062	2743.75
390.287	2760.75
390.512	2762.75
390.736	2780.75
390.961	2790.75
391.186	2830.75
391.411	2878.75
391.636	2889.75
391.86	2895.75
392.085	2895.75
392.31	2876.75
392.534	2874.75
392.759	2814.75
392.984	2808.75
393.208	2813.75
393.433	2817.75
393.658	2805.75
393.882	2768.75
394.107	2731.75
394.331	2798.75
394.556	2765.75
394.78	2780.75
395.005	2793.75
395.229	2795.75
395.454	2851.75
395.678	2831.75
395.903	2847.75
396.127	2837.75
396.352	2821.75
396.576	2790.75
396.801	2850.75
397.025	2885.75
397.249	2875.75
397.474	2918.75
397.698	2865.75
397.922	2918.75
398.147	2870.75
398.371	2929.75
398.595	2949.75
398.82	3070.75
399.044	3165.75
399.268	3316.75
399.492	3507.75
399.717	3620.75
399.941	3581.75
400.165	3511.75
400.389	3305.75
400.613	3255.75
400.837	3093.75
401.062	3137.75
401.286	3019.75
401.51	2988.75
401.734	2954.75
401.958	3026.75
402.182	3028.75
402.406	3011.75
402.63	2972.75
402.854	3071.75
403.078	3029.75
403.302	3077.75
403.526	3155.75
403.75	3127.75
403.974	3192.75
404.198	3127.75
404.422	3150.75
404.645	3062.75
404.869	3083.75
405.093	3131.75
405.317	3139.75
405.541	3165.75
405.765	3222.75
405.988	3251.75
406.212	3250.75
406.436	3178.75
406.66	3304.75
406.883	3253.75
407.107	3364.75
407.331	3354.75
407.555	3427.75
407.778	3431.75
408.002	3378.75
408.226	3314.75
408.449	3359.75
408.673	3290.75
408.896	3217.75
409.12	3205.75
409.344	3205.75
409.567	3076.75
409.791	3077.75
410.014	3120.75
410.238	3059.75
410.461	3072.75
410.685	3140.75
410.908	3082.75
411.132	3058.75
411.355	2969.75
411.578	2988.75
411.802	3009.75
412.025	2945.75
412.249	3078.75
412.472	3027.75
412.695	2983.75
412.919	2940.75
413.142	3020.75
413.365	2881.75
413.589	2962.75
413.812	2923.75
414.035	3012.75
414.258	2959.75
414.482	2983.75
414.705	3037.75
414.928	2934.75
415.151	2957.75
415.374	2975.75
415.597	2878.75
415.821	2880.75
416.044	2917.75
416.267	2844.75
416.49	2839.75
416.713	2829.75
416.936	2847.75
417.159	2717.75
417.382	2819.75
417.605	2757.75
417.828	2825.75
418.051	2857.75
418.274	2839.75
418.497	2882.75
418.72	2922.75
418.943	2869.75
419.166	3035.75
419.389	3230.75
419.611	3153.75
419.834	3069.75
420.057	3000.75
420.28	2866.75
420.503	2825.75
420.726	2860.75
420.948	2873.75
421.171	2848.75
421.394	2847.75
421.617	2825.75
421.839	2851.75
422.062	2824.75
422.285	2796.75
422.507	2857.75
422.73	2940.75
422.953	2931.75
423.175	2939.75
423.398	2892.75
423.621	2894.75
423.843	2904.75
424.066	2880.75
424.288	2821.75
424.511	2882.75
424.733	2846.75
424.956	2825.75
425.178	2814.75
425.401	2776.75
425.623	2841.75
425.846	2798.75
426.068	2768.75
426.291	2745.75
426.513	2741.75
426.735	2722.75
426.958	2711.75
427.18	2676.75
427.402	2731.75
427.625	2695.75
427.847	2628.75
428.069	2642.75
428.292	2661.75
428.514	2687.75
428.736	2609.75
428.958	2642.75
429.181	2572.75
429.403	2617.75
429.625	2609.75
429.847	2613.75
430.069	2695.75
430.292	2783.75
430.514	2823.75
430.736	2833.75
430.958	2692.75
431.18	2632.75
431.402	2597.75
431.624	2562.75
431.846	2593.75
432.068	2547.75
432.29	2639.75
432.512	2611.75
432.734	2611.75
432.956	2581.75
433.178	2620.75
433.4	2655.75
433.622	2627.75
433.844	2631.75
434.066	2589.75
434.287	2621.75
434.509	2664.75
434.731	2685.75
434.953	2717.75
435.175	2744.75
435.397	2700.75
435.618	2677.75
435.84	2653.75
436.062	2590.75
436.284	2572.75
436.505	2588.75
436.727	2642.75
436.949	2571.75
437.17	2573.75
437.392	2561.75
437.614	2610.75
437.835	2499.75
438.057	2505.75
438.278	2535.75
438.5	2490.75
438.721	2559.75
438.943	2651.75
439.165	2727.75
439.386	2665.75
439.608	2677.75
439.829	2703.75
440.05	2835.75
440.272	2865.75
440.493	2782.75
440.715	2650.75
440.936	2730.75
441.158	2743.75
441.379	2782.75
441.6	2781.75
441.822	2911.75
442.043	3080.75
442.264	3151.75
442.486	2939.75
442.707	2859.75
442.928	2750.75
443.149	2787.75
443.371	2749.75
443.592	2810.75
443.813	2815.75
444.034	2828.75
444.255	2845.75
444.476	2899.75
444.698	2935.75
444.919	2985.75
445.14	2994.75
445.361	2973.75
445.582	2928.75
445.803	2854.75
446.024	2753.75
446.245	2775.75
446.466	2735.75
446.687	2717.75
446.908	2750.75
447.129	2639.75
447.35	2659.75
447.571	2626.75
447.792	2588.75
448.013	2563.75
448.234	2520.75
448.455	2570.75
448.675	2623.75
448.896	2692.75
449.117	2783.75
449.338	2947.75
449.559	3137.75
449.779	2855.75
450	2561.75
450.221	2535.75
450.442	2521.75
450.662	2543.75
450.883	2503.75
451.104	2515.75
451.324	2508.75
451.545	2505.75
451.766	2525.75
451.986	2643.75
452.207	2773.75
452.428	3648.75
452.648	5637.75
452.869	4702.75
453.089	3209.75
453.31	2923.75
453.53	2953.75
453.751	3037.75
453.971	3214.75
454.192	3141.75
454.412	2689.75
454.633	2577.75
454.853	2478.75
455.073	2441.75
455.294	2468.75
455.514	2386.75
455.734	2404.75
455.955	2351.75
456.175	2386.75
456.395	2404.75
456.616	2426.75
456.836	2501.75
457.056	2417.75
457.276	2421.75
457.497	2582.75
457.717	2586.75
457.937	2559.75
458.157	2507.75
458.377	2523.75
458.598	2579.75
458.818	2604.75
459.038	2560.75
459.258	2587.75
459.478	2582.75
459.698	2626.75
459.918	2632.75
460.138	2730.75
460.358	2802.75
460.578	2811.75
460.798	2853.75
461.018	2772.75
461.238	2774.75
461.458	2867.75
461.678	2933.75
461.898	2987.75
462.118	2952.75
462.338	3027.75
462.558	3036.75
462.777	3064.75
462.997	3185.75
463.217	3382.75
463.437	3488.75
463.657	3563.75
463.876	3523.75
464.096	3297.75
464.316	3201.75
464.536	3145.75
464.755	3077.75
464.975	3005.75
465.195	2905.75
465.414	2804.75
465.634	2747.75
465.854	2690.75
466.073	2697.75
466.293	2628.75
466.512	2619.75
466.732	2664.75
466.951	2791.75
467.171	2989.75
467.391	2959.75
467.61	2703.75
467.829	2649.75
468.049	2591.75
468.268	2526.75
468.488	2565.75
468.707	2571.75
468.927	2523.75
469.146	2477.75
469.365	2590.75
469.585	2597.75
469.804	2708.75
470.023	2750.75
470.243	2757.75
470.462	2857.75
470.681	3031.75
470.901	3323.75
471.12	3804.75
471.339	3685.75
471.558	3157.75
471.777	2871.75
471.997	2776.75
472.216	2686.75
472.435	2666.75
472.654	2587.75
472.873	2598.75
473.092	2591.75
473.311	2601.75
473.53	2575.75
473.749	2680.75
473.968	2769.75
474.187	2630.75
474.406	2619.75
474.625	2585.75
474.844	2555.75
475.063	2607.75
475.282	2619.75
475.501	2619.75
475.72	2636.75
475.939	2670.75
476.158	2696.75
476.377	2760.75
476.596	2686.75
476.814	2751.75
477.033	2727.75
477.252	2748.75
477.471	2794.75
477.69	2865.75
477.908	2883.75
478.127	2957.75
478.346	2949.75
478.564	2989.75
478.783	3019.75
479.002	3050.75
479.22	3091.75
479.439	3110.75
479.658	3066.75
479.876	3052.75
480.095	3078.75
480.313	3193.75
480.532	3165.75
480.751	3193.75
480.969	3111.75
481.188	3128.75
481.406	3110.75
481.624	3157.75
481.843	3158.75
482.061	3180.75
482.28	3180.75
482.498	3093.75
482.717	3089.75
482.935	3174.75
483.153	3217.75
483.372	3260.75
483.59	3282.75
483.808	3317.75
484.027	3397.75
484.245	3633.75
484.463	4110.75
484.681	4575.75
484.9	4146.75
485.118	3788.75
485.336	3727.75
485.554	3739.75
485.772	3943.75
485.99	4535.75
486.209	4923.75
486.427	4115.75
486.645	3639.75
486.863	3479.75
487.081	3410.75
487.299	3297.75
487.517	3361.75
487.735	3412.75
487.953	3359.75
488.171	3352.75
488.389	3315.75
488.607	3292.75
488.825	3185.75
489.043	3169.75
489.261	3228.75
489.479	3247.75
489.696	3236.75
489.914	3222.75
490.132	3234.75
490.35	3277.75
490.568	3243.75
490.786	3316.75
491.003	3347.75
491.221	3387.75
491.439	3390.75
491.657	3308.75
491.874	3368.75
492.092	3382.75
492.31	3425.75
492.527	3352.75
492.745	3415.75
492.963	3397.75
493.18	3385.75
493.398	3349.75
493.615	3331.75
493.833	3380.75
494.05	3390.75
494.268	3450.75
494.485	3419.75
494.703	3377.75
494.92	3399.75
495.138	3419.75
495.355	3395.75
495.573	3433.75
495.79	3429.75
496.008	3453.75
496.225	3499.75
496.442	3544.75
496.66	3652.75
496.877	3849.75
497.094	3824.75
497.312	3685.75
497.529	3617.75
497.746	3639.75
497.963	3725.75
498.181	3808.75
498.398	3906.75
498.615	4062.75
498.832	4227.75
499.049	4390.75
499.267	4745.75
499.484	5027.75
499.701	4930.75
499.918	5041.75
500.135	5405.75
500.352	5674.75
500.569	5730.75
500.786	5690.75
501.003	5509.75
501.22	5228.75
501.437	4962.75
501.654	4723.75
501.871	4548.75
502.088	4299.75
502.305	4170.75
502.522	4094.75
502.739	3984.75
502.956	3795.75
503.172	3770.75
503.389	3679.75
503.606	3681.75
503.823	3525.75
504.04	3560.75
504.256	3521.75
504.473	3541.75
504.69	3521.75
504.907	3470.75
505.123	3410.75
505.34	3329.75
505.557	3227.75
505.773	3199.75
505.99	3211.75
506.207	3159.75
506.423	3109.75
506.64	3069.75
506.856	3050.75
507.073	3029.75
507.289	3006.75
507.506	3007.75
507.722	2974.75
507.939	2981.75
508.155	2901.75
508.372	2929.75
508.588	2931.75
508.805	2938.75
509.021	2929.75
509.238	2989.75
509.454	3196.75
509.67	3356.75
509.887	3128.75
510.103	2991.75
510.319	2990.75
510.536	2938.75
510.752	2889.75
510.968	2862.75
511.184	2799.75
511.401	2792.75
511.617	2830.75
511.833	2807.75
512.049	2813.75
512.265	2777.75
512.481	2796.75
512.698	2778.75
512.914	2790.75
513.13	2835.75
513.346	2789.75
513.562	2791.75
513.778	2838.75
513.994	2892.75
514.21	2941.75
514.426	3136.75
514.642	3313.75
514.858	3007.75
515.074	2892.75
515.29	2834.75
515.506	2881.75
515.721	2931.75
515.937	2884.75
516.153	2921.75
516.369	2960.75
516.585	2958.75
516.801	3016.75
517.016	3074.75
517.232	3113.75
517.448	3149.75
517.664	3211.75
517.879	3172.75
518.095	3169.75
518.311	3166.75
518.527	3116.75
518.742	3131.75
518.958	3128.75
519.173	3196.75
519.389	3103.75
519.605	2951.75
519.82	2954.75
520.036	2894.75
520.251	2869.75
520.467	2829.75
520.682	2811.75
520.898	2819.75
521.113	2768.75
521.329	2778.75
521.544	2714.75
521.76	2830.75
521.975	2774.75
522.19	2731.75
522.406	2740.75
522.621	2731.75
522.836	2683.75
523.052	2685.75
523.267	2678.75
523.482	2695.75
523.698	2690.75
523.913	2643.75
524.128	2678.75
524.343	2722.75
524.559	2687.75
524.774	2629.75
524.989	2649.75
525.204	2704.75
525.419	2649.75
525.634	2687.75
525.849	2717.75
526.064	2705.75
526.28	2677.75
526.495	2681.75
526.71	2694.75
526.925	2653.75
527.14	2686.75
527.355	2666.75
527.57	2690.75
527.785	2707.75
527.999	2754.75
528.214	2739.75
528.429	2745.75
528.644	2846.75
528.859	2812.75
529.074	2871.75
529.289	2892.75
529.503	2889.75
529.718	2829.75
529.933	2869.75
530.148	2841.75
530.363	2919.75
530.577	2831.75
530.792	2839.75
531.007	2892.75
531.221	2885.75
531.436	2977.75
531.651	2952.75
531.865	2959.75
532.08	3074.75
532.295	3208.75
532.509	3357.75
532.724	3371.75
532.938	3405.75
533.153	3539.75
533.367	3778.75
533.582	4001.75
533.796	3905.75
534.011	3777.75
534.225	3591.75
534.44	3478.75
534.654	3342.75
534.868	3345.75
535.083	3209.75
535.297	3218.75
535.511	3136.75
535.726	3084.75
535.94	3046.75
536.154	3002.75
536.369	2936.75
536.583	2885.75
536.797	2851.75
537.011	2841.75
537.225	2791.75
537.44	2836.75
537.654	2771.75
537.868	2749.75
538.082	2699.75
538.296	2665.75
538.51	2649.75
538.724	2661.75
538.938	2714.75
539.153	2689.75
539.367	2640.75
539.581	2639.75
539.795	2555.75
540.009	2575.75
540.222	2595.75
540.436	2628.75
540.65	2604.75
540.864	2597.75
541.078	2718.75
541.292	2829.75
541.506	3357.75
541.72	3511.75
541.934	3003.75
542.147	2848.75
542.361	2759.75
542.575	2647.75
542.789	2577.75
543.002	2547.75
543.216	2527.75
543.43	2497.75
543.644	2504.75
543.857	2479.75
544.071	2490.75
544.285	2529.75
544.498	2519.75
544.712	2538.75
544.925	2578.75
545.139	2546.75
545.352	2526.75
545.566	2535.75
545.779	2513.75
545.993	2521.75
546.206	2596.75
546.42	2523.75
546.633	2506.75
546.847	2529.75
547.06	2547.75
547.274	2526.75
547.487	2522.75
547.7	2551.75
547.914	2559.75
548.127	2528.75
548.34	2540.75
548.554	2541.75
548.767	2531.75
548.98	2538.75
549.193	2514.75
549.407	2532.75
549.62	2529.75
549.833	2541.75
550.046	2571.75
550.259	2562.75
550.473	2533.75
550.686	2530.75
550.899	2512.75
551.112	2553.75
551.325	2492.75
551.538	2549.75
551.751	2507.75
551.964	2489.75
552.177	2612.75
552.39	2617.75
552.603	2682.75
552.816	2668.75
553.029	2700.75
553.242	2806.75
553.455	2749.75
553.667	2773.75
553.88	2799.75
554.093	2826.75
554.306	2833.75
554.519	2930.75
554.732	2919.75
554.944	2964.75
555.157	3015.75
555.37	3139.75
555.583	3260.75
555.795	3386.75
556.008	3698.75
556.221	4125.75
556.433	4393.75
556.646	4424.75
556.859	4163.75
557.071	3999.75
557.284	3969.75
557.496	3837.75
557.709	3737.75
557.921	3674.75
558.134	3687.75
558.346	3783.75
558.559	3912.75
558.771	4072.75
558.984	4503.75
559.196	4864.75
559.409	4591.75
559.621	4234.75
559.833	3961.75
560.046	3722.75
560.258	3522.75
560.47	3310.75
560.683	3209.75
560.895	3153.75
561.107	3002.75
561.32	2911.75
561.532	2831.75
561.744	2824.75
561.956	2791.75
562.168	2705.75
562.381	2670.75
562.593	2639.75
562.805	2660.75
563.017	2716.75
563.229	2720.75
563.441	3234.75
563.653	2625.75
563.865	2446.75
564.077	2462.75
564.289	2358.75
564.501	2360.75
564.713	2348.75
564.925	2339.75
565.137	2325.75
565.349	2313.75
565.561	2328.75
565.773	2386.75
565.985	2379.75
566.197	2395.75
566.408	2464.75
566.62	2542.75
566.832	2551.75
567.044	2598.75
567.255	2587.75
567.467	2627.75
567.679	2669.75
567.891	2892.75
568.102	3118.75
568.314	3546.75
568.526	3130.75
568.737	2666.75
568.949	2460.75
569.161	2314.75
569.372	2248.75
569.584	2233.75
569.795	2167.75
570.007	2122.75
570.218	2175.75
570.43	2257.75
570.641	2049.75
570.853	2007.75
571.064	2017.75
571.276	1983.75
571.487	1894.75
571.698	1873.75
571.91	1845.75
572.121	1855.75
572.333	1896.75
572.544	1846.75
572.755	1993.75
572.966	2349.75
573.178	2151.75
573.389	1887.75
573.6	1819.75
573.811	1774.75
574.023	1735.75
574.234	1748.75
574.445	1724.75
574.656	1707.75
574.867	1681.75
575.078	1707.75
575.289	1725.75
575.501	1683.75
575.712	1705.75
575.923	1676.75
576.134	1693.75
576.345	1669.75
576.556	1671.75
576.767	1678.75
576.978	1709.75
577.188	1717.75
577.399	1751.75
577.61	1765.75
577.821	1754.75
578.032	1763.75
578.243	1797.75
578.454	1869.75
578.665	1843.75
578.875	1900.75
579.086	1972.75
579.297	2070.75
579.508	2208.75
579.718	2385.75
579.929	2766.75
580.14	3175.75
580.35	3261.75
580.561	3025.75
580.772	2728.75
580.982	2517.75
581.193	2289.75
581.403	2229.75
581.614	2113.75
581.825	2008.75
582.035	1913.75
582.246	1904.75
582.456	1814.75
582.667	1788.75
582.877	1766.75
583.087	1752.75
583.298	1599.75
583.508	1609.75
583.719	1546.75
583.929	1548.75
584.139	1531.75
584.35	1492.75
584.56	1460.75
584.77	1435.75
584.981	1434.75
585.191	1395.75
585.401	1355.75
585.611	1397.75
585.821	1360.75
586.032	1355.75
586.242	1327.75
586.452	1329.75
586.662	1306.75
586.872	1268.75
587.082	1322.75
587.292	1283.75
587.502	1238.75
587.713	1261.75
587.923	1236.75
588.133	1243.75
588.343	1248.75
588.553	1232.75
588.762	1204.75
588.972	1199.75
589.182	1188.75
589.392	1157.75
589.602	1204.75
589.812	1198.75
590.022	1210.75
590.232	1128.75
590.441	1158.75
590.651	1196.75
590.861	1159.75
591.071	1156.75
591.281	1137.75
591.49	1150.75
591.7	1207.75
591.91	1201.75
592.119	1168.75
592.329	1150.75
592.539	1194.75
592.748	1213.75
592.958	1194.75
593.167	1197.75
593.377	1224.75
593.587	1189.75
593.796	1215.75
594.006	1219.75
594.215	1213.75
594.424	1187.75
594.634	1180.75
594.843	1132.75
595.053	1135.75
595.262	1145.75
595.472	1142.75
595.681	1099.75
595.89	1106.75
596.1	1085.75
596.309	1066.75
596.518	1063.75
596.727	1070.75
596.937	1031.75
597.146	1016.75
597.355	1043.75
597.564	1018.75
597.774	991.75
597.983	993.75
598.192	983.75
598.401	996.75
598.61	956.75
598.819	955.75
599.028	953.75
599.237	959.75
599.446	929.75
599.655	952.75
599.864	968.75
600.073	940.75
600.282	949.75
600.491	929.75
600.7	940.75
600.909	931.75
601.118	963.75
601.327	922.75
601.536	929.75
601.745	945.75
601.953	1082.75
602.162	1212.75
602.371	1042.75
602.58	991.75
602.789	964.75
602.997	953.75
603.206	950.75
603.415	911.75
603.623	921.75
603.832	920.75
604.041	917.75
604.249	912.75
604.458	879.75
604.666	901.75
604.875	862.75
605.084	886.75
605.292	876.75
605.501	883.75
605.709	891.75
605.918	903.75
606.126	907.75
606.334	896.75
606.543	916.75
606.751	1010.75
606.96	1111.75
607.168	1237.75
607.376	1049.75
607.585	970.75
607.793	932.75
608.001	904.75
608.21	883.75
608.418	885.75
608.626	876.75
608.834	888.75
609.043	871.75
609.251	847.75
609.459	838.75
609.667	845.75
609.875	841.75
610.083	845.75
610.291	850.75
610.499	834.75
610.707	845.75
610.916	809.75
611.124	796.75
611.332	805.75
611.54	819.75
611.748	814.75
611.955	799.75
612.163	798.75
612.371	804.75
612.579	780.75
612.787	780.75
612.995	792.75
613.203	792.75
613.411	796.75
613.618	775.75
613.826	789.75
614.034	799.75
614.242	793.75
614.449	783.75
614.657	787.75
614.865	807.75
615.072	801.75
615.28	831.75
615.488	798.75
615.695	783.75
615.903	766.75
616.111	786.75
616.318	779.75
616.526	786.75
616.733	782.75
616.941	771.75
617.148	791.75
617.356	765.75
617.563	782.75
617.771	779.75
617.978	740.75
618.185	763.75
618.393	756.75
618.6	734.75
618.807	738.75
619.015	732.75
619.222	758.75
619.429	727.75
619.637	730.75
619.844	724.75
620.051	745.75
620.258	719.75
620.466	725.75
620.673	682.75
620.88	677.75
621.087	685.75
621.294	695.75
621.501	713.75
621.708	713.75
621.915	701.75
622.122	684.75
622.329	686.75
622.536	718.75
622.743	668.75
622.95	693.75
623.157	682.75
623.364	696.75
623.571	689.75
623.778	693.75
623.985	676.75
624.192	683.75
624.399	678.75
624.606	653.75
624.812	667.75
625.019	672.75
625.226	669.75
625.433	659.75
625.639	638.75
625.846	629.75
626.053	649.75
626.259	606.75
626.466	616.75
626.673	641.75
626.879	628.75
627.086	621.75
627.293	639.75
627.499	618.75
627.706	650.75
627.912	637.75
628.119	652.75
628.325	636.75
628.532	634.75
628.738	620.75
628.945	629.75
629.151	611.75
629.357	623.75
629.564	615.75
629.77	640.75
629.976	614.75
630.183	596.75
630.389	607.75
630.595	594.75
630.802	578.75
631.008	593.75
631.214	602.75
631.42	600.75
631.627	587.75
631.833	609.75
632.039	576.75
632.245	577.75
632.451	589.75
632.657	587.75
632.863	601.75
633.069	612.75
633.275	599.75
633.481	578.75
633.688	571.75
633.893	581.75
634.099	589.75
634.305	581.75
634.511	591.75
634.717	602.75
634.923	619.75
635.129	691.75
635.335	790.75
635.541	707.75
635.747	624.75
635.952	619.75
636.158	609.75
636.364	590.75
636.57	609.75
636.775	615.75
636.981	591.75
637.187	583.75
637.392	564.75
637.598	574.75
637.804	560.75
638.009	590.75
638.215	595.75
638.421	565.75
638.626	587.75
638.832	603.75
639.037	591.75
639.243	583.75
639.448	590.75
639.654	588.75
639.859	598.75
640.065	589.75
640.27	634.75
640.475	599.75
640.681	616.75
640.886	646.75
641.091	627.75
641.297	613.75
641.502	627.75
641.707	627.75
641.913	650.75
642.118	661.75
642.323	677.75
642.528	696.75
642.733	691.75
642.939	723.75
643.144	698.75
643.349	727.75
643.554	779.75
643.759	822.75
643.964	855.75
644.169	906.75
644.374	953.75
644.579	1050.75
644.784	1168.75
644.989	1307.75
645.194	1539.75
645.399	1908.75
645.604	2037.75
645.809	1509.75
646.014	1148.75
646.219	952.75
646.423	834.75
646.628	781.75
646.833	709.75
647.038	694.75
647.243	659.75
647.447	645.75
647.652	610.75
647.857	597.75
648.062	561.75
648.266	548.75
648.471	556.75
648.676	554.75
648.88	553.75
649.085	516.75
649.289	501.75
649.494	490.75
649.698	489.75
649.903	493.75
650.107	480.75
650.312	488.75
650.516	467.75
650.721	455.75
650.925	468.75
651.13	444.75
651.334	444.75
651.539	446.75
651.743	419.75
651.947	422.75
652.152	435.75
652.356	440.75
652.56	447.75
652.764	529.75
652.969	473.75
653.173	414.75
653.377	426.75
653.581	384.75
653.785	377.75
653.99	374.75
654.194	359.75
654.398	373.75
654.602	337.75
654.806	326.75
655.01	350.75
655.214	367.75
655.418	354.75
655.622	349.75
655.826	341.75
656.03	378.75
656.234	356.75
656.438	358.75
656.642	390.75
656.846	359.75
657.049	349.75
657.253	321.75
657.457	321.75
657.661	310.75
657.865	294.75
658.068	254.75
658.272	245.75
658.476	231.75
658.68	221.75
658.883	219.75
659.087	215.75
659.291	207.75
659.494	191.75
659.698	201.75
659.901	189.75
660.105	174.75
660.309	173.75
660.512	167.75
660.716	142.75
660.919	146.75
661.123	147.75
661.326	156.75
661.53	127.75
661.733	138.75
661.936	115.75
662.14	124.75
662.343	122.75
662.546	118.75
662.75	102.75
662.953	110.75
663.156	108.75
663.36	92.75
663.563	109.75
663.766	102.75
663.969	99.75
664.173	92.75
664.376	94.75
664.579	102.75
664.782	95.75
664.985	89.75
665.188	82.75
665.391	86.75
665.594	86.75
665.797	96.75
666	94.75
666.203	94.75
666.406	92.75
666.609	91.75
666.812	98.75
667.015	90.75
667.218	93.75
667.421	80.75
667.624	85.75
667.827	90.75
668.03	93.75
668.232	98.75
668.435	87.75
668.638	89.75
668.841	92.75
669.043	93.75
669.246	87.75
669.449	87.75
669.651	90.75
669.854	98.75
670.057	91.75
670.259	95.75
670.462	92.75
670.665	90.75
670.867	99.75
671.07	98.75
671.272	97.75
671.475	89.75
671.677	85.75
671.88	94.75
672.082	85.75
672.284	84.75
672.487	94.75
672.689	70.75
672.892	78.75
