Data from SnStandardFlinnAPT0064_LampEnergy10_LIBS07252019.E.O._I.C._HRD10591_15-21-46-494.txt Node
Date: Thu Jul 25 15:21:46 EDT 2019
User: cochatt
Spectrometer: HR+D1059
Trigger mode: 1
Integration Time (sec): 1.000000E-1
Scans to average: 1
Electric dark correction enabled: true
Nonlinearity correction enabled: false
Boxcar width: 0
XAxis mode: Wavelengths
Number of Pixels in Spectrum: 2048
>>>>>Begin Spectral Data<<<<<
223.165	-22.5
223.4	-22.5
223.635	-22.5
223.869	-18.5
224.104	-27.5
224.338	-18.5
224.573	-20.5
224.808	-10.5
225.042	-7.5
225.277	-10.5
225.511	5.5
225.746	3.5
225.98	9.5
226.215	22.5
226.449	15.5
226.683	25.5
226.918	23.5
227.152	30.5
227.387	38.5
227.621	37.5
227.856	55.5
228.09	44.5
228.324	53.5
228.559	57.5
228.793	125.5
229.027	311.5
229.262	336.5
229.496	309.5
229.73	312.5
229.964	291.5
230.199	288.5
230.433	295.5
230.667	315.5
230.901	315.5
231.136	346.5
231.37	330.5
231.604	376.5
231.838	429.5
232.072	505.5
232.306	568.5
232.541	459.5
232.775	432.5
233.009	394.5
233.243	431.5
233.477	449.5
233.711	519.5
233.945	573.5
234.179	519.5
234.413	452.5
234.647	427.5
234.881	449.5
235.115	513.5
235.349	594.5
235.583	747.5
235.817	960.5
236.051	941.5
236.285	646.5
236.519	523.5
236.753	517.5
236.987	507.5
237.221	548.5
237.455	523.5
237.689	469.5
237.922	452.5
238.156	457.5
238.39	475.5
238.624	478.5
238.858	479.5
239.091	484.5
239.325	483.5
239.559	501.5
239.793	509.5
240.027	515.5
240.26	539.5
240.494	576.5
240.728	559.5
240.961	596.5
241.195	673.5
241.429	672.5
241.662	698.5
241.896	768.5
242.13	917.5
242.363	1224.5
242.597	1573.5
242.83	1504.5
243.064	1479.5
243.298	1715.5
243.531	1446.5
243.765	935.5
243.998	748.5
244.232	679.5
244.465	659.5
244.699	640.5
244.932	644.5
245.166	656.5
245.399	709.5
245.633	703.5
245.866	687.5
246.099	662.5
246.333	623.5
246.566	614.5
246.8	631.5
247.033	635.5
247.266	623.5
247.5	648.5
247.733	666.5
247.966	697.5
248.2	727.5
248.433	840.5
248.666	946.5
248.899	945.5
249.133	846.5
249.366	877.5
249.599	988.5
249.832	1076.5
250.066	1051.5
250.299	839.5
250.532	767.5
250.765	771.5
250.998	742.5
251.231	724.5
251.465	730.5
251.698	743.5
251.931	724.5
252.164	697.5
252.397	752.5
252.63	776.5
252.863	801.5
253.096	778.5
253.329	753.5
253.562	759.5
253.795	771.5
254.028	791.5
254.261	783.5
254.494	859.5
254.727	993.5
254.96	1251.5
255.193	1175.5
255.426	953.5
255.659	865.5
255.892	832.5
256.124	862.5
256.357	901.5
256.59	902.5
256.823	985.5
257.056	1087.5
257.289	1340.5
257.521	1472.5
257.754	1201.5
257.987	957.5
258.22	928.5
258.452	905.5
258.685	913.5
258.918	948.5
259.151	981.5
259.383	1063.5
259.616	1212.5
259.849	1284.5
260.081	1055.5
260.314	998.5
260.547	965.5
260.779	935.5
261.012	937.5
261.244	948.5
261.477	987.5
261.71	968.5
261.942	1011.5
262.175	1025.5
262.407	1022.5
262.64	1057.5
262.872	1088.5
263.105	1096.5
263.337	1178.5
263.57	1265.5
263.802	1304.5
264.035	1308.5
264.267	1355.5
264.499	1401.5
264.732	1386.5
264.964	1425.5
265.197	1441.5
265.429	1433.5
265.661	1462.5
265.894	1596.5
266.126	1748.5
266.358	1950.5
266.591	1896.5
266.823	1615.5
267.055	1447.5
267.287	1390.5
267.52	1346.5
267.752	1308.5
267.984	1298.5
268.216	1302.5
268.448	1235.5
268.681	1218.5
268.913	1240.5
269.145	1224.5
269.377	1228.5
269.609	1247.5
269.841	1300.5
270.073	1395.5
270.306	1567.5
270.538	2120.5
270.77	3152.5
271.002	3864.5
271.234	2751.5
271.466	1829.5
271.698	1531.5
271.93	1387.5
272.162	1329.5
272.394	1285.5
272.626	1233.5
272.858	1221.5
273.09	1213.5
273.322	1208.5
273.553	1216.5
273.785	1196.5
274.017	1193.5
274.249	1195.5
274.481	1199.5
274.713	1199.5
274.945	1217.5
275.176	1199.5
275.408	1181.5
275.64	1222.5
275.872	1227.5
276.104	1228.5
276.335	1237.5
276.567	1218.5
276.799	1260.5
277.031	1283.5
277.262	1324.5
277.494	1358.5
277.726	1548.5
277.957	1785.5
278.189	2066.5
278.421	1959.5
278.652	1722.5
278.884	1661.5
279.115	1470.5
279.347	1413.5
279.579	1416.5
279.81	1363.5
280.042	1375.5
280.273	1402.5
280.505	1447.5
280.736	1466.5
280.968	1558.5
281.199	1738.5
281.431	2007.5
281.662	2069.5
281.894	1742.5
282.125	1638.5
282.356	1623.5
282.588	1636.5
282.819	1697.5
283.051	1819.5
283.282	1971.5
283.513	2405.5
283.745	3493.5
283.976	5479.5
284.207	7743.5
284.439	7047.5
284.67	4408.5
284.901	3639.5
285.132	3657.5
285.364	3454.5
285.595	2652.5
285.826	2375.5
286.057	2819.5
286.288	3756.5
286.52	5039.5
286.751	4693.5
286.982	2981.5
287.213	2249.5
287.444	1929.5
287.675	1862.5
287.906	1810.5
288.138	1697.5
288.369	1691.5
288.6	1696.5
288.831	1651.5
289.062	1668.5
289.293	1654.5
289.524	1652.5
289.755	1725.5
289.986	1689.5
290.217	1743.5
290.448	1688.5
290.679	1729.5
290.91	1750.5
291.141	1870.5
291.371	2021.5
291.602	2085.5
291.833	1891.5
292.064	1747.5
292.295	1664.5
292.526	1624.5
292.757	1631.5
292.987	1594.5
293.218	1560.5
293.449	1594.5
293.68	1562.5
293.91	1568.5
294.141	1547.5
294.372	1545.5
294.603	1544.5
294.833	1520.5
295.064	1574.5
295.295	1563.5
295.525	1561.5
295.756	1537.5
295.987	1565.5
296.217	1574.5
296.448	1540.5
296.679	1572.5
296.909	1580.5
297.14	1589.5
297.37	1618.5
297.601	1616.5
297.831	1602.5
298.062	1618.5
298.292	1641.5
298.523	1681.5
298.753	1705.5
298.984	1732.5
299.214	1741.5
299.445	1698.5
299.675	1749.5
299.905	1823.5
300.136	1908.5
300.366	2125.5
300.597	2665.5
300.827	3763.5
301.057	5014.5
301.288	5066.5
301.518	3330.5
301.748	2554.5
301.979	2344.5
302.209	2233.5
302.439	2292.5
302.669	2415.5
302.9	2892.5
303.13	4047.5
303.36	5978.5
303.59	7919.5
303.82	6876.5
304.051	4123.5
304.281	2984.5
304.511	2499.5
304.741	2285.5
304.971	2104.5
305.201	2051.5
305.431	1990.5
305.661	1975.5
305.891	1902.5
306.121	1892.5
306.352	1887.5
306.582	1845.5
306.812	1810.5
307.042	1847.5
307.272	1824.5
307.502	1768.5
307.731	1819.5
307.961	1821.5
308.191	1816.5
308.421	1793.5
308.651	1801.5
308.881	1861.5
309.111	1784.5
309.341	1813.5
309.571	1854.5
309.8	1835.5
310.03	1880.5
310.26	1845.5
310.49	1861.5
310.72	1846.5
310.949	1891.5
311.179	1902.5
311.409	1933.5
311.639	1888.5
311.868	1921.5
312.098	1955.5
312.328	1946.5
312.557	1958.5
312.787	1983.5
313.017	1960.5
313.246	1998.5
313.476	2029.5
313.706	2087.5
313.935	2127.5
314.165	2336.5
314.394	2496.5
314.624	2324.5
314.853	2166.5
315.083	2113.5
315.312	2126.5
315.542	2195.5
315.771	2211.5
316.001	2224.5
316.23	2264.5
316.46	2413.5
316.689	2657.5
316.919	3164.5
317.148	4471.5
317.377	6939.5
317.607	10117.5
317.836	10466.5
318.065	6380.5
318.295	4203.5
318.524	3396.5
318.753	2910.5
318.983	2740.5
319.212	2594.5
319.441	2487.5
319.67	2478.5
319.9	2376.5
320.129	2351.5
320.358	2327.5
320.587	2308.5
320.816	2358.5
321.046	2349.5
321.275	2299.5
321.504	2334.5
321.733	2443.5
321.962	2459.5
322.191	2532.5
322.42	2484.5
322.649	2468.5
322.878	2470.5
323.108	2497.5
323.337	2536.5
323.566	2533.5
323.795	2612.5
324.024	2657.5
324.253	2713.5
324.482	2793.5
324.71	2957.5
324.939	3151.5
325.168	3230.5
325.397	3373.5
325.626	3939.5
325.855	5511.5
326.084	8550.5
326.313	12393.5
326.542	13159.5
326.77	8831.5
326.999	5864.5
327.228	4953.5
327.457	4644.5
327.686	4758.5
327.914	5055.5
328.143	5906.5
328.372	7051.5
328.6	7654.5
328.829	6897.5
329.058	5755.5
329.287	5074.5
329.515	4580.5
329.744	4239.5
329.972	4020.5
330.201	3867.5
330.43	3751.5
330.658	3630.5
330.887	3525.5
331.115	3491.5
331.344	3422.5
331.572	3494.5
331.801	3441.5
332.03	3453.5
332.258	3546.5
332.486	3770.5
332.715	4261.5
332.943	5241.5
333.172	6545.5
333.4	6474.5
333.629	4915.5
333.857	4483.5
334.085	4454.5
334.314	4728.5
334.542	5115.5
334.771	5996.5
334.999	7388.5
335.227	9291.5
335.455	10241.5
335.684	9247.5
335.912	7646.5
336.14	6433.5
336.369	5655.5
336.597	5184.5
336.825	4783.5
337.053	4495.5
337.281	4219.5
337.51	4088.5
337.738	3904.5
337.966	3709.5
338.194	3664.5
338.422	3516.5
338.65	3379.5
338.878	3292.5
339.106	3280.5
339.334	3201.5
339.562	3147.5
339.79	3073.5
340.018	3079.5
340.246	3038.5
340.474	3046.5
340.702	3057.5
340.93	3016.5
341.158	3037.5
341.386	3053.5
341.614	2967.5
341.842	2886.5
342.07	2877.5
342.298	2838.5
342.526	2782.5
342.754	2697.5
342.981	2716.5
343.209	2693.5
343.437	2723.5
343.665	2825.5
343.893	2821.5
344.12	2825.5
344.348	2782.5
344.576	2772.5
344.804	2724.5
345.031	2662.5
345.259	2639.5
345.487	2603.5
345.714	2592.5
345.942	2557.5
346.17	2568.5
346.397	2562.5
346.625	2525.5
346.853	2503.5
347.08	2518.5
347.308	2512.5
347.535	2515.5
347.763	2525.5
347.99	2464.5
348.218	2496.5
348.445	2422.5
348.673	2477.5
348.9	2470.5
349.128	2489.5
349.355	2457.5
349.583	2463.5
349.81	2387.5
350.037	2433.5
350.265	2399.5
350.492	2377.5
350.72	2376.5
350.947	2399.5
351.174	2382.5
351.402	2428.5
351.629	2414.5
351.856	2408.5
352.083	2405.5
352.311	2437.5
352.538	2372.5
352.765	2373.5
352.992	2351.5
353.22	2363.5
353.447	2381.5
353.674	2345.5
353.901	2441.5
354.128	2374.5
354.355	2418.5
354.583	2393.5
354.81	2419.5
355.037	2415.5
355.264	2438.5
355.491	2443.5
355.718	2455.5
355.945	2428.5
356.172	2469.5
356.399	2463.5
356.626	2448.5
356.853	2494.5
357.08	2545.5
357.307	2560.5
357.534	2568.5
357.761	2605.5
357.988	2559.5
358.215	2518.5
358.441	2510.5
358.668	2531.5
358.895	2555.5
359.122	2521.5
359.349	2591.5
359.576	2526.5
359.802	2503.5
360.029	2487.5
360.256	2536.5
360.483	2530.5
360.709	2490.5
360.936	2564.5
361.163	2626.5
361.39	2529.5
361.616	2543.5
361.843	2598.5
362.07	2600.5
362.296	2607.5
362.523	2579.5
362.749	2584.5
362.976	2493.5
363.203	2582.5
363.429	2541.5
363.656	2571.5
363.882	2552.5
364.109	2526.5
364.335	2532.5
364.562	2513.5
364.788	2533.5
365.015	2565.5
365.241	2687.5
365.468	2769.5
365.694	2937.5
365.92	2816.5
366.147	2653.5
366.373	2588.5
366.599	2613.5
366.826	2609.5
367.052	2596.5
367.278	2635.5
367.505	2599.5
367.731	2637.5
367.957	2639.5
368.184	2673.5
368.41	2698.5
368.636	2664.5
368.862	2695.5
369.089	2665.5
369.315	2678.5
369.541	2660.5
369.767	2674.5
369.993	2621.5
370.219	2645.5
370.445	2661.5
370.672	2707.5
370.898	2686.5
371.124	2689.5
371.35	2643.5
371.576	2726.5
371.802	2801.5
372.028	2754.5
372.254	2772.5
372.48	2734.5
372.706	2774.5
372.932	2798.5
373.158	2818.5
373.384	2833.5
373.61	2760.5
373.835	2782.5
374.061	2808.5
374.287	2845.5
374.513	2817.5
374.739	2898.5
374.965	2897.5
375.191	2940.5
375.416	2923.5
375.642	2841.5
375.868	2884.5
376.094	2855.5
376.319	2839.5
376.545	2755.5
376.771	2799.5
376.997	2771.5
377.222	2723.5
377.448	2727.5
377.674	2745.5
377.899	2760.5
378.125	2732.5
378.35	2707.5
378.576	2748.5
378.802	2789.5
379.027	2838.5
379.253	2914.5
379.478	3027.5
379.704	3537.5
379.929	5007.5
380.155	7648.5
380.38	8365.5
380.606	5108.5
380.831	3675.5
381.057	3164.5
381.282	2964.5
381.507	2877.5
381.733	2804.5
381.958	2759.5
382.184	2755.5
382.409	2721.5
382.634	2687.5
382.86	2624.5
383.085	2617.5
383.31	2668.5
383.535	2723.5
383.761	2699.5
383.986	2716.5
384.211	2760.5
384.436	2755.5
384.662	2815.5
384.887	2792.5
385.112	2756.5
385.337	2773.5
385.562	2809.5
385.787	2775.5
386.013	2817.5
386.238	2799.5
386.463	2805.5
386.688	2807.5
386.913	2740.5
387.138	2803.5
387.363	2802.5
387.588	2704.5
387.813	2758.5
388.038	2772.5
388.263	2771.5
388.488	2776.5
388.713	2808.5
388.938	2801.5
389.163	2757.5
389.387	2819.5
389.612	2718.5
389.837	2777.5
390.062	2725.5
390.287	2815.5
390.512	2817.5
390.736	2843.5
390.961	2830.5
391.186	2879.5
391.411	2899.5
391.636	2894.5
391.86	2925.5
392.085	2955.5
392.31	2916.5
392.534	2879.5
392.759	2861.5
392.984	2811.5
393.208	2818.5
393.433	2856.5
393.658	2853.5
393.882	2783.5
394.107	2801.5
394.331	2807.5
394.556	2808.5
394.78	2808.5
395.005	2891.5
395.229	2836.5
395.454	2886.5
395.678	2899.5
395.903	2903.5
396.127	2897.5
396.352	2791.5
396.576	2815.5
396.801	2829.5
397.025	2876.5
397.249	2898.5
397.474	2907.5
397.698	2919.5
397.922	2966.5
398.147	2901.5
398.371	2984.5
398.595	3039.5
398.82	3117.5
399.044	3248.5
399.268	3348.5
399.492	3550.5
399.717	3685.5
399.941	3691.5
400.165	3525.5
400.389	3399.5
400.613	3294.5
400.837	3170.5
401.062	3145.5
401.286	3043.5
401.51	3048.5
401.734	3035.5
401.958	3092.5
402.182	3104.5
402.406	3020.5
402.63	3087.5
402.854	3121.5
403.078	3105.5
403.302	3195.5
403.526	3159.5
403.75	3152.5
403.974	3230.5
404.198	3175.5
404.422	3132.5
404.645	3169.5
404.869	3128.5
405.093	3213.5
405.317	3236.5
405.541	3214.5
405.765	3287.5
405.988	3322.5
406.212	3285.5
406.436	3241.5
406.66	3269.5
406.883	3259.5
407.107	3384.5
407.331	3418.5
407.555	3451.5
407.778	3423.5
408.002	3363.5
408.226	3396.5
408.449	3423.5
408.673	3308.5
408.896	3267.5
409.12	3221.5
409.344	3237.5
409.567	3162.5
409.791	3174.5
410.014	3184.5
410.238	3165.5
410.461	3155.5
410.685	3140.5
410.908	3087.5
411.132	3062.5
411.355	3046.5
411.578	3037.5
411.802	3043.5
412.025	3060.5
412.249	3024.5
412.472	3013.5
412.695	2983.5
412.919	2953.5
413.142	3047.5
413.365	3004.5
413.589	3001.5
413.812	2963.5
414.035	3009.5
414.258	3055.5
414.482	3024.5
414.705	3009.5
414.928	2996.5
415.151	2976.5
415.374	2958.5
415.597	2953.5
415.821	2870.5
416.044	2847.5
416.267	2866.5
416.49	2910.5
416.713	2835.5
416.936	2901.5
417.159	2814.5
417.382	2877.5
417.605	2844.5
417.828	2859.5
418.051	2866.5
418.274	2894.5
418.497	2902.5
418.72	2962.5
418.943	2892.5
419.166	3081.5
419.389	3266.5
419.611	3174.5
419.834	3003.5
420.057	2995.5
420.28	2919.5
420.503	2834.5
420.726	2836.5
420.948	2820.5
421.171	2877.5
421.394	2897.5
421.617	2892.5
421.839	2850.5
422.062	2895.5
422.285	2838.5
422.507	2918.5
422.73	2966.5
422.953	2969.5
423.175	3008.5
423.398	3018.5
423.621	2900.5
423.843	2911.5
424.066	2930.5
424.288	2871.5
424.511	2859.5
424.733	2859.5
424.956	2836.5
425.178	2839.5
425.401	2883.5
425.623	2845.5
425.846	2757.5
426.068	2726.5
426.291	2770.5
426.513	2762.5
426.735	2794.5
426.958	2759.5
427.18	2694.5
427.402	2708.5
427.625	2700.5
427.847	2702.5
428.069	2655.5
428.292	2694.5
428.514	2643.5
428.736	2637.5
428.958	2686.5
429.181	2618.5
429.403	2591.5
429.625	2631.5
429.847	2668.5
430.069	2757.5
430.292	2769.5
430.514	2823.5
430.736	2859.5
430.958	2698.5
431.18	2588.5
431.402	2651.5
431.624	2608.5
431.846	2638.5
432.068	2607.5
432.29	2599.5
432.512	2575.5
432.734	2701.5
432.956	2593.5
433.178	2625.5
433.4	2631.5
433.622	2635.5
433.844	2665.5
434.066	2685.5
434.287	2691.5
434.509	2674.5
434.731	2704.5
434.953	2693.5
435.175	2731.5
435.397	2723.5
435.618	2689.5
435.84	2701.5
436.062	2624.5
436.284	2619.5
436.505	2632.5
436.727	2646.5
436.949	2639.5
437.17	2605.5
437.392	2583.5
437.614	2546.5
437.835	2533.5
438.057	2551.5
438.278	2496.5
438.5	2547.5
438.721	2581.5
438.943	2674.5
439.165	2689.5
439.386	2663.5
439.608	2709.5
439.829	2688.5
440.05	2847.5
440.272	2883.5
440.493	2701.5
440.715	2654.5
440.936	2697.5
441.158	2737.5
441.379	2800.5
441.6	2850.5
441.822	2911.5
442.043	3095.5
442.264	3158.5
442.486	2968.5
442.707	2860.5
442.928	2807.5
443.149	2776.5
443.371	2810.5
443.592	2839.5
443.813	2843.5
444.034	2864.5
444.255	2937.5
444.476	2923.5
444.698	3023.5
444.919	3009.5
445.14	3083.5
445.361	2982.5
445.582	2875.5
445.803	2841.5
446.024	2817.5
446.245	2823.5
446.466	2770.5
446.687	2712.5
446.908	2753.5
447.129	2692.5
447.35	2663.5
447.571	2641.5
447.792	2580.5
448.013	2638.5
448.234	2617.5
448.455	2575.5
448.675	2648.5
448.896	2708.5
449.117	2757.5
449.338	3006.5
449.559	3099.5
449.779	2835.5
450	2652.5
450.221	2583.5
450.442	2536.5
450.662	2535.5
450.883	2537.5
451.104	2523.5
451.324	2502.5
451.545	2496.5
451.766	2485.5
451.986	2583.5
452.207	2830.5
452.428	3643.5
452.648	5331.5
452.869	4396.5
453.089	3141.5
453.31	2934.5
453.53	2928.5
453.751	2942.5
453.971	3094.5
454.192	3099.5
454.412	2695.5
454.633	2512.5
454.853	2445.5
455.073	2479.5
455.294	2432.5
455.514	2414.5
455.734	2393.5
455.955	2409.5
456.175	2423.5
456.395	2390.5
456.616	2419.5
456.836	2472.5
457.056	2495.5
457.276	2491.5
457.497	2638.5
457.717	2629.5
457.937	2560.5
458.157	2532.5
458.377	2598.5
458.598	2571.5
458.818	2562.5
459.038	2595.5
459.258	2626.5
459.478	2659.5
459.698	2669.5
459.918	2712.5
460.138	2752.5
460.358	2799.5
460.578	2801.5
460.798	2795.5
461.018	2871.5
461.238	2917.5
461.458	2879.5
461.678	2859.5
461.898	2975.5
462.118	2965.5
462.338	3041.5
462.558	2994.5
462.777	3110.5
462.997	3261.5
463.217	3393.5
463.437	3432.5
463.657	3522.5
463.876	3558.5
464.096	3373.5
464.316	3223.5
464.536	3167.5
464.755	3127.5
464.975	3065.5
465.195	2889.5
465.414	2876.5
465.634	2738.5
465.854	2731.5
466.073	2718.5
466.293	2687.5
466.512	2674.5
466.732	2739.5
466.951	2781.5
467.171	2996.5
467.391	2900.5
467.61	2695.5
467.829	2625.5
468.049	2624.5
468.268	2572.5
468.488	2533.5
468.707	2515.5
468.927	2553.5
469.146	2551.5
469.365	2616.5
469.585	2615.5
469.804	2706.5
470.023	2719.5
470.243	2748.5
470.462	2846.5
470.681	2987.5
470.901	3284.5
471.12	3694.5
471.339	3759.5
471.558	3100.5
471.777	2891.5
471.997	2720.5
472.216	2729.5
472.435	2676.5
472.654	2589.5
472.873	2577.5
473.092	2621.5
473.311	2547.5
473.53	2613.5
473.749	2670.5
473.968	2753.5
474.187	2599.5
474.406	2620.5
474.625	2630.5
474.844	2609.5
475.063	2627.5
475.282	2621.5
475.501	2623.5
475.72	2596.5
475.939	2645.5
476.158	2718.5
476.377	2741.5
476.596	2752.5
476.814	2727.5
477.033	2756.5
477.252	2760.5
477.471	2869.5
477.69	2888.5
477.908	2926.5
478.127	3004.5
478.346	2950.5
478.564	3026.5
478.783	3017.5
479.002	3092.5
479.22	3067.5
479.439	3093.5
479.658	3117.5
479.876	3143.5
480.095	3169.5
480.313	3190.5
480.532	3237.5
480.751	3207.5
480.969	3172.5
481.188	3127.5
481.406	3105.5
481.624	3120.5
481.843	3216.5
482.061	3218.5
482.28	3170.5
482.498	3180.5
482.717	3150.5
482.935	3225.5
483.153	3193.5
483.372	3273.5
483.59	3309.5
483.808	3355.5
484.027	3391.5
484.245	3575.5
484.463	4072.5
484.681	4437.5
484.9	4111.5
485.118	3833.5
485.336	3710.5
485.554	3824.5
485.772	4035.5
485.99	4480.5
486.209	4814.5
486.427	4079.5
486.645	3669.5
486.863	3480.5
487.081	3429.5
487.299	3424.5
487.517	3321.5
487.735	3361.5
487.953	3359.5
488.171	3378.5
488.389	3309.5
488.607	3277.5
488.825	3222.5
489.043	3241.5
489.261	3209.5
489.479	3247.5
489.696	3281.5
489.914	3268.5
490.132	3271.5
490.35	3359.5
490.568	3330.5
490.786	3368.5
491.003	3429.5
491.221	3453.5
491.439	3411.5
491.657	3363.5
491.874	3420.5
492.092	3379.5
492.31	3415.5
492.527	3413.5
492.745	3414.5
492.963	3316.5
493.18	3354.5
493.398	3377.5
493.615	3441.5
493.833	3371.5
494.05	3441.5
494.268	3459.5
494.485	3412.5
494.703	3409.5
494.92	3406.5
495.138	3405.5
495.355	3439.5
495.573	3417.5
495.79	3457.5
496.008	3465.5
496.225	3452.5
496.442	3541.5
496.66	3635.5
496.877	3843.5
497.094	3824.5
497.312	3677.5
497.529	3725.5
497.746	3706.5
497.963	3808.5
498.181	3871.5
498.398	3938.5
498.615	4124.5
498.832	4301.5
499.049	4460.5
499.267	4829.5
499.484	5066.5
499.701	5063.5
499.918	5175.5
500.135	5503.5
500.352	5732.5
500.569	5864.5
500.786	5726.5
501.003	5549.5
501.22	5310.5
501.437	5030.5
501.654	4799.5
501.871	4593.5
502.088	4461.5
502.305	4313.5
502.522	4095.5
502.739	4103.5
502.956	3852.5
503.172	3831.5
503.389	3737.5
503.606	3683.5
503.823	3583.5
504.04	3630.5
504.256	3552.5
504.473	3593.5
504.69	3574.5
504.907	3474.5
505.123	3446.5
505.34	3413.5
505.557	3301.5
505.773	3227.5
505.99	3207.5
506.207	3151.5
506.423	3164.5
506.64	3066.5
506.856	3081.5
507.073	2992.5
507.289	3038.5
507.506	3022.5
507.722	3002.5
507.939	3025.5
508.155	3007.5
508.372	2944.5
508.588	2945.5
508.805	2945.5
509.021	3011.5
509.238	3027.5
509.454	3149.5
509.67	3358.5
509.887	3085.5
510.103	2957.5
510.319	2930.5
510.536	2928.5
510.752	2926.5
510.968	2930.5
511.184	2848.5
511.401	2861.5
511.617	2827.5
511.833	2838.5
512.049	2834.5
512.265	2824.5
512.481	2818.5
512.698	2783.5
512.914	2827.5
513.13	2831.5
513.346	2811.5
513.562	2855.5
513.778	2822.5
513.994	2877.5
514.21	2962.5
514.426	3136.5
514.642	3193.5
514.858	3053.5
515.074	2937.5
515.29	2897.5
515.506	2902.5
515.721	2899.5
515.937	2869.5
516.153	2918.5
516.369	2944.5
516.585	2991.5
516.801	3061.5
517.016	3104.5
517.232	3180.5
517.448	3142.5
517.664	3219.5
517.879	3249.5
518.095	3202.5
518.311	3193.5
518.527	3184.5
518.742	3129.5
518.958	3204.5
519.173	3231.5
519.389	3106.5
519.605	2979.5
519.82	2926.5
520.036	2891.5
520.251	2903.5
520.467	2871.5
520.682	2842.5
520.898	2788.5
521.113	2720.5
521.329	2728.5
521.544	2805.5
521.76	2761.5
521.975	2746.5
522.19	2741.5
522.406	2753.5
522.621	2728.5
522.836	2702.5
523.052	2737.5
523.267	2738.5
523.482	2721.5
523.698	2688.5
523.913	2727.5
524.128	2704.5
524.343	2718.5
524.559	2735.5
524.774	2685.5
524.989	2743.5
525.204	2723.5
525.419	2710.5
525.634	2677.5
525.849	2686.5
526.064	2723.5
526.28	2730.5
526.495	2741.5
526.71	2747.5
526.925	2694.5
527.14	2745.5
527.355	2707.5
527.57	2672.5
527.785	2772.5
527.999	2764.5
528.214	2762.5
528.429	2744.5
528.644	2843.5
528.859	2813.5
529.074	2843.5
529.289	2924.5
529.503	2931.5
529.718	2935.5
529.933	2866.5
530.148	2906.5
530.363	2933.5
530.577	2947.5
530.792	2876.5
531.007	2928.5
531.221	2954.5
531.436	2944.5
531.651	3008.5
531.865	3043.5
532.08	3129.5
532.295	3166.5
532.509	3385.5
532.724	3379.5
532.938	3407.5
533.153	3516.5
533.367	3815.5
533.582	3967.5
533.796	3832.5
534.011	3753.5
534.225	3648.5
534.44	3447.5
534.654	3364.5
534.868	3324.5
535.083	3325.5
535.297	3254.5
535.511	3183.5
535.726	3093.5
535.94	3111.5
536.154	3032.5
536.369	2984.5
536.583	2950.5
536.797	2867.5
537.011	2873.5
537.225	2795.5
537.44	2844.5
537.654	2775.5
537.868	2739.5
538.082	2691.5
538.296	2701.5
538.51	2698.5
538.724	2681.5
538.938	2639.5
539.153	2690.5
539.367	2643.5
539.581	2643.5
539.795	2590.5
540.009	2578.5
540.222	2572.5
540.436	2604.5
540.65	2596.5
540.864	2643.5
541.078	2655.5
541.292	2839.5
541.506	3318.5
541.72	3445.5
541.934	2928.5
542.147	2865.5
542.361	2782.5
542.575	2641.5
542.789	2629.5
543.002	2547.5
543.216	2512.5
543.43	2549.5
543.644	2482.5
543.857	2511.5
544.071	2516.5
544.285	2545.5
544.498	2552.5
544.712	2531.5
544.925	2505.5
545.139	2515.5
545.352	2509.5
545.566	2530.5
545.779	2499.5
545.993	2545.5
546.206	2524.5
546.42	2493.5
546.633	2587.5
546.847	2544.5
547.06	2546.5
547.274	2560.5
547.487	2562.5
547.7	2506.5
547.914	2549.5
548.127	2558.5
548.34	2547.5
548.554	2508.5
548.767	2534.5
548.98	2584.5
549.193	2544.5
549.407	2510.5
549.62	2559.5
549.833	2596.5
550.046	2561.5
550.259	2544.5
550.473	2544.5
550.686	2519.5
550.899	2528.5
551.112	2550.5
551.325	2600.5
551.538	2576.5
551.751	2594.5
551.964	2587.5
552.177	2580.5
552.39	2592.5
552.603	2643.5
552.816	2695.5
553.029	2711.5
553.242	2753.5
553.455	2780.5
553.667	2823.5
553.88	2841.5
554.093	2839.5
554.306	2860.5
554.519	2917.5
554.732	2923.5
554.944	2961.5
555.157	2997.5
555.37	3077.5
555.583	3203.5
555.795	3469.5
556.008	3657.5
556.221	4115.5
556.433	4368.5
556.646	4407.5
556.859	4198.5
557.071	4023.5
557.284	3926.5
557.496	3780.5
557.709	3663.5
557.921	3668.5
558.134	3674.5
558.346	3668.5
558.559	3820.5
558.771	4086.5
558.984	4461.5
559.196	4830.5
559.409	4537.5
559.621	4126.5
559.833	3936.5
560.046	3722.5
560.258	3430.5
560.47	3353.5
560.683	3204.5
560.895	3097.5
561.107	2997.5
561.32	2899.5
561.532	2825.5
561.744	2749.5
561.956	2704.5
562.168	2701.5
562.381	2666.5
562.593	2625.5
562.805	2693.5
563.017	2677.5
563.229	2717.5
563.441	3198.5
563.653	2609.5
563.865	2449.5
564.077	2438.5
564.289	2385.5
564.501	2311.5
564.713	2361.5
564.925	2351.5
565.137	2349.5
565.349	2329.5
565.561	2374.5
565.773	2369.5
565.985	2383.5
566.197	2447.5
566.408	2483.5
566.62	2511.5
566.832	2565.5
567.044	2577.5
567.255	2595.5
567.467	2616.5
567.679	2658.5
567.891	2839.5
568.102	3082.5
568.314	3538.5
568.526	3142.5
568.737	2747.5
568.949	2515.5
569.161	2326.5
569.372	2253.5
569.584	2196.5
569.795	2129.5
570.007	2124.5
570.218	2190.5
570.43	2280.5
570.641	2084.5
570.853	1964.5
571.064	1978.5
571.276	1941.5
571.487	1915.5
571.698	1892.5
571.91	1868.5
572.121	1839.5
572.333	1884.5
572.544	1856.5
572.755	1992.5
572.966	2293.5
573.178	2093.5
573.389	1919.5
573.6	1791.5
573.811	1757.5
574.023	1776.5
574.234	1784.5
574.445	1737.5
574.656	1685.5
574.867	1721.5
575.078	1721.5
575.289	1680.5
575.501	1706.5
575.712	1692.5
575.923	1697.5
576.134	1682.5
576.345	1688.5
576.556	1740.5
576.767	1735.5
576.978	1693.5
577.188	1735.5
577.399	1746.5
577.61	1744.5
577.821	1782.5
578.032	1760.5
578.243	1783.5
578.454	1816.5
578.665	1877.5
578.875	1913.5
579.086	1955.5
579.297	2074.5
579.508	2202.5
579.718	2400.5
579.929	2729.5
580.14	3209.5
580.35	3255.5
580.561	2989.5
580.772	2689.5
580.982	2500.5
581.193	2300.5
581.403	2203.5
581.614	2098.5
581.825	1999.5
582.035	1927.5
582.246	1866.5
582.456	1827.5
582.667	1801.5
582.877	1741.5
583.087	1729.5
583.298	1647.5
583.508	1596.5
583.719	1562.5
583.929	1544.5
584.139	1550.5
584.35	1518.5
584.56	1510.5
584.77	1443.5
584.981	1427.5
585.191	1421.5
585.401	1412.5
585.611	1357.5
585.821	1387.5
586.032	1365.5
586.242	1338.5
586.452	1343.5
586.662	1332.5
586.872	1309.5
587.082	1275.5
587.292	1283.5
587.502	1293.5
587.713	1250.5
587.923	1246.5
588.133	1249.5
588.343	1226.5
588.553	1229.5
588.762	1223.5
588.972	1197.5
589.182	1205.5
589.392	1224.5
589.602	1191.5
589.812	1197.5
590.022	1159.5
590.232	1145.5
590.441	1205.5
590.651	1184.5
590.861	1181.5
591.071	1184.5
591.281	1174.5
591.49	1175.5
591.7	1192.5
591.91	1181.5
592.119	1170.5
592.329	1182.5
592.539	1188.5
592.748	1212.5
592.958	1258.5
593.167	1220.5
593.377	1198.5
593.587	1216.5
593.796	1188.5
594.006	1225.5
594.215	1238.5
594.424	1207.5
594.634	1183.5
594.843	1182.5
595.053	1186.5
595.262	1149.5
595.472	1127.5
595.681	1095.5
595.89	1118.5
596.1	1049.5
596.309	1094.5
596.518	1044.5
596.727	1065.5
596.937	1030.5
597.146	1033.5
597.355	1037.5
597.564	1021.5
597.774	1018.5
597.983	998.5
598.192	996.5
598.401	975.5
598.61	949.5
598.819	933.5
599.028	959.5
599.237	959.5
599.446	950.5
599.655	945.5
599.864	962.5
600.073	967.5
600.282	943.5
600.491	930.5
600.7	938.5
600.909	937.5
601.118	959.5
601.327	931.5
601.536	945.5
601.745	987.5
601.953	1075.5
602.162	1175.5
602.371	1036.5
602.58	991.5
602.789	963.5
602.997	941.5
603.206	929.5
603.415	928.5
603.623	884.5
603.832	895.5
604.041	884.5
604.249	875.5
604.458	919.5
604.666	880.5
604.875	887.5
605.084	876.5
605.292	912.5
605.501	893.5
605.709	921.5
605.918	899.5
606.126	885.5
606.334	895.5
606.543	940.5
606.751	1013.5
606.96	1080.5
607.168	1224.5
607.376	1017.5
607.585	943.5
607.793	925.5
608.001	881.5
608.21	895.5
608.418	889.5
608.626	833.5
608.834	855.5
609.043	870.5
609.251	821.5
609.459	849.5
609.667	854.5
609.875	849.5
610.083	829.5
610.291	839.5
610.499	839.5
610.707	805.5
610.916	822.5
611.124	827.5
611.332	816.5
611.54	815.5
611.748	821.5
611.955	845.5
612.163	780.5
612.371	794.5
612.579	809.5
612.787	798.5
612.995	769.5
613.203	797.5
613.411	795.5
613.618	785.5
613.826	802.5
614.034	804.5
614.242	789.5
614.449	795.5
614.657	771.5
614.865	781.5
615.072	785.5
615.28	801.5
615.488	803.5
615.695	778.5
615.903	777.5
616.111	752.5
616.318	787.5
616.526	773.5
616.733	780.5
616.941	775.5
617.148	769.5
617.356	761.5
617.563	774.5
617.771	773.5
617.978	718.5
618.185	778.5
618.393	776.5
618.6	747.5
618.807	760.5
619.015	750.5
619.222	720.5
619.429	731.5
619.637	725.5
619.844	712.5
620.051	743.5
620.258	717.5
620.466	714.5
620.673	703.5
620.88	687.5
621.087	691.5
621.294	706.5
621.501	687.5
621.708	668.5
621.915	721.5
622.122	707.5
622.329	725.5
622.536	705.5
622.743	722.5
622.95	687.5
623.157	709.5
623.364	679.5
623.571	683.5
623.778	679.5
623.985	662.5
624.192	686.5
624.399	661.5
624.606	659.5
624.812	664.5
625.019	658.5
625.226	642.5
625.433	660.5
625.639	645.5
625.846	639.5
626.053	628.5
626.259	611.5
626.466	633.5
626.673	610.5
626.879	611.5
627.086	621.5
627.293	613.5
627.499	635.5
627.706	621.5
627.912	647.5
628.119	631.5
628.325	643.5
628.532	620.5
628.738	626.5
628.945	621.5
629.151	599.5
629.357	619.5
629.564	643.5
629.77	609.5
629.976	604.5
630.183	576.5
630.389	597.5
630.595	609.5
630.802	622.5
631.008	578.5
631.214	623.5
631.42	573.5
631.627	600.5
631.833	567.5
632.039	597.5
632.245	576.5
632.451	571.5
632.657	580.5
632.863	559.5
633.069	585.5
633.275	580.5
633.481	571.5
633.688	574.5
633.893	573.5
634.099	602.5
634.305	595.5
634.511	594.5
634.717	586.5
634.923	605.5
635.129	653.5
635.335	760.5
635.541	687.5
635.747	619.5
635.952	599.5
636.158	584.5
636.364	586.5
636.57	580.5
636.775	567.5
636.981	583.5
637.187	597.5
637.392	584.5
637.598	537.5
637.804	548.5
638.009	567.5
638.215	554.5
638.421	565.5
638.626	594.5
638.832	572.5
639.037	581.5
639.243	582.5
639.448	573.5
639.654	606.5
639.859	594.5
640.065	592.5
640.27	581.5
640.475	608.5
640.681	596.5
640.886	624.5
641.091	609.5
641.297	617.5
641.502	625.5
641.707	633.5
641.913	629.5
642.118	668.5
642.323	651.5
642.528	680.5
642.733	668.5
642.939	701.5
643.144	711.5
643.349	751.5
643.554	780.5
643.759	787.5
643.964	847.5
644.169	863.5
644.374	910.5
644.579	1043.5
644.784	1163.5
644.989	1263.5
645.194	1509.5
645.399	1901.5
645.604	2000.5
645.809	1487.5
646.014	1140.5
646.219	971.5
646.423	845.5
646.628	754.5
646.833	683.5
647.038	661.5
647.243	650.5
647.447	621.5
647.652	592.5
647.857	575.5
648.062	583.5
648.266	540.5
648.471	552.5
648.676	552.5
648.88	538.5
649.085	531.5
649.289	519.5
649.494	484.5
649.698	495.5
649.903	515.5
650.107	477.5
650.312	475.5
650.516	479.5
650.721	469.5
650.925	431.5
651.13	437.5
651.334	451.5
651.539	428.5
651.743	415.5
651.947	418.5
652.152	422.5
652.356	392.5
652.56	439.5
652.764	485.5
652.969	457.5
653.173	421.5
653.377	378.5
653.581	381.5
653.785	348.5
653.99	360.5
654.194	355.5
654.398	354.5
654.602	366.5
654.806	344.5
655.01	359.5
655.214	350.5
655.418	356.5
655.622	335.5
655.826	344.5
656.03	363.5
656.234	346.5
656.438	358.5
656.642	381.5
656.846	355.5
657.049	344.5
657.253	320.5
657.457	282.5
657.661	280.5
657.865	263.5
658.068	259.5
658.272	232.5
658.476	231.5
658.68	211.5
658.883	218.5
659.087	195.5
659.291	210.5
659.494	183.5
659.698	195.5
659.901	173.5
660.105	159.5
660.309	161.5
660.512	157.5
660.716	135.5
660.919	154.5
661.123	139.5
661.326	133.5
661.53	125.5
661.733	121.5
661.936	120.5
662.14	121.5
662.343	117.5
662.546	100.5
662.75	101.5
662.953	108.5
663.156	110.5
663.36	110.5
663.563	89.5
663.766	96.5
663.969	91.5
664.173	107.5
664.376	83.5
664.579	81.5
664.782	82.5
664.985	80.5
665.188	79.5
665.391	88.5
665.594	74.5
665.797	92.5
666	79.5
666.203	80.5
666.406	90.5
666.609	93.5
666.812	78.5
667.015	78.5
667.218	75.5
667.421	80.5
667.624	78.5
667.827	71.5
668.03	81.5
668.232	76.5
668.435	77.5
668.638	83.5
668.841	81.5
669.043	85.5
669.246	76.5
669.449	83.5
669.651	71.5
669.854	80.5
670.057	80.5
670.259	81.5
670.462	76.5
670.665	94.5
670.867	79.5
671.07	71.5
671.272	72.5
671.475	89.5
671.677	87.5
671.88	80.5
672.082	79.5
672.284	80.5
672.487	67.5
672.689	72.5
672.892	78.5
