Data from SnStandardFlinnAPT0064_LampEnergy5.5_LIBS07252019.E.O._I.C._HRD10591_15-15-25-491.txt Node
Date: Thu Jul 25 15:15:25 EDT 2019
User: cochatt
Spectrometer: HR+D1059
Trigger mode: 1
Integration Time (sec): 1.000000E-1
Scans to average: 1
Electric dark correction enabled: true
Nonlinearity correction enabled: false
Boxcar width: 0
XAxis mode: Wavelengths
Number of Pixels in Spectrum: 2048
>>>>>Begin Spectral Data<<<<<
223.165	-15.31
223.4	-15.31
223.635	-15.31
223.869	-17.31
224.104	-22.31
224.338	-11.31
224.573	-25.31
224.808	-11.31
225.042	-13.31
225.277	-14.31
225.511	10.69
225.746	21.69
225.98	15.69
226.215	8.69
226.449	23.69
226.683	5.69
226.918	20.69
227.152	23.69
227.387	26.69
227.621	48.69
227.856	59.69
228.09	29.69
228.324	53.69
228.559	57.69
228.793	84.69
229.027	136.69
229.262	152.69
229.496	154.69
229.73	158.69
229.964	153.69
230.199	169.69
230.433	175.69
230.667	152.69
230.901	165.69
231.136	184.69
231.37	178.69
231.604	176.69
231.838	199.69
232.072	234.69
232.306	222.69
232.541	207.69
232.775	200.69
233.009	185.69
233.243	190.69
233.477	201.69
233.711	244.69
233.945	261.69
234.179	251.69
234.413	213.69
234.647	217.69
234.881	209.69
235.115	231.69
235.349	254.69
235.583	317.69
235.817	392.69
236.051	376.69
236.285	279.69
236.519	224.69
236.753	232.69
236.987	232.69
237.221	244.69
237.455	232.69
237.689	238.69
237.922	211.69
238.156	223.69
238.39	196.69
238.624	223.69
238.858	225.69
239.091	217.69
239.325	221.69
239.559	219.69
239.793	241.69
240.027	232.69
240.26	266.69
240.494	267.69
240.728	253.69
240.961	267.69
241.195	289.69
241.429	291.69
241.662	288.69
241.896	317.69
242.13	390.69
242.363	467.69
242.597	590.69
242.83	575.69
243.064	555.69
243.298	652.69
243.531	544.69
243.765	397.69
243.998	322.69
244.232	314.69
244.465	288.69
244.699	275.69
244.932	289.69
245.166	303.69
245.399	290.69
245.633	297.69
245.866	307.69
246.099	277.69
246.333	302.69
246.566	274.69
246.8	280.69
247.033	283.69
247.266	293.69
247.5	292.69
247.733	316.69
247.966	312.69
248.2	327.69
248.433	369.69
248.666	390.69
248.899	364.69
249.133	350.69
249.366	375.69
249.599	391.69
249.832	404.69
250.066	432.69
250.299	349.69
250.532	335.69
250.765	317.69
250.998	331.69
251.231	337.69
251.465	330.69
251.698	339.69
251.931	332.69
252.164	332.69
252.397	331.69
252.63	342.69
252.863	356.69
253.096	330.69
253.329	356.69
253.562	366.69
253.795	343.69
254.028	354.69
254.261	363.69
254.494	390.69
254.727	437.69
254.96	492.69
255.193	482.69
255.426	401.69
255.659	401.69
255.892	395.69
256.124	379.69
256.357	396.69
256.59	407.69
256.823	417.69
257.056	438.69
257.289	498.69
257.521	536.69
257.754	477.69
257.987	424.69
258.22	419.69
258.452	402.69
258.685	405.69
258.918	406.69
259.151	432.69
259.383	443.69
259.616	455.69
259.849	503.69
260.081	425.69
260.314	418.69
260.547	426.69
260.779	422.69
261.012	375.69
261.244	414.69
261.477	411.69
261.71	440.69
261.942	448.69
262.175	443.69
262.407	450.69
262.64	449.69
262.872	496.69
263.105	487.69
263.337	541.69
263.57	567.69
263.802	562.69
264.035	567.69
264.267	588.69
264.499	604.69
264.732	633.69
264.964	628.69
265.197	639.69
265.429	613.69
265.661	654.69
265.894	646.69
266.126	722.69
266.358	787.69
266.591	754.69
266.823	680.69
267.055	631.69
267.287	588.69
267.52	575.69
267.752	561.69
267.984	557.69
268.216	563.69
268.448	546.69
268.681	540.69
268.913	532.69
269.145	533.69
269.377	530.69
269.609	519.69
269.841	555.69
270.073	561.69
270.306	650.69
270.538	832.69
270.77	1135.69
271.002	1367.69
271.234	992.69
271.466	740.69
271.698	613.69
271.93	592.69
272.162	556.69
272.394	541.69
272.626	526.69
272.858	565.69
273.09	534.69
273.322	543.69
273.553	495.69
273.785	513.69
274.017	530.69
274.249	547.69
274.481	501.69
274.713	523.69
274.945	535.69
275.176	532.69
275.408	544.69
275.64	522.69
275.872	514.69
276.104	539.69
276.335	548.69
276.567	539.69
276.799	543.69
277.031	551.69
277.262	583.69
277.494	572.69
277.726	611.69
277.957	673.69
278.189	751.69
278.421	711.69
278.652	644.69
278.884	654.69
279.115	596.69
279.347	579.69
279.579	575.69
279.81	582.69
280.042	594.69
280.273	585.69
280.505	608.69
280.736	590.69
280.968	629.69
281.199	678.69
281.431	737.69
281.662	758.69
281.894	700.69
282.125	680.69
282.356	662.69
282.588	657.69
282.819	701.69
283.051	720.69
283.282	786.69
283.513	935.69
283.745	1310.69
283.976	2002.69
284.207	2756.69
284.439	2519.69
284.67	1616.69
284.901	1286.69
285.132	1228.69
285.364	1177.69
285.595	976.69
285.826	898.69
286.057	1054.69
286.288	1334.69
286.52	1774.69
286.751	1657.69
286.982	1097.69
287.213	880.69
287.444	774.69
287.675	732.69
287.906	732.69
288.138	728.69
288.369	708.69
288.6	709.69
288.831	699.69
289.062	678.69
289.293	686.69
289.524	726.69
289.755	724.69
289.986	700.69
290.217	710.69
290.448	711.69
290.679	724.69
290.91	723.69
291.141	739.69
291.371	745.69
291.602	777.69
291.833	715.69
292.064	709.69
292.295	675.69
292.526	692.69
292.757	654.69
292.987	667.69
293.218	647.69
293.449	651.69
293.68	662.69
293.91	670.69
294.141	665.69
294.372	662.69
294.603	647.69
294.833	652.69
295.064	683.69
295.295	680.69
295.525	651.69
295.756	661.69
295.987	669.69
296.217	661.69
296.448	658.69
296.679	662.69
296.909	678.69
297.14	674.69
297.37	670.69
297.601	675.69
297.831	682.69
298.062	668.69
298.292	676.69
298.523	682.69
298.753	719.69
298.984	719.69
299.214	706.69
299.445	736.69
299.675	715.69
299.905	753.69
300.136	776.69
300.366	833.69
300.597	1036.69
300.827	1339.69
301.057	1762.69
301.288	1770.69
301.518	1194.69
301.748	978.69
301.979	908.69
302.209	880.69
302.439	896.69
302.669	914.69
302.9	1041.69
303.13	1428.69
303.36	2056.69
303.59	2655.69
303.82	2377.69
304.051	1454.69
304.281	1118.69
304.511	936.69
304.741	879.69
304.971	866.69
305.201	824.69
305.431	799.69
305.661	814.69
305.891	766.69
306.121	772.69
306.352	796.69
306.582	766.69
306.812	760.69
307.042	745.69
307.272	766.69
307.502	758.69
307.731	768.69
307.961	747.69
308.191	729.69
308.421	762.69
308.651	756.69
308.881	754.69
309.111	739.69
309.341	759.69
309.571	754.69
309.8	779.69
310.03	784.69
310.26	779.69
310.49	789.69
310.72	798.69
310.949	788.69
311.179	806.69
311.409	801.69
311.639	800.69
311.868	818.69
312.098	814.69
312.328	829.69
312.557	818.69
312.787	821.69
313.017	805.69
313.246	833.69
313.476	833.69
313.706	833.69
313.935	873.69
314.165	929.69
314.394	946.69
314.624	910.69
314.853	893.69
315.083	886.69
315.312	887.69
315.542	906.69
315.771	917.69
316.001	899.69
316.23	917.69
316.46	946.69
316.689	998.69
316.919	1211.69
317.148	1630.69
317.377	2474.69
317.607	3541.69
317.836	3631.69
318.065	2215.69
318.295	1507.69
318.524	1239.69
318.753	1096.69
318.983	1092.69
319.212	1019.69
319.441	997.69
319.67	957.69
319.9	951.69
320.129	960.69
320.358	962.69
320.587	924.69
320.816	966.69
321.046	960.69
321.275	959.69
321.504	964.69
321.733	992.69
321.962	1014.69
322.191	1006.69
322.42	1018.69
322.649	995.69
322.878	1011.69
323.108	1003.69
323.337	1035.69
323.566	1034.69
323.795	1004.69
324.024	1084.69
324.253	1063.69
324.482	1145.69
324.71	1155.69
324.939	1214.69
325.168	1233.69
325.397	1266.69
325.626	1476.69
325.855	1982.69
326.084	2983.69
326.313	4399.69
326.542	4626.69
326.77	3034.69
326.999	2099.69
327.228	1783.69
327.457	1703.69
327.686	1778.69
327.914	1861.69
328.143	2108.69
328.372	2419.69
328.6	2612.69
328.829	2411.69
329.058	2132.69
329.287	1942.69
329.515	1740.69
329.744	1643.69
329.972	1635.69
330.201	1521.69
330.43	1483.69
330.658	1456.69
330.887	1408.69
331.115	1405.69
331.344	1364.69
331.572	1395.69
331.801	1401.69
332.03	1409.69
332.258	1428.69
332.486	1479.69
332.715	1619.69
332.943	1932.69
333.172	2272.69
333.4	2260.69
333.629	1819.69
333.857	1690.69
334.085	1731.69
334.314	1805.69
334.542	1934.69
334.771	2256.69
334.999	2558.69
335.227	3112.69
335.455	3442.69
335.684	3231.69
335.912	2778.69
336.14	2409.69
336.369	2172.69
336.597	2052.69
336.825	1910.69
337.053	1806.69
337.281	1681.69
337.51	1600.69
337.738	1545.69
337.966	1498.69
338.194	1442.69
338.422	1396.69
338.65	1331.69
338.878	1349.69
339.106	1323.69
339.334	1314.69
339.562	1255.69
339.79	1256.69
340.018	1268.69
340.246	1222.69
340.474	1225.69
340.702	1202.69
340.93	1192.69
341.158	1188.69
341.386	1198.69
341.614	1240.69
341.842	1202.69
342.07	1161.69
342.298	1156.69
342.526	1148.69
342.754	1127.69
342.981	1110.69
343.209	1114.69
343.437	1160.69
343.665	1153.69
343.893	1187.69
344.12	1194.69
344.348	1140.69
344.576	1122.69
344.804	1111.69
345.031	1082.69
345.259	1089.69
345.487	1072.69
345.714	1062.69
345.942	1049.69
346.17	1051.69
346.397	1063.69
346.625	1017.69
346.853	1046.69
347.08	1043.69
347.308	1047.69
347.535	1059.69
347.763	1042.69
347.99	1029.69
348.218	1035.69
348.445	1045.69
348.673	1019.69
348.9	1028.69
349.128	1022.69
349.355	1042.69
349.583	1028.69
349.81	1012.69
350.037	1037.69
350.265	1024.69
350.492	986.69
350.72	978.69
350.947	992.69
351.174	1001.69
351.402	1002.69
351.629	1001.69
351.856	976.69
352.083	1004.69
352.311	1016.69
352.538	976.69
352.765	1004.69
352.992	985.69
353.22	985.69
353.447	966.69
353.674	989.69
353.901	1006.69
354.128	977.69
354.355	1030.69
354.583	1040.69
354.81	997.69
355.037	1037.69
355.264	1041.69
355.491	1029.69
355.718	1005.69
355.945	1028.69
356.172	1046.69
356.399	1032.69
356.626	1037.69
356.853	1038.69
357.08	1030.69
357.307	1046.69
357.534	1054.69
357.761	1080.69
357.988	1056.69
358.215	1058.69
358.441	1077.69
358.668	1034.69
358.895	1074.69
359.122	1063.69
359.349	1077.69
359.576	1059.69
359.802	1102.69
360.029	1052.69
360.256	1088.69
360.483	1061.69
360.709	1071.69
360.936	1070.69
361.163	1074.69
361.39	1091.69
361.616	1071.69
361.843	1104.69
362.07	1083.69
362.296	1038.69
362.523	1055.69
362.749	1082.69
362.976	1055.69
363.203	1057.69
363.429	1044.69
363.656	1047.69
363.882	1059.69
364.109	1058.69
364.335	1042.69
364.562	1056.69
364.788	1066.69
365.015	1082.69
365.241	1090.69
365.468	1119.69
365.694	1122.69
365.92	1127.69
366.147	1127.69
366.373	1111.69
366.599	1082.69
366.826	1085.69
367.052	1079.69
367.278	1058.69
367.505	1084.69
367.731	1094.69
367.957	1112.69
368.184	1096.69
368.41	1119.69
368.636	1101.69
368.862	1068.69
369.089	1100.69
369.315	1094.69
369.541	1102.69
369.767	1119.69
369.993	1088.69
370.219	1103.69
370.445	1128.69
370.672	1115.69
370.898	1125.69
371.124	1110.69
371.35	1135.69
371.576	1131.69
371.802	1158.69
372.028	1125.69
372.254	1141.69
372.48	1144.69
372.706	1167.69
372.932	1164.69
373.158	1172.69
373.384	1162.69
373.61	1161.69
373.835	1170.69
374.061	1168.69
374.287	1183.69
374.513	1177.69
374.739	1201.69
374.965	1202.69
375.191	1230.69
375.416	1189.69
375.642	1163.69
375.868	1184.69
376.094	1184.69
376.319	1191.69
376.545	1198.69
376.771	1159.69
376.997	1136.69
377.222	1138.69
377.448	1167.69
377.674	1137.69
377.899	1121.69
378.125	1152.69
378.35	1159.69
378.576	1158.69
378.802	1148.69
379.027	1151.69
379.253	1191.69
379.478	1214.69
379.704	1393.69
379.929	1846.69
380.155	2558.69
380.38	2770.69
380.606	1860.69
380.831	1412.69
381.057	1278.69
381.282	1231.69
381.507	1208.69
381.733	1169.69
381.958	1185.69
382.184	1135.69
382.409	1139.69
382.634	1142.69
382.86	1112.69
383.085	1128.69
383.31	1147.69
383.535	1155.69
383.761	1135.69
383.986	1163.69
384.211	1178.69
384.436	1154.69
384.662	1145.69
384.887	1202.69
385.112	1176.69
385.337	1182.69
385.562	1149.69
385.787	1150.69
386.013	1202.69
386.238	1180.69
386.463	1191.69
386.688	1188.69
386.913	1179.69
387.138	1154.69
387.363	1202.69
387.588	1163.69
387.813	1188.69
388.038	1174.69
388.263	1171.69
388.488	1162.69
388.713	1189.69
388.938	1212.69
389.163	1188.69
389.387	1180.69
389.612	1138.69
389.837	1205.69
390.062	1162.69
390.287	1186.69
390.512	1183.69
390.736	1170.69
390.961	1199.69
391.186	1238.69
391.411	1242.69
391.636	1217.69
391.86	1233.69
392.085	1257.69
392.31	1235.69
392.534	1226.69
392.759	1201.69
392.984	1178.69
393.208	1188.69
393.433	1180.69
393.658	1196.69
393.882	1162.69
394.107	1198.69
394.331	1198.69
394.556	1211.69
394.78	1207.69
395.005	1202.69
395.229	1206.69
395.454	1203.69
395.678	1252.69
395.903	1217.69
396.127	1219.69
396.352	1224.69
396.576	1214.69
396.801	1211.69
397.025	1242.69
397.249	1255.69
397.474	1257.69
397.698	1264.69
397.922	1251.69
398.147	1276.69
398.371	1253.69
398.595	1304.69
398.82	1324.69
399.044	1378.69
399.268	1419.69
399.492	1514.69
399.717	1558.69
399.941	1593.69
400.165	1544.69
400.389	1446.69
400.613	1419.69
400.837	1364.69
401.062	1330.69
401.286	1349.69
401.51	1307.69
401.734	1307.69
401.958	1329.69
402.182	1334.69
402.406	1355.69
402.63	1322.69
402.854	1315.69
403.078	1295.69
403.302	1348.69
403.526	1345.69
403.75	1343.69
403.974	1386.69
404.198	1362.69
404.422	1356.69
404.645	1341.69
404.869	1363.69
405.093	1361.69
405.317	1358.69
405.541	1391.69
405.765	1390.69
405.988	1387.69
406.212	1377.69
406.436	1375.69
406.66	1426.69
406.883	1436.69
407.107	1432.69
407.331	1465.69
407.555	1483.69
407.778	1473.69
408.002	1439.69
408.226	1442.69
408.449	1496.69
408.673	1410.69
408.896	1383.69
409.12	1422.69
409.344	1379.69
409.567	1353.69
409.791	1359.69
410.014	1363.69
410.238	1355.69
410.461	1374.69
410.685	1359.69
410.908	1334.69
411.132	1346.69
411.355	1300.69
411.578	1305.69
411.802	1286.69
412.025	1305.69
412.249	1314.69
412.472	1343.69
412.695	1317.69
412.919	1285.69
413.142	1266.69
413.365	1290.69
413.589	1290.69
413.812	1283.69
414.035	1293.69
414.258	1254.69
414.482	1302.69
414.705	1288.69
414.928	1278.69
415.151	1300.69
415.374	1290.69
415.597	1277.69
415.821	1231.69
416.044	1190.69
416.267	1241.69
416.49	1267.69
416.713	1266.69
416.936	1247.69
417.159	1239.69
417.382	1218.69
417.605	1217.69
417.828	1225.69
418.051	1273.69
418.274	1242.69
418.497	1251.69
418.72	1307.69
418.943	1270.69
419.166	1311.69
419.389	1370.69
419.611	1381.69
419.834	1310.69
420.057	1298.69
420.28	1291.69
420.503	1238.69
420.726	1216.69
420.948	1229.69
421.171	1210.69
421.394	1242.69
421.617	1200.69
421.839	1261.69
422.062	1264.69
422.285	1228.69
422.507	1257.69
422.73	1257.69
422.953	1255.69
423.175	1292.69
423.398	1267.69
423.621	1227.69
423.843	1278.69
424.066	1247.69
424.288	1281.69
424.511	1258.69
424.733	1251.69
424.956	1257.69
425.178	1239.69
425.401	1248.69
425.623	1259.69
425.846	1207.69
426.068	1204.69
426.291	1200.69
426.513	1199.69
426.735	1174.69
426.958	1187.69
427.18	1178.69
427.402	1195.69
427.625	1182.69
427.847	1118.69
428.069	1138.69
428.292	1180.69
428.514	1120.69
428.736	1160.69
428.958	1151.69
429.181	1147.69
429.403	1151.69
429.625	1111.69
429.847	1158.69
430.069	1141.69
430.292	1191.69
430.514	1241.69
430.736	1215.69
430.958	1147.69
431.18	1148.69
431.402	1139.69
431.624	1100.69
431.846	1146.69
432.068	1127.69
432.29	1155.69
432.512	1094.69
432.734	1156.69
432.956	1130.69
433.178	1167.69
433.4	1162.69
433.622	1178.69
433.844	1181.69
434.066	1168.69
434.287	1155.69
434.509	1142.69
434.731	1162.69
434.953	1169.69
435.175	1184.69
435.397	1200.69
435.618	1151.69
435.84	1131.69
436.062	1122.69
436.284	1129.69
436.505	1117.69
436.727	1135.69
436.949	1149.69
437.17	1141.69
437.392	1146.69
437.614	1142.69
437.835	1091.69
438.057	1093.69
438.278	1099.69
438.5	1089.69
438.721	1105.69
438.943	1130.69
439.165	1170.69
439.386	1176.69
439.608	1168.69
439.829	1198.69
440.05	1200.69
440.272	1209.69
440.493	1175.69
440.715	1177.69
440.936	1161.69
441.158	1194.69
441.379	1225.69
441.6	1239.69
441.822	1254.69
442.043	1364.69
442.264	1330.69
442.486	1264.69
442.707	1226.69
442.928	1229.69
443.149	1218.69
443.371	1226.69
443.592	1211.69
443.813	1227.69
444.034	1238.69
444.255	1246.69
444.476	1313.69
444.698	1334.69
444.919	1316.69
445.14	1385.69
445.361	1327.69
445.582	1262.69
445.803	1223.69
446.024	1174.69
446.245	1251.69
446.466	1239.69
446.687	1183.69
446.908	1152.69
447.129	1152.69
447.35	1148.69
447.571	1188.69
447.792	1134.69
448.013	1122.69
448.234	1114.69
448.455	1120.69
448.675	1119.69
448.896	1128.69
449.117	1177.69
449.338	1249.69
449.559	1285.69
449.779	1180.69
450	1132.69
450.221	1121.69
450.442	1129.69
450.662	1111.69
450.883	1122.69
451.104	1095.69
451.324	1092.69
451.545	1090.69
451.766	1093.69
451.986	1091.69
452.207	1184.69
452.428	1339.69
452.648	1812.69
452.869	1547.69
453.089	1230.69
453.31	1180.69
453.53	1159.69
453.751	1184.69
453.971	1294.69
454.192	1244.69
454.412	1109.69
454.633	1069.69
454.853	1092.69
455.073	1040.69
455.294	1040.69
455.514	1036.69
455.734	1040.69
455.955	1029.69
456.175	1034.69
456.395	1014.69
456.616	1030.69
456.836	1069.69
457.056	1059.69
457.276	1051.69
457.497	1110.69
457.717	1099.69
457.937	1067.69
458.157	1089.69
458.377	1098.69
458.598	1112.69
458.818	1081.69
459.038	1112.69
459.258	1127.69
459.478	1158.69
459.698	1115.69
459.918	1158.69
460.138	1183.69
460.358	1185.69
460.578	1218.69
460.798	1231.69
461.018	1270.69
461.238	1269.69
461.458	1259.69
461.678	1258.69
461.898	1281.69
462.118	1274.69
462.338	1308.69
462.558	1318.69
462.777	1337.69
462.997	1399.69
463.217	1461.69
463.437	1455.69
463.657	1481.69
463.876	1455.69
464.096	1398.69
464.316	1347.69
464.536	1339.69
464.755	1298.69
464.975	1289.69
465.195	1243.69
465.414	1232.69
465.634	1203.69
465.854	1170.69
466.073	1170.69
466.293	1172.69
466.512	1140.69
466.732	1149.69
466.951	1194.69
467.171	1243.69
467.391	1270.69
467.61	1144.69
467.829	1118.69
468.049	1144.69
468.268	1121.69
468.488	1134.69
468.707	1099.69
468.927	1114.69
469.146	1094.69
469.365	1157.69
469.585	1116.69
469.804	1178.69
470.023	1193.69
470.243	1192.69
470.462	1214.69
470.681	1236.69
470.901	1336.69
471.12	1495.69
471.339	1506.69
471.558	1316.69
471.777	1214.69
471.997	1170.69
472.216	1157.69
472.435	1148.69
472.654	1112.69
472.873	1109.69
473.092	1111.69
473.311	1143.69
473.53	1119.69
473.749	1115.69
473.968	1200.69
474.187	1122.69
474.406	1120.69
474.625	1124.69
474.844	1138.69
475.063	1150.69
475.282	1144.69
475.501	1084.69
475.72	1139.69
475.939	1150.69
476.158	1166.69
476.377	1178.69
476.596	1191.69
476.814	1176.69
477.033	1172.69
477.252	1178.69
477.471	1211.69
477.69	1256.69
477.908	1273.69
478.127	1289.69
478.346	1292.69
478.564	1323.69
478.783	1292.69
479.002	1365.69
479.22	1340.69
479.439	1328.69
479.658	1290.69
479.876	1328.69
480.095	1363.69
480.313	1396.69
480.532	1366.69
480.751	1330.69
480.969	1355.69
481.188	1330.69
481.406	1307.69
481.624	1322.69
481.843	1359.69
482.061	1336.69
482.28	1337.69
482.498	1334.69
482.717	1330.69
482.935	1357.69
483.153	1371.69
483.372	1422.69
483.59	1392.69
483.808	1411.69
484.027	1404.69
484.245	1503.69
484.463	1640.69
484.681	1807.69
484.9	1627.69
485.118	1545.69
485.336	1551.69
485.554	1557.69
485.772	1599.69
485.99	1813.69
486.209	1908.69
486.427	1642.69
486.645	1520.69
486.863	1483.69
487.081	1439.69
487.299	1451.69
487.517	1427.69
487.735	1413.69
487.953	1458.69
488.171	1454.69
488.389	1464.69
488.607	1424.69
488.825	1378.69
489.043	1351.69
489.261	1375.69
489.479	1409.69
489.696	1384.69
489.914	1394.69
490.132	1394.69
490.35	1404.69
490.568	1403.69
490.786	1451.69
491.003	1447.69
491.221	1465.69
491.439	1487.69
491.657	1484.69
491.874	1499.69
492.092	1524.69
492.31	1552.69
492.527	1531.69
492.745	1491.69
492.963	1496.69
493.18	1466.69
493.398	1466.69
493.615	1480.69
493.833	1461.69
494.05	1486.69
494.268	1494.69
494.485	1506.69
494.703	1478.69
494.92	1528.69
495.138	1465.69
495.355	1513.69
495.573	1540.69
495.79	1528.69
496.008	1481.69
496.225	1519.69
496.442	1544.69
496.66	1583.69
496.877	1586.69
497.094	1637.69
497.312	1618.69
497.529	1560.69
497.746	1592.69
497.963	1600.69
498.181	1616.69
498.398	1691.69
498.615	1763.69
498.832	1801.69
499.049	1904.69
499.267	2004.69
499.484	2134.69
499.701	2153.69
499.918	2236.69
500.135	2362.69
500.352	2510.69
500.569	2578.69
500.786	2532.69
501.003	2420.69
501.22	2321.69
501.437	2189.69
501.654	2072.69
501.871	1994.69
502.088	1891.69
502.305	1839.69
502.522	1774.69
502.739	1734.69
502.956	1677.69
503.172	1598.69
503.389	1600.69
503.606	1589.69
503.823	1545.69
504.04	1513.69
504.256	1551.69
504.473	1510.69
504.69	1525.69
504.907	1526.69
505.123	1466.69
505.34	1401.69
505.557	1410.69
505.773	1356.69
505.99	1392.69
506.207	1343.69
506.423	1331.69
506.64	1317.69
506.856	1362.69
507.073	1303.69
507.289	1331.69
507.506	1282.69
507.722	1301.69
507.939	1309.69
508.155	1275.69
508.372	1240.69
508.588	1266.69
508.805	1285.69
509.021	1263.69
509.238	1270.69
509.454	1305.69
509.67	1360.69
509.887	1318.69
510.103	1251.69
510.319	1270.69
510.536	1258.69
510.752	1228.69
510.968	1226.69
511.184	1222.69
511.401	1224.69
511.617	1206.69
511.833	1218.69
512.049	1208.69
512.265	1175.69
512.481	1199.69
512.698	1209.69
512.914	1190.69
513.13	1220.69
513.346	1186.69
513.562	1209.69
513.778	1231.69
513.994	1193.69
514.21	1227.69
514.426	1270.69
514.642	1316.69
514.858	1272.69
515.074	1238.69
515.29	1245.69
515.506	1216.69
515.721	1208.69
515.937	1250.69
516.153	1240.69
516.369	1257.69
516.585	1264.69
516.801	1268.69
517.016	1297.69
517.232	1361.69
517.448	1348.69
517.664	1367.69
517.879	1350.69
518.095	1363.69
518.311	1360.69
518.527	1344.69
518.742	1314.69
518.958	1344.69
519.173	1360.69
519.389	1301.69
519.605	1271.69
519.82	1256.69
520.036	1238.69
520.251	1202.69
520.467	1221.69
520.682	1208.69
520.898	1208.69
521.113	1216.69
521.329	1178.69
521.544	1202.69
521.76	1171.69
521.975	1171.69
522.19	1179.69
522.406	1169.69
522.621	1174.69
522.836	1185.69
523.052	1194.69
523.267	1171.69
523.482	1176.69
523.698	1173.69
523.913	1126.69
524.128	1171.69
524.343	1177.69
524.559	1179.69
524.774	1161.69
524.989	1174.69
525.204	1203.69
525.419	1176.69
525.634	1181.69
525.849	1161.69
526.064	1145.69
526.28	1134.69
526.495	1159.69
526.71	1156.69
526.925	1156.69
527.14	1130.69
527.355	1172.69
527.57	1156.69
527.785	1182.69
527.999	1150.69
528.214	1182.69
528.429	1203.69
528.644	1224.69
528.859	1237.69
529.074	1261.69
529.289	1284.69
529.503	1229.69
529.718	1280.69
529.933	1240.69
530.148	1208.69
530.363	1208.69
530.577	1209.69
530.792	1228.69
531.007	1209.69
531.221	1236.69
531.436	1233.69
531.651	1253.69
531.865	1240.69
532.08	1288.69
532.295	1300.69
532.509	1374.69
532.724	1354.69
532.938	1382.69
533.153	1356.69
533.367	1470.69
533.582	1510.69
533.796	1499.69
534.011	1442.69
534.225	1443.69
534.44	1384.69
534.654	1400.69
534.868	1374.69
535.083	1330.69
535.297	1339.69
535.511	1308.69
535.726	1321.69
535.94	1300.69
536.154	1258.69
536.369	1239.69
536.583	1268.69
536.797	1224.69
537.011	1206.69
537.225	1158.69
537.44	1176.69
537.654	1185.69
537.868	1159.69
538.082	1188.69
538.296	1146.69
538.51	1172.69
538.724	1156.69
538.938	1146.69
539.153	1146.69
539.367	1143.69
539.581	1152.69
539.795	1120.69
540.009	1104.69
540.222	1103.69
540.436	1104.69
540.65	1139.69
540.864	1155.69
541.078	1149.69
541.292	1236.69
541.506	1378.69
541.72	1427.69
541.934	1322.69
542.147	1274.69
542.361	1209.69
542.575	1169.69
542.789	1108.69
543.002	1115.69
543.216	1113.69
543.43	1082.69
543.644	1099.69
543.857	1114.69
544.071	1128.69
544.285	1116.69
544.498	1144.69
544.712	1158.69
544.925	1150.69
545.139	1144.69
545.352	1117.69
545.566	1115.69
545.779	1098.69
545.993	1164.69
546.206	1125.69
546.42	1123.69
546.633	1109.69
546.847	1149.69
547.06	1127.69
547.274	1140.69
547.487	1156.69
547.7	1130.69
547.914	1147.69
548.127	1141.69
548.34	1119.69
548.554	1140.69
548.767	1127.69
548.98	1134.69
549.193	1128.69
549.407	1140.69
549.62	1150.69
549.833	1151.69
550.046	1157.69
550.259	1130.69
550.473	1132.69
550.686	1175.69
550.899	1175.69
551.112	1111.69
551.325	1103.69
551.538	1079.69
551.751	1111.69
551.964	1110.69
552.177	1113.69
552.39	1154.69
552.603	1171.69
552.816	1186.69
553.029	1203.69
553.242	1230.69
553.455	1233.69
553.667	1258.69
553.88	1219.69
554.093	1235.69
554.306	1240.69
554.519	1282.69
554.732	1239.69
554.944	1267.69
555.157	1297.69
555.37	1296.69
555.583	1328.69
555.795	1385.69
556.008	1467.69
556.221	1508.69
556.433	1562.69
556.646	1637.69
556.859	1574.69
557.071	1562.69
557.284	1544.69
557.496	1502.69
557.709	1504.69
557.921	1479.69
558.134	1499.69
558.346	1476.69
558.559	1545.69
558.771	1584.69
558.984	1639.69
559.196	1734.69
559.409	1715.69
559.621	1627.69
559.833	1600.69
560.046	1503.69
560.258	1418.69
560.47	1377.69
560.683	1325.69
560.895	1329.69
561.107	1256.69
561.32	1208.69
561.532	1184.69
561.744	1210.69
561.956	1191.69
562.168	1140.69
562.381	1156.69
562.593	1147.69
562.805	1138.69
563.017	1113.69
563.229	1122.69
563.441	1202.69
563.653	1127.69
563.865	1062.69
564.077	1059.69
564.289	1055.69
564.501	1016.69
564.713	1036.69
564.925	1002.69
565.137	1033.69
565.349	1045.69
565.561	1057.69
565.773	1045.69
565.985	1094.69
566.197	1064.69
566.408	1127.69
566.62	1100.69
566.832	1136.69
567.044	1177.69
567.255	1152.69
567.467	1147.69
567.679	1189.69
567.891	1236.69
568.102	1358.69
568.314	1515.69
568.526	1290.69
568.737	1172.69
568.949	1070.69
569.161	1056.69
569.372	986.69
569.584	955.69
569.795	934.69
570.007	926.69
570.218	958.69
570.43	988.69
570.641	878.69
570.853	864.69
571.064	885.69
571.276	864.69
571.487	885.69
571.698	846.69
571.91	839.69
572.121	824.69
572.333	828.69
572.544	832.69
572.755	864.69
572.966	968.69
573.178	894.69
573.389	801.69
573.6	781.69
573.811	778.69
574.023	745.69
574.234	776.69
574.445	739.69
574.656	742.69
574.867	750.69
575.078	767.69
575.289	774.69
575.501	760.69
575.712	735.69
575.923	724.69
576.134	741.69
576.345	766.69
576.556	739.69
576.767	745.69
576.978	732.69
577.188	778.69
577.399	774.69
577.61	783.69
577.821	777.69
578.032	780.69
578.243	788.69
578.454	798.69
578.665	805.69
578.875	828.69
579.086	841.69
579.297	863.69
579.508	894.69
579.718	947.69
579.929	1042.69
580.14	1134.69
580.35	1169.69
580.561	1112.69
580.772	1028.69
580.982	991.69
581.193	958.69
581.403	915.69
581.614	883.69
581.825	857.69
582.035	853.69
582.246	799.69
582.456	787.69
582.667	790.69
582.877	785.69
583.087	730.69
583.298	730.69
583.508	712.69
583.719	693.69
583.929	675.69
584.139	673.69
584.35	664.69
584.56	662.69
584.77	662.69
584.981	649.69
585.191	639.69
585.401	635.69
585.611	634.69
585.821	623.69
586.032	623.69
586.242	601.69
586.452	581.69
586.662	591.69
586.872	579.69
587.082	580.69
587.292	569.69
587.502	591.69
587.713	562.69
587.923	580.69
588.133	554.69
588.343	536.69
588.553	552.69
588.762	551.69
588.972	552.69
589.182	594.69
589.392	558.69
589.602	554.69
589.812	576.69
590.022	568.69
590.232	528.69
590.441	535.69
590.651	525.69
590.861	555.69
591.071	552.69
591.281	532.69
591.49	545.69
591.7	541.69
591.91	560.69
592.119	536.69
592.329	568.69
592.539	547.69
592.748	572.69
592.958	587.69
593.167	571.69
593.377	568.69
593.587	576.69
593.796	587.69
594.006	549.69
594.215	578.69
594.424	567.69
594.634	561.69
594.843	547.69
595.053	551.69
595.262	544.69
595.472	526.69
595.681	533.69
595.89	528.69
596.1	491.69
596.309	481.69
596.518	476.69
596.727	495.69
596.937	487.69
597.146	474.69
597.355	490.69
597.564	483.69
597.774	461.69
597.983	466.69
598.192	456.69
598.401	458.69
598.61	467.69
598.819	467.69
599.028	453.69
599.237	469.69
599.446	431.69
599.655	450.69
599.864	456.69
600.073	450.69
600.282	439.69
600.491	448.69
600.7	454.69
600.909	448.69
601.118	445.69
601.327	451.69
601.536	443.69
601.745	458.69
601.953	473.69
602.162	532.69
602.371	475.69
602.58	482.69
602.789	464.69
602.997	447.69
603.206	439.69
603.415	430.69
603.623	465.69
603.832	443.69
604.041	453.69
604.249	425.69
604.458	443.69
604.666	426.69
604.875	414.69
605.084	424.69
605.292	409.69
605.501	436.69
605.709	431.69
605.918	433.69
606.126	445.69
606.334	447.69
606.543	444.69
606.751	459.69
606.96	489.69
607.168	559.69
607.376	471.69
607.585	456.69
607.793	434.69
608.001	431.69
608.21	421.69
608.418	430.69
608.626	410.69
608.834	397.69
609.043	409.69
609.251	431.69
609.459	431.69
609.667	414.69
609.875	417.69
610.083	421.69
610.291	398.69
610.499	408.69
610.707	404.69
610.916	432.69
611.124	404.69
611.332	421.69
611.54	404.69
611.748	410.69
611.955	416.69
612.163	386.69
612.371	406.69
612.579	410.69
612.787	392.69
612.995	387.69
613.203	403.69
613.411	404.69
613.618	389.69
613.826	394.69
614.034	390.69
614.242	392.69
614.449	392.69
614.657	383.69
614.865	395.69
615.072	397.69
615.28	392.69
615.488	394.69
615.695	392.69
615.903	411.69
616.111	406.69
616.318	397.69
616.526	391.69
616.733	403.69
616.941	396.69
617.148	389.69
617.356	377.69
617.563	384.69
617.771	393.69
617.978	373.69
618.185	380.69
618.393	358.69
618.6	374.69
618.807	370.69
619.015	375.69
619.222	362.69
619.429	366.69
619.637	371.69
619.844	359.69
620.051	372.69
620.258	377.69
620.466	376.69
620.673	348.69
620.88	349.69
621.087	352.69
621.294	360.69
621.501	357.69
621.708	367.69
621.915	351.69
622.122	360.69
622.329	372.69
622.536	355.69
622.743	351.69
622.95	366.69
623.157	352.69
623.364	348.69
623.571	340.69
623.778	351.69
623.985	333.69
624.192	327.69
624.399	371.69
624.606	355.69
624.812	332.69
625.019	330.69
625.226	330.69
625.433	342.69
625.639	324.69
625.846	331.69
626.053	321.69
626.259	329.69
626.466	310.69
626.673	315.69
626.879	327.69
627.086	322.69
627.293	310.69
627.499	326.69
627.706	329.69
627.912	327.69
628.119	319.69
628.325	332.69
628.532	327.69
628.738	312.69
628.945	321.69
629.151	299.69
629.357	307.69
629.564	325.69
629.77	315.69
629.976	288.69
630.183	303.69
630.389	306.69
630.595	320.69
630.802	315.69
631.008	326.69
631.214	311.69
631.42	319.69
631.627	300.69
631.833	315.69
632.039	324.69
632.245	300.69
632.451	302.69
632.657	324.69
632.863	299.69
633.069	304.69
633.275	294.69
633.481	300.69
633.688	279.69
633.893	303.69
634.099	299.69
634.305	304.69
634.511	290.69
634.717	318.69
634.923	312.69
635.129	329.69
635.335	351.69
635.541	330.69
635.747	308.69
635.952	316.69
636.158	311.69
636.364	313.69
636.57	326.69
636.775	310.69
636.981	325.69
637.187	302.69
637.392	287.69
637.598	305.69
637.804	306.69
638.009	298.69
638.215	296.69
638.421	304.69
638.626	321.69
638.832	286.69
639.037	311.69
639.243	309.69
639.448	334.69
639.654	298.69
639.859	291.69
640.065	304.69
640.27	306.69
640.475	296.69
640.681	300.69
640.886	321.69
641.091	308.69
641.297	304.69
641.502	318.69
641.707	306.69
641.913	334.69
642.118	315.69
642.323	330.69
642.528	337.69
642.733	328.69
642.939	355.69
643.144	347.69
643.349	386.69
643.554	370.69
643.759	379.69
643.964	383.69
644.169	397.69
644.374	428.69
644.579	454.69
644.784	495.69
644.989	548.69
645.194	608.69
645.399	664.69
645.604	667.69
645.809	551.69
646.014	459.69
646.219	418.69
646.423	399.69
646.628	352.69
646.833	340.69
647.038	325.69
647.243	302.69
647.447	316.69
647.652	302.69
647.857	307.69
648.062	312.69
648.266	301.69
648.471	302.69
648.676	284.69
648.88	291.69
649.085	271.69
649.289	288.69
649.494	264.69
649.698	275.69
649.903	280.69
650.107	266.69
650.312	284.69
650.516	242.69
650.721	248.69
650.925	229.69
651.13	235.69
651.334	240.69
651.539	225.69
651.743	244.69
651.947	220.69
652.152	243.69
652.356	232.69
652.56	246.69
652.764	273.69
652.969	245.69
653.173	231.69
653.377	212.69
653.581	199.69
653.785	215.69
653.99	227.69
654.194	208.69
654.398	200.69
654.602	203.69
654.806	210.69
655.01	222.69
655.214	223.69
655.418	207.69
655.622	230.69
655.826	223.69
656.03	218.69
656.234	231.69
656.438	222.69
656.642	230.69
656.846	214.69
657.049	224.69
657.253	206.69
657.457	187.69
657.661	174.69
657.865	169.69
658.068	160.69
658.272	156.69
658.476	154.69
658.68	153.69
658.883	151.69
659.087	145.69
659.291	127.69
659.494	142.69
659.698	152.69
659.901	133.69
660.105	121.69
660.309	121.69
660.512	109.69
660.716	113.69
660.919	123.69
661.123	120.69
661.326	107.69
661.53	92.69
661.733	103.69
661.936	107.69
662.14	94.69
662.343	96.69
662.546	88.69
662.75	85.69
662.953	92.69
663.156	88.69
663.36	87.69
663.563	102.69
663.766	86.69
663.969	84.69
664.173	83.69
664.376	72.69
664.579	86.69
664.782	87.69
664.985	91.69
665.188	89.69
665.391	85.69
665.594	78.69
665.797	72.69
666	84.69
666.203	75.69
666.406	84.69
666.609	83.69
666.812	81.69
667.015	86.69
667.218	90.69
667.421	81.69
667.624	113.69
667.827	80.69
668.03	87.69
668.232	92.69
668.435	86.69
668.638	80.69
668.841	92.69
669.043	87.69
669.246	76.69
669.449	90.69
669.651	83.69
669.854	92.69
670.057	84.69
670.259	88.69
670.462	85.69
670.665	85.69
670.867	88.69
671.07	78.69
671.272	80.69
671.475	106.69
671.677	96.69
671.88	80.69
672.082	88.69
672.284	89.69
672.487	84.69
672.689	93.69
672.892	77.69
