Data from SnStandardFlinnAPT0064_LampEnergy5.5_LIBS07252019.E.O._I.C._HRD10591_15-16-25-492.txt Node
Date: Thu Jul 25 15:16:25 EDT 2019
User: cochatt
Spectrometer: HR+D1059
Trigger mode: 1
Integration Time (sec): 1.000000E-1
Scans to average: 1
Electric dark correction enabled: true
Nonlinearity correction enabled: false
Boxcar width: 0
XAxis mode: Wavelengths
Number of Pixels in Spectrum: 2048
>>>>>Begin Spectral Data<<<<<
223.165	-12.12
223.4	-12.12
223.635	-12.12
223.869	-16.12
224.104	-22.12
224.338	-19.12
224.573	-16.12
224.808	-14.12
225.042	-1.12
225.277	0.88
225.511	3.88
225.746	18.88
225.98	11.88
226.215	-10.12
226.449	6.88
226.683	12.88
226.918	20.88
227.152	34.88
227.387	30.88
227.621	30.88
227.856	46.88
228.09	34.88
228.324	54.88
228.559	50.88
228.793	71.88
229.027	150.88
229.262	161.88
229.496	138.88
229.73	161.88
229.964	150.88
230.199	149.88
230.433	175.88
230.667	155.88
230.901	168.88
231.136	180.88
231.37	195.88
231.604	190.88
231.838	196.88
232.072	236.88
232.306	258.88
232.541	215.88
232.775	197.88
233.009	196.88
233.243	187.88
233.477	217.88
233.711	248.88
233.945	276.88
234.179	247.88
234.413	198.88
234.647	212.88
234.881	216.88
235.115	234.88
235.349	285.88
235.583	349.88
235.817	415.88
236.051	418.88
236.285	297.88
236.519	239.88
236.753	228.88
236.987	232.88
237.221	245.88
237.455	236.88
237.689	213.88
237.922	230.88
238.156	212.88
238.39	225.88
238.624	235.88
238.858	202.88
239.091	232.88
239.325	220.88
239.559	233.88
239.793	233.88
240.027	248.88
240.26	250.88
240.494	248.88
240.728	253.88
240.961	276.88
241.195	295.88
241.429	309.88
241.662	304.88
241.896	341.88
242.13	407.88
242.363	516.88
242.597	625.88
242.83	597.88
243.064	577.88
243.298	698.88
243.531	607.88
243.765	382.88
243.998	320.88
244.232	300.88
244.465	312.88
244.699	300.88
244.932	274.88
245.166	295.88
245.399	310.88
245.633	298.88
245.866	296.88
246.099	302.88
246.333	294.88
246.566	305.88
246.8	289.88
247.033	324.88
247.266	288.88
247.5	288.88
247.733	289.88
247.966	309.88
248.2	334.88
248.433	369.88
248.666	412.88
248.899	394.88
249.133	335.88
249.366	362.88
249.599	396.88
249.832	430.88
250.066	439.88
250.299	370.88
250.532	340.88
250.765	335.88
250.998	336.88
251.231	319.88
251.465	317.88
251.698	328.88
251.931	327.88
252.164	336.88
252.397	341.88
252.63	354.88
252.863	335.88
253.096	351.88
253.329	340.88
253.562	345.88
253.795	346.88
254.028	359.88
254.261	365.88
254.494	352.88
254.727	443.88
254.96	524.88
255.193	498.88
255.426	423.88
255.659	392.88
255.892	381.88
256.124	382.88
256.357	370.88
256.59	411.88
256.823	430.88
257.056	462.88
257.289	543.88
257.521	582.88
257.754	466.88
257.987	423.88
258.22	403.88
258.452	394.88
258.685	404.88
258.918	400.88
259.151	425.88
259.383	466.88
259.616	490.88
259.849	517.88
260.081	455.88
260.314	428.88
260.547	433.88
260.779	408.88
261.012	410.88
261.244	414.88
261.477	462.88
261.71	455.88
261.942	447.88
262.175	447.88
262.407	477.88
262.64	471.88
262.872	481.88
263.105	508.88
263.337	554.88
263.57	549.88
263.802	565.88
264.035	596.88
264.267	572.88
264.499	604.88
264.732	618.88
264.964	617.88
265.197	628.88
265.429	624.88
265.661	646.88
265.894	678.88
266.126	749.88
266.358	804.88
266.591	791.88
266.823	680.88
267.055	625.88
267.287	604.88
267.52	586.88
267.752	598.88
267.984	561.88
268.216	561.88
268.448	565.88
268.681	570.88
268.913	539.88
269.145	537.88
269.377	544.88
269.609	538.88
269.841	552.88
270.073	593.88
270.306	652.88
270.538	888.88
270.77	1222.88
271.002	1501.88
271.234	1062.88
271.466	733.88
271.698	639.88
271.93	567.88
272.162	564.88
272.394	547.88
272.626	534.88
272.858	532.88
273.09	538.88
273.322	520.88
273.553	539.88
273.785	508.88
274.017	518.88
274.249	521.88
274.481	522.88
274.713	530.88
274.945	522.88
275.176	533.88
275.408	541.88
275.64	551.88
275.872	529.88
276.104	539.88
276.335	544.88
276.567	562.88
276.799	554.88
277.031	568.88
277.262	581.88
277.494	591.88
277.726	638.88
277.957	711.88
278.189	790.88
278.421	770.88
278.652	691.88
278.884	642.88
279.115	612.88
279.347	589.88
279.579	586.88
279.81	583.88
280.042	578.88
280.273	596.88
280.505	602.88
280.736	612.88
280.968	641.88
281.199	710.88
281.431	817.88
281.662	795.88
281.894	723.88
282.125	670.88
282.356	684.88
282.588	700.88
282.819	695.88
283.051	738.88
283.282	849.88
283.513	991.88
283.745	1414.88
283.976	2226.88
284.207	3116.88
284.439	2765.88
284.67	1710.88
284.901	1381.88
285.132	1385.88
285.364	1297.88
285.595	1004.88
285.826	944.88
286.057	1101.88
286.288	1505.88
286.52	1989.88
286.751	1805.88
286.982	1171.88
287.213	866.88
287.444	805.88
287.675	753.88
287.906	709.88
288.138	721.88
288.369	718.88
288.6	708.88
288.831	701.88
289.062	709.88
289.293	704.88
289.524	703.88
289.755	751.88
289.986	705.88
290.217	712.88
290.448	721.88
290.679	704.88
290.91	712.88
291.141	766.88
291.371	799.88
291.602	827.88
291.833	791.88
292.064	744.88
292.295	696.88
292.526	681.88
292.757	684.88
292.987	671.88
293.218	659.88
293.449	653.88
293.68	685.88
293.91	670.88
294.141	668.88
294.372	648.88
294.603	660.88
294.833	653.88
295.064	664.88
295.295	659.88
295.525	661.88
295.756	671.88
295.987	654.88
296.217	667.88
296.448	661.88
296.679	681.88
296.909	686.88
297.14	688.88
297.37	693.88
297.601	681.88
297.831	703.88
298.062	690.88
298.292	657.88
298.523	700.88
298.753	689.88
298.984	697.88
299.214	722.88
299.445	742.88
299.675	721.88
299.905	744.88
300.136	794.88
300.366	896.88
300.597	1070.88
300.827	1482.88
301.057	2011.88
301.288	1957.88
301.518	1287.88
301.748	1024.88
301.979	933.88
302.209	900.88
302.439	905.88
302.669	962.88
302.9	1160.88
303.13	1563.88
303.36	2329.88
303.59	3007.88
303.82	2637.88
304.051	1582.88
304.281	1159.88
304.511	994.88
304.741	919.88
304.971	871.88
305.201	837.88
305.431	835.88
305.661	807.88
305.891	793.88
306.121	768.88
306.352	790.88
306.582	786.88
306.812	756.88
307.042	761.88
307.272	781.88
307.502	762.88
307.731	791.88
307.961	812.88
308.191	764.88
308.421	773.88
308.651	766.88
308.881	745.88
309.111	757.88
309.341	774.88
309.571	785.88
309.8	780.88
310.03	787.88
310.26	772.88
310.49	810.88
310.72	778.88
310.949	798.88
311.179	817.88
311.409	808.88
311.639	790.88
311.868	809.88
312.098	823.88
312.328	819.88
312.557	830.88
312.787	829.88
313.017	804.88
313.246	823.88
313.476	837.88
313.706	872.88
313.935	886.88
314.165	944.88
314.394	985.88
314.624	927.88
314.853	892.88
315.083	908.88
315.312	918.88
315.542	902.88
315.771	922.88
316.001	935.88
316.23	956.88
316.46	965.88
316.689	1034.88
316.919	1299.88
317.148	1811.88
317.377	2732.88
317.607	4067.88
317.836	4135.88
318.065	2438.88
318.295	1610.88
318.524	1299.88
318.753	1136.88
318.983	1084.88
319.212	1033.88
319.441	984.88
319.67	1028.88
319.9	981.88
320.129	964.88
320.358	991.88
320.587	964.88
320.816	950.88
321.046	962.88
321.275	951.88
321.504	965.88
321.733	1001.88
321.962	1026.88
322.191	1033.88
322.42	1025.88
322.649	1003.88
322.878	1007.88
323.108	1008.88
323.337	1026.88
323.566	1055.88
323.795	1081.88
324.024	1101.88
324.253	1095.88
324.482	1109.88
324.71	1170.88
324.939	1286.88
325.168	1281.88
325.397	1310.88
325.626	1564.88
325.855	2170.88
326.084	3317.88
326.313	4979.88
326.542	5199.88
326.77	3278.88
326.999	2206.88
327.228	1837.88
327.457	1747.88
327.686	1756.88
327.914	1904.88
328.143	2156.88
328.372	2482.88
328.6	2696.88
328.829	2472.88
329.058	2179.88
329.287	1924.88
329.515	1854.88
329.744	1694.88
329.972	1638.88
330.201	1541.88
330.43	1471.88
330.658	1433.88
330.887	1445.88
331.115	1392.88
331.344	1412.88
331.572	1400.88
331.801	1431.88
332.03	1393.88
332.258	1401.88
332.486	1503.88
332.715	1678.88
332.943	2049.88
333.172	2472.88
333.4	2412.88
333.629	1938.88
333.857	1772.88
334.085	1768.88
334.314	1853.88
334.542	2003.88
334.771	2252.88
334.999	2688.88
335.227	3231.88
335.455	3594.88
335.684	3352.88
335.912	2884.88
336.14	2452.88
336.369	2202.88
336.597	2038.88
336.825	1936.88
337.053	1776.88
337.281	1694.88
337.51	1620.88
337.738	1526.88
337.966	1498.88
338.194	1463.88
338.422	1410.88
338.65	1389.88
338.878	1359.88
339.106	1315.88
339.334	1301.88
339.562	1313.88
339.79	1286.88
340.018	1253.88
340.246	1255.88
340.474	1241.88
340.702	1244.88
340.93	1238.88
341.158	1221.88
341.386	1234.88
341.614	1225.88
341.842	1207.88
342.07	1212.88
342.298	1188.88
342.526	1141.88
342.754	1123.88
342.981	1128.88
343.209	1147.88
343.437	1164.88
343.665	1184.88
343.893	1158.88
344.12	1203.88
344.348	1190.88
344.576	1122.88
344.804	1128.88
345.031	1117.88
345.259	1082.88
345.487	1081.88
345.714	1071.88
345.942	1087.88
346.17	1072.88
346.397	1051.88
346.625	1069.88
346.853	1066.88
347.08	1050.88
347.308	1072.88
347.535	1061.88
347.763	1059.88
347.99	1052.88
348.218	1069.88
348.445	1024.88
348.673	1029.88
348.9	1030.88
349.128	1017.88
349.355	1020.88
349.583	1047.88
349.81	1021.88
350.037	1029.88
350.265	1009.88
350.492	1000.88
350.72	1062.88
350.947	996.88
351.174	1021.88
351.402	1032.88
351.629	1040.88
351.856	1020.88
352.083	1030.88
352.311	1033.88
352.538	1011.88
352.765	1020.88
352.992	1026.88
353.22	989.88
353.447	969.88
353.674	981.88
353.901	996.88
354.128	1006.88
354.355	1010.88
354.583	1009.88
354.81	1012.88
355.037	1016.88
355.264	1024.88
355.491	1033.88
355.718	1046.88
355.945	1033.88
356.172	1047.88
356.399	1070.88
356.626	1006.88
356.853	1055.88
357.08	1053.88
357.307	1054.88
357.534	1048.88
357.761	1064.88
357.988	1112.88
358.215	1062.88
358.441	1072.88
358.668	1086.88
358.895	1087.88
359.122	1080.88
359.349	1070.88
359.576	1121.88
359.802	1081.88
360.029	1081.88
360.256	1069.88
360.483	1081.88
360.709	1086.88
360.936	1082.88
361.163	1100.88
361.39	1075.88
361.616	1077.88
361.843	1108.88
362.07	1081.88
362.296	1050.88
362.523	1093.88
362.749	1061.88
362.976	1094.88
363.203	1081.88
363.429	1060.88
363.656	1046.88
363.882	1047.88
364.109	1059.88
364.335	1070.88
364.562	1096.88
364.788	1044.88
365.015	1081.88
365.241	1096.88
365.468	1144.88
365.694	1155.88
365.92	1142.88
366.147	1090.88
366.373	1101.88
366.599	1087.88
366.826	1102.88
367.052	1077.88
367.278	1112.88
367.505	1112.88
367.731	1102.88
367.957	1079.88
368.184	1144.88
368.41	1105.88
368.636	1134.88
368.862	1108.88
369.089	1119.88
369.315	1122.88
369.541	1093.88
369.767	1102.88
369.993	1080.88
370.219	1096.88
370.445	1124.88
370.672	1148.88
370.898	1119.88
371.124	1138.88
371.35	1135.88
371.576	1185.88
371.802	1147.88
372.028	1172.88
372.254	1199.88
372.48	1197.88
372.706	1169.88
372.932	1186.88
373.158	1198.88
373.384	1188.88
373.61	1171.88
373.835	1190.88
374.061	1176.88
374.287	1183.88
374.513	1172.88
374.739	1238.88
374.965	1234.88
375.191	1241.88
375.416	1182.88
375.642	1198.88
375.868	1254.88
376.094	1191.88
376.319	1193.88
376.545	1208.88
376.771	1187.88
376.997	1178.88
377.222	1183.88
377.448	1170.88
377.674	1170.88
377.899	1146.88
378.125	1141.88
378.35	1178.88
378.576	1158.88
378.802	1164.88
379.027	1205.88
379.253	1204.88
379.478	1277.88
379.704	1456.88
379.929	2022.88
380.155	2952.88
380.38	3133.88
380.606	1958.88
380.831	1462.88
381.057	1305.88
381.282	1217.88
381.507	1162.88
381.733	1178.88
381.958	1199.88
382.184	1153.88
382.409	1132.88
382.634	1152.88
382.86	1125.88
383.085	1148.88
383.31	1150.88
383.535	1149.88
383.761	1174.88
383.986	1160.88
384.211	1153.88
384.436	1166.88
384.662	1178.88
384.887	1191.88
385.112	1202.88
385.337	1183.88
385.562	1202.88
385.787	1201.88
386.013	1197.88
386.238	1203.88
386.463	1174.88
386.688	1157.88
386.913	1194.88
387.138	1207.88
387.363	1241.88
387.588	1180.88
387.813	1166.88
388.038	1184.88
388.263	1200.88
388.488	1186.88
388.713	1175.88
388.938	1216.88
389.163	1186.88
389.387	1185.88
389.612	1154.88
389.837	1176.88
390.062	1207.88
390.287	1192.88
390.512	1218.88
390.736	1240.88
390.961	1209.88
391.186	1232.88
391.411	1244.88
391.636	1238.88
391.86	1282.88
392.085	1257.88
392.31	1256.88
392.534	1253.88
392.759	1234.88
392.984	1210.88
393.208	1237.88
393.433	1217.88
393.658	1249.88
393.882	1170.88
394.107	1200.88
394.331	1205.88
394.556	1210.88
394.78	1182.88
395.005	1215.88
395.229	1238.88
395.454	1237.88
395.678	1250.88
395.903	1246.88
396.127	1239.88
396.352	1214.88
396.576	1230.88
396.801	1216.88
397.025	1282.88
397.249	1225.88
397.474	1257.88
397.698	1238.88
397.922	1275.88
398.147	1244.88
398.371	1303.88
398.595	1286.88
398.82	1316.88
399.044	1396.88
399.268	1422.88
399.492	1564.88
399.717	1600.88
399.941	1561.88
400.165	1536.88
400.389	1475.88
400.613	1440.88
400.837	1387.88
401.062	1317.88
401.286	1320.88
401.51	1342.88
401.734	1356.88
401.958	1325.88
402.182	1319.88
402.406	1339.88
402.63	1308.88
402.854	1376.88
403.078	1293.88
403.302	1309.88
403.526	1317.88
403.75	1370.88
403.974	1376.88
404.198	1367.88
404.422	1368.88
404.645	1348.88
404.869	1347.88
405.093	1382.88
405.317	1348.88
405.541	1362.88
405.765	1384.88
405.988	1385.88
406.212	1380.88
406.436	1365.88
406.66	1416.88
406.883	1410.88
407.107	1417.88
407.331	1425.88
407.555	1504.88
407.778	1471.88
408.002	1463.88
408.226	1452.88
408.449	1450.88
408.673	1430.88
408.896	1403.88
409.12	1395.88
409.344	1422.88
409.567	1350.88
409.791	1395.88
410.014	1359.88
410.238	1330.88
410.461	1330.88
410.685	1348.88
410.908	1320.88
411.132	1334.88
411.355	1306.88
411.578	1303.88
411.802	1315.88
412.025	1325.88
412.249	1369.88
412.472	1314.88
412.695	1292.88
412.919	1308.88
413.142	1341.88
413.365	1273.88
413.589	1296.88
413.812	1284.88
414.035	1313.88
414.258	1302.88
414.482	1286.88
414.705	1303.88
414.928	1288.88
415.151	1299.88
415.374	1281.88
415.597	1269.88
415.821	1281.88
416.044	1229.88
416.267	1230.88
416.49	1236.88
416.713	1252.88
416.936	1249.88
417.159	1226.88
417.382	1217.88
417.605	1197.88
417.828	1249.88
418.051	1254.88
418.274	1247.88
418.497	1243.88
418.72	1277.88
418.943	1273.88
419.166	1332.88
419.389	1398.88
419.611	1349.88
419.834	1310.88
420.057	1310.88
420.28	1289.88
420.503	1244.88
420.726	1223.88
420.948	1236.88
421.171	1234.88
421.394	1232.88
421.617	1241.88
421.839	1256.88
422.062	1276.88
422.285	1238.88
422.507	1248.88
422.73	1272.88
422.953	1268.88
423.175	1293.88
423.398	1297.88
423.621	1275.88
423.843	1276.88
424.066	1260.88
424.288	1238.88
424.511	1263.88
424.733	1254.88
424.956	1254.88
425.178	1229.88
425.401	1246.88
425.623	1234.88
425.846	1184.88
426.068	1232.88
426.291	1236.88
426.513	1231.88
426.735	1204.88
426.958	1182.88
427.18	1179.88
427.402	1186.88
427.625	1202.88
427.847	1172.88
428.069	1156.88
428.292	1153.88
428.514	1134.88
428.736	1142.88
428.958	1160.88
429.181	1139.88
429.403	1137.88
429.625	1110.88
429.847	1116.88
430.069	1157.88
430.292	1228.88
430.514	1216.88
430.736	1224.88
430.958	1183.88
431.18	1157.88
431.402	1143.88
431.624	1141.88
431.846	1158.88
432.068	1122.88
432.29	1118.88
432.512	1128.88
432.734	1124.88
432.956	1137.88
433.178	1122.88
433.4	1164.88
433.622	1168.88
433.844	1162.88
434.066	1150.88
434.287	1149.88
434.509	1149.88
434.731	1164.88
434.953	1184.88
435.175	1180.88
435.397	1212.88
435.618	1190.88
435.84	1187.88
436.062	1136.88
436.284	1144.88
436.505	1178.88
436.727	1120.88
436.949	1140.88
437.17	1103.88
437.392	1115.88
437.614	1133.88
437.835	1085.88
438.057	1096.88
438.278	1095.88
438.5	1103.88
438.721	1140.88
438.943	1167.88
439.165	1191.88
439.386	1172.88
439.608	1169.88
439.829	1209.88
440.05	1216.88
440.272	1226.88
440.493	1195.88
440.715	1155.88
440.936	1206.88
441.158	1205.88
441.379	1195.88
441.6	1244.88
441.822	1291.88
442.043	1348.88
442.264	1351.88
442.486	1240.88
442.707	1224.88
442.928	1237.88
443.149	1242.88
443.371	1220.88
443.592	1224.88
443.813	1221.88
444.034	1255.88
444.255	1260.88
444.476	1275.88
444.698	1321.88
444.919	1302.88
445.14	1398.88
445.361	1312.88
445.582	1251.88
445.803	1227.88
446.024	1246.88
446.245	1237.88
446.466	1192.88
446.687	1202.88
446.908	1206.88
447.129	1190.88
447.35	1178.88
447.571	1177.88
447.792	1165.88
448.013	1148.88
448.234	1152.88
448.455	1132.88
448.675	1158.88
448.896	1171.88
449.117	1209.88
449.338	1256.88
449.559	1311.88
449.779	1185.88
450	1128.88
450.221	1148.88
450.442	1122.88
450.662	1061.88
450.883	1094.88
451.104	1110.88
451.324	1082.88
451.545	1085.88
451.766	1112.88
451.986	1132.88
452.207	1162.88
452.428	1408.88
452.648	1972.88
452.869	1703.88
453.089	1271.88
453.31	1225.88
453.53	1190.88
453.751	1222.88
453.971	1311.88
454.192	1282.88
454.412	1116.88
454.633	1101.88
454.853	1076.88
455.073	1053.88
455.294	1068.88
455.514	1055.88
455.734	1075.88
455.955	1031.88
456.175	1031.88
456.395	1045.88
456.616	1042.88
456.836	1052.88
457.056	1088.88
457.276	1052.88
457.497	1121.88
457.717	1110.88
457.937	1101.88
458.157	1098.88
458.377	1129.88
458.598	1081.88
458.818	1102.88
459.038	1124.88
459.258	1143.88
459.478	1138.88
459.698	1176.88
459.918	1170.88
460.138	1197.88
460.358	1208.88
460.578	1200.88
460.798	1223.88
461.018	1245.88
461.238	1232.88
461.458	1271.88
461.678	1264.88
461.898	1298.88
462.118	1268.88
462.338	1337.88
462.558	1304.88
462.777	1330.88
462.997	1408.88
463.217	1422.88
463.437	1496.88
463.657	1486.88
463.876	1491.88
464.096	1424.88
464.316	1369.88
464.536	1341.88
464.755	1326.88
464.975	1273.88
465.195	1248.88
465.414	1210.88
465.634	1169.88
465.854	1214.88
466.073	1172.88
466.293	1152.88
466.512	1141.88
466.732	1169.88
466.951	1204.88
467.171	1295.88
467.391	1246.88
467.61	1159.88
467.829	1140.88
468.049	1137.88
468.268	1127.88
468.488	1123.88
468.707	1106.88
468.927	1149.88
469.146	1104.88
469.365	1130.88
469.585	1144.88
469.804	1156.88
470.023	1193.88
470.243	1175.88
470.462	1205.88
470.681	1284.88
470.901	1396.88
471.12	1586.88
471.339	1580.88
471.558	1369.88
471.777	1230.88
471.997	1198.88
472.216	1171.88
472.435	1146.88
472.654	1100.88
472.873	1116.88
473.092	1119.88
473.311	1132.88
473.53	1166.88
473.749	1162.88
473.968	1194.88
474.187	1130.88
474.406	1110.88
474.625	1151.88
474.844	1124.88
475.063	1127.88
475.282	1137.88
475.501	1106.88
475.72	1148.88
475.939	1148.88
476.158	1200.88
476.377	1206.88
476.596	1171.88
476.814	1165.88
477.033	1191.88
477.252	1158.88
477.471	1208.88
477.69	1226.88
477.908	1250.88
478.127	1297.88
478.346	1312.88
478.564	1337.88
478.783	1299.88
479.002	1332.88
479.22	1342.88
479.439	1324.88
479.658	1330.88
479.876	1322.88
480.095	1340.88
480.313	1353.88
480.532	1373.88
480.751	1356.88
480.969	1344.88
481.188	1334.88
481.406	1333.88
481.624	1324.88
481.843	1332.88
482.061	1350.88
482.28	1326.88
482.498	1352.88
482.717	1334.88
482.935	1337.88
483.153	1395.88
483.372	1396.88
483.59	1433.88
483.808	1390.88
484.027	1402.88
484.245	1493.88
484.463	1677.88
484.681	1810.88
484.9	1706.88
485.118	1593.88
485.336	1538.88
485.554	1576.88
485.772	1633.88
485.99	1875.88
486.209	1983.88
486.427	1677.88
486.645	1552.88
486.863	1477.88
487.081	1456.88
487.299	1487.88
487.517	1479.88
487.735	1444.88
487.953	1463.88
488.171	1441.88
488.389	1448.88
488.607	1422.88
488.825	1392.88
489.043	1393.88
489.261	1388.88
489.479	1378.88
489.696	1388.88
489.914	1358.88
490.132	1418.88
490.35	1420.88
490.568	1412.88
490.786	1454.88
491.003	1462.88
491.221	1482.88
491.439	1511.88
491.657	1490.88
491.874	1498.88
492.092	1478.88
492.31	1560.88
492.527	1532.88
492.745	1484.88
492.963	1480.88
493.18	1451.88
493.398	1504.88
493.615	1497.88
493.833	1476.88
494.05	1456.88
494.268	1485.88
494.485	1482.88
494.703	1469.88
494.92	1490.88
495.138	1480.88
495.355	1501.88
495.573	1513.88
495.79	1498.88
496.008	1528.88
496.225	1545.88
496.442	1598.88
496.66	1577.88
496.877	1636.88
497.094	1630.88
497.312	1568.88
497.529	1632.88
497.746	1636.88
497.963	1622.88
498.181	1674.88
498.398	1688.88
498.615	1705.88
498.832	1828.88
499.049	1926.88
499.267	1997.88
499.484	2142.88
499.701	2146.88
499.918	2235.88
500.135	2346.88
500.352	2487.88
500.569	2550.88
500.786	2525.88
501.003	2397.88
501.22	2294.88
501.437	2218.88
501.654	2028.88
501.871	1977.88
502.088	1896.88
502.305	1800.88
502.522	1792.88
502.739	1724.88
502.956	1656.88
503.172	1651.88
503.389	1577.88
503.606	1554.88
503.823	1521.88
504.04	1540.88
504.256	1522.88
504.473	1530.88
504.69	1506.88
504.907	1526.88
505.123	1476.88
505.34	1438.88
505.557	1401.88
505.773	1347.88
505.99	1385.88
506.207	1401.88
506.423	1360.88
506.64	1328.88
506.856	1296.88
507.073	1325.88
507.289	1294.88
507.506	1296.88
507.722	1303.88
507.939	1282.88
508.155	1297.88
508.372	1244.88
508.588	1255.88
508.805	1233.88
509.021	1253.88
509.238	1280.88
509.454	1326.88
509.67	1425.88
509.887	1305.88
510.103	1268.88
510.319	1269.88
510.536	1279.88
510.752	1240.88
510.968	1241.88
511.184	1193.88
511.401	1207.88
511.617	1221.88
511.833	1223.88
512.049	1188.88
512.265	1229.88
512.481	1188.88
512.698	1183.88
512.914	1205.88
513.13	1189.88
513.346	1231.88
513.562	1190.88
513.778	1216.88
513.994	1216.88
514.21	1244.88
514.426	1308.88
514.642	1310.88
514.858	1258.88
515.074	1236.88
515.29	1269.88
515.506	1231.88
515.721	1243.88
515.937	1256.88
516.153	1272.88
516.369	1239.88
516.585	1242.88
516.801	1284.88
517.016	1307.88
517.232	1370.88
517.448	1379.88
517.664	1399.88
517.879	1398.88
518.095	1387.88
518.311	1360.88
518.527	1317.88
518.742	1322.88
518.958	1341.88
519.173	1350.88
519.389	1351.88
519.605	1255.88
519.82	1281.88
520.036	1263.88
520.251	1223.88
520.467	1230.88
520.682	1222.88
520.898	1182.88
521.113	1201.88
521.329	1210.88
521.544	1217.88
521.76	1193.88
521.975	1178.88
522.19	1187.88
522.406	1186.88
522.621	1190.88
522.836	1167.88
523.052	1216.88
523.267	1200.88
523.482	1176.88
523.698	1147.88
523.913	1166.88
524.128	1120.88
524.343	1176.88
524.559	1196.88
524.774	1167.88
524.989	1187.88
525.204	1177.88
525.419	1209.88
525.634	1178.88
525.849	1181.88
526.064	1148.88
526.28	1141.88
526.495	1146.88
526.71	1160.88
526.925	1171.88
527.14	1177.88
527.355	1137.88
527.57	1173.88
527.785	1188.88
527.999	1191.88
528.214	1172.88
528.429	1207.88
528.644	1198.88
528.859	1253.88
529.074	1245.88
529.289	1292.88
529.503	1262.88
529.718	1226.88
529.933	1228.88
530.148	1238.88
530.363	1203.88
530.577	1217.88
530.792	1209.88
531.007	1245.88
531.221	1259.88
531.436	1248.88
531.651	1224.88
531.865	1265.88
532.08	1284.88
532.295	1297.88
532.509	1386.88
532.724	1377.88
532.938	1373.88
533.153	1436.88
533.367	1465.88
533.582	1556.88
533.796	1519.88
534.011	1494.88
534.225	1443.88
534.44	1421.88
534.654	1389.88
534.868	1394.88
535.083	1358.88
535.297	1362.88
535.511	1359.88
535.726	1293.88
535.94	1276.88
536.154	1262.88
536.369	1239.88
536.583	1235.88
536.797	1240.88
537.011	1192.88
537.225	1231.88
537.44	1192.88
537.654	1181.88
537.868	1170.88
538.082	1186.88
538.296	1174.88
538.51	1169.88
538.724	1163.88
538.938	1150.88
539.153	1164.88
539.367	1154.88
539.581	1186.88
539.795	1139.88
540.009	1124.88
540.222	1116.88
540.436	1107.88
540.65	1133.88
540.864	1144.88
541.078	1198.88
541.292	1236.88
541.506	1445.88
541.72	1507.88
541.934	1349.88
542.147	1275.88
542.361	1218.88
542.575	1160.88
542.789	1145.88
543.002	1118.88
543.216	1094.88
543.43	1109.88
543.644	1070.88
543.857	1093.88
544.071	1140.88
544.285	1147.88
544.498	1121.88
544.712	1123.88
544.925	1166.88
545.139	1108.88
545.352	1112.88
545.566	1124.88
545.779	1139.88
545.993	1154.88
546.206	1148.88
546.42	1132.88
546.633	1134.88
546.847	1124.88
547.06	1098.88
547.274	1152.88
547.487	1125.88
547.7	1106.88
547.914	1126.88
548.127	1141.88
548.34	1129.88
548.554	1143.88
548.767	1152.88
548.98	1119.88
549.193	1126.88
549.407	1113.88
549.62	1188.88
549.833	1162.88
550.046	1124.88
550.259	1175.88
550.473	1140.88
550.686	1111.88
550.899	1137.88
551.112	1118.88
551.325	1119.88
551.538	1131.88
551.751	1093.88
551.964	1091.88
552.177	1136.88
552.39	1185.88
552.603	1202.88
552.816	1162.88
553.029	1237.88
553.242	1246.88
553.455	1236.88
553.667	1227.88
553.88	1263.88
554.093	1236.88
554.306	1264.88
554.519	1266.88
554.732	1254.88
554.944	1288.88
555.157	1299.88
555.37	1306.88
555.583	1362.88
555.795	1386.88
556.008	1470.88
556.221	1564.88
556.433	1641.88
556.646	1688.88
556.859	1646.88
557.071	1546.88
557.284	1541.88
557.496	1540.88
557.709	1553.88
557.921	1475.88
558.134	1506.88
558.346	1500.88
558.559	1543.88
558.771	1576.88
558.984	1705.88
559.196	1791.88
559.409	1739.88
559.621	1629.88
559.833	1575.88
560.046	1460.88
560.258	1443.88
560.47	1362.88
560.683	1380.88
560.895	1313.88
561.107	1262.88
561.32	1249.88
561.532	1214.88
561.744	1231.88
561.956	1181.88
562.168	1150.88
562.381	1144.88
562.593	1166.88
562.805	1170.88
563.017	1150.88
563.229	1167.88
563.441	1291.88
563.653	1147.88
563.865	1079.88
564.077	1054.88
564.289	1025.88
564.501	1046.88
564.713	1016.88
564.925	1010.88
565.137	1017.88
565.349	1041.88
565.561	1050.88
565.773	1036.88
565.985	1077.88
566.197	1084.88
566.408	1117.88
566.62	1108.88
566.832	1139.88
567.044	1188.88
567.255	1156.88
567.467	1175.88
567.679	1193.88
567.891	1225.88
568.102	1364.88
568.314	1560.88
568.526	1346.88
568.737	1165.88
568.949	1085.88
569.161	1015.88
569.372	980.88
569.584	958.88
569.795	944.88
570.007	936.88
570.218	943.88
570.43	980.88
570.641	898.88
570.853	896.88
571.064	906.88
571.276	889.88
571.487	879.88
571.698	845.88
571.91	827.88
572.121	805.88
572.333	839.88
572.544	830.88
572.755	895.88
572.966	1016.88
573.178	910.88
573.389	837.88
573.6	776.88
573.811	770.88
574.023	783.88
574.234	784.88
574.445	777.88
574.656	751.88
574.867	750.88
575.078	765.88
575.289	746.88
575.501	776.88
575.712	751.88
575.923	739.88
576.134	753.88
576.345	761.88
576.556	773.88
576.767	740.88
576.978	771.88
577.188	790.88
577.399	772.88
577.61	763.88
577.821	760.88
578.032	790.88
578.243	797.88
578.454	806.88
578.665	821.88
578.875	807.88
579.086	857.88
579.297	877.88
579.508	892.88
579.718	973.88
579.929	1076.88
580.14	1186.88
580.35	1218.88
580.561	1185.88
580.772	1089.88
580.982	1009.88
581.193	969.88
581.403	929.88
581.614	894.88
581.825	862.88
582.035	859.88
582.246	803.88
582.456	773.88
582.667	783.88
582.877	737.88
583.087	738.88
583.298	728.88
583.508	710.88
583.719	706.88
583.929	692.88
584.139	679.88
584.35	660.88
584.56	658.88
584.77	659.88
584.981	630.88
585.191	618.88
585.401	644.88
585.611	609.88
585.821	610.88
586.032	613.88
586.242	622.88
586.452	607.88
586.662	606.88
586.872	586.88
587.082	583.88
587.292	573.88
587.502	568.88
587.713	583.88
587.923	584.88
588.133	590.88
588.343	567.88
588.553	558.88
588.762	553.88
588.972	549.88
589.182	566.88
589.392	547.88
589.602	554.88
589.812	533.88
590.022	526.88
590.232	515.88
590.441	529.88
590.651	540.88
590.861	520.88
591.071	534.88
591.281	538.88
591.49	531.88
591.7	558.88
591.91	571.88
592.119	556.88
592.329	536.88
592.539	554.88
592.748	581.88
592.958	571.88
593.167	536.88
593.377	580.88
593.587	577.88
593.796	575.88
594.006	582.88
594.215	586.88
594.424	583.88
594.634	550.88
594.843	551.88
595.053	562.88
595.262	535.88
595.472	530.88
595.681	519.88
595.89	525.88
596.1	493.88
596.309	496.88
596.518	501.88
596.727	496.88
596.937	481.88
597.146	508.88
597.355	487.88
597.564	485.88
597.774	463.88
597.983	461.88
598.192	461.88
598.401	464.88
598.61	455.88
598.819	465.88
599.028	465.88
599.237	470.88
599.446	464.88
599.655	471.88
599.864	469.88
600.073	455.88
600.282	440.88
600.491	456.88
600.7	455.88
600.909	459.88
601.118	451.88
601.327	450.88
601.536	442.88
601.745	470.88
601.953	501.88
602.162	565.88
602.371	488.88
602.58	468.88
602.789	476.88
602.997	447.88
603.206	444.88
603.415	445.88
603.623	444.88
603.832	427.88
604.041	399.88
604.249	424.88
604.458	423.88
604.666	435.88
604.875	408.88
605.084	423.88
605.292	431.88
605.501	459.88
605.709	461.88
605.918	440.88
606.126	419.88
606.334	455.88
606.543	468.88
606.751	470.88
606.96	526.88
607.168	556.88
607.376	508.88
607.585	466.88
607.793	442.88
608.001	449.88
608.21	428.88
608.418	436.88
608.626	415.88
608.834	425.88
609.043	413.88
609.251	433.88
609.459	399.88
609.667	414.88
609.875	407.88
610.083	420.88
610.291	415.88
610.499	421.88
610.707	400.88
610.916	396.88
611.124	387.88
611.332	418.88
611.54	396.88
611.748	404.88
611.955	404.88
612.163	384.88
612.371	409.88
612.579	400.88
612.787	385.88
612.995	393.88
613.203	397.88
613.411	397.88
613.618	394.88
613.826	389.88
614.034	408.88
614.242	392.88
614.449	399.88
614.657	394.88
614.865	408.88
615.072	387.88
615.28	406.88
615.488	403.88
615.695	409.88
615.903	383.88
616.111	406.88
616.318	396.88
616.526	400.88
616.733	395.88
616.941	387.88
617.148	391.88
617.356	412.88
617.563	377.88
617.771	385.88
617.978	378.88
618.185	388.88
618.393	373.88
618.6	378.88
618.807	381.88
619.015	376.88
619.222	386.88
619.429	376.88
619.637	376.88
619.844	368.88
620.051	356.88
620.258	378.88
620.466	348.88
620.673	338.88
620.88	369.88
621.087	360.88
621.294	345.88
621.501	369.88
621.708	349.88
621.915	359.88
622.122	350.88
622.329	368.88
622.536	348.88
622.743	349.88
622.95	342.88
623.157	348.88
623.364	375.88
623.571	348.88
623.778	334.88
623.985	342.88
624.192	367.88
624.399	344.88
624.606	329.88
624.812	358.88
625.019	331.88
625.226	328.88
625.433	335.88
625.639	335.88
625.846	316.88
626.053	321.88
626.259	330.88
626.466	317.88
626.673	316.88
626.879	316.88
627.086	325.88
627.293	312.88
627.499	297.88
627.706	330.88
627.912	324.88
628.119	326.88
628.325	346.88
628.532	312.88
628.738	321.88
628.945	329.88
629.151	319.88
629.357	308.88
629.564	315.88
629.77	329.88
629.976	291.88
630.183	308.88
630.389	308.88
630.595	313.88
630.802	305.88
631.008	322.88
631.214	319.88
631.42	328.88
631.627	312.88
631.833	303.88
632.039	292.88
632.245	322.88
632.451	289.88
632.657	279.88
632.863	313.88
633.069	310.88
633.275	307.88
633.481	290.88
633.688	297.88
633.893	293.88
634.099	305.88
634.305	301.88
634.511	310.88
634.717	306.88
634.923	289.88
635.129	334.88
635.335	376.88
635.541	330.88
635.747	325.88
635.952	322.88
636.158	295.88
636.364	296.88
636.57	307.88
636.775	298.88
636.981	303.88
637.187	310.88
637.392	288.88
637.598	291.88
637.804	304.88
638.009	304.88
638.215	296.88
638.421	303.88
638.626	313.88
638.832	301.88
639.037	300.88
639.243	321.88
639.448	312.88
639.654	284.88
639.859	304.88
640.065	301.88
640.27	311.88
640.475	316.88
640.681	300.88
640.886	303.88
641.091	307.88
641.297	308.88
641.502	320.88
641.707	307.88
641.913	330.88
642.118	343.88
642.323	340.88
642.528	347.88
642.733	334.88
642.939	368.88
643.144	366.88
643.349	363.88
643.554	374.88
643.759	398.88
643.964	390.88
644.169	430.88
644.374	457.88
644.579	474.88
644.784	493.88
644.989	550.88
645.194	618.88
645.399	696.88
645.604	729.88
645.809	589.88
646.014	495.88
646.219	434.88
646.423	388.88
646.628	368.88
646.833	352.88
647.038	335.88
647.243	324.88
647.447	315.88
647.652	303.88
647.857	293.88
648.062	309.88
648.266	292.88
648.471	284.88
648.676	279.88
648.88	294.88
649.085	267.88
649.289	265.88
649.494	291.88
649.698	276.88
649.903	249.88
650.107	250.88
650.312	268.88
650.516	270.88
650.721	243.88
650.925	252.88
651.13	221.88
651.334	242.88
651.539	215.88
651.743	221.88
651.947	228.88
652.152	232.88
652.356	240.88
652.56	250.88
652.764	242.88
652.969	245.88
653.173	230.88
653.377	217.88
653.581	210.88
653.785	216.88
653.99	219.88
654.194	206.88
654.398	215.88
654.602	229.88
654.806	201.88
655.01	206.88
655.214	207.88
655.418	191.88
655.622	206.88
655.826	193.88
656.03	209.88
656.234	220.88
656.438	224.88
656.642	221.88
656.846	227.88
657.049	222.88
657.253	186.88
657.457	178.88
657.661	176.88
657.865	173.88
658.068	145.88
658.272	162.88
658.476	154.88
658.68	157.88
658.883	153.88
659.087	138.88
659.291	136.88
659.494	136.88
659.698	134.88
659.901	115.88
660.105	128.88
660.309	124.88
660.512	112.88
660.716	120.88
660.919	106.88
661.123	112.88
661.326	103.88
661.53	110.88
661.733	89.88
661.936	108.88
662.14	90.88
662.343	108.88
662.546	109.88
662.75	96.88
662.953	76.88
663.156	97.88
663.36	80.88
663.563	88.88
663.766	82.88
663.969	96.88
664.173	95.88
664.376	94.88
664.579	82.88
664.782	88.88
664.985	90.88
665.188	82.88
665.391	79.88
665.594	83.88
665.797	69.88
666	71.88
666.203	81.88
666.406	78.88
666.609	89.88
666.812	88.88
667.015	87.88
667.218	76.88
667.421	89.88
667.624	69.88
667.827	79.88
668.03	81.88
668.232	75.88
668.435	80.88
668.638	89.88
668.841	87.88
669.043	72.88
669.246	75.88
669.449	92.88
669.651	93.88
669.854	84.88
670.057	73.88
670.259	81.88
670.462	77.88
670.665	75.88
670.867	86.88
671.07	83.88
671.272	94.88
671.475	91.88
671.677	66.88
671.88	76.88
672.082	72.88
672.284	75.88
672.487	73.88
672.689	67.88
672.892	82.88
