Data from SnStandardFlinnAPT0064_LampEnergy5.5_LIBS07252019.E.O._I.C._HRD10591_15-14-28-490.txt Node
Date: Thu Jul 25 15:14:28 EDT 2019
User: cochatt
Spectrometer: HR+D1059
Trigger mode: 1
Integration Time (sec): 1.000000E-1
Scans to average: 1
Electric dark correction enabled: true
Nonlinearity correction enabled: false
Boxcar width: 0
XAxis mode: Wavelengths
Number of Pixels in Spectrum: 2048
>>>>>Begin Spectral Data<<<<<
223.165	-7.44
223.4	-7.44
223.635	-7.44
223.869	-9.44
224.104	-18.44
224.338	-18.44
224.573	-22.44
224.808	-16.44
225.042	-20.44
225.277	-10.44
225.511	3.56
225.746	-2.44
225.98	12.56
226.215	5.56
226.449	26.56
226.683	15.56
226.918	28.56
227.152	33.56
227.387	33.56
227.621	27.56
227.856	42.56
228.09	46.56
228.324	60.56
228.559	51.56
228.793	76.56
229.027	148.56
229.262	160.56
229.496	148.56
229.73	147.56
229.964	142.56
230.199	155.56
230.433	135.56
230.667	164.56
230.901	174.56
231.136	166.56
231.37	182.56
231.604	172.56
231.838	203.56
232.072	220.56
232.306	218.56
232.541	208.56
232.775	204.56
233.009	211.56
233.243	197.56
233.477	204.56
233.711	226.56
233.945	248.56
234.179	244.56
234.413	200.56
234.647	215.56
234.881	219.56
235.115	241.56
235.349	249.56
235.583	285.56
235.817	374.56
236.051	364.56
236.285	254.56
236.519	238.56
236.753	218.56
236.987	234.56
237.221	244.56
237.455	242.56
237.689	204.56
237.922	206.56
238.156	209.56
238.39	225.56
238.624	213.56
238.858	213.56
239.091	209.56
239.325	227.56
239.559	219.56
239.793	235.56
240.027	234.56
240.26	233.56
240.494	249.56
240.728	256.56
240.961	257.56
241.195	283.56
241.429	269.56
241.662	288.56
241.896	308.56
242.13	357.56
242.363	452.56
242.597	530.56
242.83	550.56
243.064	557.56
243.298	611.56
243.531	548.56
243.765	372.56
243.998	332.56
244.232	280.56
244.465	273.56
244.699	265.56
244.932	276.56
245.166	294.56
245.399	290.56
245.633	304.56
245.866	305.56
246.099	279.56
246.333	281.56
246.566	293.56
246.8	279.56
247.033	286.56
247.266	287.56
247.5	297.56
247.733	286.56
247.966	288.56
248.2	313.56
248.433	344.56
248.666	373.56
248.899	366.56
249.133	336.56
249.366	344.56
249.599	362.56
249.832	401.56
250.066	418.56
250.299	365.56
250.532	336.56
250.765	310.56
250.998	316.56
251.231	310.56
251.465	316.56
251.698	310.56
251.931	330.56
252.164	322.56
252.397	302.56
252.63	331.56
252.863	331.56
253.096	328.56
253.329	344.56
253.562	338.56
253.795	343.56
254.028	328.56
254.261	345.56
254.494	361.56
254.727	396.56
254.96	458.56
255.193	452.56
255.426	369.56
255.659	354.56
255.892	373.56
256.124	362.56
256.357	364.56
256.59	370.56
256.823	412.56
257.056	428.56
257.289	474.56
257.521	529.56
257.754	448.56
257.987	395.56
258.22	390.56
258.452	386.56
258.685	391.56
258.918	387.56
259.151	390.56
259.383	433.56
259.616	444.56
259.849	476.56
260.081	420.56
260.314	435.56
260.547	413.56
260.779	377.56
261.012	403.56
261.244	425.56
261.477	410.56
261.71	439.56
261.942	435.56
262.175	440.56
262.407	439.56
262.64	446.56
262.872	457.56
263.105	489.56
263.337	504.56
263.57	553.56
263.802	546.56
264.035	562.56
264.267	579.56
264.499	591.56
264.732	622.56
264.964	609.56
265.197	599.56
265.429	607.56
265.661	636.56
265.894	648.56
266.126	702.56
266.358	752.56
266.591	754.56
266.823	637.56
267.055	612.56
267.287	590.56
267.52	556.56
267.752	566.56
267.984	560.56
268.216	525.56
268.448	537.56
268.681	538.56
268.913	525.56
269.145	512.56
269.377	503.56
269.609	508.56
269.841	541.56
270.073	559.56
270.306	630.56
270.538	794.56
270.77	1091.56
271.002	1264.56
271.234	980.56
271.466	724.56
271.698	623.56
271.93	575.56
272.162	562.56
272.394	543.56
272.626	518.56
272.858	521.56
273.09	521.56
273.322	507.56
273.553	512.56
273.785	508.56
274.017	509.56
274.249	519.56
274.481	514.56
274.713	512.56
274.945	502.56
275.176	513.56
275.408	529.56
275.64	508.56
275.872	533.56
276.104	541.56
276.335	530.56
276.567	536.56
276.799	534.56
277.031	525.56
277.262	550.56
277.494	578.56
277.726	588.56
277.957	654.56
278.189	722.56
278.421	676.56
278.652	626.56
278.884	621.56
279.115	577.56
279.347	572.56
279.579	577.56
279.81	568.56
280.042	577.56
280.273	567.56
280.505	571.56
280.736	578.56
280.968	613.56
281.199	654.56
281.431	715.56
281.662	733.56
281.894	665.56
282.125	646.56
282.356	627.56
282.588	654.56
282.819	652.56
283.051	690.56
283.282	744.56
283.513	892.56
283.745	1208.56
283.976	1845.56
284.207	2546.56
284.439	2328.56
284.67	1488.56
284.901	1244.56
285.132	1193.56
285.364	1124.56
285.595	931.56
285.826	873.56
286.057	1004.56
286.288	1293.56
286.52	1671.56
286.751	1568.56
286.982	1059.56
287.213	841.56
287.444	787.56
287.675	700.56
287.906	702.56
288.138	692.56
288.369	679.56
288.6	686.56
288.831	670.56
289.062	664.56
289.293	676.56
289.524	681.56
289.755	708.56
289.986	680.56
290.217	665.56
290.448	678.56
290.679	694.56
290.91	711.56
291.141	692.56
291.371	768.56
291.602	766.56
291.833	712.56
292.064	688.56
292.295	665.56
292.526	702.56
292.757	668.56
292.987	633.56
293.218	624.56
293.449	641.56
293.68	675.56
293.91	634.56
294.141	627.56
294.372	628.56
294.603	650.56
294.833	621.56
295.064	653.56
295.295	627.56
295.525	652.56
295.756	651.56
295.987	613.56
296.217	636.56
296.448	625.56
296.679	644.56
296.909	620.56
297.14	627.56
297.37	644.56
297.601	674.56
297.831	650.56
298.062	645.56
298.292	650.56
298.523	653.56
298.753	670.56
298.984	675.56
299.214	655.56
299.445	680.56
299.675	695.56
299.905	718.56
300.136	731.56
300.366	803.56
300.597	964.56
300.827	1291.56
301.057	1686.56
301.288	1677.56
301.518	1159.56
301.748	933.56
301.979	869.56
302.209	857.56
302.439	873.56
302.669	908.56
302.9	1033.56
303.13	1390.56
303.36	1894.56
303.59	2496.56
303.82	2190.56
304.051	1414.56
304.281	1060.56
304.511	913.56
304.741	867.56
304.971	832.56
305.201	808.56
305.431	776.56
305.661	769.56
305.891	761.56
306.121	757.56
306.352	748.56
306.582	754.56
306.812	716.56
307.042	738.56
307.272	742.56
307.502	745.56
307.731	723.56
307.961	744.56
308.191	734.56
308.421	739.56
308.651	729.56
308.881	735.56
309.111	734.56
309.341	746.56
309.571	748.56
309.8	758.56
310.03	768.56
310.26	755.56
310.49	760.56
310.72	743.56
310.949	745.56
311.179	743.56
311.409	765.56
311.639	766.56
311.868	782.56
312.098	766.56
312.328	785.56
312.557	788.56
312.787	777.56
313.017	799.56
313.246	812.56
313.476	818.56
313.706	800.56
313.935	859.56
314.165	891.56
314.394	896.56
314.624	903.56
314.853	845.56
315.083	834.56
315.312	871.56
315.542	864.56
315.771	865.56
316.001	901.56
316.23	886.56
316.46	908.56
316.689	1012.56
316.919	1158.56
317.148	1543.56
317.377	2285.56
317.607	3245.56
317.836	3338.56
318.065	2061.56
318.295	1450.56
318.524	1212.56
318.753	1096.56
318.983	1017.56
319.212	956.56
319.441	963.56
319.67	938.56
319.9	930.56
320.129	944.56
320.358	924.56
320.587	925.56
320.816	935.56
321.046	935.56
321.275	921.56
321.504	940.56
321.733	928.56
321.962	985.56
322.191	962.56
322.42	986.56
322.649	979.56
322.878	990.56
323.108	977.56
323.337	987.56
323.566	970.56
323.795	997.56
324.024	1025.56
324.253	1048.56
324.482	1044.56
324.71	1103.56
324.939	1158.56
325.168	1200.56
325.397	1241.56
325.626	1425.56
325.855	1877.56
326.084	2841.56
326.313	4064.56
326.542	4232.56
326.77	2826.56
326.999	1991.56
327.228	1728.56
327.457	1682.56
327.686	1658.56
327.914	1816.56
328.143	1992.56
328.372	2326.56
328.6	2450.56
328.829	2329.56
329.058	2049.56
329.287	1885.56
329.515	1761.56
329.744	1621.56
329.972	1545.56
330.201	1477.56
330.43	1406.56
330.658	1370.56
330.887	1348.56
331.115	1353.56
331.344	1342.56
331.572	1339.56
331.801	1338.56
332.03	1322.56
332.258	1369.56
332.486	1400.56
332.715	1579.56
332.943	1816.56
333.172	2174.56
333.4	2107.56
333.629	1785.56
333.857	1652.56
334.085	1672.56
334.314	1767.56
334.542	1886.56
334.771	2151.56
334.999	2528.56
335.227	2998.56
335.455	3310.56
335.684	3135.56
335.912	2733.56
336.14	2379.56
336.369	2135.56
336.597	1996.56
336.825	1853.56
337.053	1722.56
337.281	1641.56
337.51	1585.56
337.738	1506.56
337.966	1429.56
338.194	1379.56
338.422	1386.56
338.65	1344.56
338.878	1279.56
339.106	1277.56
339.334	1250.56
339.562	1224.56
339.79	1210.56
340.018	1207.56
340.246	1198.56
340.474	1220.56
340.702	1177.56
340.93	1198.56
341.158	1150.56
341.386	1212.56
341.614	1191.56
341.842	1170.56
342.07	1150.56
342.298	1114.56
342.526	1113.56
342.754	1119.56
342.981	1081.56
343.209	1077.56
343.437	1094.56
343.665	1136.56
343.893	1152.56
344.12	1161.56
344.348	1128.56
344.576	1086.56
344.804	1103.56
345.031	1042.56
345.259	1067.56
345.487	1030.56
345.714	1036.56
345.942	1018.56
346.17	1044.56
346.397	997.56
346.625	992.56
346.853	1058.56
347.08	1003.56
347.308	1008.56
347.535	1009.56
347.763	1010.56
347.99	993.56
348.218	992.56
348.445	1002.56
348.673	980.56
348.9	996.56
349.128	1005.56
349.355	971.56
349.583	997.56
349.81	944.56
350.037	985.56
350.265	990.56
350.492	982.56
350.72	958.56
350.947	968.56
351.174	971.56
351.402	937.56
351.629	961.56
351.856	976.56
352.083	964.56
352.311	996.56
352.538	975.56
352.765	984.56
352.992	969.56
353.22	950.56
353.447	974.56
353.674	968.56
353.901	961.56
354.128	997.56
354.355	985.56
354.583	976.56
354.81	965.56
355.037	1006.56
355.264	960.56
355.491	977.56
355.718	989.56
355.945	970.56
356.172	994.56
356.399	1028.56
356.626	976.56
356.853	994.56
357.08	996.56
357.307	1026.56
357.534	998.56
357.761	1015.56
357.988	1056.56
358.215	1017.56
358.441	1049.56
358.668	1013.56
358.895	1027.56
359.122	1033.56
359.349	1044.56
359.576	1041.56
359.802	1024.56
360.029	1036.56
360.256	1022.56
360.483	1017.56
360.709	1028.56
360.936	1032.56
361.163	1024.56
361.39	1035.56
361.616	1049.56
361.843	1026.56
362.07	1054.56
362.296	1031.56
362.523	1033.56
362.749	1043.56
362.976	1026.56
363.203	1006.56
363.429	1032.56
363.656	1015.56
363.882	1036.56
364.109	1023.56
364.335	1018.56
364.562	1009.56
364.788	1024.56
365.015	1012.56
365.241	1049.56
365.468	1050.56
365.694	1120.56
365.92	1102.56
366.147	1036.56
366.373	1050.56
366.599	1043.56
366.826	1057.56
367.052	1049.56
367.278	1076.56
367.505	1052.56
367.731	1063.56
367.957	1085.56
368.184	1052.56
368.41	1059.56
368.636	1065.56
368.862	1105.56
369.089	1059.56
369.315	1061.56
369.541	1075.56
369.767	1081.56
369.993	1068.56
370.219	1058.56
370.445	1088.56
370.672	1082.56
370.898	1101.56
371.124	1132.56
371.35	1099.56
371.576	1113.56
371.802	1115.56
372.028	1083.56
372.254	1105.56
372.48	1115.56
372.706	1114.56
372.932	1121.56
373.158	1122.56
373.384	1122.56
373.61	1142.56
373.835	1121.56
374.061	1138.56
374.287	1128.56
374.513	1149.56
374.739	1164.56
374.965	1180.56
375.191	1142.56
375.416	1170.56
375.642	1165.56
375.868	1139.56
376.094	1133.56
376.319	1131.56
376.545	1147.56
376.771	1128.56
376.997	1083.56
377.222	1085.56
377.448	1130.56
377.674	1109.56
377.899	1086.56
378.125	1097.56
378.35	1083.56
378.576	1109.56
378.802	1095.56
379.027	1142.56
379.253	1119.56
379.478	1161.56
379.704	1352.56
379.929	1736.56
380.155	2434.56
380.38	2584.56
380.606	1765.56
380.831	1374.56
381.057	1225.56
381.282	1171.56
381.507	1150.56
381.733	1148.56
381.958	1140.56
382.184	1125.56
382.409	1114.56
382.634	1105.56
382.86	1087.56
383.085	1127.56
383.31	1125.56
383.535	1117.56
383.761	1116.56
383.986	1124.56
384.211	1129.56
384.436	1126.56
384.662	1144.56
384.887	1121.56
385.112	1119.56
385.337	1136.56
385.562	1146.56
385.787	1155.56
386.013	1163.56
386.238	1128.56
386.463	1148.56
386.688	1138.56
386.913	1126.56
387.138	1120.56
387.363	1169.56
387.588	1130.56
387.813	1146.56
388.038	1148.56
388.263	1152.56
388.488	1159.56
388.713	1133.56
388.938	1140.56
389.163	1124.56
389.387	1140.56
389.612	1123.56
389.837	1121.56
390.062	1125.56
390.287	1138.56
390.512	1153.56
390.736	1169.56
390.961	1162.56
391.186	1176.56
391.411	1169.56
391.636	1212.56
391.86	1204.56
392.085	1212.56
392.31	1173.56
392.534	1164.56
392.759	1156.56
392.984	1142.56
393.208	1142.56
393.433	1142.56
393.658	1148.56
393.882	1165.56
394.107	1137.56
394.331	1145.56
394.556	1165.56
394.78	1156.56
395.005	1154.56
395.229	1144.56
395.454	1180.56
395.678	1193.56
395.903	1172.56
396.127	1165.56
396.352	1153.56
396.576	1162.56
396.801	1156.56
397.025	1193.56
397.249	1205.56
397.474	1208.56
397.698	1225.56
397.922	1214.56
398.147	1216.56
398.371	1236.56
398.595	1209.56
398.82	1294.56
399.044	1362.56
399.268	1364.56
399.492	1470.56
399.717	1517.56
399.941	1515.56
400.165	1440.56
400.389	1396.56
400.613	1320.56
400.837	1296.56
401.062	1289.56
401.286	1273.56
401.51	1268.56
401.734	1260.56
401.958	1247.56
402.182	1252.56
402.406	1274.56
402.63	1268.56
402.854	1307.56
403.078	1301.56
403.302	1312.56
403.526	1300.56
403.75	1288.56
403.974	1303.56
404.198	1317.56
404.422	1315.56
404.645	1292.56
404.869	1306.56
405.093	1335.56
405.317	1282.56
405.541	1302.56
405.765	1320.56
405.988	1355.56
406.212	1314.56
406.436	1366.56
406.66	1369.56
406.883	1371.56
407.107	1377.56
407.331	1457.56
407.555	1454.56
407.778	1409.56
408.002	1382.56
408.226	1378.56
408.449	1400.56
408.673	1332.56
408.896	1343.56
409.12	1321.56
409.344	1326.56
409.567	1329.56
409.791	1273.56
410.014	1309.56
410.238	1299.56
410.461	1296.56
410.685	1260.56
410.908	1290.56
411.132	1258.56
411.355	1256.56
411.578	1262.56
411.802	1250.56
412.025	1223.56
412.249	1270.56
412.472	1264.56
412.695	1236.56
412.919	1221.56
413.142	1247.56
413.365	1250.56
413.589	1255.56
413.812	1271.56
414.035	1240.56
414.258	1245.56
414.482	1256.56
414.705	1237.56
414.928	1222.56
415.151	1210.56
415.374	1220.56
415.597	1244.56
415.821	1204.56
416.044	1202.56
416.267	1218.56
416.49	1184.56
416.713	1176.56
416.936	1197.56
417.159	1182.56
417.382	1174.56
417.605	1185.56
417.828	1178.56
418.051	1210.56
418.274	1204.56
418.497	1211.56
418.72	1226.56
418.943	1225.56
419.166	1270.56
419.389	1340.56
419.611	1300.56
419.834	1269.56
420.057	1263.56
420.28	1229.56
420.503	1212.56
420.726	1210.56
420.948	1191.56
421.171	1189.56
421.394	1171.56
421.617	1228.56
421.839	1202.56
422.062	1250.56
422.285	1193.56
422.507	1209.56
422.73	1201.56
422.953	1210.56
423.175	1216.56
423.398	1236.56
423.621	1215.56
423.843	1232.56
424.066	1216.56
424.288	1214.56
424.511	1207.56
424.733	1222.56
424.956	1188.56
425.178	1218.56
425.401	1197.56
425.623	1197.56
425.846	1180.56
426.068	1170.56
426.291	1158.56
426.513	1167.56
426.735	1160.56
426.958	1162.56
427.18	1146.56
427.402	1119.56
427.625	1149.56
427.847	1110.56
428.069	1105.56
428.292	1113.56
428.514	1107.56
428.736	1093.56
428.958	1140.56
429.181	1070.56
429.403	1077.56
429.625	1092.56
429.847	1134.56
430.069	1123.56
430.292	1140.56
430.514	1146.56
430.736	1148.56
430.958	1114.56
431.18	1119.56
431.402	1084.56
431.624	1086.56
431.846	1082.56
432.068	1071.56
432.29	1124.56
432.512	1076.56
432.734	1101.56
432.956	1123.56
433.178	1105.56
433.4	1118.56
433.622	1129.56
433.844	1113.56
434.066	1100.56
434.287	1095.56
434.509	1094.56
434.731	1135.56
434.953	1169.56
435.175	1159.56
435.397	1152.56
435.618	1134.56
435.84	1134.56
436.062	1093.56
436.284	1111.56
436.505	1120.56
436.727	1090.56
436.949	1114.56
437.17	1099.56
437.392	1076.56
437.614	1094.56
437.835	1077.56
438.057	1078.56
438.278	1050.56
438.5	1053.56
438.721	1097.56
438.943	1122.56
439.165	1163.56
439.386	1121.56
439.608	1120.56
439.829	1156.56
440.05	1167.56
440.272	1161.56
440.493	1184.56
440.715	1146.56
440.936	1154.56
441.158	1185.56
441.379	1186.56
441.6	1219.56
441.822	1234.56
442.043	1313.56
442.264	1280.56
442.486	1202.56
442.707	1207.56
442.928	1172.56
443.149	1187.56
443.371	1170.56
443.592	1210.56
443.813	1219.56
444.034	1188.56
444.255	1230.56
444.476	1231.56
444.698	1259.56
444.919	1282.56
445.14	1389.56
445.361	1304.56
445.582	1234.56
445.803	1203.56
446.024	1183.56
446.245	1211.56
446.466	1213.56
446.687	1143.56
446.908	1163.56
447.129	1138.56
447.35	1108.56
447.571	1124.56
447.792	1093.56
448.013	1087.56
448.234	1085.56
448.455	1117.56
448.675	1082.56
448.896	1111.56
449.117	1118.56
449.338	1204.56
449.559	1234.56
449.779	1143.56
450	1100.56
450.221	1078.56
450.442	1081.56
450.662	1041.56
450.883	1052.56
451.104	1052.56
451.324	1056.56
451.545	1039.56
451.766	1046.56
451.986	1063.56
452.207	1080.56
452.428	1255.56
452.648	1704.56
452.869	1485.56
453.089	1194.56
453.31	1180.56
453.53	1164.56
453.751	1154.56
453.971	1221.56
454.192	1195.56
454.412	1065.56
454.633	1043.56
454.853	1039.56
455.073	1016.56
455.294	1028.56
455.514	1023.56
455.734	1019.56
455.955	972.56
456.175	994.56
456.395	997.56
456.616	1015.56
456.836	1016.56
457.056	1024.56
457.276	1022.56
457.497	1056.56
457.717	1098.56
457.937	1038.56
458.157	1021.56
458.377	1100.56
458.598	1038.56
458.818	1082.56
459.038	1059.56
459.258	1082.56
459.478	1122.56
459.698	1109.56
459.918	1138.56
460.138	1164.56
460.358	1177.56
460.578	1190.56
460.798	1200.56
461.018	1216.56
461.238	1201.56
461.458	1193.56
461.678	1211.56
461.898	1228.56
462.118	1226.56
462.338	1257.56
462.558	1265.56
462.777	1275.56
462.997	1335.56
463.217	1355.56
463.437	1438.56
463.657	1399.56
463.876	1395.56
464.096	1334.56
464.316	1304.56
464.536	1291.56
464.755	1290.56
464.975	1253.56
465.195	1227.56
465.414	1158.56
465.634	1168.56
465.854	1108.56
466.073	1105.56
466.293	1136.56
466.512	1088.56
466.732	1141.56
466.951	1158.56
467.171	1193.56
467.391	1197.56
467.61	1106.56
467.829	1125.56
468.049	1066.56
468.268	1072.56
468.488	1053.56
468.707	1076.56
468.927	1048.56
469.146	1098.56
469.365	1096.56
469.585	1104.56
469.804	1120.56
470.023	1133.56
470.243	1142.56
470.462	1158.56
470.681	1232.56
470.901	1287.56
471.12	1449.56
471.339	1463.56
471.558	1260.56
471.777	1204.56
471.997	1124.56
472.216	1112.56
472.435	1118.56
472.654	1065.56
472.873	1069.56
473.092	1068.56
473.311	1067.56
473.53	1084.56
473.749	1137.56
473.968	1124.56
474.187	1086.56
474.406	1081.56
474.625	1110.56
474.844	1133.56
475.063	1101.56
475.282	1111.56
475.501	1090.56
475.72	1104.56
475.939	1103.56
476.158	1142.56
476.377	1114.56
476.596	1124.56
476.814	1131.56
477.033	1118.56
477.252	1170.56
477.471	1182.56
477.69	1216.56
477.908	1226.56
478.127	1209.56
478.346	1250.56
478.564	1288.56
478.783	1277.56
479.002	1257.56
479.22	1289.56
479.439	1312.56
479.658	1263.56
479.876	1288.56
480.095	1286.56
480.313	1342.56
480.532	1349.56
480.751	1324.56
480.969	1288.56
481.188	1286.56
481.406	1262.56
481.624	1287.56
481.843	1286.56
482.061	1277.56
482.28	1298.56
482.498	1280.56
482.717	1294.56
482.935	1343.56
483.153	1343.56
483.372	1336.56
483.59	1386.56
483.808	1379.56
484.027	1377.56
484.245	1467.56
484.463	1572.56
484.681	1700.56
484.9	1568.56
485.118	1514.56
485.336	1467.56
485.554	1522.56
485.772	1566.56
485.99	1694.56
486.209	1810.56
486.427	1568.56
486.645	1454.56
486.863	1428.56
487.081	1433.56
487.299	1398.56
487.517	1370.56
487.735	1408.56
487.953	1430.56
488.171	1409.56
488.389	1414.56
488.607	1387.56
488.825	1368.56
489.043	1328.56
489.261	1336.56
489.479	1378.56
489.696	1358.56
489.914	1307.56
490.132	1355.56
490.35	1396.56
490.568	1382.56
490.786	1397.56
491.003	1418.56
491.221	1428.56
491.439	1439.56
491.657	1432.56
491.874	1462.56
492.092	1454.56
492.31	1489.56
492.527	1478.56
492.745	1444.56
492.963	1444.56
493.18	1462.56
493.398	1439.56
493.615	1456.56
493.833	1430.56
494.05	1460.56
494.268	1409.56
494.485	1458.56
494.703	1449.56
494.92	1464.56
495.138	1428.56
495.355	1448.56
495.573	1483.56
495.79	1441.56
496.008	1453.56
496.225	1455.56
496.442	1449.56
496.66	1503.56
496.877	1575.56
497.094	1544.56
497.312	1560.56
497.529	1532.56
497.746	1554.56
497.963	1584.56
498.181	1617.56
498.398	1604.56
498.615	1669.56
498.832	1716.56
499.049	1815.56
499.267	1915.56
499.484	2030.56
499.701	2128.56
499.918	2190.56
500.135	2321.56
500.352	2404.56
500.569	2486.56
500.786	2423.56
501.003	2356.56
501.22	2224.56
501.437	2068.56
501.654	1985.56
501.871	1908.56
502.088	1808.56
502.305	1748.56
502.522	1739.56
502.739	1658.56
502.956	1587.56
503.172	1589.56
503.389	1553.56
503.606	1545.56
503.823	1524.56
504.04	1528.56
504.256	1476.56
504.473	1506.56
504.69	1473.56
504.907	1493.56
505.123	1419.56
505.34	1387.56
505.557	1385.56
505.773	1350.56
505.99	1360.56
506.207	1338.56
506.423	1314.56
506.64	1282.56
506.856	1299.56
507.073	1243.56
507.289	1272.56
507.506	1268.56
507.722	1260.56
507.939	1254.56
508.155	1216.56
508.372	1229.56
508.588	1193.56
508.805	1224.56
509.021	1223.56
509.238	1243.56
509.454	1273.56
509.67	1301.56
509.887	1287.56
510.103	1210.56
510.319	1204.56
510.536	1245.56
510.752	1218.56
510.968	1195.56
511.184	1150.56
511.401	1176.56
511.617	1180.56
511.833	1178.56
512.049	1163.56
512.265	1148.56
512.481	1137.56
512.698	1171.56
512.914	1166.56
513.13	1159.56
513.346	1156.56
513.562	1137.56
513.778	1202.56
513.994	1194.56
514.21	1220.56
514.426	1245.56
514.642	1263.56
514.858	1191.56
515.074	1167.56
515.29	1213.56
515.506	1194.56
515.721	1224.56
515.937	1196.56
516.153	1219.56
516.369	1260.56
516.585	1226.56
516.801	1216.56
517.016	1269.56
517.232	1291.56
517.448	1318.56
517.664	1348.56
517.879	1321.56
518.095	1324.56
518.311	1329.56
518.527	1317.56
518.742	1290.56
518.958	1312.56
519.173	1316.56
519.389	1270.56
519.605	1239.56
519.82	1206.56
520.036	1234.56
520.251	1189.56
520.467	1172.56
520.682	1160.56
520.898	1160.56
521.113	1153.56
521.329	1135.56
521.544	1146.56
521.76	1170.56
521.975	1145.56
522.19	1136.56
522.406	1140.56
522.621	1141.56
522.836	1144.56
523.052	1160.56
523.267	1147.56
523.482	1147.56
523.698	1151.56
523.913	1098.56
524.128	1137.56
524.343	1152.56
524.559	1130.56
524.774	1113.56
524.989	1159.56
525.204	1141.56
525.419	1174.56
525.634	1102.56
525.849	1115.56
526.064	1143.56
526.28	1119.56
526.495	1123.56
526.71	1153.56
526.925	1141.56
527.14	1097.56
527.355	1129.56
527.57	1110.56
527.785	1148.56
527.999	1114.56
528.214	1140.56
528.429	1182.56
528.644	1162.56
528.859	1210.56
529.074	1218.56
529.289	1220.56
529.503	1240.56
529.718	1195.56
529.933	1179.56
530.148	1183.56
530.363	1209.56
530.577	1172.56
530.792	1165.56
531.007	1187.56
531.221	1197.56
531.436	1196.56
531.651	1204.56
531.865	1216.56
532.08	1236.56
532.295	1259.56
532.509	1295.56
532.724	1276.56
532.938	1339.56
533.153	1327.56
533.367	1426.56
533.582	1485.56
533.796	1461.56
534.011	1408.56
534.225	1366.56
534.44	1352.56
534.654	1373.56
534.868	1330.56
535.083	1293.56
535.297	1279.56
535.511	1265.56
535.726	1235.56
535.94	1228.56
536.154	1243.56
536.369	1209.56
536.583	1210.56
536.797	1180.56
537.011	1176.56
537.225	1157.56
537.44	1196.56
537.654	1166.56
537.868	1187.56
538.082	1125.56
538.296	1158.56
538.51	1122.56
538.724	1150.56
538.938	1118.56
539.153	1122.56
539.367	1149.56
539.581	1080.56
539.795	1098.56
540.009	1061.56
540.222	1072.56
540.436	1104.56
540.65	1115.56
540.864	1131.56
541.078	1149.56
541.292	1190.56
541.506	1323.56
541.72	1392.56
541.934	1265.56
542.147	1225.56
542.361	1180.56
542.575	1143.56
542.789	1107.56
543.002	1080.56
543.216	1064.56
543.43	1059.56
543.644	1052.56
543.857	1062.56
544.071	1117.56
544.285	1116.56
544.498	1074.56
544.712	1098.56
544.925	1091.56
545.139	1081.56
545.352	1106.56
545.566	1110.56
545.779	1085.56
545.993	1113.56
546.206	1140.56
546.42	1114.56
546.633	1158.56
546.847	1110.56
547.06	1121.56
547.274	1116.56
547.487	1108.56
547.7	1134.56
547.914	1097.56
548.127	1110.56
548.34	1088.56
548.554	1088.56
548.767	1113.56
548.98	1111.56
549.193	1112.56
549.407	1070.56
549.62	1106.56
549.833	1107.56
550.046	1114.56
550.259	1113.56
550.473	1115.56
550.686	1162.56
550.899	1116.56
551.112	1106.56
551.325	1128.56
551.538	1085.56
551.751	1069.56
551.964	1107.56
552.177	1122.56
552.39	1090.56
552.603	1137.56
552.816	1178.56
553.029	1159.56
553.242	1166.56
553.455	1219.56
553.667	1180.56
553.88	1229.56
554.093	1216.56
554.306	1216.56
554.519	1231.56
554.732	1238.56
554.944	1225.56
555.157	1240.56
555.37	1284.56
555.583	1288.56
555.795	1326.56
556.008	1405.56
556.221	1493.56
556.433	1576.56
556.646	1578.56
556.859	1530.56
557.071	1521.56
557.284	1528.56
557.496	1470.56
557.709	1466.56
557.921	1405.56
558.134	1437.56
558.346	1505.56
558.559	1487.56
558.771	1549.56
558.984	1624.56
559.196	1713.56
559.409	1635.56
559.621	1571.56
559.833	1497.56
560.046	1420.56
560.258	1359.56
560.47	1353.56
560.683	1312.56
560.895	1272.56
561.107	1265.56
561.32	1228.56
561.532	1211.56
561.744	1170.56
561.956	1137.56
562.168	1128.56
562.381	1129.56
562.593	1094.56
562.805	1094.56
563.017	1117.56
563.229	1145.56
563.441	1190.56
563.653	1092.56
563.865	1044.56
564.077	1034.56
564.289	1029.56
564.501	1020.56
564.713	1040.56
564.925	1026.56
565.137	990.56
565.349	991.56
565.561	1004.56
565.773	1029.56
565.985	1032.56
566.197	1038.56
566.408	1041.56
566.62	1074.56
566.832	1129.56
567.044	1125.56
567.255	1089.56
567.467	1132.56
567.679	1176.56
567.891	1195.56
568.102	1274.56
568.314	1427.56
568.526	1284.56
568.737	1112.56
568.949	1051.56
569.161	989.56
569.372	954.56
569.584	923.56
569.795	912.56
570.007	921.56
570.218	930.56
570.43	926.56
570.641	876.56
570.853	885.56
571.064	864.56
571.276	870.56
571.487	855.56
571.698	807.56
571.91	814.56
572.121	836.56
572.333	819.56
572.544	800.56
572.755	832.56
572.966	941.56
573.178	840.56
573.389	806.56
573.6	769.56
573.811	753.56
574.023	751.56
574.234	740.56
574.445	764.56
574.656	742.56
574.867	724.56
575.078	739.56
575.289	719.56
575.501	755.56
575.712	731.56
575.923	716.56
576.134	721.56
576.345	736.56
576.556	741.56
576.767	733.56
576.978	752.56
577.188	760.56
577.399	731.56
577.61	749.56
577.821	763.56
578.032	736.56
578.243	761.56
578.454	789.56
578.665	800.56
578.875	802.56
579.086	830.56
579.297	888.56
579.508	890.56
579.718	939.56
579.929	1017.56
580.14	1092.56
580.35	1143.56
580.561	1090.56
580.772	1045.56
580.982	966.56
581.193	934.56
581.403	892.56
581.614	858.56
581.825	830.56
582.035	804.56
582.246	796.56
582.456	739.56
582.667	740.56
582.877	738.56
583.087	724.56
583.298	717.56
583.508	728.56
583.719	679.56
583.929	666.56
584.139	676.56
584.35	648.56
584.56	629.56
584.77	648.56
584.981	652.56
585.191	633.56
585.401	605.56
585.611	600.56
585.821	594.56
586.032	615.56
586.242	600.56
586.452	599.56
586.662	572.56
586.872	568.56
587.082	562.56
587.292	564.56
587.502	567.56
587.713	533.56
587.923	556.56
588.133	547.56
588.343	574.56
588.553	560.56
588.762	533.56
588.972	560.56
589.182	586.56
589.392	541.56
589.602	531.56
589.812	574.56
590.022	532.56
590.232	526.56
590.441	509.56
590.651	529.56
590.861	532.56
591.071	526.56
591.281	523.56
591.49	536.56
591.7	529.56
591.91	553.56
592.119	532.56
592.329	524.56
592.539	554.56
592.748	555.56
592.958	567.56
593.167	549.56
593.377	549.56
593.587	563.56
593.796	539.56
594.006	555.56
594.215	547.56
594.424	545.56
594.634	554.56
594.843	563.56
595.053	535.56
595.262	515.56
595.472	521.56
595.681	500.56
595.89	496.56
596.1	484.56
596.309	509.56
596.518	495.56
596.727	464.56
596.937	487.56
597.146	475.56
597.355	483.56
597.564	483.56
597.774	457.56
597.983	453.56
598.192	449.56
598.401	456.56
598.61	450.56
598.819	428.56
599.028	425.56
599.237	455.56
599.446	436.56
599.655	428.56
599.864	444.56
600.073	437.56
600.282	432.56
600.491	421.56
600.7	446.56
600.909	442.56
601.118	440.56
601.327	437.56
601.536	426.56
601.745	450.56
601.953	471.56
602.162	525.56
602.371	465.56
602.58	444.56
602.789	441.56
602.997	451.56
603.206	450.56
603.415	429.56
603.623	429.56
603.832	429.56
604.041	436.56
604.249	415.56
604.458	398.56
604.666	397.56
604.875	406.56
605.084	400.56
605.292	415.56
605.501	394.56
605.709	444.56
605.918	435.56
606.126	417.56
606.334	446.56
606.543	437.56
606.751	436.56
606.96	487.56
607.168	539.56
607.376	478.56
607.585	468.56
607.793	450.56
608.001	424.56
608.21	406.56
608.418	404.56
608.626	419.56
608.834	407.56
609.043	425.56
609.251	417.56
609.459	419.56
609.667	412.56
609.875	428.56
610.083	396.56
610.291	416.56
610.499	399.56
610.707	413.56
610.916	397.56
611.124	425.56
611.332	409.56
611.54	399.56
611.748	400.56
611.955	402.56
612.163	381.56
612.371	378.56
612.579	411.56
612.787	404.56
612.995	395.56
613.203	380.56
613.411	392.56
613.618	398.56
613.826	390.56
614.034	398.56
614.242	370.56
614.449	383.56
614.657	392.56
614.865	379.56
615.072	395.56
615.28	376.56
615.488	395.56
615.695	387.56
615.903	388.56
616.111	370.56
616.318	391.56
616.526	378.56
616.733	386.56
616.941	405.56
617.148	379.56
617.356	390.56
617.563	381.56
617.771	380.56
617.978	364.56
618.185	372.56
618.393	380.56
618.6	369.56
618.807	363.56
619.015	372.56
619.222	373.56
619.429	370.56
619.637	361.56
619.844	342.56
620.051	352.56
620.258	361.56
620.466	371.56
620.673	360.56
620.88	339.56
621.087	349.56
621.294	341.56
621.501	328.56
621.708	342.56
621.915	361.56
622.122	364.56
622.329	331.56
622.536	352.56
622.743	359.56
622.95	349.56
623.157	345.56
623.364	318.56
623.571	329.56
623.778	343.56
623.985	329.56
624.192	353.56
624.399	353.56
624.606	338.56
624.812	330.56
625.019	347.56
625.226	330.56
625.433	342.56
625.639	323.56
625.846	346.56
626.053	332.56
626.259	328.56
626.466	334.56
626.673	302.56
626.879	301.56
627.086	305.56
627.293	328.56
627.499	325.56
627.706	349.56
627.912	321.56
628.119	333.56
628.325	328.56
628.532	324.56
628.738	316.56
628.945	321.56
629.151	299.56
629.357	306.56
629.564	307.56
629.77	308.56
629.976	315.56
630.183	298.56
630.389	288.56
630.595	312.56
630.802	288.56
631.008	293.56
631.214	300.56
631.42	284.56
631.627	302.56
631.833	272.56
632.039	296.56
632.245	304.56
632.451	308.56
632.657	292.56
632.863	315.56
633.069	299.56
633.275	308.56
633.481	294.56
633.688	281.56
633.893	290.56
634.099	276.56
634.305	295.56
634.511	296.56
634.717	304.56
634.923	297.56
635.129	342.56
635.335	353.56
635.541	337.56
635.747	304.56
635.952	304.56
636.158	306.56
636.364	296.56
636.57	295.56
636.775	325.56
636.981	300.56
637.187	295.56
637.392	307.56
637.598	293.56
637.804	306.56
638.009	316.56
638.215	293.56
638.421	301.56
638.626	295.56
638.832	306.56
639.037	298.56
639.243	318.56
639.448	311.56
639.654	284.56
639.859	294.56
640.065	290.56
640.27	314.56
640.475	310.56
640.681	301.56
640.886	298.56
641.091	300.56
641.297	327.56
641.502	317.56
641.707	316.56
641.913	308.56
642.118	336.56
642.323	333.56
642.528	336.56
642.733	325.56
642.939	330.56
643.144	362.56
643.349	344.56
643.554	378.56
643.759	390.56
643.964	388.56
644.169	391.56
644.374	398.56
644.579	428.56
644.784	487.56
644.989	505.56
645.194	550.56
645.399	664.56
645.604	656.56
645.809	556.56
646.014	470.56
646.219	412.56
646.423	393.56
646.628	372.56
646.833	326.56
647.038	330.56
647.243	326.56
647.447	283.56
647.652	298.56
647.857	282.56
648.062	305.56
648.266	282.56
648.471	284.56
648.676	277.56
648.88	259.56
649.085	265.56
649.289	271.56
649.494	277.56
649.698	259.56
649.903	261.56
650.107	259.56
650.312	252.56
650.516	232.56
650.721	235.56
650.925	229.56
651.13	243.56
651.334	228.56
651.539	245.56
651.743	229.56
651.947	228.56
652.152	220.56
652.356	245.56
652.56	234.56
652.764	269.56
652.969	246.56
653.173	223.56
653.377	215.56
653.581	212.56
653.785	217.56
653.99	211.56
654.194	209.56
654.398	201.56
654.602	212.56
654.806	201.56
655.01	212.56
655.214	195.56
655.418	200.56
655.622	197.56
655.826	202.56
656.03	213.56
656.234	228.56
656.438	221.56
656.642	231.56
656.846	213.56
657.049	210.56
657.253	182.56
657.457	193.56
657.661	185.56
657.865	172.56
658.068	176.56
658.272	155.56
658.476	140.56
658.68	156.56
658.883	136.56
659.087	135.56
659.291	137.56
659.494	136.56
659.698	137.56
659.901	132.56
660.105	129.56
660.309	136.56
660.512	112.56
660.716	106.56
660.919	118.56
661.123	120.56
661.326	95.56
661.53	99.56
661.733	105.56
661.936	91.56
662.14	104.56
662.343	100.56
662.546	100.56
662.75	85.56
662.953	99.56
663.156	84.56
663.36	86.56
663.563	93.56
663.766	100.56
663.969	102.56
664.173	94.56
664.376	84.56
664.579	98.56
664.782	84.56
664.985	85.56
665.188	90.56
665.391	89.56
665.594	87.56
665.797	86.56
666	91.56
666.203	89.56
666.406	73.56
666.609	90.56
666.812	78.56
667.015	65.56
667.218	96.56
667.421	90.56
667.624	76.56
667.827	92.56
668.03	85.56
668.232	77.56
668.435	88.56
668.638	78.56
668.841	67.56
669.043	87.56
669.246	90.56
669.449	100.56
669.651	91.56
669.854	85.56
670.057	92.56
670.259	70.56
670.462	90.56
670.665	87.56
670.867	80.56
671.07	80.56
671.272	104.56
671.475	84.56
671.677	77.56
671.88	68.56
672.082	89.56
672.284	89.56
672.487	96.56
672.689	79.56
672.892	91.56
