Data from SnStandardFlinnAPT0064_LampEnergy10_LIBS07252019.E.O._I.C._HRD10591_15-22-26-494.txt Node
Date: Thu Jul 25 15:22:26 EDT 2019
User: cochatt
Spectrometer: HR+D1059
Trigger mode: 1
Integration Time (sec): 1.000000E-1
Scans to average: 1
Electric dark correction enabled: true
Nonlinearity correction enabled: false
Boxcar width: 0
XAxis mode: Wavelengths
Number of Pixels in Spectrum: 2048
>>>>>Begin Spectral Data<<<<<
223.165	-27.31
223.4	-27.31
223.635	-27.31
223.869	-16.31
224.104	-24.31
224.338	-5.31
224.573	-3.31
224.808	-7.31
225.042	-2.31
225.277	-14.31
225.511	2.69
225.746	-9.31
225.98	10.69
226.215	6.69
226.449	6.69
226.683	37.69
226.918	21.69
227.152	23.69
227.387	26.69
227.621	25.69
227.856	38.69
228.09	58.69
228.324	57.69
228.559	69.69
228.793	113.69
229.027	316.69
229.262	337.69
229.496	298.69
229.73	299.69
229.964	292.69
230.199	297.69
230.433	302.69
230.667	324.69
230.901	333.69
231.136	347.69
231.37	352.69
231.604	373.69
231.838	420.69
232.072	516.69
232.306	542.69
232.541	454.69
232.775	404.69
233.009	409.69
233.243	402.69
233.477	441.69
233.711	492.69
233.945	562.69
234.179	493.69
234.413	441.69
234.647	430.69
234.881	455.69
235.115	482.69
235.349	606.69
235.583	755.69
235.817	970.69
236.051	962.69
236.285	643.69
236.519	524.69
236.753	484.69
236.987	488.69
237.221	522.69
237.455	517.69
237.689	472.69
237.922	457.69
238.156	468.69
238.39	481.69
238.624	486.69
238.858	481.69
239.091	479.69
239.325	498.69
239.559	494.69
239.793	502.69
240.027	528.69
240.26	519.69
240.494	545.69
240.728	565.69
240.961	606.69
241.195	632.69
241.429	644.69
241.662	707.69
241.896	776.69
242.13	912.69
242.363	1204.69
242.597	1626.69
242.83	1530.69
243.064	1512.69
243.298	1781.69
243.531	1452.69
243.765	932.69
243.998	773.69
244.232	691.69
244.465	665.69
244.699	642.69
244.932	615.69
245.166	638.69
245.399	671.69
245.633	675.69
245.866	682.69
246.099	679.69
246.333	647.69
246.566	623.69
246.8	634.69
247.033	630.69
247.266	639.69
247.5	645.69
247.733	684.69
247.966	701.69
248.2	742.69
248.433	860.69
248.666	977.69
248.899	931.69
249.133	823.69
249.366	868.69
249.599	930.69
249.832	1072.69
250.066	1078.69
250.299	862.69
250.532	776.69
250.765	747.69
250.998	717.69
251.231	728.69
251.465	721.69
251.698	752.69
251.931	731.69
252.164	726.69
252.397	730.69
252.63	785.69
252.863	772.69
253.096	765.69
253.329	800.69
253.562	792.69
253.795	784.69
254.028	778.69
254.261	814.69
254.494	852.69
254.727	998.69
254.96	1233.69
255.193	1247.69
255.426	952.69
255.659	876.69
255.892	836.69
256.124	858.69
256.357	878.69
256.59	900.69
256.823	948.69
257.056	1080.69
257.289	1315.69
257.521	1428.69
257.754	1178.69
257.987	972.69
258.22	921.69
258.452	912.69
258.685	946.69
258.918	930.69
259.151	991.69
259.383	1075.69
259.616	1196.69
259.849	1247.69
260.081	1066.69
260.314	994.69
260.547	948.69
260.779	949.69
261.012	961.69
261.244	969.69
261.477	975.69
261.71	1002.69
261.942	982.69
262.175	1002.69
262.407	1027.69
262.64	1062.69
262.872	1096.69
263.105	1123.69
263.337	1212.69
263.57	1259.69
263.802	1318.69
264.035	1317.69
264.267	1319.69
264.499	1364.69
264.732	1416.69
264.964	1441.69
265.197	1441.69
265.429	1434.69
265.661	1484.69
265.894	1586.69
266.126	1766.69
266.358	1932.69
266.591	1907.69
266.823	1591.69
267.055	1449.69
267.287	1402.69
267.52	1314.69
267.752	1287.69
267.984	1307.69
268.216	1258.69
268.448	1257.69
268.681	1220.69
268.913	1214.69
269.145	1247.69
269.377	1216.69
269.609	1244.69
269.841	1319.69
270.073	1363.69
270.306	1572.69
270.538	2165.69
270.77	3130.69
271.002	3949.69
271.234	2727.69
271.466	1834.69
271.698	1508.69
271.93	1394.69
272.162	1303.69
272.394	1276.69
272.626	1261.69
272.858	1208.69
273.09	1202.69
273.322	1213.69
273.553	1207.69
273.785	1200.69
274.017	1185.69
274.249	1216.69
274.481	1207.69
274.713	1208.69
274.945	1235.69
275.176	1208.69
275.408	1219.69
275.64	1242.69
275.872	1256.69
276.104	1268.69
276.335	1247.69
276.567	1267.69
276.799	1257.69
277.031	1300.69
277.262	1312.69
277.494	1396.69
277.726	1547.69
277.957	1819.69
278.189	2092.69
278.421	1974.69
278.652	1784.69
278.884	1671.69
279.115	1458.69
279.347	1412.69
279.579	1366.69
279.81	1378.69
280.042	1395.69
280.273	1406.69
280.505	1416.69
280.736	1495.69
280.968	1554.69
281.199	1772.69
281.431	2008.69
281.662	2075.69
281.894	1701.69
282.125	1591.69
282.356	1573.69
282.588	1630.69
282.819	1660.69
283.051	1797.69
283.282	2000.69
283.513	2436.69
283.745	3529.69
283.976	5576.69
284.207	7965.69
284.439	7193.69
284.67	4440.69
284.901	3618.69
285.132	3636.69
285.364	3514.69
285.595	2685.69
285.826	2406.69
286.057	2795.69
286.288	3798.69
286.52	5215.69
286.751	4847.69
286.982	2956.69
287.213	2228.69
287.444	1941.69
287.675	1869.69
287.906	1761.69
288.138	1700.69
288.369	1729.69
288.6	1658.69
288.831	1660.69
289.062	1623.69
289.293	1690.69
289.524	1703.69
289.755	1681.69
289.986	1701.69
290.217	1683.69
290.448	1676.69
290.679	1751.69
290.91	1762.69
291.141	1833.69
291.371	2036.69
291.602	2103.69
291.833	1881.69
292.064	1704.69
292.295	1661.69
292.526	1619.69
292.757	1578.69
292.987	1576.69
293.218	1563.69
293.449	1548.69
293.68	1605.69
293.91	1562.69
294.141	1570.69
294.372	1573.69
294.603	1561.69
294.833	1543.69
295.064	1541.69
295.295	1552.69
295.525	1570.69
295.756	1506.69
295.987	1512.69
296.217	1588.69
296.448	1580.69
296.679	1559.69
296.909	1595.69
297.14	1589.69
297.37	1613.69
297.601	1659.69
297.831	1582.69
298.062	1650.69
298.292	1627.69
298.523	1684.69
298.753	1672.69
298.984	1677.69
299.214	1740.69
299.445	1718.69
299.675	1745.69
299.905	1797.69
300.136	1879.69
300.366	2093.69
300.597	2718.69
300.827	3848.69
301.057	5166.69
301.288	5072.69
301.518	3282.69
301.748	2546.69
301.979	2309.69
302.209	2238.69
302.439	2276.69
302.669	2398.69
302.9	2938.69
303.13	4153.69
303.36	6074.69
303.59	8160.69
303.82	7132.69
304.051	4110.69
304.281	2966.69
304.511	2498.69
304.741	2304.69
304.971	2175.69
305.201	2080.69
305.431	1978.69
305.661	1972.69
305.891	1868.69
306.121	1888.69
306.352	1912.69
306.582	1849.69
306.812	1825.69
307.042	1832.69
307.272	1795.69
307.502	1828.69
307.731	1802.69
307.961	1819.69
308.191	1802.69
308.421	1757.69
308.651	1792.69
308.881	1802.69
309.111	1842.69
309.341	1828.69
309.571	1854.69
309.8	1865.69
310.03	1842.69
310.26	1860.69
310.49	1824.69
310.72	1872.69
310.949	1835.69
311.179	1939.69
311.409	1938.69
311.639	1908.69
311.868	1930.69
312.098	1942.69
312.328	1920.69
312.557	1954.69
312.787	1956.69
313.017	1975.69
313.246	1998.69
313.476	2036.69
313.706	2106.69
313.935	2179.69
314.165	2367.69
314.394	2457.69
314.624	2332.69
314.853	2155.69
315.083	2138.69
315.312	2159.69
315.542	2168.69
315.771	2188.69
316.001	2231.69
316.23	2293.69
316.46	2431.69
316.689	2616.69
316.919	3162.69
317.148	4555.69
317.377	7033.69
317.607	10492.69
317.836	10711.69
318.065	6357.69
318.295	4116.69
318.524	3320.69
318.753	2897.69
318.983	2707.69
319.212	2541.69
319.441	2504.69
319.67	2440.69
319.9	2371.69
320.129	2319.69
320.358	2358.69
320.587	2276.69
320.816	2305.69
321.046	2336.69
321.275	2330.69
321.504	2437.69
321.733	2446.69
321.962	2543.69
322.191	2515.69
322.42	2488.69
322.649	2461.69
322.878	2447.69
323.108	2476.69
323.337	2473.69
323.566	2517.69
323.795	2645.69
324.024	2640.69
324.253	2746.69
324.482	2802.69
324.71	2939.69
324.939	3235.69
325.168	3256.69
325.397	3350.69
325.626	3934.69
325.855	5520.69
326.084	8653.69
326.313	12637.69
326.542	13334.69
326.77	8842.69
326.999	5722.69
327.228	4792.69
327.457	4596.69
327.686	4690.69
327.914	5026.69
328.143	5806.69
328.372	6926.69
328.6	7526.69
328.829	6779.69
329.058	5695.69
329.287	4974.69
329.515	4610.69
329.744	4236.69
329.972	4002.69
330.201	3794.69
330.43	3702.69
330.658	3602.69
330.887	3518.69
331.115	3490.69
331.344	3530.69
331.572	3450.69
331.801	3513.69
332.03	3472.69
332.258	3527.69
332.486	3672.69
332.715	4316.69
332.943	5235.69
333.172	6526.69
333.4	6567.69
333.629	4892.69
333.857	4436.69
334.085	4467.69
334.314	4630.69
334.542	5043.69
334.771	5919.69
334.999	7249.69
335.227	9051.69
335.455	10216.69
335.684	9062.69
335.912	7552.69
336.14	6342.69
336.369	5670.69
336.597	5141.69
336.825	4760.69
337.053	4515.69
337.281	4255.69
337.51	4056.69
337.738	3860.69
337.966	3707.69
338.194	3561.69
338.422	3495.69
338.65	3394.69
338.878	3336.69
339.106	3264.69
339.334	3200.69
339.562	3106.69
339.79	3067.69
340.018	3137.69
340.246	3038.69
340.474	3074.69
340.702	3014.69
340.93	2987.69
341.158	3037.69
341.386	3011.69
341.614	2997.69
341.842	2948.69
342.07	2821.69
342.298	2816.69
342.526	2765.69
342.754	2756.69
342.981	2664.69
343.209	2765.69
343.437	2765.69
343.665	2782.69
343.893	2788.69
344.12	2841.69
344.348	2799.69
344.576	2736.69
344.804	2742.69
345.031	2670.69
345.259	2650.69
345.487	2562.69
345.714	2587.69
345.942	2538.69
346.17	2573.69
346.397	2472.69
346.625	2579.69
346.853	2549.69
347.08	2543.69
347.308	2539.69
347.535	2526.69
347.763	2564.69
347.99	2519.69
348.218	2499.69
348.445	2475.69
348.673	2469.69
348.9	2472.69
349.128	2449.69
349.355	2483.69
349.583	2455.69
349.81	2465.69
350.037	2404.69
350.265	2358.69
350.492	2442.69
350.72	2417.69
350.947	2443.69
351.174	2432.69
351.402	2428.69
351.629	2411.69
351.856	2384.69
352.083	2377.69
352.311	2379.69
352.538	2410.69
352.765	2392.69
352.992	2317.69
353.22	2371.69
353.447	2377.69
353.674	2422.69
353.901	2432.69
354.128	2395.69
354.355	2400.69
354.583	2406.69
354.81	2410.69
355.037	2422.69
355.264	2416.69
355.491	2408.69
355.718	2415.69
355.945	2512.69
356.172	2439.69
356.399	2425.69
356.626	2478.69
356.853	2518.69
357.08	2489.69
357.307	2593.69
357.534	2586.69
357.761	2565.69
357.988	2576.69
358.215	2596.69
358.441	2567.69
358.668	2590.69
358.895	2560.69
359.122	2580.69
359.349	2555.69
359.576	2556.69
359.802	2511.69
360.029	2531.69
360.256	2522.69
360.483	2571.69
360.709	2581.69
360.936	2576.69
361.163	2542.69
361.39	2552.69
361.616	2594.69
361.843	2546.69
362.07	2597.69
362.296	2549.69
362.523	2552.69
362.749	2578.69
362.976	2560.69
363.203	2559.69
363.429	2563.69
363.656	2543.69
363.882	2520.69
364.109	2510.69
364.335	2478.69
364.562	2564.69
364.788	2501.69
365.015	2614.69
365.241	2633.69
365.468	2793.69
365.694	2937.69
365.92	2794.69
366.147	2619.69
366.373	2634.69
366.599	2636.69
366.826	2644.69
367.052	2608.69
367.278	2678.69
367.505	2630.69
367.731	2611.69
367.957	2652.69
368.184	2638.69
368.41	2649.69
368.636	2711.69
368.862	2659.69
369.089	2662.69
369.315	2676.69
369.541	2629.69
369.767	2661.69
369.993	2626.69
370.219	2655.69
370.445	2654.69
370.672	2686.69
370.898	2668.69
371.124	2713.69
371.35	2774.69
371.576	2743.69
371.802	2764.69
372.028	2726.69
372.254	2746.69
372.48	2749.69
372.706	2807.69
372.932	2788.69
373.158	2812.69
373.384	2782.69
373.61	2751.69
373.835	2780.69
374.061	2787.69
374.287	2798.69
374.513	2794.69
374.739	2889.69
374.965	2873.69
375.191	2951.69
375.416	2868.69
375.642	2836.69
375.868	2904.69
376.094	2784.69
376.319	2791.69
376.545	2806.69
376.771	2798.69
376.997	2758.69
377.222	2783.69
377.448	2727.69
377.674	2769.69
377.899	2688.69
378.125	2706.69
378.35	2778.69
378.576	2713.69
378.802	2761.69
379.027	2823.69
379.253	2869.69
379.478	3089.69
379.704	3580.69
379.929	5186.69
380.155	7877.69
380.38	8544.69
380.606	5218.69
380.831	3642.69
381.057	3133.69
381.282	2982.69
381.507	2870.69
381.733	2835.69
381.958	2778.69
382.184	2721.69
382.409	2707.69
382.634	2694.69
382.86	2736.69
383.085	2732.69
383.31	2718.69
383.535	2661.69
383.761	2730.69
383.986	2684.69
384.211	2756.69
384.436	2748.69
384.662	2763.69
384.887	2800.69
385.112	2766.69
385.337	2799.69
385.562	2832.69
385.787	2796.69
386.013	2801.69
386.238	2768.69
386.463	2769.69
386.688	2763.69
386.913	2786.69
387.138	2742.69
387.363	2741.69
387.588	2787.69
387.813	2763.69
388.038	2734.69
388.263	2741.69
388.488	2730.69
388.713	2784.69
388.938	2762.69
389.163	2736.69
389.387	2812.69
389.612	2791.69
389.837	2778.69
390.062	2810.69
390.287	2791.69
390.512	2853.69
390.736	2860.69
390.961	2931.69
391.186	2878.69
391.411	2881.69
391.636	2963.69
391.86	2940.69
392.085	2946.69
392.31	2879.69
392.534	2857.69
392.759	2872.69
392.984	2836.69
393.208	2892.69
393.433	2907.69
393.658	2862.69
393.882	2779.69
394.107	2828.69
394.331	2788.69
394.556	2834.69
394.78	2862.69
395.005	2823.69
395.229	2841.69
395.454	2906.69
395.678	2922.69
395.903	2910.69
396.127	2935.69
396.352	2891.69
396.576	2864.69
396.801	2864.69
397.025	2963.69
397.249	2962.69
397.474	2946.69
397.698	2907.69
397.922	2972.69
398.147	2930.69
398.371	3009.69
398.595	3072.69
398.82	3112.69
399.044	3213.69
399.268	3350.69
399.492	3569.69
399.717	3704.69
399.941	3686.69
400.165	3528.69
400.389	3393.69
400.613	3292.69
400.837	3195.69
401.062	3135.69
401.286	3092.69
401.51	3013.69
401.734	3049.69
401.958	3106.69
402.182	3099.69
402.406	3063.69
402.63	3139.69
402.854	3110.69
403.078	3106.69
403.302	3196.69
403.526	3161.69
403.75	3168.69
403.974	3208.69
404.198	3182.69
404.422	3237.69
404.645	3200.69
404.869	3177.69
405.093	3142.69
405.317	3154.69
405.541	3205.69
405.765	3277.69
405.988	3275.69
406.212	3317.69
406.436	3299.69
406.66	3319.69
406.883	3301.69
407.107	3404.69
407.331	3457.69
407.555	3520.69
407.778	3462.69
408.002	3419.69
408.226	3432.69
408.449	3372.69
408.673	3299.69
408.896	3222.69
409.12	3231.69
409.344	3278.69
409.567	3156.69
409.791	3195.69
410.014	3200.69
410.238	3160.69
410.461	3180.69
410.685	3141.69
410.908	3132.69
411.132	3100.69
411.355	3051.69
411.578	3048.69
411.802	3080.69
412.025	3023.69
412.249	3076.69
412.472	3045.69
412.695	3014.69
412.919	2992.69
413.142	3009.69
413.365	3009.69
413.589	3027.69
413.812	2936.69
414.035	2964.69
414.258	2981.69
414.482	3033.69
414.705	3023.69
414.928	2985.69
415.151	3014.69
415.374	2987.69
415.597	2974.69
415.821	2954.69
416.044	2914.69
416.267	2903.69
416.49	2876.69
416.713	2890.69
416.936	2867.69
417.159	2874.69
417.382	2819.69
417.605	2850.69
417.828	2851.69
418.051	2932.69
418.274	2918.69
418.497	2895.69
418.72	2958.69
418.943	2934.69
419.166	3054.69
419.389	3279.69
419.611	3132.69
419.834	3040.69
420.057	2979.69
420.28	2908.69
420.503	2828.69
420.726	2854.69
420.948	2844.69
421.171	2857.69
421.394	2931.69
421.617	2888.69
421.839	2913.69
422.062	2906.69
422.285	2810.69
422.507	2914.69
422.73	2959.69
422.953	2990.69
423.175	3016.69
423.398	2930.69
423.621	2896.69
423.843	2890.69
424.066	2916.69
424.288	2859.69
424.511	2888.69
424.733	2912.69
424.956	2892.69
425.178	2838.69
425.401	2873.69
425.623	2826.69
425.846	2798.69
426.068	2746.69
426.291	2775.69
426.513	2771.69
426.735	2738.69
426.958	2747.69
427.18	2707.69
427.402	2755.69
427.625	2732.69
427.847	2691.69
428.069	2650.69
428.292	2756.69
428.514	2677.69
428.736	2723.69
428.958	2697.69
429.181	2665.69
429.403	2653.69
429.625	2649.69
429.847	2681.69
430.069	2706.69
430.292	2768.69
430.514	2878.69
430.736	2871.69
430.958	2728.69
431.18	2700.69
431.402	2692.69
431.624	2643.69
431.846	2647.69
432.068	2667.69
432.29	2668.69
432.512	2567.69
432.734	2631.69
432.956	2617.69
433.178	2666.69
433.4	2647.69
433.622	2689.69
433.844	2648.69
434.066	2672.69
434.287	2681.69
434.509	2708.69
434.731	2767.69
434.953	2720.69
435.175	2747.69
435.397	2744.69
435.618	2711.69
435.84	2692.69
436.062	2657.69
436.284	2662.69
436.505	2582.69
436.727	2646.69
436.949	2598.69
437.17	2646.69
437.392	2581.69
437.614	2542.69
437.835	2535.69
438.057	2551.69
438.278	2552.69
438.5	2548.69
438.721	2623.69
438.943	2694.69
439.165	2708.69
439.386	2741.69
439.608	2746.69
439.829	2711.69
440.05	2831.69
440.272	2870.69
440.493	2722.69
440.715	2694.69
440.936	2737.69
441.158	2758.69
441.379	2783.69
441.6	2869.69
441.822	2956.69
442.043	3058.69
442.264	3189.69
442.486	2974.69
442.707	2938.69
442.928	2815.69
443.149	2843.69
443.371	2795.69
443.592	2851.69
443.813	2849.69
444.034	2835.69
444.255	2881.69
444.476	2954.69
444.698	3019.69
444.919	3046.69
445.14	3132.69
445.361	2990.69
445.582	2875.69
445.803	2860.69
446.024	2774.69
446.245	2836.69
446.466	2818.69
446.687	2781.69
446.908	2802.69
447.129	2653.69
447.35	2687.69
447.571	2663.69
447.792	2567.69
448.013	2642.69
448.234	2619.69
448.455	2601.69
448.675	2634.69
448.896	2701.69
449.117	2810.69
449.338	2950.69
449.559	3153.69
449.779	2798.69
450	2584.69
450.221	2532.69
450.442	2587.69
450.662	2514.69
450.883	2546.69
451.104	2533.69
451.324	2545.69
451.545	2573.69
451.766	2563.69
451.986	2612.69
452.207	2830.69
452.428	3582.69
452.648	5451.69
452.869	4479.69
453.089	3113.69
453.31	2860.69
453.53	2920.69
453.751	3003.69
453.971	3210.69
454.192	3128.69
454.412	2667.69
454.633	2585.69
454.853	2508.69
455.073	2416.69
455.294	2458.69
455.514	2426.69
455.734	2422.69
455.955	2431.69
456.175	2444.69
456.395	2454.69
456.616	2453.69
456.836	2451.69
457.056	2454.69
457.276	2489.69
457.497	2615.69
457.717	2624.69
457.937	2539.69
458.157	2527.69
458.377	2572.69
458.598	2604.69
458.818	2624.69
459.038	2536.69
459.258	2622.69
459.478	2656.69
459.698	2658.69
459.918	2708.69
460.138	2740.69
460.358	2783.69
460.578	2819.69
460.798	2878.69
461.018	2892.69
461.238	2838.69
461.458	2937.69
461.678	2956.69
461.898	3001.69
462.118	2973.69
462.338	3040.69
462.558	3054.69
462.777	3128.69
462.997	3279.69
463.217	3404.69
463.437	3586.69
463.657	3638.69
463.876	3575.69
464.096	3376.69
464.316	3214.69
464.536	3166.69
464.755	3047.69
464.975	2972.69
465.195	2953.69
465.414	2836.69
465.634	2771.69
465.854	2761.69
466.073	2720.69
466.293	2684.69
466.512	2625.69
466.732	2716.69
466.951	2763.69
467.171	2983.69
467.391	2972.69
467.61	2714.69
467.829	2614.69
468.049	2635.69
468.268	2583.69
468.488	2544.69
468.707	2578.69
468.927	2544.69
469.146	2564.69
469.365	2619.69
469.585	2622.69
469.804	2666.69
470.023	2743.69
470.243	2790.69
470.462	2850.69
470.681	2986.69
470.901	3239.69
471.12	3770.69
471.339	3774.69
471.558	3158.69
471.777	2855.69
471.997	2748.69
472.216	2684.69
472.435	2611.69
472.654	2618.69
472.873	2548.69
473.092	2601.69
473.311	2601.69
473.53	2603.69
473.749	2684.69
473.968	2776.69
474.187	2639.69
474.406	2618.69
474.625	2601.69
474.844	2604.69
475.063	2592.69
475.282	2576.69
475.501	2633.69
475.72	2676.69
475.939	2691.69
476.158	2732.69
476.377	2773.69
476.596	2738.69
476.814	2790.69
477.033	2770.69
477.252	2782.69
477.471	2805.69
477.69	2845.69
477.908	2906.69
478.127	2970.69
478.346	2957.69
478.564	3026.69
478.783	3026.69
479.002	3133.69
479.22	3096.69
479.439	3111.69
479.658	3131.69
479.876	3179.69
480.095	3165.69
480.313	3225.69
480.532	3260.69
480.751	3233.69
480.969	3169.69
481.188	3166.69
481.406	3161.69
481.624	3168.69
481.843	3146.69
482.061	3178.69
482.28	3143.69
482.498	3155.69
482.717	3100.69
482.935	3190.69
483.153	3254.69
483.372	3314.69
483.59	3270.69
483.808	3268.69
484.027	3405.69
484.245	3649.69
484.463	4048.69
484.681	4564.69
484.9	4051.69
485.118	3823.69
485.336	3726.69
485.554	3770.69
485.772	4039.69
485.99	4534.69
486.209	4878.69
486.427	4155.69
486.645	3683.69
486.863	3521.69
487.081	3464.69
487.299	3343.69
487.517	3350.69
487.735	3390.69
487.953	3428.69
488.171	3383.69
488.389	3259.69
488.607	3243.69
488.825	3262.69
489.043	3268.69
489.261	3247.69
489.479	3238.69
489.696	3247.69
489.914	3249.69
490.132	3257.69
490.35	3250.69
490.568	3295.69
490.786	3289.69
491.003	3378.69
491.221	3412.69
491.439	3379.69
491.657	3337.69
491.874	3382.69
492.092	3478.69
492.31	3490.69
492.527	3402.69
492.745	3358.69
492.963	3385.69
493.18	3443.69
493.398	3404.69
493.615	3370.69
493.833	3404.69
494.05	3448.69
494.268	3416.69
494.485	3392.69
494.703	3416.69
494.92	3441.69
495.138	3443.69
495.355	3440.69
495.573	3444.69
495.79	3456.69
496.008	3506.69
496.225	3495.69
496.442	3555.69
496.66	3708.69
496.877	3898.69
497.094	3832.69
497.312	3700.69
497.529	3729.69
497.746	3745.69
497.963	3813.69
498.181	3899.69
498.398	3968.69
498.615	4101.69
498.832	4310.69
499.049	4414.69
499.267	4799.69
499.484	5042.69
499.701	5133.69
499.918	5209.69
500.135	5431.69
500.352	5707.69
500.569	5802.69
500.786	5770.69
501.003	5547.69
501.22	5328.69
501.437	5036.69
501.654	4762.69
501.871	4596.69
502.088	4369.69
502.305	4256.69
502.522	4099.69
502.739	4083.69
502.956	3889.69
503.172	3789.69
503.389	3742.69
503.606	3679.69
503.823	3631.69
504.04	3593.69
504.256	3607.69
504.473	3632.69
504.69	3570.69
504.907	3555.69
505.123	3482.69
505.34	3361.69
505.557	3243.69
505.773	3268.69
505.99	3250.69
506.207	3165.69
506.423	3150.69
506.64	3139.69
506.856	3109.69
507.073	3065.69
507.289	3040.69
507.506	2978.69
507.722	3037.69
507.939	3040.69
508.155	2956.69
508.372	2963.69
508.588	2994.69
508.805	2972.69
509.021	2976.69
509.238	3040.69
509.454	3203.69
509.67	3399.69
509.887	3065.69
510.103	2983.69
510.319	2983.69
510.536	2969.69
510.752	2962.69
510.968	2915.69
511.184	2876.69
511.401	2861.69
511.617	2852.69
511.833	2866.69
512.049	2856.69
512.265	2844.69
512.481	2838.69
512.698	2818.69
512.914	2821.69
513.13	2857.69
513.346	2839.69
513.562	2839.69
513.778	2787.69
513.994	2912.69
514.21	2957.69
514.426	3157.69
514.642	3270.69
514.858	2985.69
515.074	2923.69
515.29	2961.69
515.506	2878.69
515.721	2964.69
515.937	2969.69
516.153	2935.69
516.369	2951.69
516.585	2969.69
516.801	3055.69
517.016	3126.69
517.232	3147.69
517.448	3218.69
517.664	3217.69
517.879	3209.69
518.095	3238.69
518.311	3206.69
518.527	3143.69
518.742	3202.69
518.958	3214.69
519.173	3280.69
519.389	3143.69
519.605	3028.69
519.82	2954.69
520.036	2916.69
520.251	2832.69
520.467	2887.69
520.682	2806.69
520.898	2775.69
521.113	2819.69
521.329	2766.69
521.544	2776.69
521.76	2809.69
521.975	2804.69
522.19	2819.69
522.406	2725.69
522.621	2806.69
522.836	2730.69
523.052	2765.69
523.267	2763.69
523.482	2749.69
523.698	2740.69
523.913	2676.69
524.128	2708.69
524.343	2728.69
524.559	2704.69
524.774	2742.69
524.989	2725.69
525.204	2674.69
525.419	2724.69
525.634	2665.69
525.849	2740.69
526.064	2710.69
526.28	2716.69
526.495	2736.69
526.71	2724.69
526.925	2763.69
527.14	2728.69
527.355	2694.69
527.57	2712.69
527.785	2704.69
527.999	2720.69
528.214	2778.69
528.429	2789.69
528.644	2804.69
528.859	2790.69
529.074	2880.69
529.289	2890.69
529.503	2874.69
529.718	2942.69
529.933	2900.69
530.148	2894.69
530.363	2889.69
530.577	2875.69
530.792	2899.69
531.007	2885.69
531.221	2927.69
531.436	2983.69
531.651	2952.69
531.865	2979.69
532.08	3046.69
532.295	3155.69
532.509	3361.69
532.724	3350.69
532.938	3410.69
533.153	3570.69
533.367	3728.69
533.582	3973.69
533.796	3888.69
534.011	3742.69
534.225	3562.69
534.44	3411.69
534.654	3377.69
534.868	3323.69
535.083	3260.69
535.297	3207.69
535.511	3086.69
535.726	3069.69
535.94	3058.69
536.154	2961.69
536.369	2955.69
536.583	2888.69
536.797	2873.69
537.011	2827.69
537.225	2862.69
537.44	2834.69
537.654	2790.69
537.868	2746.69
538.082	2714.69
538.296	2683.69
538.51	2665.69
538.724	2713.69
538.938	2698.69
539.153	2610.69
539.367	2620.69
539.581	2705.69
539.795	2642.69
540.009	2604.69
540.222	2588.69
540.436	2606.69
540.65	2655.69
540.864	2630.69
541.078	2623.69
541.292	2826.69
541.506	3357.69
541.72	3518.69
541.934	2998.69
542.147	2869.69
542.361	2673.69
542.575	2629.69
542.789	2608.69
543.002	2553.69
543.216	2545.69
543.43	2553.69
543.644	2500.69
543.857	2482.69
544.071	2526.69
544.285	2548.69
544.498	2556.69
544.712	2514.69
544.925	2560.69
545.139	2526.69
545.352	2532.69
545.566	2568.69
545.779	2531.69
545.993	2531.69
546.206	2555.69
546.42	2526.69
546.633	2552.69
546.847	2521.69
547.06	2569.69
547.274	2590.69
547.487	2523.69
547.7	2601.69
547.914	2566.69
548.127	2544.69
548.34	2562.69
548.554	2540.69
548.767	2550.69
548.98	2516.69
549.193	2534.69
549.407	2554.69
549.62	2558.69
549.833	2552.69
550.046	2530.69
550.259	2555.69
550.473	2536.69
550.686	2576.69
550.899	2517.69
551.112	2548.69
551.325	2527.69
551.538	2566.69
551.751	2542.69
551.964	2539.69
552.177	2574.69
552.39	2602.69
552.603	2674.69
552.816	2663.69
553.029	2717.69
553.242	2764.69
553.455	2770.69
553.667	2821.69
553.88	2872.69
554.093	2836.69
554.306	2813.69
554.519	2848.69
554.732	2921.69
554.944	2932.69
555.157	2996.69
555.37	3109.69
555.583	3235.69
555.795	3413.69
556.008	3659.69
556.221	4110.69
556.433	4401.69
556.646	4363.69
556.859	4175.69
557.071	3986.69
557.284	3861.69
557.496	3733.69
557.709	3670.69
557.921	3628.69
558.134	3618.69
558.346	3657.69
558.559	3842.69
558.771	3984.69
558.984	4435.69
559.196	4767.69
559.409	4478.69
559.621	4143.69
559.833	3879.69
560.046	3709.69
560.258	3462.69
560.47	3275.69
560.683	3128.69
560.895	3010.69
561.107	2966.69
561.32	2874.69
561.532	2830.69
561.744	2744.69
561.956	2700.69
562.168	2683.69
562.381	2643.69
562.593	2653.69
562.805	2671.69
563.017	2654.69
563.229	2715.69
563.441	3124.69
563.653	2651.69
563.865	2458.69
564.077	2396.69
564.289	2378.69
564.501	2435.69
564.713	2382.69
564.925	2342.69
565.137	2286.69
565.349	2334.69
565.561	2328.69
565.773	2403.69
565.985	2422.69
566.197	2389.69
566.408	2450.69
566.62	2507.69
566.832	2592.69
567.044	2584.69
567.255	2566.69
567.467	2639.69
567.679	2690.69
567.891	2843.69
568.102	3062.69
568.314	3605.69
568.526	3120.69
568.737	2686.69
568.949	2450.69
569.161	2352.69
569.372	2274.69
569.584	2200.69
569.795	2185.69
570.007	2130.69
570.218	2214.69
570.43	2261.69
570.641	2089.69
570.853	1974.69
571.064	1947.69
571.276	1991.69
571.487	1899.69
571.698	1861.69
571.91	1906.69
572.121	1883.69
572.333	1862.69
572.544	1838.69
572.755	2004.69
572.966	2335.69
573.178	2106.69
573.389	1886.69
573.6	1790.69
573.811	1783.69
574.023	1724.69
574.234	1739.69
574.445	1705.69
574.656	1744.69
574.867	1720.69
575.078	1714.69
575.289	1707.69
575.501	1700.69
575.712	1700.69
575.923	1667.69
576.134	1721.69
576.345	1657.69
576.556	1734.69
576.767	1720.69
576.978	1730.69
577.188	1714.69
577.399	1684.69
577.61	1734.69
577.821	1743.69
578.032	1759.69
578.243	1793.69
578.454	1840.69
578.665	1849.69
578.875	1897.69
579.086	1963.69
579.297	2084.69
579.508	2188.69
579.718	2374.69
579.929	2709.69
580.14	3177.69
580.35	3276.69
580.561	2907.69
580.772	2680.69
580.982	2437.69
581.193	2307.69
581.403	2151.69
581.614	2070.69
581.825	1996.69
582.035	1902.69
582.246	1844.69
582.456	1774.69
582.667	1764.69
582.877	1772.69
583.087	1715.69
583.298	1659.69
583.508	1598.69
583.719	1530.69
583.929	1585.69
584.139	1521.69
584.35	1475.69
584.56	1525.69
584.77	1453.69
584.981	1409.69
585.191	1406.69
585.401	1368.69
585.611	1368.69
585.821	1354.69
586.032	1366.69
586.242	1333.69
586.452	1363.69
586.662	1322.69
586.872	1303.69
587.082	1280.69
587.292	1243.69
587.502	1258.69
587.713	1257.69
587.923	1258.69
588.133	1235.69
588.343	1261.69
588.553	1231.69
588.762	1220.69
588.972	1214.69
589.182	1224.69
589.392	1212.69
589.602	1188.69
589.812	1207.69
590.022	1200.69
590.232	1185.69
590.441	1185.69
590.651	1195.69
590.861	1173.69
591.071	1190.69
591.281	1195.69
591.49	1210.69
591.7	1190.69
591.91	1170.69
592.119	1207.69
592.329	1205.69
592.539	1218.69
592.748	1205.69
592.958	1216.69
593.167	1216.69
593.377	1221.69
593.587	1206.69
593.796	1224.69
594.006	1215.69
594.215	1222.69
594.424	1234.69
594.634	1214.69
594.843	1168.69
595.053	1147.69
595.262	1131.69
595.472	1131.69
595.681	1099.69
595.89	1077.69
596.1	1088.69
596.309	1049.69
596.518	1074.69
596.727	1084.69
596.937	1048.69
597.146	1042.69
597.355	1018.69
597.564	1018.69
597.774	997.69
597.983	987.69
598.192	972.69
598.401	1001.69
598.61	993.69
598.819	986.69
599.028	995.69
599.237	957.69
599.446	961.69
599.655	929.69
599.864	942.69
600.073	948.69
600.282	951.69
600.491	930.69
600.7	950.69
600.909	975.69
601.118	949.69
601.327	941.69
601.536	964.69
601.745	990.69
601.953	1080.69
602.162	1195.69
602.371	1055.69
602.58	987.69
602.789	978.69
602.997	942.69
603.206	926.69
603.415	926.69
603.623	903.69
603.832	901.69
604.041	910.69
604.249	880.69
604.458	880.69
604.666	877.69
604.875	865.69
605.084	863.69
605.292	908.69
605.501	896.69
605.709	922.69
605.918	916.69
606.126	890.69
606.334	904.69
606.543	921.69
606.751	976.69
606.96	1119.69
607.168	1223.69
607.376	1077.69
607.585	953.69
607.793	921.69
608.001	906.69
608.21	875.69
608.418	891.69
608.626	878.69
608.834	837.69
609.043	872.69
609.251	852.69
609.459	855.69
609.667	822.69
609.875	829.69
610.083	858.69
610.291	847.69
610.499	827.69
610.707	833.69
610.916	834.69
611.124	826.69
611.332	844.69
611.54	811.69
611.748	787.69
611.955	815.69
612.163	798.69
612.371	802.69
612.579	788.69
612.787	823.69
612.995	814.69
613.203	802.69
613.411	794.69
613.618	772.69
613.826	786.69
614.034	770.69
614.242	802.69
614.449	747.69
614.657	806.69
614.865	768.69
615.072	779.69
615.28	807.69
615.488	806.69
615.695	806.69
615.903	820.69
616.111	761.69
616.318	799.69
616.526	795.69
616.733	787.69
616.941	752.69
617.148	784.69
617.356	798.69
617.563	774.69
617.771	762.69
617.978	769.69
618.185	750.69
618.393	772.69
618.6	736.69
618.807	746.69
619.015	761.69
619.222	758.69
619.429	733.69
619.637	714.69
619.844	729.69
620.051	683.69
620.258	716.69
620.466	708.69
620.673	692.69
620.88	685.69
621.087	691.69
621.294	691.69
621.501	683.69
621.708	683.69
621.915	714.69
622.122	682.69
622.329	701.69
622.536	700.69
622.743	696.69
622.95	690.69
623.157	700.69
623.364	702.69
623.571	704.69
623.778	660.69
623.985	686.69
624.192	661.69
624.399	680.69
624.606	674.69
624.812	667.69
625.019	672.69
625.226	661.69
625.433	653.69
625.639	638.69
625.846	652.69
626.053	661.69
626.259	626.69
626.466	634.69
626.673	634.69
626.879	640.69
627.086	650.69
627.293	636.69
627.499	627.69
627.706	605.69
627.912	615.69
628.119	634.69
628.325	624.69
628.532	644.69
628.738	638.69
628.945	633.69
629.151	611.69
629.357	607.69
629.564	628.69
629.77	591.69
629.976	619.69
630.183	603.69
630.389	589.69
630.595	609.69
630.802	599.69
631.008	610.69
631.214	591.69
631.42	593.69
631.627	613.69
631.833	588.69
632.039	581.69
632.245	582.69
632.451	588.69
632.657	595.69
632.863	577.69
633.069	592.69
633.275	574.69
633.481	566.69
633.688	599.69
633.893	572.69
634.099	584.69
634.305	581.69
634.511	575.69
634.717	601.69
634.923	615.69
635.129	690.69
635.335	757.69
635.541	662.69
635.747	631.69
635.952	597.69
636.158	595.69
636.364	606.69
636.57	594.69
636.775	576.69
636.981	592.69
637.187	590.69
637.392	571.69
637.598	583.69
637.804	584.69
638.009	564.69
638.215	585.69
638.421	566.69
638.626	568.69
638.832	578.69
639.037	581.69
639.243	569.69
639.448	597.69
639.654	594.69
639.859	586.69
640.065	595.69
640.27	601.69
640.475	601.69
640.681	630.69
640.886	614.69
641.091	627.69
641.297	602.69
641.502	620.69
641.707	607.69
641.913	636.69
642.118	658.69
642.323	651.69
642.528	678.69
642.733	672.69
642.939	685.69
643.144	740.69
643.349	737.69
643.554	777.69
643.759	800.69
643.964	846.69
644.169	883.69
644.374	926.69
644.579	1015.69
644.784	1112.69
644.989	1269.69
645.194	1476.69
645.399	1878.69
645.604	2014.69
645.809	1484.69
646.014	1116.69
646.219	951.69
646.423	855.69
646.628	776.69
646.833	704.69
647.038	690.69
647.243	607.69
647.447	634.69
647.652	611.69
647.857	609.69
648.062	574.69
648.266	563.69
648.471	564.69
648.676	554.69
648.88	538.69
649.085	538.69
649.289	512.69
649.494	502.69
649.698	487.69
649.903	490.69
650.107	490.69
650.312	473.69
650.516	452.69
650.721	460.69
650.925	465.69
651.13	448.69
651.334	428.69
651.539	435.69
651.743	435.69
651.947	421.69
652.152	420.69
652.356	445.69
652.56	454.69
652.764	490.69
652.969	459.69
653.173	413.69
653.377	409.69
653.581	370.69
653.785	382.69
653.99	363.69
654.194	356.69
654.398	364.69
654.602	332.69
654.806	333.69
655.01	342.69
655.214	348.69
655.418	322.69
655.622	325.69
655.826	340.69
656.03	367.69
656.234	360.69
656.438	372.69
656.642	388.69
656.846	368.69
657.049	354.69
657.253	312.69
657.457	318.69
657.661	306.69
657.865	287.69
658.068	266.69
658.272	255.69
658.476	240.69
658.68	215.69
658.883	224.69
659.087	205.69
659.291	182.69
659.494	183.69
659.698	177.69
659.901	193.69
660.105	178.69
660.309	174.69
660.512	178.69
660.716	156.69
660.919	147.69
661.123	147.69
661.326	138.69
661.53	138.69
661.733	130.69
661.936	112.69
662.14	115.69
662.343	110.69
662.546	110.69
662.75	98.69
662.953	94.69
663.156	97.69
663.36	104.69
663.563	73.69
663.766	84.69
663.969	95.69
664.173	91.69
664.376	86.69
664.579	83.69
664.782	81.69
664.985	94.69
665.188	87.69
665.391	86.69
665.594	89.69
665.797	84.69
666	82.69
666.203	89.69
666.406	97.69
666.609	91.69
666.812	82.69
667.015	78.69
667.218	66.69
667.421	81.69
667.624	86.69
667.827	89.69
668.03	94.69
668.232	73.69
668.435	81.69
668.638	92.69
668.841	102.69
669.043	87.69
669.246	82.69
669.449	71.69
669.651	86.69
669.854	92.69
670.057	85.69
670.259	84.69
670.462	86.69
670.665	80.69
670.867	80.69
671.07	92.69
671.272	89.69
671.475	78.69
671.677	73.69
671.88	72.69
672.082	74.69
672.284	79.69
672.487	77.69
672.689	75.69
672.892	90.69
