Data from SnStandardFlinnAPT0064_LampEnergy5.5_LIBS07252019.E.O._I.C._HRD10591_15-17-31-492.txt Node
Date: Thu Jul 25 15:17:31 EDT 2019
User: cochatt
Spectrometer: HR+D1059
Trigger mode: 1
Integration Time (sec): 1.000000E-1
Scans to average: 1
Electric dark correction enabled: true
Nonlinearity correction enabled: false
Boxcar width: 0
XAxis mode: Wavelengths
Number of Pixels in Spectrum: 2048
>>>>>Begin Spectral Data<<<<<
223.165	-12.44
223.4	-12.44
223.635	-12.44
223.869	-19.44
224.104	-35.44
224.338	-10.44
224.573	-0.44
224.808	-21.44
225.042	-13.44
225.277	4.56
225.511	-2.44
225.746	8.56
225.98	6.56
226.215	17.56
226.449	12.56
226.683	18.56
226.918	20.56
227.152	26.56
227.387	24.56
227.621	36.56
227.856	42.56
228.09	52.56
228.324	55.56
228.559	49.56
228.793	93.56
229.027	143.56
229.262	160.56
229.496	154.56
229.73	157.56
229.964	166.56
230.199	161.56
230.433	166.56
230.667	171.56
230.901	162.56
231.136	169.56
231.37	184.56
231.604	205.56
231.838	223.56
232.072	263.56
232.306	270.56
232.541	223.56
232.775	212.56
233.009	205.56
233.243	210.56
233.477	234.56
233.711	260.56
233.945	291.56
234.179	268.56
234.413	225.56
234.647	238.56
234.881	221.56
235.115	259.56
235.349	282.56
235.583	379.56
235.817	480.56
236.051	462.56
236.285	296.56
236.519	257.56
236.753	235.56
236.987	248.56
237.221	249.56
237.455	262.56
237.689	225.56
237.922	243.56
238.156	235.56
238.39	235.56
238.624	236.56
238.858	225.56
239.091	228.56
239.325	232.56
239.559	251.56
239.793	246.56
240.027	238.56
240.26	266.56
240.494	273.56
240.728	278.56
240.961	294.56
241.195	300.56
241.429	313.56
241.662	315.56
241.896	353.56
242.13	426.56
242.363	550.56
242.597	720.56
242.83	698.56
243.064	678.56
243.298	818.56
243.531	692.56
243.765	433.56
243.998	354.56
244.232	325.56
244.465	304.56
244.699	307.56
244.932	307.56
245.166	290.56
245.399	329.56
245.633	333.56
245.866	320.56
246.099	294.56
246.333	299.56
246.566	312.56
246.8	299.56
247.033	326.56
247.266	300.56
247.5	306.56
247.733	306.56
247.966	317.56
248.2	333.56
248.433	398.56
248.666	431.56
248.899	420.56
249.133	384.56
249.366	379.56
249.599	428.56
249.832	487.56
250.066	496.56
250.299	409.56
250.532	363.56
250.765	360.56
250.998	344.56
251.231	367.56
251.465	346.56
251.698	354.56
251.931	358.56
252.164	353.56
252.397	352.56
252.63	366.56
252.863	372.56
253.096	351.56
253.329	371.56
253.562	363.56
253.795	358.56
254.028	390.56
254.261	396.56
254.494	397.56
254.727	476.56
254.96	555.56
255.193	562.56
255.426	441.56
255.659	415.56
255.892	384.56
256.124	397.56
256.357	403.56
256.59	431.56
256.823	426.56
257.056	481.56
257.289	596.56
257.521	647.56
257.754	536.56
257.987	426.56
258.22	451.56
258.452	408.56
258.685	386.56
258.918	434.56
259.151	448.56
259.383	504.56
259.616	540.56
259.849	561.56
260.081	492.56
260.314	435.56
260.547	455.56
260.779	445.56
261.012	455.56
261.244	455.56
261.477	454.56
261.71	461.56
261.942	467.56
262.175	477.56
262.407	484.56
262.64	511.56
262.872	508.56
263.105	515.56
263.337	544.56
263.57	570.56
263.802	583.56
264.035	598.56
264.267	632.56
264.499	630.56
264.732	656.56
264.964	649.56
265.197	686.56
265.429	666.56
265.661	671.56
265.894	707.56
266.126	778.56
266.358	860.56
266.591	843.56
266.823	699.56
267.055	662.56
267.287	625.56
267.52	611.56
267.752	621.56
267.984	610.56
268.216	574.56
268.448	585.56
268.681	584.56
268.913	584.56
269.145	589.56
269.377	559.56
269.609	569.56
269.841	614.56
270.073	646.56
270.306	722.56
270.538	966.56
270.77	1406.56
271.002	1734.56
271.234	1198.56
271.466	788.56
271.698	664.56
271.93	607.56
272.162	598.56
272.394	586.56
272.626	551.56
272.858	558.56
273.09	555.56
273.322	547.56
273.553	542.56
273.785	542.56
274.017	532.56
274.249	533.56
274.481	547.56
274.713	535.56
274.945	560.56
275.176	544.56
275.408	555.56
275.64	571.56
275.872	554.56
276.104	550.56
276.335	558.56
276.567	562.56
276.799	584.56
277.031	599.56
277.262	582.56
277.494	600.56
277.726	674.56
277.957	764.56
278.189	885.56
278.421	837.56
278.652	741.56
278.884	704.56
279.115	657.56
279.347	626.56
279.579	619.56
279.81	609.56
280.042	633.56
280.273	628.56
280.505	646.56
280.736	671.56
280.968	705.56
281.199	748.56
281.431	870.56
281.662	894.56
281.894	779.56
282.125	718.56
282.356	740.56
282.588	724.56
282.819	731.56
283.051	778.56
283.282	864.56
283.513	1061.56
283.745	1584.56
283.976	2503.56
284.207	3548.56
284.439	3246.56
284.67	1827.56
284.901	1495.56
285.132	1507.56
285.364	1460.56
285.595	1112.56
285.826	996.56
286.057	1209.56
286.288	1696.56
286.52	2274.56
286.751	2091.56
286.982	1267.56
287.213	961.56
287.444	834.56
287.675	795.56
287.906	776.56
288.138	745.56
288.369	752.56
288.6	746.56
288.831	706.56
289.062	723.56
289.293	752.56
289.524	739.56
289.755	735.56
289.986	736.56
290.217	760.56
290.448	765.56
290.679	759.56
290.91	774.56
291.141	791.56
291.371	853.56
291.602	859.56
291.833	815.56
292.064	743.56
292.295	730.56
292.526	730.56
292.757	710.56
292.987	681.56
293.218	694.56
293.449	692.56
293.68	727.56
293.91	697.56
294.141	697.56
294.372	686.56
294.603	706.56
294.833	686.56
295.064	699.56
295.295	690.56
295.525	682.56
295.756	690.56
295.987	688.56
296.217	705.56
296.448	714.56
296.679	677.56
296.909	700.56
297.14	715.56
297.37	738.56
297.601	730.56
297.831	703.56
298.062	723.56
298.292	728.56
298.523	751.56
298.753	749.56
298.984	768.56
299.214	752.56
299.445	776.56
299.675	780.56
299.905	809.56
300.136	848.56
300.366	961.56
300.597	1183.56
300.827	1671.56
301.057	2286.56
301.288	2250.56
301.518	1418.56
301.748	1060.56
301.979	992.56
302.209	980.56
302.439	985.56
302.669	1018.56
302.9	1257.56
303.13	1790.56
303.36	2608.56
303.59	3546.56
303.82	3018.56
304.051	1694.56
304.281	1216.56
304.511	1072.56
304.741	959.56
304.971	924.56
305.201	917.56
305.431	867.56
305.661	844.56
305.891	850.56
306.121	834.56
306.352	802.56
306.582	808.56
306.812	823.56
307.042	809.56
307.272	816.56
307.502	790.56
307.731	777.56
307.961	804.56
308.191	799.56
308.421	792.56
308.651	812.56
308.881	795.56
309.111	781.56
309.341	809.56
309.571	831.56
309.8	821.56
310.03	822.56
310.26	792.56
310.49	789.56
310.72	823.56
310.949	853.56
311.179	841.56
311.409	851.56
311.639	849.56
311.868	847.56
312.098	832.56
312.328	890.56
312.557	889.56
312.787	865.56
313.017	844.56
313.246	863.56
313.476	859.56
313.706	914.56
313.935	948.56
314.165	981.56
314.394	1036.56
314.624	997.56
314.853	951.56
315.083	959.56
315.312	929.56
315.542	945.56
315.771	958.56
316.001	981.56
316.23	1027.56
316.46	1060.56
316.689	1113.56
316.919	1381.56
317.148	2019.56
317.377	3068.56
317.607	4677.56
317.836	4801.56
318.065	2722.56
318.295	1732.56
318.524	1368.56
318.753	1228.56
318.983	1137.56
319.212	1082.56
319.441	1051.56
319.67	1034.56
319.9	1011.56
320.129	1010.56
320.358	998.56
320.587	1016.56
320.816	1007.56
321.046	991.56
321.275	1031.56
321.504	999.56
321.733	1075.56
321.962	1068.56
322.191	1072.56
322.42	1054.56
322.649	1060.56
322.878	1083.56
323.108	1076.56
323.337	1103.56
323.566	1097.56
323.795	1116.56
324.024	1165.56
324.253	1159.56
324.482	1211.56
324.71	1250.56
324.939	1334.56
325.168	1383.56
325.397	1402.56
325.626	1643.56
325.855	2370.56
326.084	3776.56
326.313	5660.56
326.542	5963.56
326.77	3701.56
326.999	2363.56
327.228	1970.56
327.457	1854.56
327.686	1878.56
327.914	2034.56
328.143	2325.56
328.372	2672.56
328.6	2918.56
328.829	2702.56
329.058	2307.56
329.287	2054.56
329.515	1890.56
329.744	1758.56
329.972	1707.56
330.201	1606.56
330.43	1568.56
330.658	1510.56
330.887	1514.56
331.115	1457.56
331.344	1478.56
331.572	1458.56
331.801	1491.56
332.03	1493.56
332.258	1516.56
332.486	1600.56
332.715	1802.56
332.943	2212.56
333.172	2688.56
333.4	2663.56
333.629	2050.56
333.857	1858.56
334.085	1820.56
334.314	1931.56
334.542	2025.56
334.771	2419.56
334.999	2901.56
335.227	3500.56
335.455	3975.56
335.684	3578.56
335.912	3027.56
336.14	2659.56
336.369	2365.56
336.597	2200.56
336.825	2005.56
337.053	1894.56
337.281	1801.56
337.51	1682.56
337.738	1604.56
337.966	1557.56
338.194	1511.56
338.422	1478.56
338.65	1459.56
338.878	1426.56
339.106	1396.56
339.334	1376.56
339.562	1361.56
339.79	1344.56
340.018	1310.56
340.246	1292.56
340.474	1278.56
340.702	1283.56
340.93	1298.56
341.158	1324.56
341.386	1274.56
341.614	1307.56
341.842	1282.56
342.07	1229.56
342.298	1203.56
342.526	1192.56
342.754	1189.56
342.981	1165.56
343.209	1189.56
343.437	1250.56
343.665	1217.56
343.893	1237.56
344.12	1216.56
344.348	1216.56
344.576	1209.56
344.804	1180.56
345.031	1138.56
345.259	1156.56
345.487	1138.56
345.714	1122.56
345.942	1111.56
346.17	1116.56
346.397	1114.56
346.625	1141.56
346.853	1127.56
347.08	1097.56
347.308	1114.56
347.535	1089.56
347.763	1100.56
347.99	1079.56
348.218	1098.56
348.445	1078.56
348.673	1071.56
348.9	1081.56
349.128	1051.56
349.355	1086.56
349.583	1093.56
349.81	1047.56
350.037	1072.56
350.265	1054.56
350.492	1067.56
350.72	1070.56
350.947	1054.56
351.174	1064.56
351.402	1054.56
351.629	1076.56
351.856	1053.56
352.083	1024.56
352.311	1057.56
352.538	1057.56
352.765	1057.56
352.992	1066.56
353.22	1029.56
353.447	1063.56
353.674	1035.56
353.901	1038.56
354.128	1052.56
354.355	1043.56
354.583	1062.56
354.81	1088.56
355.037	1083.56
355.264	1047.56
355.491	1086.56
355.718	1084.56
355.945	1090.56
356.172	1089.56
356.399	1056.56
356.626	1107.56
356.853	1103.56
357.08	1113.56
357.307	1114.56
357.534	1139.56
357.761	1118.56
357.988	1136.56
358.215	1131.56
358.441	1122.56
358.668	1088.56
358.895	1142.56
359.122	1120.56
359.349	1148.56
359.576	1099.56
359.802	1107.56
360.029	1108.56
360.256	1103.56
360.483	1130.56
360.709	1079.56
360.936	1126.56
361.163	1114.56
361.39	1130.56
361.616	1113.56
361.843	1121.56
362.07	1125.56
362.296	1148.56
362.523	1144.56
362.749	1111.56
362.976	1103.56
363.203	1094.56
363.429	1116.56
363.656	1141.56
363.882	1122.56
364.109	1146.56
364.335	1124.56
364.562	1146.56
364.788	1120.56
365.015	1158.56
365.241	1164.56
365.468	1177.56
365.694	1238.56
365.92	1192.56
366.147	1139.56
366.373	1136.56
366.599	1139.56
366.826	1170.56
367.052	1112.56
367.278	1136.56
367.505	1130.56
367.731	1171.56
367.957	1150.56
368.184	1175.56
368.41	1158.56
368.636	1156.56
368.862	1170.56
369.089	1154.56
369.315	1161.56
369.541	1177.56
369.767	1179.56
369.993	1171.56
370.219	1159.56
370.445	1158.56
370.672	1169.56
370.898	1175.56
371.124	1182.56
371.35	1187.56
371.576	1198.56
371.802	1194.56
372.028	1221.56
372.254	1188.56
372.48	1209.56
372.706	1241.56
372.932	1246.56
373.158	1241.56
373.384	1214.56
373.61	1206.56
373.835	1231.56
374.061	1224.56
374.287	1258.56
374.513	1261.56
374.739	1263.56
374.965	1267.56
375.191	1283.56
375.416	1274.56
375.642	1241.56
375.868	1297.56
376.094	1261.56
376.319	1250.56
376.545	1225.56
376.771	1235.56
376.997	1216.56
377.222	1235.56
377.448	1210.56
377.674	1211.56
377.899	1200.56
378.125	1214.56
378.35	1192.56
378.576	1174.56
378.802	1205.56
379.027	1250.56
379.253	1274.56
379.478	1306.56
379.704	1548.56
379.929	2216.56
380.155	3380.56
380.38	3574.56
380.606	2200.56
380.831	1575.56
381.057	1393.56
381.282	1276.56
381.507	1254.56
381.733	1223.56
381.958	1210.56
382.184	1206.56
382.409	1193.56
382.634	1180.56
382.86	1163.56
383.085	1184.56
383.31	1182.56
383.535	1184.56
383.761	1216.56
383.986	1191.56
384.211	1234.56
384.436	1223.56
384.662	1241.56
384.887	1210.56
385.112	1251.56
385.337	1202.56
385.562	1203.56
385.787	1235.56
386.013	1237.56
386.238	1248.56
386.463	1220.56
386.688	1270.56
386.913	1226.56
387.138	1203.56
387.363	1246.56
387.588	1265.56
387.813	1218.56
388.038	1238.56
388.263	1232.56
388.488	1232.56
388.713	1248.56
388.938	1218.56
389.163	1194.56
389.387	1229.56
389.612	1235.56
389.837	1239.56
390.062	1244.56
390.287	1249.56
390.512	1248.56
390.736	1290.56
390.961	1276.56
391.186	1303.56
391.411	1257.56
391.636	1305.56
391.86	1315.56
392.085	1315.56
392.31	1296.56
392.534	1289.56
392.759	1272.56
392.984	1248.56
393.208	1257.56
393.433	1288.56
393.658	1278.56
393.882	1235.56
394.107	1243.56
394.331	1226.56
394.556	1251.56
394.78	1304.56
395.005	1245.56
395.229	1249.56
395.454	1289.56
395.678	1298.56
395.903	1287.56
396.127	1289.56
396.352	1264.56
396.576	1265.56
396.801	1289.56
397.025	1317.56
397.249	1301.56
397.474	1303.56
397.698	1288.56
397.922	1304.56
398.147	1310.56
398.371	1348.56
398.595	1362.56
398.82	1385.56
399.044	1437.56
399.268	1498.56
399.492	1559.56
399.717	1621.56
399.941	1657.56
400.165	1559.56
400.389	1514.56
400.613	1472.56
400.837	1394.56
401.062	1391.56
401.286	1369.56
401.51	1400.56
401.734	1384.56
401.958	1373.56
402.182	1349.56
402.406	1368.56
402.63	1390.56
402.854	1394.56
403.078	1388.56
403.302	1385.56
403.526	1396.56
403.75	1389.56
403.974	1389.56
404.198	1404.56
404.422	1401.56
404.645	1401.56
404.869	1414.56
405.093	1398.56
405.317	1433.56
405.541	1427.56
405.765	1439.56
405.988	1457.56
406.212	1459.56
406.436	1390.56
406.66	1473.56
406.883	1497.56
407.107	1512.56
407.331	1485.56
407.555	1525.56
407.778	1534.56
408.002	1518.56
408.226	1511.56
408.449	1496.56
408.673	1476.56
408.896	1445.56
409.12	1442.56
409.344	1444.56
409.567	1370.56
409.791	1366.56
410.014	1385.56
410.238	1404.56
410.461	1396.56
410.685	1408.56
410.908	1375.56
411.132	1366.56
411.355	1377.56
411.578	1355.56
411.802	1349.56
412.025	1356.56
412.249	1377.56
412.472	1369.56
412.695	1355.56
412.919	1354.56
413.142	1363.56
413.365	1345.56
413.589	1342.56
413.812	1338.56
414.035	1335.56
414.258	1347.56
414.482	1331.56
414.705	1346.56
414.928	1326.56
415.151	1382.56
415.374	1355.56
415.597	1310.56
415.821	1310.56
416.044	1288.56
416.267	1323.56
416.49	1308.56
416.713	1290.56
416.936	1303.56
417.159	1280.56
417.382	1297.56
417.605	1300.56
417.828	1265.56
418.051	1262.56
418.274	1292.56
418.497	1286.56
418.72	1363.56
418.943	1313.56
419.166	1368.56
419.389	1418.56
419.611	1410.56
419.834	1368.56
420.057	1364.56
420.28	1336.56
420.503	1315.56
420.726	1263.56
420.948	1298.56
421.171	1292.56
421.394	1291.56
421.617	1312.56
421.839	1263.56
422.062	1313.56
422.285	1298.56
422.507	1292.56
422.73	1320.56
422.953	1326.56
423.175	1369.56
423.398	1314.56
423.621	1332.56
423.843	1313.56
424.066	1288.56
424.288	1303.56
424.511	1302.56
424.733	1278.56
424.956	1322.56
425.178	1324.56
425.401	1273.56
425.623	1275.56
425.846	1262.56
426.068	1262.56
426.291	1255.56
426.513	1269.56
426.735	1268.56
426.958	1233.56
427.18	1234.56
427.402	1229.56
427.625	1217.56
427.847	1208.56
428.069	1212.56
428.292	1225.56
428.514	1230.56
428.736	1211.56
428.958	1192.56
429.181	1228.56
429.403	1189.56
429.625	1184.56
429.847	1193.56
430.069	1190.56
430.292	1274.56
430.514	1241.56
430.736	1288.56
430.958	1222.56
431.18	1167.56
431.402	1198.56
431.624	1170.56
431.846	1168.56
432.068	1158.56
432.29	1172.56
432.512	1151.56
432.734	1212.56
432.956	1185.56
433.178	1211.56
433.4	1198.56
433.622	1193.56
433.844	1200.56
434.066	1190.56
434.287	1196.56
434.509	1180.56
434.731	1199.56
434.953	1194.56
435.175	1234.56
435.397	1239.56
435.618	1208.56
435.84	1190.56
436.062	1202.56
436.284	1188.56
436.505	1211.56
436.727	1203.56
436.949	1170.56
437.17	1192.56
437.392	1152.56
437.614	1143.56
437.835	1132.56
438.057	1130.56
438.278	1131.56
438.5	1147.56
438.721	1153.56
438.943	1200.56
439.165	1224.56
439.386	1253.56
439.608	1249.56
439.829	1210.56
440.05	1272.56
440.272	1290.56
440.493	1228.56
440.715	1222.56
440.936	1219.56
441.158	1248.56
441.379	1274.56
441.6	1305.56
441.822	1330.56
442.043	1409.56
442.264	1454.56
442.486	1324.56
442.707	1306.56
442.928	1286.56
443.149	1303.56
443.371	1290.56
443.592	1280.56
443.813	1323.56
444.034	1333.56
444.255	1330.56
444.476	1328.56
444.698	1368.56
444.919	1371.56
445.14	1471.56
445.361	1376.56
445.582	1329.56
445.803	1276.56
446.024	1226.56
446.245	1297.56
446.466	1286.56
446.687	1277.56
446.908	1296.56
447.129	1254.56
447.35	1199.56
447.571	1222.56
447.792	1189.56
448.013	1147.56
448.234	1205.56
448.455	1174.56
448.675	1193.56
448.896	1226.56
449.117	1288.56
449.338	1329.56
449.559	1430.56
449.779	1265.56
450	1176.56
450.221	1178.56
450.442	1138.56
450.662	1150.56
450.883	1148.56
451.104	1163.56
451.324	1151.56
451.545	1152.56
451.766	1134.56
451.986	1163.56
452.207	1222.56
452.428	1561.56
452.648	2166.56
452.869	1841.56
453.089	1364.56
453.31	1303.56
453.53	1270.56
453.751	1334.56
453.971	1420.56
454.192	1365.56
454.412	1198.56
454.633	1148.56
454.853	1112.56
455.073	1111.56
455.294	1094.56
455.514	1112.56
455.734	1093.56
455.955	1092.56
456.175	1079.56
456.395	1096.56
456.616	1068.56
456.836	1104.56
457.056	1094.56
457.276	1121.56
457.497	1159.56
457.717	1191.56
457.937	1162.56
458.157	1163.56
458.377	1129.56
458.598	1154.56
458.818	1169.56
459.038	1112.56
459.258	1161.56
459.478	1152.56
459.698	1174.56
459.918	1178.56
460.138	1220.56
460.358	1224.56
460.578	1292.56
460.798	1251.56
461.018	1280.56
461.238	1295.56
461.458	1307.56
461.678	1289.56
461.898	1323.56
462.118	1309.56
462.338	1361.56
462.558	1378.56
462.777	1424.56
462.997	1470.56
463.217	1474.56
463.437	1535.56
463.657	1589.56
463.876	1560.56
464.096	1493.56
464.316	1383.56
464.536	1395.56
464.755	1382.56
464.975	1342.56
465.195	1316.56
465.414	1279.56
465.634	1234.56
465.854	1221.56
466.073	1186.56
466.293	1211.56
466.512	1200.56
466.732	1197.56
466.951	1275.56
467.171	1335.56
467.391	1316.56
467.61	1259.56
467.829	1154.56
468.049	1164.56
468.268	1167.56
468.488	1123.56
468.707	1166.56
468.927	1152.56
469.146	1167.56
469.365	1181.56
469.585	1180.56
469.804	1221.56
470.023	1221.56
470.243	1252.56
470.462	1278.56
470.681	1340.56
470.901	1473.56
471.12	1706.56
471.339	1730.56
471.558	1413.56
471.777	1267.56
471.997	1225.56
472.216	1224.56
472.435	1179.56
472.654	1165.56
472.873	1158.56
473.092	1168.56
473.311	1187.56
473.53	1167.56
473.749	1192.56
473.968	1233.56
474.187	1214.56
474.406	1187.56
474.625	1158.56
474.844	1151.56
475.063	1154.56
475.282	1195.56
475.501	1185.56
475.72	1162.56
475.939	1200.56
476.158	1226.56
476.377	1222.56
476.596	1246.56
476.814	1210.56
477.033	1238.56
477.252	1233.56
477.471	1240.56
477.69	1288.56
477.908	1321.56
478.127	1340.56
478.346	1311.56
478.564	1342.56
478.783	1379.56
479.002	1373.56
479.22	1382.56
479.439	1370.56
479.658	1380.56
479.876	1388.56
480.095	1375.56
480.313	1435.56
480.532	1431.56
480.751	1440.56
480.969	1379.56
481.188	1387.56
481.406	1357.56
481.624	1383.56
481.843	1380.56
482.061	1410.56
482.28	1394.56
482.498	1382.56
482.717	1398.56
482.935	1359.56
483.153	1432.56
483.372	1448.56
483.59	1496.56
483.808	1496.56
484.027	1512.56
484.245	1605.56
484.463	1759.56
484.681	2016.56
484.9	1772.56
485.118	1654.56
485.336	1641.56
485.554	1608.56
485.772	1742.56
485.99	2022.56
486.209	2226.56
486.427	1793.56
486.645	1597.56
486.863	1576.56
487.081	1536.56
487.299	1498.56
487.517	1488.56
487.735	1500.56
487.953	1522.56
488.171	1506.56
488.389	1479.56
488.607	1514.56
488.825	1468.56
489.043	1443.56
489.261	1451.56
489.479	1461.56
489.696	1451.56
489.914	1429.56
490.132	1460.56
490.35	1496.56
490.568	1471.56
490.786	1496.56
491.003	1539.56
491.221	1550.56
491.439	1548.56
491.657	1555.56
491.874	1548.56
492.092	1555.56
492.31	1602.56
492.527	1589.56
492.745	1617.56
492.963	1569.56
493.18	1540.56
493.398	1569.56
493.615	1568.56
493.833	1563.56
494.05	1540.56
494.268	1522.56
494.485	1507.56
494.703	1562.56
494.92	1549.56
495.138	1543.56
495.355	1586.56
495.573	1573.56
495.79	1570.56
496.008	1612.56
496.225	1589.56
496.442	1594.56
496.66	1684.56
496.877	1729.56
497.094	1688.56
497.312	1624.56
497.529	1714.56
497.746	1688.56
497.963	1713.56
498.181	1714.56
498.398	1753.56
498.615	1824.56
498.832	1882.56
499.049	2001.56
499.267	2124.56
499.484	2188.56
499.701	2235.56
499.918	2308.56
500.135	2390.56
500.352	2546.56
500.569	2599.56
500.786	2575.56
501.003	2501.56
501.22	2428.56
501.437	2258.56
501.654	2119.56
501.871	2037.56
502.088	1960.56
502.305	1878.56
502.522	1820.56
502.739	1767.56
502.956	1772.56
503.172	1706.56
503.389	1682.56
503.606	1604.56
503.823	1585.56
504.04	1604.56
504.256	1587.56
504.473	1575.56
504.69	1586.56
504.907	1571.56
505.123	1545.56
505.34	1495.56
505.557	1466.56
505.773	1454.56
505.99	1434.56
506.207	1414.56
506.423	1397.56
506.64	1397.56
506.856	1402.56
507.073	1363.56
507.289	1352.56
507.506	1383.56
507.722	1343.56
507.939	1338.56
508.155	1306.56
508.372	1331.56
508.588	1338.56
508.805	1291.56
509.021	1304.56
509.238	1329.56
509.454	1392.56
509.67	1438.56
509.887	1374.56
510.103	1314.56
510.319	1319.56
510.536	1308.56
510.752	1286.56
510.968	1282.56
511.184	1270.56
511.401	1291.56
511.617	1243.56
511.833	1253.56
512.049	1201.56
512.265	1276.56
512.481	1254.56
512.698	1232.56
512.914	1229.56
513.13	1301.56
513.346	1229.56
513.562	1271.56
513.778	1247.56
513.994	1300.56
514.21	1300.56
514.426	1356.56
514.642	1419.56
514.858	1312.56
515.074	1312.56
515.29	1279.56
515.506	1281.56
515.721	1292.56
515.937	1298.56
516.153	1294.56
516.369	1292.56
516.585	1309.56
516.801	1350.56
517.016	1327.56
517.232	1350.56
517.448	1408.56
517.664	1430.56
517.879	1428.56
518.095	1405.56
518.311	1401.56
518.527	1391.56
518.742	1402.56
518.958	1371.56
519.173	1454.56
519.389	1396.56
519.605	1342.56
519.82	1277.56
520.036	1308.56
520.251	1298.56
520.467	1264.56
520.682	1255.56
520.898	1225.56
521.113	1219.56
521.329	1224.56
521.544	1243.56
521.76	1240.56
521.975	1221.56
522.19	1227.56
522.406	1209.56
522.621	1204.56
522.836	1210.56
523.052	1221.56
523.267	1227.56
523.482	1215.56
523.698	1215.56
523.913	1190.56
524.128	1200.56
524.343	1229.56
524.559	1231.56
524.774	1222.56
524.989	1241.56
525.204	1218.56
525.419	1211.56
525.634	1211.56
525.849	1224.56
526.064	1235.56
526.28	1221.56
526.495	1204.56
526.71	1235.56
526.925	1219.56
527.14	1231.56
527.355	1196.56
527.57	1230.56
527.785	1234.56
527.999	1216.56
528.214	1220.56
528.429	1244.56
528.644	1232.56
528.859	1282.56
529.074	1275.56
529.289	1319.56
529.503	1331.56
529.718	1305.56
529.933	1274.56
530.148	1292.56
530.363	1270.56
530.577	1262.56
530.792	1283.56
531.007	1248.56
531.221	1311.56
531.436	1281.56
531.651	1321.56
531.865	1322.56
532.08	1320.56
532.295	1401.56
532.509	1472.56
532.724	1460.56
532.938	1460.56
533.153	1472.56
533.367	1570.56
533.582	1662.56
533.796	1619.56
534.011	1574.56
534.225	1488.56
534.44	1499.56
534.654	1461.56
534.868	1436.56
535.083	1454.56
535.297	1398.56
535.511	1371.56
535.726	1376.56
535.94	1362.56
536.154	1314.56
536.369	1312.56
536.583	1289.56
536.797	1297.56
537.011	1259.56
537.225	1282.56
537.44	1254.56
537.654	1258.56
537.868	1225.56
538.082	1198.56
538.296	1233.56
538.51	1202.56
538.724	1214.56
538.938	1222.56
539.153	1210.56
539.367	1226.56
539.581	1182.56
539.795	1174.56
540.009	1162.56
540.222	1162.56
540.436	1174.56
540.65	1179.56
540.864	1176.56
541.078	1219.56
541.292	1290.56
541.506	1539.56
541.72	1631.56
541.934	1416.56
542.147	1335.56
542.361	1270.56
542.575	1217.56
542.789	1182.56
543.002	1147.56
543.216	1146.56
543.43	1147.56
543.644	1146.56
543.857	1152.56
544.071	1140.56
544.285	1161.56
544.498	1163.56
544.712	1194.56
544.925	1164.56
545.139	1166.56
545.352	1157.56
545.566	1186.56
545.779	1168.56
545.993	1171.56
546.206	1199.56
546.42	1202.56
546.633	1180.56
546.847	1198.56
547.06	1178.56
547.274	1207.56
547.487	1189.56
547.7	1208.56
547.914	1195.56
548.127	1210.56
548.34	1185.56
548.554	1187.56
548.767	1208.56
548.98	1172.56
549.193	1177.56
549.407	1186.56
549.62	1191.56
549.833	1191.56
550.046	1202.56
550.259	1198.56
550.473	1178.56
550.686	1180.56
550.899	1188.56
551.112	1158.56
551.325	1170.56
551.538	1134.56
551.751	1166.56
551.964	1154.56
552.177	1158.56
552.39	1220.56
552.603	1233.56
552.816	1238.56
553.029	1250.56
553.242	1226.56
553.455	1302.56
553.667	1300.56
553.88	1316.56
554.093	1296.56
554.306	1290.56
554.519	1313.56
554.732	1308.56
554.944	1336.56
555.157	1341.56
555.37	1370.56
555.583	1426.56
555.795	1476.56
556.008	1616.56
556.221	1685.56
556.433	1817.56
556.646	1811.56
556.859	1729.56
557.071	1668.56
557.284	1652.56
557.496	1611.56
557.709	1622.56
557.921	1564.56
558.134	1564.56
558.346	1607.56
558.559	1668.56
558.771	1769.56
558.984	1852.56
559.196	1971.56
559.409	1874.56
559.621	1774.56
559.833	1679.56
560.046	1573.56
560.258	1536.56
560.47	1492.56
560.683	1370.56
560.895	1383.56
561.107	1312.56
561.32	1307.56
561.532	1298.56
561.744	1257.56
561.956	1220.56
562.168	1224.56
562.381	1203.56
562.593	1209.56
562.805	1218.56
563.017	1231.56
563.229	1213.56
563.441	1366.56
563.653	1214.56
563.865	1140.56
564.077	1104.56
564.289	1086.56
564.501	1090.56
564.713	1086.56
564.925	1089.56
565.137	1083.56
565.349	1100.56
565.561	1123.56
565.773	1104.56
565.985	1106.56
566.197	1063.56
566.408	1111.56
566.62	1152.56
566.832	1220.56
567.044	1200.56
567.255	1189.56
567.467	1221.56
567.679	1234.56
567.891	1288.56
568.102	1446.56
568.314	1720.56
568.526	1452.56
568.737	1208.56
568.949	1159.56
569.161	1092.56
569.372	1026.56
569.584	999.56
569.795	1000.56
570.007	938.56
570.218	978.56
570.43	1024.56
570.641	960.56
570.853	889.56
571.064	896.56
571.276	911.56
571.487	893.56
571.698	871.56
571.91	842.56
572.121	872.56
572.333	861.56
572.544	863.56
572.755	908.56
572.966	1090.56
573.178	970.56
573.389	860.56
573.6	838.56
573.811	806.56
574.023	796.56
574.234	795.56
574.445	821.56
574.656	770.56
574.867	763.56
575.078	779.56
575.289	816.56
575.501	795.56
575.712	784.56
575.923	774.56
576.134	791.56
576.345	805.56
576.556	785.56
576.767	785.56
576.978	773.56
577.188	798.56
577.399	805.56
577.61	786.56
577.821	807.56
578.032	814.56
578.243	848.56
578.454	838.56
578.665	846.56
578.875	855.56
579.086	870.56
579.297	898.56
579.508	979.56
579.718	1030.56
579.929	1150.56
580.14	1310.56
580.35	1302.56
580.561	1239.56
580.772	1141.56
580.982	1048.56
581.193	1011.56
581.403	954.56
581.614	950.56
581.825	925.56
582.035	866.56
582.246	853.56
582.456	827.56
582.667	825.56
582.877	800.56
583.087	750.56
583.298	753.56
583.508	735.56
583.719	721.56
583.929	722.56
584.139	681.56
584.35	688.56
584.56	685.56
584.77	668.56
584.981	651.56
585.191	652.56
585.401	660.56
585.611	657.56
585.821	642.56
586.032	639.56
586.242	638.56
586.452	630.56
586.662	620.56
586.872	620.56
587.082	595.56
587.292	591.56
587.502	583.56
587.713	613.56
587.923	586.56
588.133	609.56
588.343	603.56
588.553	593.56
588.762	585.56
588.972	588.56
589.182	593.56
589.392	584.56
589.602	558.56
589.812	562.56
590.022	583.56
590.232	550.56
590.441	567.56
590.651	550.56
590.861	560.56
591.071	553.56
591.281	560.56
591.49	560.56
591.7	573.56
591.91	574.56
592.119	577.56
592.329	561.56
592.539	564.56
592.748	591.56
592.958	588.56
593.167	566.56
593.377	574.56
593.587	592.56
593.796	592.56
594.006	580.56
594.215	618.56
594.424	591.56
594.634	558.56
594.843	565.56
595.053	567.56
595.262	564.56
595.472	540.56
595.681	534.56
595.89	531.56
596.1	548.56
596.309	532.56
596.518	512.56
596.727	520.56
596.937	484.56
597.146	501.56
597.355	502.56
597.564	475.56
597.774	497.56
597.983	486.56
598.192	485.56
598.401	494.56
598.61	460.56
598.819	467.56
599.028	468.56
599.237	476.56
599.446	473.56
599.655	473.56
599.864	459.56
600.073	481.56
600.282	441.56
600.491	438.56
600.7	459.56
600.909	486.56
601.118	459.56
601.327	460.56
601.536	473.56
601.745	492.56
601.953	521.56
602.162	583.56
602.371	513.56
602.58	460.56
602.789	459.56
602.997	491.56
603.206	455.56
603.415	449.56
603.623	474.56
603.832	454.56
604.041	442.56
604.249	443.56
604.458	443.56
604.666	432.56
604.875	454.56
605.084	441.56
605.292	417.56
605.501	430.56
605.709	435.56
605.918	457.56
606.126	444.56
606.334	473.56
606.543	478.56
606.751	500.56
606.96	546.56
607.168	603.56
607.376	514.56
607.585	470.56
607.793	466.56
608.001	477.56
608.21	452.56
608.418	436.56
608.626	440.56
608.834	432.56
609.043	427.56
609.251	414.56
609.459	433.56
609.667	441.56
609.875	423.56
610.083	420.56
610.291	444.56
610.499	410.56
610.707	409.56
610.916	414.56
611.124	425.56
611.332	423.56
611.54	425.56
611.748	410.56
611.955	420.56
612.163	420.56
612.371	409.56
612.579	412.56
612.787	425.56
612.995	423.56
613.203	440.56
613.411	414.56
613.618	400.56
613.826	410.56
614.034	419.56
614.242	434.56
614.449	412.56
614.657	397.56
614.865	396.56
615.072	411.56
615.28	399.56
615.488	396.56
615.695	416.56
615.903	414.56
616.111	397.56
616.318	407.56
616.526	403.56
616.733	423.56
616.941	423.56
617.148	391.56
617.356	410.56
617.563	412.56
617.771	399.56
617.978	395.56
618.185	389.56
618.393	396.56
618.6	392.56
618.807	387.56
619.015	394.56
619.222	380.56
619.429	390.56
619.637	369.56
619.844	380.56
620.051	379.56
620.258	387.56
620.466	366.56
620.673	354.56
620.88	362.56
621.087	375.56
621.294	346.56
621.501	369.56
621.708	361.56
621.915	356.56
622.122	345.56
622.329	362.56
622.536	390.56
622.743	369.56
622.95	379.56
623.157	346.56
623.364	348.56
623.571	348.56
623.778	342.56
623.985	358.56
624.192	363.56
624.399	354.56
624.606	354.56
624.812	347.56
625.019	359.56
625.226	346.56
625.433	354.56
625.639	347.56
625.846	326.56
626.053	338.56
626.259	346.56
626.466	343.56
626.673	325.56
626.879	340.56
627.086	338.56
627.293	313.56
627.499	340.56
627.706	344.56
627.912	331.56
628.119	336.56
628.325	335.56
628.532	333.56
628.738	354.56
628.945	320.56
629.151	315.56
629.357	319.56
629.564	332.56
629.77	315.56
629.976	323.56
630.183	320.56
630.389	326.56
630.595	309.56
630.802	326.56
631.008	305.56
631.214	330.56
631.42	319.56
631.627	318.56
631.833	303.56
632.039	323.56
632.245	310.56
632.451	323.56
632.657	301.56
632.863	310.56
633.069	310.56
633.275	298.56
633.481	302.56
633.688	309.56
633.893	316.56
634.099	311.56
634.305	321.56
634.511	319.56
634.717	324.56
634.923	344.56
635.129	363.56
635.335	417.56
635.541	369.56
635.747	343.56
635.952	308.56
636.158	334.56
636.364	306.56
636.57	333.56
636.775	302.56
636.981	309.56
637.187	299.56
637.392	316.56
637.598	309.56
637.804	306.56
638.009	306.56
638.215	313.56
638.421	307.56
638.626	326.56
638.832	330.56
639.037	315.56
639.243	299.56
639.448	331.56
639.654	318.56
639.859	322.56
640.065	334.56
640.27	319.56
640.475	323.56
640.681	312.56
640.886	331.56
641.091	307.56
641.297	324.56
641.502	323.56
641.707	347.56
641.913	349.56
642.118	353.56
642.323	330.56
642.528	342.56
642.733	345.56
642.939	356.56
643.144	381.56
643.349	367.56
643.554	411.56
643.759	419.56
643.964	407.56
644.169	425.56
644.374	456.56
644.579	483.56
644.784	539.56
644.989	610.56
645.194	675.56
645.399	778.56
645.604	817.56
645.809	684.56
646.014	522.56
646.219	442.56
646.423	408.56
646.628	391.56
646.833	374.56
647.038	341.56
647.243	329.56
647.447	314.56
647.652	317.56
647.857	296.56
648.062	316.56
648.266	294.56
648.471	306.56
648.676	302.56
648.88	291.56
649.085	282.56
649.289	292.56
649.494	299.56
649.698	275.56
649.903	275.56
650.107	282.56
650.312	276.56
650.516	281.56
650.721	266.56
650.925	247.56
651.13	244.56
651.334	258.56
651.539	247.56
651.743	242.56
651.947	230.56
652.152	239.56
652.356	264.56
652.56	258.56
652.764	288.56
652.969	274.56
653.173	218.56
653.377	241.56
653.581	219.56
653.785	223.56
653.99	227.56
654.194	218.56
654.398	213.56
654.602	212.56
654.806	199.56
655.01	204.56
655.214	210.56
655.418	187.56
655.622	224.56
655.826	218.56
656.03	222.56
656.234	224.56
656.438	217.56
656.642	220.56
656.846	212.56
657.049	222.56
657.253	204.56
657.457	199.56
657.661	198.56
657.865	166.56
658.068	169.56
658.272	163.56
658.476	153.56
658.68	160.56
658.883	152.56
659.087	137.56
659.291	139.56
659.494	142.56
659.698	135.56
659.901	123.56
660.105	132.56
660.309	122.56
660.512	116.56
660.716	114.56
660.919	112.56
661.123	116.56
661.326	127.56
661.53	106.56
661.733	99.56
661.936	111.56
662.14	98.56
662.343	104.56
662.546	96.56
662.75	117.56
662.953	92.56
663.156	97.56
663.36	87.56
663.563	88.56
663.766	76.56
663.969	71.56
664.173	77.56
664.376	82.56
664.579	69.56
664.782	87.56
664.985	91.56
665.188	86.56
665.391	77.56
665.594	82.56
665.797	80.56
666	86.56
666.203	76.56
666.406	79.56
666.609	88.56
666.812	88.56
667.015	82.56
667.218	78.56
667.421	65.56
667.624	75.56
667.827	73.56
668.03	80.56
668.232	84.56
668.435	87.56
668.638	72.56
668.841	84.56
669.043	73.56
669.246	83.56
669.449	87.56
669.651	91.56
669.854	82.56
670.057	70.56
670.259	81.56
670.462	75.56
670.665	91.56
670.867	86.56
671.07	89.56
671.272	70.56
671.475	102.56
671.677	87.56
671.88	80.56
672.082	94.56
672.284	88.56
672.487	81.56
672.689	76.56
672.892	72.56
