Data from SnStandardFlinnAPT0064_LampEnergy5.5_LIBS07252019.E.O._I.C._HRD10591_15-15-59-492.txt Node
Date: Thu Jul 25 15:15:59 EDT 2019
User: cochatt
Spectrometer: HR+D1059
Trigger mode: 1
Integration Time (sec): 1.000000E-1
Scans to average: 1
Electric dark correction enabled: true
Nonlinearity correction enabled: false
Boxcar width: 0
XAxis mode: Wavelengths
Number of Pixels in Spectrum: 2048
>>>>>Begin Spectral Data<<<<<
223.165	-19.94
223.4	-19.94
223.635	-19.94
223.869	-2.94
224.104	-25.94
224.338	-10.94
224.573	-24.94
224.808	-3.94
225.042	-7.94
225.277	-7.94
225.511	-13.94
225.746	8.06
225.98	12.06
226.215	8.06
226.449	7.06
226.683	28.06
226.918	23.06
227.152	32.06
227.387	22.06
227.621	34.06
227.856	47.06
228.09	31.06
228.324	44.06
228.559	43.06
228.793	90.06
229.027	133.06
229.262	156.06
229.496	165.06
229.73	144.06
229.964	139.06
230.199	144.06
230.433	159.06
230.667	160.06
230.901	148.06
231.136	162.06
231.37	171.06
231.604	193.06
231.838	204.06
232.072	229.06
232.306	238.06
232.541	220.06
232.775	188.06
233.009	214.06
233.243	195.06
233.477	217.06
233.711	246.06
233.945	239.06
234.179	216.06
234.413	216.06
234.647	206.06
234.881	208.06
235.115	222.06
235.349	263.06
235.583	312.06
235.817	388.06
236.051	405.06
236.285	287.06
236.519	223.06
236.753	240.06
236.987	225.06
237.221	240.06
237.455	214.06
237.689	212.06
237.922	223.06
238.156	229.06
238.39	222.06
238.624	227.06
238.858	230.06
239.091	217.06
239.325	225.06
239.559	231.06
239.793	225.06
240.027	242.06
240.26	239.06
240.494	240.06
240.728	264.06
240.961	245.06
241.195	279.06
241.429	301.06
241.662	295.06
241.896	342.06
242.13	392.06
242.363	495.06
242.597	628.06
242.83	587.06
243.064	589.06
243.298	703.06
243.531	586.06
243.765	362.06
243.998	300.06
244.232	279.06
244.465	287.06
244.699	294.06
244.932	287.06
245.166	288.06
245.399	283.06
245.633	287.06
245.866	291.06
246.099	285.06
246.333	281.06
246.566	284.06
246.8	287.06
247.033	283.06
247.266	258.06
247.5	277.06
247.733	301.06
247.966	316.06
248.2	334.06
248.433	349.06
248.666	392.06
248.899	387.06
249.133	342.06
249.366	373.06
249.599	375.06
249.832	408.06
250.066	399.06
250.299	353.06
250.532	330.06
250.765	322.06
250.998	332.06
251.231	333.06
251.465	325.06
251.698	324.06
251.931	329.06
252.164	305.06
252.397	322.06
252.63	320.06
252.863	341.06
253.096	343.06
253.329	349.06
253.562	358.06
253.795	352.06
254.028	356.06
254.261	353.06
254.494	379.06
254.727	422.06
254.96	462.06
255.193	486.06
255.426	400.06
255.659	383.06
255.892	369.06
256.124	357.06
256.357	389.06
256.59	381.06
256.823	386.06
257.056	424.06
257.289	520.06
257.521	561.06
257.754	465.06
257.987	424.06
258.22	395.06
258.452	393.06
258.685	402.06
258.918	409.06
259.151	424.06
259.383	455.06
259.616	488.06
259.849	497.06
260.081	438.06
260.314	431.06
260.547	399.06
260.779	409.06
261.012	415.06
261.244	415.06
261.477	425.06
261.71	436.06
261.942	425.06
262.175	428.06
262.407	443.06
262.64	460.06
262.872	476.06
263.105	517.06
263.337	520.06
263.57	541.06
263.802	565.06
264.035	556.06
264.267	569.06
264.499	589.06
264.732	595.06
264.964	612.06
265.197	608.06
265.429	622.06
265.661	614.06
265.894	673.06
266.126	729.06
266.358	763.06
266.591	743.06
266.823	655.06
267.055	608.06
267.287	599.06
267.52	571.06
267.752	548.06
267.984	535.06
268.216	541.06
268.448	546.06
268.681	519.06
268.913	529.06
269.145	521.06
269.377	520.06
269.609	547.06
269.841	543.06
270.073	566.06
270.306	636.06
270.538	819.06
270.77	1173.06
271.002	1424.06
271.234	1013.06
271.466	730.06
271.698	628.06
271.93	557.06
272.162	551.06
272.394	537.06
272.626	529.06
272.858	516.06
273.09	513.06
273.322	528.06
273.553	503.06
273.785	520.06
274.017	522.06
274.249	544.06
274.481	533.06
274.713	526.06
274.945	519.06
275.176	512.06
275.408	516.06
275.64	499.06
275.872	513.06
276.104	556.06
276.335	550.06
276.567	549.06
276.799	540.06
277.031	553.06
277.262	553.06
277.494	567.06
277.726	625.06
277.957	692.06
278.189	797.06
278.421	743.06
278.652	680.06
278.884	636.06
279.115	603.06
279.347	576.06
279.579	565.06
279.81	580.06
280.042	565.06
280.273	567.06
280.505	602.06
280.736	603.06
280.968	636.06
281.199	712.06
281.431	753.06
281.662	774.06
281.894	690.06
282.125	657.06
282.356	691.06
282.588	676.06
282.819	683.06
283.051	707.06
283.282	780.06
283.513	967.06
283.745	1329.06
283.976	2076.06
284.207	2937.06
284.439	2617.06
284.67	1631.06
284.901	1316.06
285.132	1265.06
285.364	1231.06
285.595	983.06
285.826	912.06
286.057	1047.06
286.288	1417.06
286.52	1884.06
286.751	1797.06
286.982	1120.06
287.213	871.06
287.444	767.06
287.675	747.06
287.906	719.06
288.138	704.06
288.369	683.06
288.6	696.06
288.831	689.06
289.062	686.06
289.293	675.06
289.524	686.06
289.755	707.06
289.986	708.06
290.217	719.06
290.448	687.06
290.679	725.06
290.91	713.06
291.141	742.06
291.371	768.06
291.602	783.06
291.833	735.06
292.064	696.06
292.295	670.06
292.526	683.06
292.757	674.06
292.987	647.06
293.218	634.06
293.449	653.06
293.68	645.06
293.91	651.06
294.141	663.06
294.372	650.06
294.603	632.06
294.833	643.06
295.064	660.06
295.295	650.06
295.525	662.06
295.756	654.06
295.987	634.06
296.217	632.06
296.448	660.06
296.679	636.06
296.909	649.06
297.14	661.06
297.37	655.06
297.601	663.06
297.831	685.06
298.062	664.06
298.292	660.06
298.523	680.06
298.753	669.06
298.984	713.06
299.214	691.06
299.445	715.06
299.675	700.06
299.905	738.06
300.136	753.06
300.366	837.06
300.597	1039.06
300.827	1416.06
301.057	1865.06
301.288	1844.06
301.518	1246.06
301.748	994.06
301.979	897.06
302.209	870.06
302.439	897.06
302.669	899.06
302.9	1125.06
303.13	1495.06
303.36	2123.06
303.59	2752.06
303.82	2501.06
304.051	1481.06
304.281	1114.06
304.511	955.06
304.741	865.06
304.971	848.06
305.201	793.06
305.431	796.06
305.661	800.06
305.891	777.06
306.121	775.06
306.352	759.06
306.582	747.06
306.812	751.06
307.042	739.06
307.272	760.06
307.502	739.06
307.731	730.06
307.961	751.06
308.191	738.06
308.421	772.06
308.651	752.06
308.881	763.06
309.111	741.06
309.341	735.06
309.571	748.06
309.8	753.06
310.03	760.06
310.26	769.06
310.49	781.06
310.72	777.06
310.949	769.06
311.179	769.06
311.409	757.06
311.639	798.06
311.868	771.06
312.098	801.06
312.328	796.06
312.557	813.06
312.787	781.06
313.017	827.06
313.246	811.06
313.476	832.06
313.706	811.06
313.935	868.06
314.165	905.06
314.394	960.06
314.624	912.06
314.853	871.06
315.083	856.06
315.312	875.06
315.542	861.06
315.771	883.06
316.001	909.06
316.23	928.06
316.46	951.06
316.689	1033.06
316.919	1212.06
317.148	1701.06
317.377	2555.06
317.607	3761.06
317.836	3839.06
318.065	2323.06
318.295	1520.06
318.524	1248.06
318.753	1139.06
318.983	1055.06
319.212	1007.06
319.441	983.06
319.67	964.06
319.9	936.06
320.129	943.06
320.358	951.06
320.587	941.06
320.816	942.06
321.046	950.06
321.275	957.06
321.504	940.06
321.733	949.06
321.962	993.06
322.191	999.06
322.42	1021.06
322.649	982.06
322.878	1000.06
323.108	998.06
323.337	1012.06
323.566	1027.06
323.795	1027.06
324.024	1070.06
324.253	1049.06
324.482	1104.06
324.71	1127.06
324.939	1209.06
325.168	1246.06
325.397	1317.06
325.626	1493.06
325.855	2063.06
326.084	3121.06
326.313	4557.06
326.542	4847.06
326.77	3139.06
326.999	2131.06
327.228	1823.06
327.457	1689.06
327.686	1687.06
327.914	1816.06
328.143	2066.06
328.372	2384.06
328.6	2569.06
328.829	2396.06
329.058	2119.06
329.287	1917.06
329.515	1759.06
329.744	1650.06
329.972	1566.06
330.201	1476.06
330.43	1448.06
330.658	1388.06
330.887	1375.06
331.115	1397.06
331.344	1420.06
331.572	1354.06
331.801	1407.06
332.03	1339.06
332.258	1411.06
332.486	1451.06
332.715	1595.06
332.943	1914.06
333.172	2291.06
333.4	2265.06
333.629	1806.06
333.857	1661.06
334.085	1694.06
334.314	1787.06
334.542	1883.06
334.771	2177.06
334.999	2563.06
335.227	3087.06
335.455	3451.06
335.684	3283.06
335.912	2763.06
336.14	2416.06
336.369	2173.06
336.597	1991.06
336.825	1877.06
337.053	1764.06
337.281	1669.06
337.51	1602.06
337.738	1500.06
337.966	1477.06
338.194	1404.06
338.422	1378.06
338.65	1342.06
338.878	1368.06
339.106	1299.06
339.334	1296.06
339.562	1253.06
339.79	1223.06
340.018	1212.06
340.246	1232.06
340.474	1186.06
340.702	1187.06
340.93	1228.06
341.158	1205.06
341.386	1201.06
341.614	1181.06
341.842	1184.06
342.07	1160.06
342.298	1136.06
342.526	1131.06
342.754	1125.06
342.981	1115.06
343.209	1133.06
343.437	1147.06
343.665	1136.06
343.893	1154.06
344.12	1135.06
344.348	1123.06
344.576	1076.06
344.804	1092.06
345.031	1075.06
345.259	1038.06
345.487	1043.06
345.714	1047.06
345.942	1066.06
346.17	1037.06
346.397	1031.06
346.625	1030.06
346.853	1031.06
347.08	1029.06
347.308	1037.06
347.535	1035.06
347.763	998.06
347.99	1028.06
348.218	1004.06
348.445	1014.06
348.673	1029.06
348.9	996.06
349.128	989.06
349.355	1014.06
349.583	1025.06
349.81	1003.06
350.037	1004.06
350.265	980.06
350.492	993.06
350.72	979.06
350.947	951.06
351.174	988.06
351.402	983.06
351.629	983.06
351.856	953.06
352.083	998.06
352.311	992.06
352.538	957.06
352.765	971.06
352.992	990.06
353.22	988.06
353.447	988.06
353.674	962.06
353.901	964.06
354.128	993.06
354.355	985.06
354.583	999.06
354.81	1000.06
355.037	1000.06
355.264	1010.06
355.491	1015.06
355.718	999.06
355.945	988.06
356.172	1029.06
356.399	996.06
356.626	1046.06
356.853	1036.06
357.08	1044.06
357.307	1023.06
357.534	1028.06
357.761	1062.06
357.988	1056.06
358.215	1039.06
358.441	1063.06
358.668	1021.06
358.895	1058.06
359.122	1031.06
359.349	1041.06
359.576	1057.06
359.802	1045.06
360.029	1030.06
360.256	1045.06
360.483	1017.06
360.709	1070.06
360.936	1078.06
361.163	1064.06
361.39	987.06
361.616	1050.06
361.843	1046.06
362.07	1068.06
362.296	1056.06
362.523	1032.06
362.749	1031.06
362.976	1063.06
363.203	1029.06
363.429	1028.06
363.656	1023.06
363.882	1054.06
364.109	1025.06
364.335	1085.06
364.562	1053.06
364.788	1048.06
365.015	1033.06
365.241	1085.06
365.468	1119.06
365.694	1144.06
365.92	1109.06
366.147	1083.06
366.373	1094.06
366.599	1086.06
366.826	1070.06
367.052	1101.06
367.278	1087.06
367.505	1057.06
367.731	1076.06
367.957	1093.06
368.184	1034.06
368.41	1078.06
368.636	1084.06
368.862	1099.06
369.089	1114.06
369.315	1085.06
369.541	1086.06
369.767	1087.06
369.993	1126.06
370.219	1071.06
370.445	1104.06
370.672	1087.06
370.898	1097.06
371.124	1116.06
371.35	1120.06
371.576	1137.06
371.802	1138.06
372.028	1157.06
372.254	1101.06
372.48	1155.06
372.706	1119.06
372.932	1161.06
373.158	1140.06
373.384	1143.06
373.61	1141.06
373.835	1153.06
374.061	1165.06
374.287	1174.06
374.513	1179.06
374.739	1199.06
374.965	1189.06
375.191	1165.06
375.416	1158.06
375.642	1153.06
375.868	1186.06
376.094	1167.06
376.319	1144.06
376.545	1147.06
376.771	1153.06
376.997	1131.06
377.222	1137.06
377.448	1124.06
377.674	1109.06
377.899	1124.06
378.125	1109.06
378.35	1113.06
378.576	1144.06
378.802	1120.06
379.027	1135.06
379.253	1159.06
379.478	1183.06
379.704	1388.06
379.929	1919.06
380.155	2717.06
380.38	2980.06
380.606	1927.06
380.831	1405.06
381.057	1246.06
381.282	1162.06
381.507	1152.06
381.733	1140.06
381.958	1140.06
382.184	1110.06
382.409	1133.06
382.634	1119.06
382.86	1132.06
383.085	1113.06
383.31	1153.06
383.535	1133.06
383.761	1151.06
383.986	1117.06
384.211	1141.06
384.436	1152.06
384.662	1119.06
384.887	1156.06
385.112	1133.06
385.337	1170.06
385.562	1163.06
385.787	1144.06
386.013	1169.06
386.238	1161.06
386.463	1171.06
386.688	1172.06
386.913	1140.06
387.138	1150.06
387.363	1167.06
387.588	1143.06
387.813	1151.06
388.038	1136.06
388.263	1157.06
388.488	1152.06
388.713	1151.06
388.938	1158.06
389.163	1129.06
389.387	1176.06
389.612	1162.06
389.837	1176.06
390.062	1157.06
390.287	1168.06
390.512	1159.06
390.736	1166.06
390.961	1185.06
391.186	1162.06
391.411	1197.06
391.636	1223.06
391.86	1244.06
392.085	1225.06
392.31	1211.06
392.534	1202.06
392.759	1187.06
392.984	1193.06
393.208	1227.06
393.433	1199.06
393.658	1170.06
393.882	1176.06
394.107	1169.06
394.331	1172.06
394.556	1169.06
394.78	1179.06
395.005	1178.06
395.229	1177.06
395.454	1191.06
395.678	1187.06
395.903	1209.06
396.127	1195.06
396.352	1180.06
396.576	1165.06
396.801	1215.06
397.025	1203.06
397.249	1203.06
397.474	1227.06
397.698	1238.06
397.922	1214.06
398.147	1214.06
398.371	1229.06
398.595	1233.06
398.82	1295.06
399.044	1313.06
399.268	1407.06
399.492	1481.06
399.717	1532.06
399.941	1564.06
400.165	1507.06
400.389	1415.06
400.613	1389.06
400.837	1333.06
401.062	1340.06
401.286	1310.06
401.51	1307.06
401.734	1238.06
401.958	1282.06
402.182	1299.06
402.406	1302.06
402.63	1280.06
402.854	1297.06
403.078	1319.06
403.302	1321.06
403.526	1349.06
403.75	1318.06
403.974	1337.06
404.198	1311.06
404.422	1325.06
404.645	1326.06
404.869	1334.06
405.093	1336.06
405.317	1316.06
405.541	1326.06
405.765	1312.06
405.988	1367.06
406.212	1391.06
406.436	1341.06
406.66	1375.06
406.883	1371.06
407.107	1448.06
407.331	1431.06
407.555	1470.06
407.778	1444.06
408.002	1410.06
408.226	1430.06
408.449	1383.06
408.673	1399.06
408.896	1365.06
409.12	1366.06
409.344	1358.06
409.567	1338.06
409.791	1333.06
410.014	1340.06
410.238	1303.06
410.461	1334.06
410.685	1342.06
410.908	1282.06
411.132	1286.06
411.355	1262.06
411.578	1314.06
411.802	1283.06
412.025	1274.06
412.249	1281.06
412.472	1310.06
412.695	1270.06
412.919	1236.06
413.142	1254.06
413.365	1261.06
413.589	1262.06
413.812	1268.06
414.035	1246.06
414.258	1264.06
414.482	1229.06
414.705	1243.06
414.928	1247.06
415.151	1225.06
415.374	1264.06
415.597	1244.06
415.821	1231.06
416.044	1194.06
416.267	1204.06
416.49	1222.06
416.713	1193.06
416.936	1225.06
417.159	1191.06
417.382	1189.06
417.605	1164.06
417.828	1181.06
418.051	1193.06
418.274	1221.06
418.497	1197.06
418.72	1259.06
418.943	1207.06
419.166	1299.06
419.389	1363.06
419.611	1341.06
419.834	1296.06
420.057	1235.06
420.28	1217.06
420.503	1226.06
420.726	1151.06
420.948	1189.06
421.171	1224.06
421.394	1193.06
421.617	1207.06
421.839	1237.06
422.062	1217.06
422.285	1228.06
422.507	1241.06
422.73	1235.06
422.953	1235.06
423.175	1240.06
423.398	1283.06
423.621	1207.06
423.843	1243.06
424.066	1206.06
424.288	1183.06
424.511	1244.06
424.733	1185.06
424.956	1190.06
425.178	1219.06
425.401	1204.06
425.623	1215.06
425.846	1216.06
426.068	1166.06
426.291	1179.06
426.513	1144.06
426.735	1158.06
426.958	1132.06
427.18	1143.06
427.402	1162.06
427.625	1127.06
427.847	1087.06
428.069	1122.06
428.292	1146.06
428.514	1137.06
428.736	1115.06
428.958	1158.06
429.181	1096.06
429.403	1123.06
429.625	1135.06
429.847	1089.06
430.069	1125.06
430.292	1149.06
430.514	1164.06
430.736	1180.06
430.958	1154.06
431.18	1107.06
431.402	1128.06
431.624	1127.06
431.846	1101.06
432.068	1107.06
432.29	1063.06
432.512	1100.06
432.734	1127.06
432.956	1128.06
433.178	1140.06
433.4	1144.06
433.622	1189.06
433.844	1099.06
434.066	1123.06
434.287	1091.06
434.509	1141.06
434.731	1174.06
434.953	1159.06
435.175	1140.06
435.397	1169.06
435.618	1108.06
435.84	1126.06
436.062	1091.06
436.284	1130.06
436.505	1117.06
436.727	1135.06
436.949	1109.06
437.17	1136.06
437.392	1104.06
437.614	1090.06
437.835	1047.06
438.057	1081.06
438.278	1085.06
438.5	1072.06
438.721	1118.06
438.943	1141.06
439.165	1135.06
439.386	1156.06
439.608	1182.06
439.829	1168.06
440.05	1199.06
440.272	1215.06
440.493	1159.06
440.715	1162.06
440.936	1142.06
441.158	1185.06
441.379	1176.06
441.6	1247.06
441.822	1183.06
442.043	1274.06
442.264	1301.06
442.486	1208.06
442.707	1234.06
442.928	1183.06
443.149	1221.06
443.371	1215.06
443.592	1187.06
443.813	1205.06
444.034	1193.06
444.255	1251.06
444.476	1262.06
444.698	1286.06
444.919	1306.06
445.14	1372.06
445.361	1289.06
445.582	1234.06
445.803	1209.06
446.024	1214.06
446.245	1208.06
446.466	1186.06
446.687	1190.06
446.908	1196.06
447.129	1161.06
447.35	1171.06
447.571	1145.06
447.792	1097.06
448.013	1111.06
448.234	1117.06
448.455	1145.06
448.675	1097.06
448.896	1147.06
449.117	1179.06
449.338	1239.06
449.559	1254.06
449.779	1185.06
450	1080.06
450.221	1090.06
450.442	1063.06
450.662	1063.06
450.883	1038.06
451.104	1075.06
451.324	1073.06
451.545	1064.06
451.766	1062.06
451.986	1074.06
452.207	1142.06
452.428	1342.06
452.648	1807.06
452.869	1561.06
453.089	1193.06
453.31	1141.06
453.53	1138.06
453.751	1206.06
453.971	1255.06
454.192	1238.06
454.412	1093.06
454.633	1065.06
454.853	1026.06
455.073	1047.06
455.294	1037.06
455.514	1016.06
455.734	1033.06
455.955	1019.06
456.175	993.06
456.395	1027.06
456.616	998.06
456.836	1035.06
457.056	1026.06
457.276	1040.06
457.497	1087.06
457.717	1115.06
457.937	1049.06
458.157	1076.06
458.377	1083.06
458.598	1089.06
458.818	1082.06
459.038	1060.06
459.258	1085.06
459.478	1094.06
459.698	1125.06
459.918	1127.06
460.138	1152.06
460.358	1196.06
460.578	1189.06
460.798	1222.06
461.018	1235.06
461.238	1207.06
461.458	1237.06
461.678	1229.06
461.898	1260.06
462.118	1253.06
462.338	1249.06
462.558	1273.06
462.777	1294.06
462.997	1332.06
463.217	1398.06
463.437	1423.06
463.657	1427.06
463.876	1421.06
464.096	1381.06
464.316	1345.06
464.536	1335.06
464.755	1295.06
464.975	1301.06
465.195	1250.06
465.414	1193.06
465.634	1150.06
465.854	1147.06
466.073	1135.06
466.293	1128.06
466.512	1108.06
466.732	1120.06
466.951	1204.06
467.171	1242.06
467.391	1186.06
467.61	1139.06
467.829	1112.06
468.049	1092.06
468.268	1075.06
468.488	1096.06
468.707	1114.06
468.927	1087.06
469.146	1089.06
469.365	1125.06
469.585	1114.06
469.804	1139.06
470.023	1167.06
470.243	1140.06
470.462	1181.06
470.681	1254.06
470.901	1314.06
471.12	1494.06
471.339	1504.06
471.558	1302.06
471.777	1216.06
471.997	1146.06
472.216	1094.06
472.435	1119.06
472.654	1095.06
472.873	1104.06
473.092	1100.06
473.311	1101.06
473.53	1126.06
473.749	1138.06
473.968	1187.06
474.187	1131.06
474.406	1071.06
474.625	1086.06
474.844	1119.06
475.063	1104.06
475.282	1086.06
475.501	1085.06
475.72	1121.06
475.939	1149.06
476.158	1163.06
476.377	1152.06
476.596	1157.06
476.814	1174.06
477.033	1162.06
477.252	1177.06
477.471	1209.06
477.69	1234.06
477.908	1227.06
478.127	1253.06
478.346	1242.06
478.564	1301.06
478.783	1286.06
479.002	1325.06
479.22	1299.06
479.439	1294.06
479.658	1271.06
479.876	1298.06
480.095	1316.06
480.313	1305.06
480.532	1356.06
480.751	1329.06
480.969	1346.06
481.188	1309.06
481.406	1289.06
481.624	1280.06
481.843	1282.06
482.061	1336.06
482.28	1323.06
482.498	1299.06
482.717	1265.06
482.935	1299.06
483.153	1353.06
483.372	1350.06
483.59	1388.06
483.808	1373.06
484.027	1405.06
484.245	1451.06
484.463	1638.06
484.681	1768.06
484.9	1653.06
485.118	1540.06
485.336	1531.06
485.554	1524.06
485.772	1609.06
485.99	1811.06
486.209	1918.06
486.427	1673.06
486.645	1496.06
486.863	1455.06
487.081	1435.06
487.299	1415.06
487.517	1378.06
487.735	1409.06
487.953	1459.06
488.171	1431.06
488.389	1411.06
488.607	1378.06
488.825	1347.06
489.043	1325.06
489.261	1332.06
489.479	1376.06
489.696	1345.06
489.914	1342.06
490.132	1382.06
490.35	1377.06
490.568	1388.06
490.786	1407.06
491.003	1439.06
491.221	1436.06
491.439	1453.06
491.657	1482.06
491.874	1461.06
492.092	1505.06
492.31	1525.06
492.527	1507.06
492.745	1463.06
492.963	1453.06
493.18	1453.06
493.398	1469.06
493.615	1455.06
493.833	1456.06
494.05	1458.06
494.268	1437.06
494.485	1470.06
494.703	1448.06
494.92	1461.06
495.138	1467.06
495.355	1462.06
495.573	1448.06
495.79	1441.06
496.008	1465.06
496.225	1508.06
496.442	1482.06
496.66	1546.06
496.877	1600.06
497.094	1588.06
497.312	1520.06
497.529	1550.06
497.746	1549.06
497.963	1581.06
498.181	1624.06
498.398	1659.06
498.615	1687.06
498.832	1761.06
499.049	1860.06
499.267	1930.06
499.484	2067.06
499.701	2125.06
499.918	2193.06
500.135	2279.06
500.352	2495.06
500.569	2455.06
500.786	2413.06
501.003	2352.06
501.22	2299.06
501.437	2119.06
501.654	1977.06
501.871	1911.06
502.088	1830.06
502.305	1769.06
502.522	1739.06
502.739	1703.06
502.956	1633.06
503.172	1611.06
503.389	1564.06
503.606	1504.06
503.823	1468.06
504.04	1480.06
504.256	1471.06
504.473	1547.06
504.69	1487.06
504.907	1496.06
505.123	1447.06
505.34	1414.06
505.557	1376.06
505.773	1333.06
505.99	1361.06
506.207	1329.06
506.423	1294.06
506.64	1333.06
506.856	1275.06
507.073	1303.06
507.289	1265.06
507.506	1254.06
507.722	1258.06
507.939	1278.06
508.155	1217.06
508.372	1213.06
508.588	1245.06
508.805	1262.06
509.021	1224.06
509.238	1262.06
509.454	1282.06
509.67	1320.06
509.887	1277.06
510.103	1269.06
510.319	1243.06
510.536	1251.06
510.752	1188.06
510.968	1191.06
511.184	1191.06
511.401	1211.06
511.617	1177.06
511.833	1165.06
512.049	1172.06
512.265	1171.06
512.481	1175.06
512.698	1182.06
512.914	1156.06
513.13	1168.06
513.346	1180.06
513.562	1197.06
513.778	1183.06
513.994	1211.06
514.21	1213.06
514.426	1244.06
514.642	1330.06
514.858	1227.06
515.074	1234.06
515.29	1208.06
515.506	1206.06
515.721	1223.06
515.937	1207.06
516.153	1209.06
516.369	1260.06
516.585	1271.06
516.801	1268.06
517.016	1278.06
517.232	1278.06
517.448	1349.06
517.664	1331.06
517.879	1369.06
518.095	1354.06
518.311	1331.06
518.527	1327.06
518.742	1319.06
518.958	1299.06
519.173	1318.06
519.389	1299.06
519.605	1236.06
519.82	1246.06
520.036	1242.06
520.251	1197.06
520.467	1160.06
520.682	1179.06
520.898	1199.06
521.113	1170.06
521.329	1155.06
521.544	1151.06
521.76	1162.06
521.975	1154.06
522.19	1167.06
522.406	1149.06
522.621	1167.06
522.836	1149.06
523.052	1133.06
523.267	1133.06
523.482	1159.06
523.698	1133.06
523.913	1145.06
524.128	1166.06
524.343	1150.06
524.559	1154.06
524.774	1126.06
524.989	1135.06
525.204	1171.06
525.419	1138.06
525.634	1144.06
525.849	1126.06
526.064	1141.06
526.28	1161.06
526.495	1136.06
526.71	1145.06
526.925	1133.06
527.14	1143.06
527.355	1156.06
527.57	1133.06
527.785	1139.06
527.999	1144.06
528.214	1148.06
528.429	1183.06
528.644	1195.06
528.859	1180.06
529.074	1227.06
529.289	1237.06
529.503	1225.06
529.718	1225.06
529.933	1220.06
530.148	1200.06
530.363	1190.06
530.577	1196.06
530.792	1204.06
531.007	1198.06
531.221	1233.06
531.436	1221.06
531.651	1238.06
531.865	1266.06
532.08	1260.06
532.295	1263.06
532.509	1350.06
532.724	1340.06
532.938	1341.06
533.153	1353.06
533.367	1449.06
533.582	1477.06
533.796	1448.06
534.011	1473.06
534.225	1396.06
534.44	1384.06
534.654	1402.06
534.868	1339.06
535.083	1342.06
535.297	1305.06
535.511	1309.06
535.726	1307.06
535.94	1268.06
536.154	1232.06
536.369	1245.06
536.583	1213.06
536.797	1196.06
537.011	1175.06
537.225	1161.06
537.44	1153.06
537.654	1160.06
537.868	1149.06
538.082	1151.06
538.296	1131.06
538.51	1141.06
538.724	1136.06
538.938	1147.06
539.153	1157.06
539.367	1176.06
539.581	1140.06
539.795	1126.06
540.009	1087.06
540.222	1060.06
540.436	1074.06
540.65	1074.06
540.864	1107.06
541.078	1141.06
541.292	1236.06
541.506	1391.06
541.72	1459.06
541.934	1331.06
542.147	1229.06
542.361	1193.06
542.575	1135.06
542.789	1113.06
543.002	1109.06
543.216	1098.06
543.43	1085.06
543.644	1090.06
543.857	1084.06
544.071	1086.06
544.285	1109.06
544.498	1106.06
544.712	1098.06
544.925	1116.06
545.139	1102.06
545.352	1088.06
545.566	1112.06
545.779	1127.06
545.993	1118.06
546.206	1127.06
546.42	1105.06
546.633	1107.06
546.847	1096.06
547.06	1107.06
547.274	1145.06
547.487	1142.06
547.7	1139.06
547.914	1141.06
548.127	1120.06
548.34	1107.06
548.554	1126.06
548.767	1167.06
548.98	1140.06
549.193	1104.06
549.407	1114.06
549.62	1120.06
549.833	1126.06
550.046	1111.06
550.259	1084.06
550.473	1140.06
550.686	1091.06
550.899	1117.06
551.112	1117.06
551.325	1075.06
551.538	1112.06
551.751	1102.06
551.964	1094.06
552.177	1102.06
552.39	1133.06
552.603	1163.06
552.816	1197.06
553.029	1181.06
553.242	1197.06
553.455	1177.06
553.667	1207.06
553.88	1197.06
554.093	1208.06
554.306	1210.06
554.519	1197.06
554.732	1259.06
554.944	1264.06
555.157	1266.06
555.37	1314.06
555.583	1297.06
555.795	1364.06
556.008	1436.06
556.221	1541.06
556.433	1610.06
556.646	1611.06
556.859	1561.06
557.071	1532.06
557.284	1508.06
557.496	1448.06
557.709	1472.06
557.921	1445.06
558.134	1473.06
558.346	1509.06
558.559	1550.06
558.771	1600.06
558.984	1685.06
559.196	1721.06
559.409	1726.06
559.621	1563.06
559.833	1491.06
560.046	1460.06
560.258	1417.06
560.47	1358.06
560.683	1319.06
560.895	1305.06
561.107	1233.06
561.32	1188.06
561.532	1197.06
561.744	1158.06
561.956	1129.06
562.168	1135.06
562.381	1150.06
562.593	1101.06
562.805	1102.06
563.017	1112.06
563.229	1127.06
563.441	1200.06
563.653	1099.06
563.865	1045.06
564.077	1040.06
564.289	1028.06
564.501	994.06
564.713	1001.06
564.925	1006.06
565.137	1015.06
565.349	1016.06
565.561	1052.06
565.773	1053.06
565.985	1034.06
566.197	1052.06
566.408	1105.06
566.62	1088.06
566.832	1127.06
567.044	1105.06
567.255	1147.06
567.467	1160.06
567.679	1167.06
567.891	1209.06
568.102	1292.06
568.314	1516.06
568.526	1277.06
568.737	1159.06
568.949	1047.06
569.161	981.06
569.372	940.06
569.584	943.06
569.795	940.06
570.007	912.06
570.218	900.06
570.43	917.06
570.641	875.06
570.853	888.06
571.064	865.06
571.276	881.06
571.487	843.06
571.698	856.06
571.91	826.06
572.121	814.06
572.333	818.06
572.544	811.06
572.755	831.06
572.966	965.06
573.178	882.06
573.389	820.06
573.6	777.06
573.811	781.06
574.023	749.06
574.234	750.06
574.445	750.06
574.656	769.06
574.867	747.06
575.078	734.06
575.289	785.06
575.501	739.06
575.712	733.06
575.923	744.06
576.134	750.06
576.345	752.06
576.556	768.06
576.767	770.06
576.978	763.06
577.188	750.06
577.399	765.06
577.61	760.06
577.821	767.06
578.032	747.06
578.243	770.06
578.454	801.06
578.665	788.06
578.875	801.06
579.086	806.06
579.297	855.06
579.508	858.06
579.718	963.06
579.929	1036.06
580.14	1128.06
580.35	1163.06
580.561	1118.06
580.772	1071.06
580.982	991.06
581.193	943.06
581.403	912.06
581.614	847.06
581.825	846.06
582.035	812.06
582.246	797.06
582.456	794.06
582.667	767.06
582.877	759.06
583.087	735.06
583.298	709.06
583.508	694.06
583.719	680.06
583.929	662.06
584.139	661.06
584.35	651.06
584.56	668.06
584.77	648.06
584.981	630.06
585.191	617.06
585.401	608.06
585.611	621.06
585.821	598.06
586.032	598.06
586.242	610.06
586.452	589.06
586.662	587.06
586.872	572.06
587.082	568.06
587.292	580.06
587.502	576.06
587.713	587.06
587.923	576.06
588.133	560.06
588.343	543.06
588.553	560.06
588.762	535.06
588.972	550.06
589.182	566.06
589.392	539.06
589.602	539.06
589.812	552.06
590.022	546.06
590.232	543.06
590.441	533.06
590.651	525.06
590.861	531.06
591.071	527.06
591.281	533.06
591.49	518.06
591.7	540.06
591.91	529.06
592.119	536.06
592.329	535.06
592.539	549.06
592.748	546.06
592.958	554.06
593.167	548.06
593.377	567.06
593.587	562.06
593.796	560.06
594.006	557.06
594.215	546.06
594.424	556.06
594.634	549.06
594.843	526.06
595.053	555.06
595.262	520.06
595.472	517.06
595.681	521.06
595.89	516.06
596.1	498.06
596.309	491.06
596.518	492.06
596.727	485.06
596.937	475.06
597.146	479.06
597.355	462.06
597.564	471.06
597.774	467.06
597.983	465.06
598.192	458.06
598.401	445.06
598.61	440.06
598.819	439.06
599.028	444.06
599.237	453.06
599.446	441.06
599.655	440.06
599.864	440.06
600.073	431.06
600.282	430.06
600.491	442.06
600.7	446.06
600.909	449.06
601.118	444.06
601.327	427.06
601.536	437.06
601.745	447.06
601.953	471.06
602.162	536.06
602.371	466.06
602.58	454.06
602.789	449.06
602.997	451.06
603.206	409.06
603.415	437.06
603.623	438.06
603.832	439.06
604.041	464.06
604.249	429.06
604.458	411.06
604.666	438.06
604.875	403.06
605.084	408.06
605.292	417.06
605.501	433.06
605.709	431.06
605.918	421.06
606.126	453.06
606.334	421.06
606.543	440.06
606.751	463.06
606.96	482.06
607.168	541.06
607.376	475.06
607.585	440.06
607.793	425.06
608.001	411.06
608.21	416.06
608.418	412.06
608.626	423.06
608.834	418.06
609.043	399.06
609.251	409.06
609.459	418.06
609.667	395.06
609.875	400.06
610.083	419.06
610.291	398.06
610.499	407.06
610.707	394.06
610.916	413.06
611.124	404.06
611.332	406.06
611.54	401.06
611.748	422.06
611.955	392.06
612.163	377.06
612.371	378.06
612.579	389.06
612.787	404.06
612.995	401.06
613.203	413.06
613.411	380.06
613.618	390.06
613.826	382.06
614.034	387.06
614.242	383.06
614.449	375.06
614.657	389.06
614.865	400.06
615.072	391.06
615.28	400.06
615.488	367.06
615.695	383.06
615.903	381.06
616.111	402.06
616.318	374.06
616.526	389.06
616.733	374.06
616.941	368.06
617.148	371.06
617.356	373.06
617.563	381.06
617.771	385.06
617.978	384.06
618.185	368.06
618.393	377.06
618.6	360.06
618.807	377.06
619.015	373.06
619.222	370.06
619.429	378.06
619.637	361.06
619.844	348.06
620.051	359.06
620.258	356.06
620.466	336.06
620.673	349.06
620.88	352.06
621.087	341.06
621.294	347.06
621.501	336.06
621.708	353.06
621.915	340.06
622.122	351.06
622.329	363.06
622.536	345.06
622.743	347.06
622.95	349.06
623.157	325.06
623.364	343.06
623.571	344.06
623.778	333.06
623.985	328.06
624.192	340.06
624.399	337.06
624.606	348.06
624.812	323.06
625.019	334.06
625.226	325.06
625.433	313.06
625.639	341.06
625.846	317.06
626.053	325.06
626.259	306.06
626.466	337.06
626.673	321.06
626.879	318.06
627.086	335.06
627.293	310.06
627.499	302.06
627.706	333.06
627.912	325.06
628.119	305.06
628.325	320.06
628.532	316.06
628.738	323.06
628.945	308.06
629.151	316.06
629.357	294.06
629.564	311.06
629.77	328.06
629.976	306.06
630.183	317.06
630.389	286.06
630.595	308.06
630.802	319.06
631.008	296.06
631.214	301.06
631.42	291.06
631.627	296.06
631.833	293.06
632.039	278.06
632.245	295.06
632.451	303.06
632.657	296.06
632.863	304.06
633.069	301.06
633.275	305.06
633.481	288.06
633.688	291.06
633.893	301.06
634.099	295.06
634.305	291.06
634.511	296.06
634.717	299.06
634.923	300.06
635.129	334.06
635.335	368.06
635.541	321.06
635.747	313.06
635.952	296.06
636.158	288.06
636.364	304.06
636.57	297.06
636.775	327.06
636.981	294.06
637.187	311.06
637.392	301.06
637.598	288.06
637.804	285.06
638.009	300.06
638.215	299.06
638.421	301.06
638.626	284.06
638.832	296.06
639.037	301.06
639.243	290.06
639.448	297.06
639.654	297.06
639.859	307.06
640.065	312.06
640.27	304.06
640.475	305.06
640.681	302.06
640.886	311.06
641.091	319.06
641.297	318.06
641.502	309.06
641.707	304.06
641.913	322.06
642.118	318.06
642.323	319.06
642.528	335.06
642.733	321.06
642.939	345.06
643.144	331.06
643.349	357.06
643.554	373.06
643.759	385.06
643.964	406.06
644.169	372.06
644.374	427.06
644.579	444.06
644.784	500.06
644.989	543.06
645.194	589.06
645.399	690.06
645.604	707.06
645.809	579.06
646.014	479.06
646.219	391.06
646.423	380.06
646.628	357.06
646.833	344.06
647.038	322.06
647.243	323.06
647.447	306.06
647.652	306.06
647.857	295.06
648.062	299.06
648.266	290.06
648.471	284.06
648.676	312.06
648.88	299.06
649.085	273.06
649.289	283.06
649.494	280.06
649.698	264.06
649.903	255.06
650.107	262.06
650.312	256.06
650.516	240.06
650.721	252.06
650.925	251.06
651.13	233.06
651.334	239.06
651.539	226.06
651.743	241.06
651.947	223.06
652.152	224.06
652.356	217.06
652.56	229.06
652.764	262.06
652.969	226.06
653.173	231.06
653.377	219.06
653.581	201.06
653.785	206.06
653.99	206.06
654.194	192.06
654.398	213.06
654.602	207.06
654.806	182.06
655.01	199.06
655.214	203.06
655.418	173.06
655.622	204.06
655.826	196.06
656.03	225.06
656.234	230.06
656.438	242.06
656.642	221.06
656.846	214.06
657.049	198.06
657.253	189.06
657.457	182.06
657.661	149.06
657.865	170.06
658.068	161.06
658.272	153.06
658.476	140.06
658.68	143.06
658.883	134.06
659.087	124.06
659.291	121.06
659.494	141.06
659.698	130.06
659.901	142.06
660.105	131.06
660.309	116.06
660.512	119.06
660.716	119.06
660.919	114.06
661.123	93.06
661.326	117.06
661.53	102.06
661.733	95.06
661.936	99.06
662.14	98.06
662.343	92.06
662.546	88.06
662.75	80.06
662.953	89.06
663.156	87.06
663.36	93.06
663.563	104.06
663.766	88.06
663.969	88.06
664.173	94.06
664.376	85.06
664.579	78.06
664.782	86.06
664.985	85.06
665.188	76.06
665.391	74.06
665.594	59.06
665.797	78.06
666	70.06
666.203	78.06
666.406	79.06
666.609	68.06
666.812	75.06
667.015	83.06
667.218	84.06
667.421	88.06
667.624	66.06
667.827	76.06
668.03	86.06
668.232	96.06
668.435	80.06
668.638	96.06
668.841	73.06
669.043	84.06
669.246	78.06
669.449	79.06
669.651	90.06
669.854	85.06
670.057	90.06
670.259	69.06
670.462	86.06
670.665	71.06
670.867	74.06
671.07	97.06
671.272	90.06
671.475	81.06
671.677	75.06
671.88	78.06
672.082	86.06
672.284	69.06
672.487	87.06
672.689	72.06
672.892	64.06
