Data from SnStandardFlinnAPT0064_LampEnergy5.5_LIBS07252019.E.O._I.C._HRD10591_15-14-41-490.txt Node
Date: Thu Jul 25 15:14:41 EDT 2019
User: cochatt
Spectrometer: HR+D1059
Trigger mode: 1
Integration Time (sec): 1.000000E-1
Scans to average: 1
Electric dark correction enabled: true
Nonlinearity correction enabled: false
Boxcar width: 0
XAxis mode: Wavelengths
Number of Pixels in Spectrum: 2048
>>>>>Begin Spectral Data<<<<<
223.165	-10.38
223.4	-10.38
223.635	-10.38
223.869	-7.38
224.104	-12.38
224.338	-14.38
224.573	-21.38
224.808	-22.38
225.042	-4.38
225.277	-20.38
225.511	7.62
225.746	7.62
225.98	8.62
226.215	13.62
226.449	13.62
226.683	8.62
226.918	27.62
227.152	25.62
227.387	37.62
227.621	40.62
227.856	56.62
228.09	47.62
228.324	51.62
228.559	57.62
228.793	78.62
229.027	139.62
229.262	151.62
229.496	147.62
229.73	140.62
229.964	123.62
230.199	152.62
230.433	159.62
230.667	158.62
230.901	156.62
231.136	158.62
231.37	162.62
231.604	170.62
231.838	181.62
232.072	199.62
232.306	221.62
232.541	199.62
232.775	190.62
233.009	193.62
233.243	194.62
233.477	202.62
233.711	192.62
233.945	241.62
234.179	213.62
234.413	185.62
234.647	215.62
234.881	211.62
235.115	238.62
235.349	253.62
235.583	287.62
235.817	355.62
236.051	359.62
236.285	273.62
236.519	227.62
236.753	212.62
236.987	227.62
237.221	225.62
237.455	216.62
237.689	192.62
237.922	225.62
238.156	213.62
238.39	210.62
238.624	209.62
238.858	213.62
239.091	214.62
239.325	215.62
239.559	205.62
239.793	222.62
240.027	228.62
240.26	231.62
240.494	242.62
240.728	250.62
240.961	234.62
241.195	275.62
241.429	257.62
241.662	282.62
241.896	306.62
242.13	341.62
242.363	422.62
242.597	519.62
242.83	481.62
243.064	523.62
243.298	629.62
243.531	501.62
243.765	354.62
243.998	307.62
244.232	293.62
244.465	291.62
244.699	279.62
244.932	277.62
245.166	263.62
245.399	276.62
245.633	273.62
245.866	303.62
246.099	290.62
246.333	271.62
246.566	287.62
246.8	280.62
247.033	278.62
247.266	288.62
247.5	257.62
247.733	276.62
247.966	294.62
248.2	300.62
248.433	338.62
248.666	338.62
248.899	350.62
249.133	315.62
249.366	338.62
249.599	353.62
249.832	393.62
250.066	402.62
250.299	341.62
250.532	310.62
250.765	331.62
250.998	317.62
251.231	334.62
251.465	318.62
251.698	312.62
251.931	311.62
252.164	322.62
252.397	317.62
252.63	351.62
252.863	326.62
253.096	315.62
253.329	324.62
253.562	324.62
253.795	318.62
254.028	343.62
254.261	341.62
254.494	362.62
254.727	392.62
254.96	437.62
255.193	431.62
255.426	372.62
255.659	359.62
255.892	343.62
256.124	362.62
256.357	367.62
256.59	357.62
256.823	385.62
257.056	423.62
257.289	482.62
257.521	467.62
257.754	427.62
257.987	401.62
258.22	395.62
258.452	377.62
258.685	375.62
258.918	396.62
259.151	391.62
259.383	401.62
259.616	435.62
259.849	462.62
260.081	429.62
260.314	391.62
260.547	395.62
260.779	399.62
261.012	403.62
261.244	389.62
261.477	432.62
261.71	406.62
261.942	416.62
262.175	409.62
262.407	441.62
262.64	443.62
262.872	461.62
263.105	487.62
263.337	506.62
263.57	536.62
263.802	544.62
264.035	538.62
264.267	575.62
264.499	579.62
264.732	592.62
264.964	606.62
265.197	609.62
265.429	608.62
265.661	610.62
265.894	651.62
266.126	679.62
266.358	725.62
266.591	706.62
266.823	668.62
267.055	589.62
267.287	578.62
267.52	567.62
267.752	549.62
267.984	559.62
268.216	507.62
268.448	538.62
268.681	531.62
268.913	514.62
269.145	515.62
269.377	525.62
269.609	508.62
269.841	519.62
270.073	553.62
270.306	611.62
270.538	717.62
270.77	968.62
271.002	1195.62
271.234	922.62
271.466	666.62
271.698	593.62
271.93	543.62
272.162	534.62
272.394	529.62
272.626	497.62
272.858	491.62
273.09	498.62
273.322	508.62
273.553	483.62
273.785	519.62
274.017	504.62
274.249	498.62
274.481	511.62
274.713	500.62
274.945	476.62
275.176	493.62
275.408	484.62
275.64	485.62
275.872	482.62
276.104	488.62
276.335	514.62
276.567	531.62
276.799	510.62
277.031	529.62
277.262	509.62
277.494	535.62
277.726	597.62
277.957	630.62
278.189	691.62
278.421	677.62
278.652	625.62
278.884	586.62
279.115	550.62
279.347	545.62
279.579	562.62
279.81	538.62
280.042	552.62
280.273	566.62
280.505	562.62
280.736	579.62
280.968	584.62
281.199	612.62
281.431	686.62
281.662	681.62
281.894	633.62
282.125	611.62
282.356	616.62
282.588	652.62
282.819	641.62
283.051	677.62
283.282	729.62
283.513	865.62
283.745	1190.62
283.976	1736.62
284.207	2392.62
284.439	2160.62
284.67	1415.62
284.901	1189.62
285.132	1132.62
285.364	1057.62
285.595	875.62
285.826	848.62
286.057	942.62
286.288	1217.62
286.52	1566.62
286.751	1464.62
286.982	1019.62
287.213	831.62
287.444	741.62
287.675	701.62
287.906	686.62
288.138	677.62
288.369	662.62
288.6	667.62
288.831	687.62
289.062	661.62
289.293	665.62
289.524	664.62
289.755	670.62
289.986	685.62
290.217	683.62
290.448	675.62
290.679	679.62
290.91	686.62
291.141	667.62
291.371	718.62
291.602	707.62
291.833	688.62
292.064	671.62
292.295	649.62
292.526	634.62
292.757	659.62
292.987	647.62
293.218	614.62
293.449	640.62
293.68	667.62
293.91	641.62
294.141	633.62
294.372	616.62
294.603	614.62
294.833	640.62
295.064	633.62
295.295	635.62
295.525	616.62
295.756	615.62
295.987	647.62
296.217	609.62
296.448	647.62
296.679	639.62
296.909	628.62
297.14	619.62
297.37	629.62
297.601	633.62
297.831	629.62
298.062	629.62
298.292	648.62
298.523	637.62
298.753	650.62
298.984	657.62
299.214	664.62
299.445	677.62
299.675	699.62
299.905	690.62
300.136	751.62
300.366	789.62
300.597	949.62
300.827	1209.62
301.057	1533.62
301.288	1562.62
301.518	1089.62
301.748	926.62
301.979	829.62
302.209	817.62
302.439	837.62
302.669	839.62
302.9	978.62
303.13	1291.62
303.36	1766.62
303.59	2294.62
303.82	2049.62
304.051	1331.62
304.281	1053.62
304.511	933.62
304.741	866.62
304.971	791.62
305.201	775.62
305.431	795.62
305.661	739.62
305.891	737.62
306.121	752.62
306.352	722.62
306.582	731.62
306.812	679.62
307.042	718.62
307.272	732.62
307.502	738.62
307.731	732.62
307.961	706.62
308.191	710.62
308.421	714.62
308.651	694.62
308.881	702.62
309.111	735.62
309.341	709.62
309.571	711.62
309.8	740.62
310.03	740.62
310.26	743.62
310.49	731.62
310.72	745.62
310.949	728.62
311.179	743.62
311.409	745.62
311.639	763.62
311.868	764.62
312.098	765.62
312.328	777.62
312.557	750.62
312.787	780.62
313.017	778.62
313.246	793.62
313.476	759.62
313.706	801.62
313.935	809.62
314.165	859.62
314.394	865.62
314.624	817.62
314.853	819.62
315.083	831.62
315.312	825.62
315.542	834.62
315.771	832.62
316.001	837.62
316.23	873.62
316.46	904.62
316.689	974.62
316.919	1103.62
317.148	1457.62
317.377	2165.62
317.607	3072.62
317.836	3132.62
318.065	2005.62
318.295	1407.62
318.524	1186.62
318.753	1060.62
318.983	987.62
319.212	943.62
319.441	957.62
319.67	918.62
319.9	920.62
320.129	903.62
320.358	914.62
320.587	898.62
320.816	893.62
321.046	893.62
321.275	919.62
321.504	905.62
321.733	915.62
321.962	953.62
322.191	957.62
322.42	951.62
322.649	952.62
322.878	957.62
323.108	954.62
323.337	975.62
323.566	981.62
323.795	969.62
324.024	1002.62
324.253	1017.62
324.482	1055.62
324.71	1106.62
324.939	1137.62
325.168	1176.62
325.397	1205.62
325.626	1378.62
325.855	1796.62
326.084	2589.62
326.313	3720.62
326.542	4004.62
326.77	2706.62
326.999	1929.62
327.228	1691.62
327.457	1587.62
327.686	1640.62
327.914	1752.62
328.143	1965.62
328.372	2209.62
328.6	2401.62
328.829	2258.62
329.058	2017.62
329.287	1809.62
329.515	1705.62
329.744	1542.62
329.972	1489.62
330.201	1457.62
330.43	1431.62
330.658	1380.62
330.887	1325.62
331.115	1333.62
331.344	1326.62
331.572	1310.62
331.801	1306.62
332.03	1335.62
332.258	1320.62
332.486	1331.62
332.715	1514.62
332.943	1755.62
333.172	2050.62
333.4	2020.62
333.629	1740.62
333.857	1640.62
334.085	1595.62
334.314	1675.62
334.542	1839.62
334.771	2065.62
334.999	2390.62
335.227	2880.62
335.455	3164.62
335.684	3002.62
335.912	2609.62
336.14	2293.62
336.369	2072.62
336.597	1929.62
336.825	1769.62
337.053	1662.62
337.281	1591.62
337.51	1515.62
337.738	1460.62
337.966	1410.62
338.194	1365.62
338.422	1329.62
338.65	1304.62
338.878	1289.62
339.106	1287.62
339.334	1255.62
339.562	1241.62
339.79	1187.62
340.018	1184.62
340.246	1164.62
340.474	1201.62
340.702	1160.62
340.93	1201.62
341.158	1159.62
341.386	1164.62
341.614	1142.62
341.842	1110.62
342.07	1105.62
342.298	1106.62
342.526	1075.62
342.754	1078.62
342.981	1089.62
343.209	1058.62
343.437	1090.62
343.665	1095.62
343.893	1110.62
344.12	1133.62
344.348	1089.62
344.576	1069.62
344.804	1066.62
345.031	1029.62
345.259	1043.62
345.487	1013.62
345.714	985.62
345.942	1009.62
346.17	981.62
346.397	997.62
346.625	985.62
346.853	978.62
347.08	993.62
347.308	986.62
347.535	985.62
347.763	975.62
347.99	952.62
348.218	980.62
348.445	963.62
348.673	978.62
348.9	962.62
349.128	964.62
349.355	948.62
349.583	984.62
349.81	962.62
350.037	946.62
350.265	963.62
350.492	957.62
350.72	945.62
350.947	974.62
351.174	966.62
351.402	947.62
351.629	969.62
351.856	941.62
352.083	959.62
352.311	952.62
352.538	966.62
352.765	921.62
352.992	941.62
353.22	903.62
353.447	950.62
353.674	976.62
353.901	931.62
354.128	935.62
354.355	921.62
354.583	930.62
354.81	963.62
355.037	952.62
355.264	985.62
355.491	962.62
355.718	941.62
355.945	967.62
356.172	946.62
356.399	947.62
356.626	962.62
356.853	974.62
357.08	966.62
357.307	992.62
357.534	985.62
357.761	1008.62
357.988	1014.62
358.215	1000.62
358.441	968.62
358.668	1007.62
358.895	983.62
359.122	989.62
359.349	1027.62
359.576	1011.62
359.802	973.62
360.029	985.62
360.256	980.62
360.483	1008.62
360.709	1034.62
360.936	1027.62
361.163	1011.62
361.39	1014.62
361.616	1002.62
361.843	994.62
362.07	1018.62
362.296	1029.62
362.523	1034.62
362.749	996.62
362.976	1019.62
363.203	1007.62
363.429	1016.62
363.656	1039.62
363.882	1038.62
364.109	1030.62
364.335	992.62
364.562	982.62
364.788	1007.62
365.015	1004.62
365.241	1018.62
365.468	1066.62
365.694	1097.62
365.92	1048.62
366.147	1037.62
366.373	1049.62
366.599	1019.62
366.826	1040.62
367.052	1021.62
367.278	1052.62
367.505	1001.62
367.731	1026.62
367.957	1042.62
368.184	1035.62
368.41	1058.62
368.636	1028.62
368.862	1046.62
369.089	1046.62
369.315	1068.62
369.541	1054.62
369.767	1068.62
369.993	1043.62
370.219	1077.62
370.445	1051.62
370.672	1080.62
370.898	1072.62
371.124	1063.62
371.35	1082.62
371.576	1079.62
371.802	1091.62
372.028	1066.62
372.254	1088.62
372.48	1127.62
372.706	1114.62
372.932	1123.62
373.158	1084.62
373.384	1122.62
373.61	1118.62
373.835	1114.62
374.061	1105.62
374.287	1123.62
374.513	1139.62
374.739	1137.62
374.965	1127.62
375.191	1179.62
375.416	1147.62
375.642	1146.62
375.868	1143.62
376.094	1138.62
376.319	1098.62
376.545	1108.62
376.771	1116.62
376.997	1069.62
377.222	1109.62
377.448	1103.62
377.674	1079.62
377.899	1092.62
378.125	1078.62
378.35	1083.62
378.576	1063.62
378.802	1101.62
379.027	1124.62
379.253	1122.62
379.478	1188.62
379.704	1302.62
379.929	1683.62
380.155	2289.62
380.38	2453.62
380.606	1703.62
380.831	1331.62
381.057	1216.62
381.282	1143.62
381.507	1116.62
381.733	1099.62
381.958	1075.62
382.184	1074.62
382.409	1110.62
382.634	1087.62
382.86	1072.62
383.085	1101.62
383.31	1112.62
383.535	1097.62
383.761	1097.62
383.986	1062.62
384.211	1069.62
384.436	1110.62
384.662	1114.62
384.887	1128.62
385.112	1101.62
385.337	1101.62
385.562	1127.62
385.787	1107.62
386.013	1151.62
386.238	1106.62
386.463	1120.62
386.688	1143.62
386.913	1122.62
387.138	1110.62
387.363	1112.62
387.588	1109.62
387.813	1105.62
388.038	1106.62
388.263	1116.62
388.488	1145.62
388.713	1096.62
388.938	1112.62
389.163	1102.62
389.387	1118.62
389.612	1131.62
389.837	1097.62
390.062	1111.62
390.287	1130.62
390.512	1118.62
390.736	1146.62
390.961	1161.62
391.186	1148.62
391.411	1158.62
391.636	1205.62
391.86	1169.62
392.085	1191.62
392.31	1156.62
392.534	1159.62
392.759	1128.62
392.984	1152.62
393.208	1134.62
393.433	1142.62
393.658	1109.62
393.882	1122.62
394.107	1125.62
394.331	1138.62
394.556	1139.62
394.78	1140.62
395.005	1144.62
395.229	1143.62
395.454	1184.62
395.678	1181.62
395.903	1163.62
396.127	1143.62
396.352	1140.62
396.576	1150.62
396.801	1151.62
397.025	1132.62
397.249	1199.62
397.474	1186.62
397.698	1164.62
397.922	1189.62
398.147	1186.62
398.371	1219.62
398.595	1232.62
398.82	1254.62
399.044	1312.62
399.268	1354.62
399.492	1427.62
399.717	1489.62
399.941	1470.62
400.165	1409.62
400.389	1378.62
400.613	1304.62
400.837	1299.62
401.062	1266.62
401.286	1264.62
401.51	1270.62
401.734	1224.62
401.958	1277.62
402.182	1222.62
402.406	1225.62
402.63	1279.62
402.854	1252.62
403.078	1294.62
403.302	1286.62
403.526	1279.62
403.75	1321.62
403.974	1300.62
404.198	1284.62
404.422	1311.62
404.645	1284.62
404.869	1285.62
405.093	1316.62
405.317	1273.62
405.541	1258.62
405.765	1321.62
405.988	1330.62
406.212	1304.62
406.436	1299.62
406.66	1341.62
406.883	1360.62
407.107	1370.62
407.331	1400.62
407.555	1394.62
407.778	1395.62
408.002	1371.62
408.226	1362.62
408.449	1379.62
408.673	1343.62
408.896	1349.62
409.12	1286.62
409.344	1309.62
409.567	1277.62
409.791	1306.62
410.014	1269.62
410.238	1266.62
410.461	1277.62
410.685	1265.62
410.908	1290.62
411.132	1254.62
411.355	1246.62
411.578	1226.62
411.802	1222.62
412.025	1201.62
412.249	1222.62
412.472	1247.62
412.695	1231.62
412.919	1218.62
413.142	1200.62
413.365	1214.62
413.589	1215.62
413.812	1216.62
414.035	1202.62
414.258	1201.62
414.482	1221.62
414.705	1191.62
414.928	1235.62
415.151	1206.62
415.374	1199.62
415.597	1238.62
415.821	1189.62
416.044	1201.62
416.267	1176.62
416.49	1212.62
416.713	1174.62
416.936	1188.62
417.159	1151.62
417.382	1161.62
417.605	1194.62
417.828	1188.62
418.051	1199.62
418.274	1194.62
418.497	1157.62
418.72	1186.62
418.943	1175.62
419.166	1248.62
419.389	1303.62
419.611	1280.62
419.834	1251.62
420.057	1237.62
420.28	1187.62
420.503	1192.62
420.726	1158.62
420.948	1173.62
421.171	1149.62
421.394	1205.62
421.617	1190.62
421.839	1188.62
422.062	1188.62
422.285	1156.62
422.507	1172.62
422.73	1204.62
422.953	1197.62
423.175	1199.62
423.398	1197.62
423.621	1179.62
423.843	1193.62
424.066	1207.62
424.288	1219.62
424.511	1194.62
424.733	1203.62
424.956	1183.62
425.178	1166.62
425.401	1203.62
425.623	1181.62
425.846	1146.62
426.068	1171.62
426.291	1137.62
426.513	1153.62
426.735	1140.62
426.958	1123.62
427.18	1110.62
427.402	1121.62
427.625	1130.62
427.847	1105.62
428.069	1111.62
428.292	1104.62
428.514	1120.62
428.736	1079.62
428.958	1126.62
429.181	1091.62
429.403	1113.62
429.625	1071.62
429.847	1050.62
430.069	1086.62
430.292	1140.62
430.514	1132.62
430.736	1187.62
430.958	1097.62
431.18	1069.62
431.402	1081.62
431.624	1079.62
431.846	1075.62
432.068	1045.62
432.29	1050.62
432.512	1060.62
432.734	1107.62
432.956	1095.62
433.178	1080.62
433.4	1081.62
433.622	1125.62
433.844	1096.62
434.066	1086.62
434.287	1066.62
434.509	1083.62
434.731	1095.62
434.953	1101.62
435.175	1097.62
435.397	1127.62
435.618	1098.62
435.84	1085.62
436.062	1071.62
436.284	1064.62
436.505	1072.62
436.727	1104.62
436.949	1094.62
437.17	1071.62
437.392	1056.62
437.614	1053.62
437.835	1010.62
438.057	1017.62
438.278	1049.62
438.5	1067.62
438.721	1042.62
438.943	1115.62
439.165	1098.62
439.386	1115.62
439.608	1126.62
439.829	1105.62
440.05	1136.62
440.272	1156.62
440.493	1114.62
440.715	1120.62
440.936	1137.62
441.158	1147.62
441.379	1146.62
441.6	1178.62
441.822	1173.62
442.043	1211.62
442.264	1232.62
442.486	1228.62
442.707	1163.62
442.928	1167.62
443.149	1187.62
443.371	1144.62
443.592	1166.62
443.813	1169.62
444.034	1185.62
444.255	1185.62
444.476	1207.62
444.698	1254.62
444.919	1287.62
445.14	1332.62
445.361	1277.62
445.582	1199.62
445.803	1178.62
446.024	1193.62
446.245	1183.62
446.466	1189.62
446.687	1118.62
446.908	1126.62
447.129	1127.62
447.35	1103.62
447.571	1105.62
447.792	1076.62
448.013	1096.62
448.234	1082.62
448.455	1044.62
448.675	1084.62
448.896	1126.62
449.117	1120.62
449.338	1184.62
449.559	1198.62
449.779	1103.62
450	1051.62
450.221	1071.62
450.442	1043.62
450.662	1030.62
450.883	1049.62
451.104	1041.62
451.324	1037.62
451.545	996.62
451.766	1021.62
451.986	1051.62
452.207	1088.62
452.428	1245.62
452.648	1611.62
452.869	1431.62
453.089	1156.62
453.31	1128.62
453.53	1097.62
453.751	1111.62
453.971	1152.62
454.192	1184.62
454.412	1049.62
454.633	1014.62
454.853	1025.62
455.073	1012.62
455.294	1010.62
455.514	1014.62
455.734	992.62
455.955	991.62
456.175	1002.62
456.395	984.62
456.616	1000.62
456.836	997.62
457.056	977.62
457.276	1009.62
457.497	1037.62
457.717	1048.62
457.937	1037.62
458.157	1037.62
458.377	1031.62
458.598	1039.62
458.818	1033.62
459.038	1089.62
459.258	1069.62
459.478	1061.62
459.698	1085.62
459.918	1084.62
460.138	1140.62
460.358	1165.62
460.578	1140.62
460.798	1164.62
461.018	1210.62
461.238	1185.62
461.458	1189.62
461.678	1209.62
461.898	1192.62
462.118	1265.62
462.338	1258.62
462.558	1261.62
462.777	1297.62
462.997	1322.62
463.217	1369.62
463.437	1382.62
463.657	1366.62
463.876	1341.62
464.096	1291.62
464.316	1258.62
464.536	1276.62
464.755	1236.62
464.975	1231.62
465.195	1167.62
465.414	1161.62
465.634	1137.62
465.854	1118.62
466.073	1112.62
466.293	1083.62
466.512	1086.62
466.732	1091.62
466.951	1130.62
467.171	1205.62
467.391	1170.62
467.61	1110.62
467.829	1073.62
468.049	1096.62
468.268	1050.62
468.488	1035.62
468.707	1096.62
468.927	1066.62
469.146	1045.62
469.365	1071.62
469.585	1095.62
469.804	1105.62
470.023	1113.62
470.243	1122.62
470.462	1166.62
470.681	1185.62
470.901	1254.62
471.12	1340.62
471.339	1382.62
471.558	1162.62
471.777	1176.62
471.997	1129.62
472.216	1096.62
472.435	1062.62
472.654	1049.62
472.873	1034.62
473.092	1064.62
473.311	1069.62
473.53	1063.62
473.749	1098.62
473.968	1097.62
474.187	1073.62
474.406	1074.62
474.625	1052.62
474.844	1079.62
475.063	1075.62
475.282	1057.62
475.501	1071.62
475.72	1078.62
475.939	1083.62
476.158	1123.62
476.377	1137.62
476.596	1087.62
476.814	1158.62
477.033	1118.62
477.252	1142.62
477.471	1166.62
477.69	1186.62
477.908	1231.62
478.127	1220.62
478.346	1253.62
478.564	1247.62
478.783	1231.62
479.002	1268.62
479.22	1301.62
479.439	1279.62
479.658	1254.62
479.876	1265.62
480.095	1280.62
480.313	1320.62
480.532	1295.62
480.751	1289.62
480.969	1293.62
481.188	1272.62
481.406	1233.62
481.624	1268.62
481.843	1246.62
482.061	1277.62
482.28	1262.62
482.498	1246.62
482.717	1229.62
482.935	1290.62
483.153	1322.62
483.372	1323.62
483.59	1311.62
483.808	1343.62
484.027	1329.62
484.245	1402.62
484.463	1536.62
484.681	1616.62
484.9	1517.62
485.118	1445.62
485.336	1427.62
485.554	1468.62
485.772	1514.62
485.99	1676.62
486.209	1799.62
486.427	1546.62
486.645	1420.62
486.863	1400.62
487.081	1360.62
487.299	1357.62
487.517	1367.62
487.735	1391.62
487.953	1447.62
488.171	1403.62
488.389	1396.62
488.607	1331.62
488.825	1334.62
489.043	1337.62
489.261	1336.62
489.479	1335.62
489.696	1349.62
489.914	1359.62
490.132	1333.62
490.35	1343.62
490.568	1360.62
490.786	1359.62
491.003	1409.62
491.221	1405.62
491.439	1414.62
491.657	1430.62
491.874	1414.62
492.092	1458.62
492.31	1457.62
492.527	1455.62
492.745	1429.62
492.963	1435.62
493.18	1427.62
493.398	1435.62
493.615	1410.62
493.833	1431.62
494.05	1415.62
494.268	1414.62
494.485	1440.62
494.703	1430.62
494.92	1397.62
495.138	1410.62
495.355	1413.62
495.573	1435.62
495.79	1429.62
496.008	1453.62
496.225	1441.62
496.442	1466.62
496.66	1464.62
496.877	1552.62
497.094	1532.62
497.312	1535.62
497.529	1503.62
497.746	1519.62
497.963	1515.62
498.181	1599.62
498.398	1614.62
498.615	1654.62
498.832	1658.62
499.049	1777.62
499.267	1873.62
499.484	1971.62
499.701	2068.62
499.918	2158.62
500.135	2247.62
500.352	2383.62
500.569	2389.62
500.786	2383.62
501.003	2278.62
501.22	2181.62
501.437	2069.62
501.654	1958.62
501.871	1869.62
502.088	1820.62
502.305	1707.62
502.522	1656.62
502.739	1613.62
502.956	1590.62
503.172	1564.62
503.389	1514.62
503.606	1507.62
503.823	1454.62
504.04	1493.62
504.256	1469.62
504.473	1444.62
504.69	1427.62
504.907	1472.62
505.123	1424.62
505.34	1361.62
505.557	1347.62
505.773	1297.62
505.99	1296.62
506.207	1275.62
506.423	1287.62
506.64	1263.62
506.856	1227.62
507.073	1231.62
507.289	1222.62
507.506	1208.62
507.722	1206.62
507.939	1227.62
508.155	1210.62
508.372	1234.62
508.588	1215.62
508.805	1191.62
509.021	1213.62
509.238	1236.62
509.454	1255.62
509.67	1338.62
509.887	1242.62
510.103	1208.62
510.319	1180.62
510.536	1206.62
510.752	1155.62
510.968	1169.62
511.184	1134.62
511.401	1122.62
511.617	1165.62
511.833	1140.62
512.049	1145.62
512.265	1158.62
512.481	1159.62
512.698	1129.62
512.914	1099.62
513.13	1128.62
513.346	1147.62
513.562	1127.62
513.778	1137.62
513.994	1124.62
514.21	1193.62
514.426	1216.62
514.642	1257.62
514.858	1219.62
515.074	1188.62
515.29	1198.62
515.506	1166.62
515.721	1185.62
515.937	1173.62
516.153	1149.62
516.369	1224.62
516.585	1224.62
516.801	1247.62
517.016	1246.62
517.232	1268.62
517.448	1291.62
517.664	1291.62
517.879	1297.62
518.095	1280.62
518.311	1302.62
518.527	1280.62
518.742	1252.62
518.958	1261.62
519.173	1296.62
519.389	1234.62
519.605	1211.62
519.82	1214.62
520.036	1197.62
520.251	1160.62
520.467	1137.62
520.682	1137.62
520.898	1142.62
521.113	1125.62
521.329	1126.62
521.544	1136.62
521.76	1121.62
521.975	1102.62
522.19	1111.62
522.406	1140.62
522.621	1105.62
522.836	1111.62
523.052	1131.62
523.267	1112.62
523.482	1111.62
523.698	1123.62
523.913	1119.62
524.128	1105.62
524.343	1123.62
524.559	1085.62
524.774	1094.62
524.989	1083.62
525.204	1087.62
525.419	1102.62
525.634	1090.62
525.849	1115.62
526.064	1126.62
526.28	1105.62
526.495	1088.62
526.71	1137.62
526.925	1106.62
527.14	1106.62
527.355	1095.62
527.57	1137.62
527.785	1094.62
527.999	1091.62
528.214	1123.62
528.429	1130.62
528.644	1173.62
528.859	1187.62
529.074	1211.62
529.289	1194.62
529.503	1207.62
529.718	1188.62
529.933	1178.62
530.148	1164.62
530.363	1141.62
530.577	1148.62
530.792	1187.62
531.007	1165.62
531.221	1169.62
531.436	1145.62
531.651	1187.62
531.865	1210.62
532.08	1205.62
532.295	1230.62
532.509	1286.62
532.724	1293.62
532.938	1280.62
533.153	1335.62
533.367	1354.62
533.582	1434.62
533.796	1367.62
534.011	1362.62
534.225	1337.62
534.44	1297.62
534.654	1285.62
534.868	1270.62
535.083	1296.62
535.297	1272.62
535.511	1259.62
535.726	1240.62
535.94	1229.62
536.154	1202.62
536.369	1178.62
536.583	1139.62
536.797	1168.62
537.011	1116.62
537.225	1147.62
537.44	1160.62
537.654	1130.62
537.868	1151.62
538.082	1105.62
538.296	1089.62
538.51	1107.62
538.724	1119.62
538.938	1117.62
539.153	1106.62
539.367	1091.62
539.581	1051.62
539.795	1089.62
540.009	1070.62
540.222	1025.62
540.436	1070.62
540.65	1077.62
540.864	1095.62
541.078	1118.62
541.292	1154.62
541.506	1280.62
541.72	1365.62
541.934	1269.62
542.147	1189.62
542.361	1157.62
542.575	1112.62
542.789	1065.62
543.002	1073.62
543.216	1031.62
543.43	1031.62
543.644	1062.62
543.857	1045.62
544.071	1069.62
544.285	1085.62
544.498	1104.62
544.712	1083.62
544.925	1086.62
545.139	1091.62
545.352	1089.62
545.566	1093.62
545.779	1090.62
545.993	1093.62
546.206	1091.62
546.42	1079.62
546.633	1093.62
546.847	1102.62
547.06	1088.62
547.274	1097.62
547.487	1111.62
547.7	1081.62
547.914	1095.62
548.127	1096.62
548.34	1112.62
548.554	1054.62
548.767	1092.62
548.98	1083.62
549.193	1104.62
549.407	1069.62
549.62	1072.62
549.833	1086.62
550.046	1097.62
550.259	1091.62
550.473	1101.62
550.686	1082.62
550.899	1084.62
551.112	1088.62
551.325	1049.62
551.538	1059.62
551.751	1058.62
551.964	1060.62
552.177	1076.62
552.39	1082.62
552.603	1125.62
552.816	1163.62
553.029	1151.62
553.242	1178.62
553.455	1181.62
553.667	1165.62
553.88	1203.62
554.093	1205.62
554.306	1175.62
554.519	1213.62
554.732	1189.62
554.944	1210.62
555.157	1215.62
555.37	1246.62
555.583	1284.62
555.795	1311.62
556.008	1370.62
556.221	1412.62
556.433	1515.62
556.646	1528.62
556.859	1501.62
557.071	1497.62
557.284	1445.62
557.496	1415.62
557.709	1390.62
557.921	1396.62
558.134	1432.62
558.346	1415.62
558.559	1476.62
558.771	1481.62
558.984	1557.62
559.196	1629.62
559.409	1595.62
559.621	1523.62
559.833	1459.62
560.046	1405.62
560.258	1362.62
560.47	1301.62
560.683	1304.62
560.895	1235.62
561.107	1188.62
561.32	1183.62
561.532	1169.62
561.744	1137.62
561.956	1115.62
562.168	1109.62
562.381	1128.62
562.593	1081.62
562.805	1076.62
563.017	1061.62
563.229	1112.62
563.441	1140.62
563.653	1077.62
563.865	1027.62
564.077	1043.62
564.289	1000.62
564.501	993.62
564.713	990.62
564.925	1021.62
565.137	967.62
565.349	974.62
565.561	959.62
565.773	1005.62
565.985	1006.62
566.197	1015.62
566.408	1051.62
566.62	1079.62
566.832	1108.62
567.044	1105.62
567.255	1109.62
567.467	1119.62
567.679	1125.62
567.891	1177.62
568.102	1228.62
568.314	1417.62
568.526	1249.62
568.737	1111.62
568.949	1040.62
569.161	976.62
569.372	957.62
569.584	914.62
569.795	880.62
570.007	885.62
570.218	892.62
570.43	914.62
570.641	887.62
570.853	838.62
571.064	837.62
571.276	830.62
571.487	824.62
571.698	816.62
571.91	831.62
572.121	806.62
572.333	805.62
572.544	771.62
572.755	808.62
572.966	886.62
573.178	824.62
573.389	799.62
573.6	759.62
573.811	732.62
574.023	712.62
574.234	712.62
574.445	724.62
574.656	739.62
574.867	730.62
575.078	727.62
575.289	727.62
575.501	727.62
575.712	719.62
575.923	755.62
576.134	694.62
576.345	723.62
576.556	735.62
576.767	723.62
576.978	730.62
577.188	718.62
577.399	733.62
577.61	727.62
577.821	736.62
578.032	721.62
578.243	736.62
578.454	737.62
578.665	764.62
578.875	802.62
579.086	793.62
579.297	811.62
579.508	904.62
579.718	919.62
579.929	975.62
580.14	1028.62
580.35	1072.62
580.561	1054.62
580.772	978.62
580.982	959.62
581.193	914.62
581.403	877.62
581.614	832.62
581.825	820.62
582.035	796.62
582.246	761.62
582.456	754.62
582.667	709.62
582.877	730.62
583.087	720.62
583.298	677.62
583.508	657.62
583.719	648.62
583.929	699.62
584.139	660.62
584.35	643.62
584.56	629.62
584.77	635.62
584.981	603.62
585.191	607.62
585.401	591.62
585.611	599.62
585.821	593.62
586.032	583.62
586.242	595.62
586.452	581.62
586.662	579.62
586.872	570.62
587.082	583.62
587.292	541.62
587.502	527.62
587.713	561.62
587.923	543.62
588.133	539.62
588.343	548.62
588.553	545.62
588.762	515.62
588.972	537.62
589.182	548.62
589.392	533.62
589.602	526.62
589.812	546.62
590.022	521.62
590.232	537.62
590.441	516.62
590.651	505.62
590.861	511.62
591.071	513.62
591.281	508.62
591.49	509.62
591.7	504.62
591.91	528.62
592.119	530.62
592.329	545.62
592.539	530.62
592.748	548.62
592.958	547.62
593.167	518.62
593.377	530.62
593.587	561.62
593.796	541.62
594.006	549.62
594.215	552.62
594.424	527.62
594.634	505.62
594.843	521.62
595.053	511.62
595.262	537.62
595.472	483.62
595.681	493.62
595.89	490.62
596.1	473.62
596.309	477.62
596.518	473.62
596.727	476.62
596.937	470.62
597.146	466.62
597.355	463.62
597.564	447.62
597.774	452.62
597.983	480.62
598.192	458.62
598.401	445.62
598.61	445.62
598.819	420.62
599.028	434.62
599.237	445.62
599.446	457.62
599.655	417.62
599.864	414.62
600.073	422.62
600.282	415.62
600.491	425.62
600.7	434.62
600.909	441.62
601.118	417.62
601.327	423.62
601.536	430.62
601.745	448.62
601.953	473.62
602.162	500.62
602.371	449.62
602.58	453.62
602.789	418.62
602.997	433.62
603.206	426.62
603.415	429.62
603.623	419.62
603.832	414.62
604.041	412.62
604.249	414.62
604.458	410.62
604.666	413.62
604.875	389.62
605.084	403.62
605.292	415.62
605.501	410.62
605.709	437.62
605.918	437.62
606.126	397.62
606.334	417.62
606.543	424.62
606.751	433.62
606.96	479.62
607.168	505.62
607.376	452.62
607.585	434.62
607.793	429.62
608.001	408.62
608.21	412.62
608.418	413.62
608.626	429.62
608.834	399.62
609.043	385.62
609.251	399.62
609.459	380.62
609.667	383.62
609.875	386.62
610.083	411.62
610.291	383.62
610.499	377.62
610.707	399.62
610.916	403.62
611.124	391.62
611.332	393.62
611.54	386.62
611.748	399.62
611.955	392.62
612.163	381.62
612.371	385.62
612.579	368.62
612.787	373.62
612.995	374.62
613.203	373.62
613.411	363.62
613.618	375.62
613.826	378.62
614.034	383.62
614.242	389.62
614.449	382.62
614.657	380.62
614.865	374.62
615.072	392.62
615.28	362.62
615.488	389.62
615.695	381.62
615.903	383.62
616.111	374.62
616.318	371.62
616.526	362.62
616.733	389.62
616.941	378.62
617.148	375.62
617.356	374.62
617.563	343.62
617.771	361.62
617.978	381.62
618.185	352.62
618.393	355.62
618.6	356.62
618.807	367.62
619.015	370.62
619.222	360.62
619.429	362.62
619.637	367.62
619.844	343.62
620.051	342.62
620.258	351.62
620.466	343.62
620.673	330.62
620.88	337.62
621.087	311.62
621.294	333.62
621.501	332.62
621.708	350.62
621.915	335.62
622.122	342.62
622.329	353.62
622.536	339.62
622.743	334.62
622.95	357.62
623.157	322.62
623.364	341.62
623.571	339.62
623.778	335.62
623.985	331.62
624.192	322.62
624.399	326.62
624.606	299.62
624.812	305.62
625.019	311.62
625.226	323.62
625.433	316.62
625.639	327.62
625.846	318.62
626.053	319.62
626.259	305.62
626.466	302.62
626.673	310.62
626.879	300.62
627.086	322.62
627.293	310.62
627.499	306.62
627.706	310.62
627.912	315.62
628.119	326.62
628.325	312.62
628.532	290.62
628.738	310.62
628.945	315.62
629.151	317.62
629.357	287.62
629.564	311.62
629.77	293.62
629.976	293.62
630.183	302.62
630.389	281.62
630.595	292.62
630.802	303.62
631.008	309.62
631.214	301.62
631.42	304.62
631.627	289.62
631.833	297.62
632.039	292.62
632.245	276.62
632.451	319.62
632.657	306.62
632.863	287.62
633.069	288.62
633.275	295.62
633.481	294.62
633.688	288.62
633.893	278.62
634.099	302.62
634.305	293.62
634.511	284.62
634.717	283.62
634.923	303.62
635.129	318.62
635.335	351.62
635.541	315.62
635.747	296.62
635.952	305.62
636.158	294.62
636.364	307.62
636.57	292.62
636.775	291.62
636.981	294.62
637.187	294.62
637.392	301.62
637.598	290.62
637.804	286.62
638.009	290.62
638.215	302.62
638.421	296.62
638.626	293.62
638.832	276.62
639.037	297.62
639.243	311.62
639.448	313.62
639.654	289.62
639.859	283.62
640.065	289.62
640.27	308.62
640.475	281.62
640.681	294.62
640.886	285.62
641.091	296.62
641.297	305.62
641.502	298.62
641.707	317.62
641.913	298.62
642.118	311.62
642.323	310.62
642.528	324.62
642.733	315.62
642.939	342.62
643.144	323.62
643.349	343.62
643.554	355.62
643.759	358.62
643.964	367.62
644.169	399.62
644.374	398.62
644.579	437.62
644.784	427.62
644.989	507.62
645.194	542.62
645.399	601.62
645.604	635.62
645.809	516.62
646.014	453.62
646.219	391.62
646.423	372.62
646.628	363.62
646.833	326.62
647.038	335.62
647.243	313.62
647.447	307.62
647.652	297.62
647.857	279.62
648.062	273.62
648.266	294.62
648.471	290.62
648.676	281.62
648.88	265.62
649.085	277.62
649.289	261.62
649.494	247.62
649.698	255.62
649.903	239.62
650.107	261.62
650.312	261.62
650.516	246.62
650.721	241.62
650.925	239.62
651.13	224.62
651.334	227.62
651.539	224.62
651.743	218.62
651.947	215.62
652.152	216.62
652.356	216.62
652.56	232.62
652.764	233.62
652.969	231.62
653.173	213.62
653.377	211.62
653.581	206.62
653.785	205.62
653.99	216.62
654.194	198.62
654.398	192.62
654.602	202.62
654.806	193.62
655.01	194.62
655.214	196.62
655.418	199.62
655.622	190.62
655.826	181.62
656.03	209.62
656.234	211.62
656.438	223.62
656.642	209.62
656.846	198.62
657.049	197.62
657.253	185.62
657.457	196.62
657.661	161.62
657.865	170.62
658.068	158.62
658.272	148.62
658.476	143.62
658.68	150.62
658.883	132.62
659.087	147.62
659.291	131.62
659.494	124.62
659.698	119.62
659.901	122.62
660.105	135.62
660.309	133.62
660.512	118.62
660.716	109.62
660.919	114.62
661.123	107.62
661.326	105.62
661.53	104.62
661.733	91.62
661.936	97.62
662.14	93.62
662.343	99.62
662.546	105.62
662.75	89.62
662.953	81.62
663.156	89.62
663.36	88.62
663.563	83.62
663.766	83.62
663.969	85.62
664.173	87.62
664.376	88.62
664.579	89.62
664.782	82.62
664.985	91.62
665.188	85.62
665.391	86.62
665.594	79.62
665.797	86.62
666	97.62
666.203	86.62
666.406	81.62
666.609	94.62
666.812	86.62
667.015	83.62
667.218	81.62
667.421	85.62
667.624	88.62
667.827	81.62
668.03	70.62
668.232	91.62
668.435	76.62
668.638	81.62
668.841	86.62
669.043	75.62
669.246	81.62
669.449	74.62
669.651	94.62
669.854	85.62
670.057	75.62
670.259	85.62
670.462	78.62
670.665	82.62
670.867	89.62
671.07	83.62
671.272	87.62
671.475	77.62
671.677	74.62
671.88	65.62
672.082	89.62
672.284	88.62
672.487	81.62
672.689	78.62
672.892	72.62
