Data from SnStandardFlinnAPT0064_LampEnergy10_LIBS07252019.E.O._I.C._HRD10591_15-21-48-494.txt Node
Date: Thu Jul 25 15:21:48 EDT 2019
User: cochatt
Spectrometer: HR+D1059
Trigger mode: 1
Integration Time (sec): 1.000000E-1
Scans to average: 1
Electric dark correction enabled: true
Nonlinearity correction enabled: false
Boxcar width: 0
XAxis mode: Wavelengths
Number of Pixels in Spectrum: 2048
>>>>>Begin Spectral Data<<<<<
223.165	-14.25
223.4	-14.25
223.635	-14.25
223.869	-21.25
224.104	-13.25
224.338	-19.25
224.573	-1.25
224.808	4.75
225.042	-11.25
225.277	-22.25
225.511	-15.25
225.746	12.75
225.98	1.75
226.215	19.75
226.449	14.75
226.683	21.75
226.918	18.75
227.152	23.75
227.387	29.75
227.621	18.75
227.856	22.75
228.09	45.75
228.324	45.75
228.559	48.75
228.793	115.75
229.027	303.75
229.262	327.75
229.496	292.75
229.73	282.75
229.964	295.75
230.199	293.75
230.433	296.75
230.667	302.75
230.901	307.75
231.136	317.75
231.37	322.75
231.604	381.75
231.838	404.75
232.072	511.75
232.306	525.75
232.541	471.75
232.775	419.75
233.009	413.75
233.243	399.75
233.477	439.75
233.711	498.75
233.945	553.75
234.179	504.75
234.413	437.75
234.647	432.75
234.881	414.75
235.115	511.75
235.349	604.75
235.583	745.75
235.817	959.75
236.051	926.75
236.285	617.75
236.519	523.75
236.753	485.75
236.987	489.75
237.221	517.75
237.455	491.75
237.689	454.75
237.922	453.75
238.156	455.75
238.39	469.75
238.624	484.75
238.858	474.75
239.091	466.75
239.325	493.75
239.559	463.75
239.793	497.75
240.027	506.75
240.26	546.75
240.494	525.75
240.728	540.75
240.961	591.75
241.195	612.75
241.429	667.75
241.662	665.75
241.896	762.75
242.13	913.75
242.363	1201.75
242.597	1537.75
242.83	1462.75
243.064	1457.75
243.298	1688.75
243.531	1408.75
243.765	926.75
243.998	752.75
244.232	662.75
244.465	647.75
244.699	629.75
244.932	629.75
245.166	631.75
245.399	643.75
245.633	663.75
245.866	659.75
246.099	646.75
246.333	619.75
246.566	626.75
246.8	614.75
247.033	659.75
247.266	619.75
247.5	627.75
247.733	656.75
247.966	684.75
248.2	740.75
248.433	834.75
248.666	968.75
248.899	895.75
249.133	856.75
249.366	849.75
249.599	949.75
249.832	1052.75
250.066	1036.75
250.299	828.75
250.532	775.75
250.765	741.75
250.998	717.75
251.231	710.75
251.465	689.75
251.698	711.75
251.931	717.75
252.164	736.75
252.397	721.75
252.63	771.75
252.863	787.75
253.096	770.75
253.329	763.75
253.562	763.75
253.795	774.75
254.028	787.75
254.261	812.75
254.494	841.75
254.727	973.75
254.96	1182.75
255.193	1169.75
255.426	942.75
255.659	841.75
255.892	825.75
256.124	867.75
256.357	862.75
256.59	871.75
256.823	937.75
257.056	1093.75
257.289	1319.75
257.521	1407.75
257.754	1138.75
257.987	961.75
258.22	883.75
258.452	868.75
258.685	895.75
258.918	925.75
259.151	981.75
259.383	1036.75
259.616	1198.75
259.849	1260.75
260.081	1050.75
260.314	958.75
260.547	896.75
260.779	915.75
261.012	941.75
261.244	939.75
261.477	922.75
261.71	960.75
261.942	963.75
262.175	991.75
262.407	1011.75
262.64	1031.75
262.872	1068.75
263.105	1095.75
263.337	1185.75
263.57	1260.75
263.802	1280.75
264.035	1285.75
264.267	1309.75
264.499	1346.75
264.732	1399.75
264.964	1431.75
265.197	1436.75
265.429	1410.75
265.661	1482.75
265.894	1539.75
266.126	1737.75
266.358	1912.75
266.591	1872.75
266.823	1589.75
267.055	1408.75
267.287	1370.75
267.52	1303.75
267.752	1295.75
267.984	1249.75
268.216	1287.75
268.448	1226.75
268.681	1237.75
268.913	1191.75
269.145	1184.75
269.377	1212.75
269.609	1219.75
269.841	1234.75
270.073	1357.75
270.306	1548.75
270.538	2084.75
270.77	3036.75
271.002	3689.75
271.234	2683.75
271.466	1805.75
271.698	1485.75
271.93	1360.75
272.162	1303.75
272.394	1274.75
272.626	1222.75
272.858	1216.75
273.09	1187.75
273.322	1169.75
273.553	1161.75
273.785	1174.75
274.017	1180.75
274.249	1162.75
274.481	1185.75
274.713	1186.75
274.945	1164.75
275.176	1197.75
275.408	1174.75
275.64	1198.75
275.872	1211.75
276.104	1229.75
276.335	1255.75
276.567	1243.75
276.799	1245.75
277.031	1283.75
277.262	1318.75
277.494	1357.75
277.726	1499.75
277.957	1797.75
278.189	2020.75
278.421	1906.75
278.652	1722.75
278.884	1629.75
279.115	1457.75
279.347	1397.75
279.579	1353.75
279.81	1364.75
280.042	1369.75
280.273	1359.75
280.505	1396.75
280.736	1441.75
280.968	1551.75
281.199	1747.75
281.431	1983.75
281.662	2053.75
281.894	1693.75
282.125	1583.75
282.356	1621.75
282.588	1609.75
282.819	1669.75
283.051	1789.75
283.282	1962.75
283.513	2383.75
283.745	3508.75
283.976	5337.75
284.207	7625.75
284.439	6904.75
284.67	4249.75
284.901	3566.75
285.132	3561.75
285.364	3351.75
285.595	2603.75
285.826	2317.75
286.057	2751.75
286.288	3709.75
286.52	4987.75
286.751	4684.75
286.982	2963.75
287.213	2210.75
287.444	1942.75
287.675	1808.75
287.906	1766.75
288.138	1692.75
288.369	1632.75
288.6	1655.75
288.831	1651.75
289.062	1632.75
289.293	1638.75
289.524	1676.75
289.755	1665.75
289.986	1660.75
290.217	1685.75
290.448	1705.75
290.679	1697.75
290.91	1716.75
291.141	1843.75
291.371	1991.75
291.602	2069.75
291.833	1874.75
292.064	1722.75
292.295	1665.75
292.526	1647.75
292.757	1593.75
292.987	1587.75
293.218	1553.75
293.449	1568.75
293.68	1566.75
293.91	1558.75
294.141	1519.75
294.372	1530.75
294.603	1542.75
294.833	1520.75
295.064	1532.75
295.295	1544.75
295.525	1533.75
295.756	1539.75
295.987	1537.75
296.217	1530.75
296.448	1545.75
296.679	1559.75
296.909	1508.75
297.14	1534.75
297.37	1604.75
297.601	1576.75
297.831	1565.75
298.062	1622.75
298.292	1615.75
298.523	1653.75
298.753	1633.75
298.984	1649.75
299.214	1683.75
299.445	1705.75
299.675	1701.75
299.905	1784.75
300.136	1858.75
300.366	2073.75
300.597	2670.75
300.827	3660.75
301.057	4976.75
301.288	4990.75
301.518	3248.75
301.748	2487.75
301.979	2326.75
302.209	2231.75
302.439	2283.75
302.669	2372.75
302.9	2852.75
303.13	4030.75
303.36	5813.75
303.59	7779.75
303.82	6819.75
304.051	4062.75
304.281	2949.75
304.511	2452.75
304.741	2241.75
304.971	2125.75
305.201	2017.75
305.431	1973.75
305.661	1927.75
305.891	1865.75
306.121	1830.75
306.352	1800.75
306.582	1809.75
306.812	1806.75
307.042	1813.75
307.272	1817.75
307.502	1792.75
307.731	1785.75
307.961	1791.75
308.191	1762.75
308.421	1778.75
308.651	1800.75
308.881	1727.75
309.111	1795.75
309.341	1797.75
309.571	1862.75
309.8	1797.75
310.03	1824.75
310.26	1819.75
310.49	1859.75
310.72	1835.75
310.949	1859.75
311.179	1851.75
311.409	1887.75
311.639	1938.75
311.868	1919.75
312.098	1916.75
312.328	1927.75
312.557	1948.75
312.787	1937.75
313.017	1952.75
313.246	1955.75
313.476	1970.75
313.706	2027.75
313.935	2161.75
314.165	2308.75
314.394	2445.75
314.624	2302.75
314.853	2094.75
315.083	2115.75
315.312	2110.75
315.542	2137.75
315.771	2136.75
316.001	2187.75
316.23	2300.75
316.46	2358.75
316.689	2585.75
316.919	3097.75
317.148	4437.75
317.377	6742.75
317.607	9843.75
317.836	10281.75
318.065	6269.75
318.295	4127.75
318.524	3307.75
318.753	2863.75
318.983	2673.75
319.212	2527.75
319.441	2425.75
319.67	2394.75
319.9	2384.75
320.129	2276.75
320.358	2332.75
320.587	2288.75
320.816	2283.75
321.046	2326.75
321.275	2311.75
321.504	2371.75
321.733	2425.75
321.962	2487.75
322.191	2509.75
322.42	2449.75
322.649	2429.75
322.878	2439.75
323.108	2429.75
323.337	2498.75
323.566	2491.75
323.795	2556.75
324.024	2530.75
324.253	2612.75
324.482	2783.75
324.71	2905.75
324.939	3095.75
325.168	3159.75
325.397	3259.75
325.626	3871.75
325.855	5399.75
326.084	8310.75
326.313	12150.75
326.542	12868.75
326.77	8675.75
326.999	5624.75
327.228	4774.75
327.457	4611.75
327.686	4610.75
327.914	5024.75
328.143	5776.75
328.372	6908.75
328.6	7609.75
328.829	6761.75
329.058	5605.75
329.287	4967.75
329.515	4525.75
329.744	4179.75
329.972	3987.75
330.201	3823.75
330.43	3614.75
330.658	3534.75
330.887	3488.75
331.115	3454.75
331.344	3408.75
331.572	3375.75
331.801	3449.75
332.03	3417.75
332.258	3465.75
332.486	3620.75
332.715	4091.75
332.943	5150.75
333.172	6347.75
333.4	6366.75
333.629	4924.75
333.857	4387.75
334.085	4383.75
334.314	4643.75
334.542	5009.75
334.771	5907.75
334.999	7257.75
335.227	8987.75
335.455	10184.75
335.684	9126.75
335.912	7462.75
336.14	6289.75
336.369	5550.75
336.597	5072.75
336.825	4657.75
337.053	4389.75
337.281	4236.75
337.51	3945.75
337.738	3837.75
337.966	3625.75
338.194	3501.75
338.422	3403.75
338.65	3327.75
338.878	3193.75
339.106	3223.75
339.334	3184.75
339.562	3140.75
339.79	3025.75
340.018	3036.75
340.246	2993.75
340.474	2957.75
340.702	2939.75
340.93	2990.75
341.158	2997.75
341.386	2948.75
341.614	2954.75
341.842	2898.75
342.07	2777.75
342.298	2729.75
342.526	2658.75
342.754	2650.75
342.981	2659.75
343.209	2681.75
343.437	2685.75
343.665	2735.75
343.893	2803.75
344.12	2833.75
344.348	2752.75
344.576	2683.75
344.804	2649.75
345.031	2579.75
345.259	2588.75
345.487	2589.75
345.714	2484.75
345.942	2497.75
346.17	2509.75
346.397	2522.75
346.625	2518.75
346.853	2484.75
347.08	2502.75
347.308	2503.75
347.535	2444.75
347.763	2459.75
347.99	2431.75
348.218	2396.75
348.445	2439.75
348.673	2406.75
348.9	2443.75
349.128	2412.75
349.355	2401.75
349.583	2433.75
349.81	2378.75
350.037	2368.75
350.265	2411.75
350.492	2332.75
350.72	2330.75
350.947	2360.75
351.174	2340.75
351.402	2418.75
351.629	2363.75
351.856	2383.75
352.083	2365.75
352.311	2314.75
352.538	2357.75
352.765	2359.75
352.992	2325.75
353.22	2313.75
353.447	2326.75
353.674	2358.75
353.901	2385.75
354.128	2353.75
354.355	2354.75
354.583	2329.75
354.81	2374.75
355.037	2401.75
355.264	2340.75
355.491	2419.75
355.718	2389.75
355.945	2395.75
356.172	2381.75
356.399	2421.75
356.626	2464.75
356.853	2482.75
357.08	2466.75
357.307	2489.75
357.534	2540.75
357.761	2499.75
357.988	2512.75
358.215	2505.75
358.441	2503.75
358.668	2470.75
358.895	2455.75
359.122	2477.75
359.349	2482.75
359.576	2482.75
359.802	2494.75
360.029	2487.75
360.256	2478.75
360.483	2531.75
360.709	2492.75
360.936	2469.75
361.163	2534.75
361.39	2517.75
361.616	2559.75
361.843	2479.75
362.07	2512.75
362.296	2537.75
362.523	2489.75
362.749	2525.75
362.976	2511.75
363.203	2514.75
363.429	2459.75
363.656	2468.75
363.882	2491.75
364.109	2488.75
364.335	2496.75
364.562	2509.75
364.788	2507.75
365.015	2514.75
365.241	2626.75
365.468	2788.75
365.694	2871.75
365.92	2781.75
366.147	2605.75
366.373	2532.75
366.599	2536.75
366.826	2520.75
367.052	2535.75
367.278	2553.75
367.505	2599.75
367.731	2591.75
367.957	2556.75
368.184	2596.75
368.41	2648.75
368.636	2611.75
368.862	2613.75
369.089	2638.75
369.315	2662.75
369.541	2563.75
369.767	2602.75
369.993	2549.75
370.219	2583.75
370.445	2594.75
370.672	2615.75
370.898	2633.75
371.124	2633.75
371.35	2686.75
371.576	2715.75
371.802	2704.75
372.028	2700.75
372.254	2729.75
372.48	2744.75
372.706	2720.75
372.932	2774.75
373.158	2745.75
373.384	2733.75
373.61	2756.75
373.835	2767.75
374.061	2796.75
374.287	2748.75
374.513	2815.75
374.739	2819.75
374.965	2857.75
375.191	2829.75
375.416	2830.75
375.642	2799.75
375.868	2843.75
376.094	2763.75
376.319	2758.75
376.545	2754.75
376.771	2747.75
376.997	2699.75
377.222	2701.75
377.448	2667.75
377.674	2688.75
377.899	2696.75
378.125	2699.75
378.35	2641.75
378.576	2731.75
378.802	2739.75
379.027	2801.75
379.253	2841.75
379.478	2998.75
379.704	3533.75
379.929	5030.75
380.155	7593.75
380.38	8115.75
380.606	5088.75
380.831	3627.75
381.057	3146.75
381.282	2890.75
381.507	2807.75
381.733	2741.75
381.958	2711.75
382.184	2665.75
382.409	2652.75
382.634	2678.75
382.86	2644.75
383.085	2680.75
383.31	2628.75
383.535	2607.75
383.761	2668.75
383.986	2642.75
384.211	2678.75
384.436	2685.75
384.662	2695.75
384.887	2715.75
385.112	2731.75
385.337	2729.75
385.562	2769.75
385.787	2735.75
386.013	2725.75
386.238	2717.75
386.463	2694.75
386.688	2737.75
386.913	2707.75
387.138	2717.75
387.363	2706.75
387.588	2723.75
387.813	2678.75
388.038	2708.75
388.263	2746.75
388.488	2749.75
388.713	2736.75
388.938	2748.75
389.163	2708.75
389.387	2785.75
389.612	2709.75
389.837	2701.75
390.062	2721.75
390.287	2746.75
390.512	2735.75
390.736	2823.75
390.961	2801.75
391.186	2822.75
391.411	2830.75
391.636	2831.75
391.86	2854.75
392.085	2871.75
392.31	2887.75
392.534	2818.75
392.759	2862.75
392.984	2838.75
393.208	2923.75
393.433	3031.75
393.658	2984.75
393.882	2806.75
394.107	2766.75
394.331	2737.75
394.556	2788.75
394.78	2789.75
395.005	2834.75
395.229	2821.75
395.454	2892.75
395.678	2849.75
395.903	2843.75
396.127	2907.75
396.352	2873.75
396.576	2852.75
396.801	2947.75
397.025	2985.75
397.249	2907.75
397.474	2921.75
397.698	2914.75
397.922	2894.75
398.147	2895.75
398.371	2937.75
398.595	3028.75
398.82	3062.75
399.044	3188.75
399.268	3285.75
399.492	3550.75
399.717	3633.75
399.941	3641.75
400.165	3506.75
400.389	3378.75
400.613	3185.75
400.837	3135.75
401.062	3074.75
401.286	3045.75
401.51	3006.75
401.734	3012.75
401.958	2977.75
402.182	3021.75
402.406	2997.75
402.63	3035.75
402.854	3070.75
403.078	3063.75
403.302	3100.75
403.526	3069.75
403.75	3073.75
403.974	3143.75
404.198	3090.75
404.422	3126.75
404.645	3152.75
404.869	3120.75
405.093	3127.75
405.317	3118.75
405.541	3143.75
405.765	3210.75
405.988	3270.75
406.212	3236.75
406.436	3147.75
406.66	3247.75
406.883	3231.75
407.107	3308.75
407.331	3357.75
407.555	3497.75
407.778	3428.75
408.002	3345.75
408.226	3349.75
408.449	3353.75
408.673	3287.75
408.896	3230.75
409.12	3197.75
409.344	3133.75
409.567	3158.75
409.791	3106.75
410.014	3070.75
410.238	3047.75
410.461	3077.75
410.685	3099.75
410.908	3057.75
411.132	3061.75
411.355	2982.75
411.578	3006.75
411.802	2971.75
412.025	2989.75
412.249	3019.75
412.472	3059.75
412.695	3005.75
412.919	2961.75
413.142	2913.75
413.365	2938.75
413.589	2997.75
413.812	2949.75
414.035	2942.75
414.258	2966.75
414.482	2910.75
414.705	2995.75
414.928	2939.75
415.151	2929.75
415.374	2904.75
415.597	2873.75
415.821	2842.75
416.044	2818.75
416.267	2803.75
416.49	2829.75
416.713	2814.75
416.936	2847.75
417.159	2843.75
417.382	2785.75
417.605	2793.75
417.828	2866.75
418.051	2855.75
418.274	2863.75
418.497	2831.75
418.72	2907.75
418.943	2842.75
419.166	2994.75
419.389	3172.75
419.611	3057.75
419.834	3042.75
420.057	2962.75
420.28	2879.75
420.503	2820.75
420.726	2772.75
420.948	2852.75
421.171	2831.75
421.394	2834.75
421.617	2869.75
421.839	2837.75
422.062	2892.75
422.285	2798.75
422.507	2873.75
422.73	2893.75
422.953	2929.75
423.175	2946.75
423.398	2916.75
423.621	2821.75
423.843	2837.75
424.066	2857.75
424.288	2864.75
424.511	2839.75
424.733	2884.75
424.956	2779.75
425.178	2736.75
425.401	2756.75
425.623	2802.75
425.846	2765.75
426.068	2729.75
426.291	2703.75
426.513	2683.75
426.735	2672.75
426.958	2646.75
427.18	2667.75
427.402	2739.75
427.625	2676.75
427.847	2611.75
428.069	2602.75
428.292	2679.75
428.514	2642.75
428.736	2595.75
428.958	2670.75
429.181	2625.75
429.403	2557.75
429.625	2610.75
429.847	2640.75
430.069	2649.75
430.292	2766.75
430.514	2794.75
430.736	2841.75
430.958	2682.75
431.18	2615.75
431.402	2593.75
431.624	2561.75
431.846	2582.75
432.068	2496.75
432.29	2611.75
432.512	2525.75
432.734	2633.75
432.956	2577.75
433.178	2601.75
433.4	2588.75
433.622	2691.75
433.844	2620.75
434.066	2627.75
434.287	2583.75
434.509	2590.75
434.731	2697.75
434.953	2693.75
435.175	2687.75
435.397	2691.75
435.618	2660.75
435.84	2609.75
436.062	2578.75
436.284	2566.75
436.505	2579.75
436.727	2564.75
436.949	2561.75
437.17	2593.75
437.392	2506.75
437.614	2569.75
437.835	2459.75
438.057	2559.75
438.278	2516.75
438.5	2537.75
438.721	2561.75
438.943	2655.75
439.165	2660.75
439.386	2705.75
439.608	2689.75
439.829	2683.75
440.05	2794.75
440.272	2796.75
440.493	2691.75
440.715	2643.75
440.936	2670.75
441.158	2707.75
441.379	2789.75
441.6	2845.75
441.822	2930.75
442.043	3057.75
442.264	3114.75
442.486	2954.75
442.707	2823.75
442.928	2797.75
443.149	2769.75
443.371	2734.75
443.592	2794.75
443.813	2789.75
444.034	2782.75
444.255	2848.75
444.476	2887.75
444.698	2953.75
444.919	3006.75
445.14	3009.75
445.361	2963.75
445.582	2810.75
445.803	2837.75
446.024	2774.75
446.245	2720.75
446.466	2778.75
446.687	2742.75
446.908	2705.75
447.129	2646.75
447.35	2644.75
447.571	2572.75
447.792	2546.75
448.013	2563.75
448.234	2564.75
448.455	2492.75
448.675	2596.75
448.896	2683.75
449.117	2689.75
449.338	2933.75
449.559	3009.75
449.779	2754.75
450	2563.75
450.221	2520.75
450.442	2485.75
450.662	2523.75
450.883	2487.75
451.104	2469.75
451.324	2477.75
451.545	2500.75
451.766	2533.75
451.986	2523.75
452.207	2774.75
452.428	3569.75
452.648	5255.75
452.869	4420.75
453.089	3081.75
453.31	2880.75
453.53	2831.75
453.751	2979.75
453.971	3038.75
454.192	3029.75
454.412	2649.75
454.633	2478.75
454.853	2443.75
455.073	2391.75
455.294	2414.75
455.514	2399.75
455.734	2384.75
455.955	2327.75
456.175	2388.75
456.395	2351.75
456.616	2398.75
456.836	2403.75
457.056	2420.75
457.276	2429.75
457.497	2572.75
457.717	2628.75
457.937	2558.75
458.157	2484.75
458.377	2528.75
458.598	2530.75
458.818	2553.75
459.038	2589.75
459.258	2567.75
459.478	2607.75
459.698	2621.75
459.918	2636.75
460.138	2719.75
460.358	2817.75
460.578	2784.75
460.798	2835.75
461.018	2819.75
461.238	2813.75
461.458	2829.75
461.678	2825.75
461.898	2978.75
462.118	2912.75
462.338	3009.75
462.558	3009.75
462.777	3095.75
462.997	3271.75
463.217	3335.75
463.437	3438.75
463.657	3491.75
463.876	3423.75
464.096	3319.75
464.316	3128.75
464.536	3139.75
464.755	3039.75
464.975	2983.75
465.195	2875.75
465.414	2795.75
465.634	2681.75
465.854	2678.75
466.073	2658.75
466.293	2665.75
466.512	2589.75
466.732	2673.75
466.951	2746.75
467.171	2942.75
467.391	2900.75
467.61	2644.75
467.829	2572.75
468.049	2618.75
468.268	2504.75
468.488	2530.75
468.707	2525.75
468.927	2518.75
469.146	2512.75
469.365	2565.75
469.585	2559.75
469.804	2661.75
470.023	2724.75
470.243	2701.75
470.462	2801.75
470.681	2934.75
470.901	3227.75
471.12	3609.75
471.339	3641.75
471.558	3041.75
471.777	2832.75
471.997	2742.75
472.216	2683.75
472.435	2646.75
472.654	2576.75
472.873	2520.75
473.092	2553.75
473.311	2522.75
473.53	2598.75
473.749	2648.75
473.968	2717.75
474.187	2610.75
474.406	2584.75
474.625	2556.75
474.844	2608.75
475.063	2551.75
475.282	2577.75
475.501	2555.75
475.72	2580.75
475.939	2629.75
476.158	2706.75
476.377	2741.75
476.596	2701.75
476.814	2731.75
477.033	2696.75
477.252	2738.75
477.471	2777.75
477.69	2874.75
477.908	2875.75
478.127	2897.75
478.346	2917.75
478.564	2929.75
478.783	2982.75
479.002	3097.75
479.22	3053.75
479.439	3056.75
479.658	3050.75
479.876	3046.75
480.095	3115.75
480.313	3201.75
480.532	3186.75
480.751	3183.75
480.969	3149.75
481.188	3107.75
481.406	3069.75
481.624	3097.75
481.843	3123.75
482.061	3143.75
482.28	3114.75
482.498	3043.75
482.717	3105.75
482.935	3161.75
483.153	3173.75
483.372	3169.75
483.59	3187.75
483.808	3268.75
484.027	3354.75
484.245	3545.75
484.463	3924.75
484.681	4349.75
484.9	3986.75
485.118	3689.75
485.336	3597.75
485.554	3737.75
485.772	3890.75
485.99	4407.75
486.209	4708.75
486.427	4033.75
486.645	3595.75
486.863	3465.75
487.081	3369.75
487.299	3345.75
487.517	3335.75
487.735	3307.75
487.953	3310.75
488.171	3269.75
488.389	3219.75
488.607	3249.75
488.825	3228.75
489.043	3151.75
489.261	3206.75
489.479	3203.75
489.696	3215.75
489.914	3228.75
490.132	3211.75
490.35	3238.75
490.568	3290.75
490.786	3258.75
491.003	3263.75
491.221	3329.75
491.439	3354.75
491.657	3318.75
491.874	3348.75
492.092	3358.75
492.31	3362.75
492.527	3398.75
492.745	3343.75
492.963	3325.75
493.18	3315.75
493.398	3379.75
493.615	3363.75
493.833	3317.75
494.05	3380.75
494.268	3350.75
494.485	3408.75
494.703	3389.75
494.92	3381.75
495.138	3329.75
495.355	3321.75
495.573	3396.75
495.79	3407.75
496.008	3465.75
496.225	3526.75
496.442	3473.75
496.66	3618.75
496.877	3833.75
497.094	3750.75
497.312	3647.75
497.529	3645.75
497.746	3672.75
497.963	3782.75
498.181	3857.75
498.398	3889.75
498.615	4036.75
498.832	4152.75
499.049	4466.75
499.267	4738.75
499.484	5034.75
499.701	4965.75
499.918	5099.75
500.135	5375.75
500.352	5603.75
500.569	5749.75
500.786	5627.75
501.003	5484.75
501.22	5220.75
501.437	4962.75
501.654	4674.75
501.871	4586.75
502.088	4362.75
502.305	4167.75
502.522	4005.75
502.739	3959.75
502.956	3841.75
503.172	3755.75
503.389	3643.75
503.606	3595.75
503.823	3565.75
504.04	3485.75
504.256	3591.75
504.473	3520.75
504.69	3493.75
504.907	3492.75
505.123	3346.75
505.34	3337.75
505.557	3263.75
505.773	3190.75
505.99	3171.75
506.207	3103.75
506.423	3061.75
506.64	3083.75
506.856	3019.75
507.073	3015.75
507.289	2965.75
507.506	2945.75
507.722	2998.75
507.939	2960.75
508.155	2941.75
508.372	2875.75
508.588	2894.75
508.805	2873.75
509.021	2877.75
509.238	2961.75
509.454	3115.75
509.67	3314.75
509.887	3061.75
510.103	2926.75
510.319	2899.75
510.536	2911.75
510.752	2884.75
510.968	2832.75
511.184	2837.75
511.401	2770.75
511.617	2796.75
511.833	2785.75
512.049	2749.75
512.265	2794.75
512.481	2815.75
512.698	2788.75
512.914	2813.75
513.13	2796.75
513.346	2813.75
513.562	2748.75
513.778	2820.75
513.994	2786.75
514.21	2955.75
514.426	3130.75
514.642	3202.75
514.858	3010.75
515.074	2884.75
515.29	2859.75
515.506	2848.75
515.721	2877.75
515.937	2878.75
516.153	2859.75
516.369	2894.75
516.585	2994.75
516.801	2989.75
517.016	3022.75
517.232	3130.75
517.448	3133.75
517.664	3202.75
517.879	3194.75
518.095	3234.75
518.311	3159.75
518.527	3102.75
518.742	3110.75
518.958	3138.75
519.173	3250.75
519.389	3049.75
519.605	2970.75
519.82	2857.75
520.036	2852.75
520.251	2799.75
520.467	2786.75
520.682	2779.75
520.898	2781.75
521.113	2733.75
521.329	2736.75
521.544	2739.75
521.76	2737.75
521.975	2696.75
522.19	2735.75
522.406	2685.75
522.621	2682.75
522.836	2728.75
523.052	2726.75
523.267	2676.75
523.482	2695.75
523.698	2633.75
523.913	2645.75
524.128	2654.75
524.343	2649.75
524.559	2679.75
524.774	2665.75
524.989	2715.75
525.204	2663.75
525.419	2661.75
525.634	2647.75
525.849	2647.75
526.064	2637.75
526.28	2659.75
526.495	2630.75
526.71	2682.75
526.925	2694.75
527.14	2677.75
527.355	2645.75
527.57	2646.75
527.785	2684.75
527.999	2721.75
528.214	2748.75
528.429	2750.75
528.644	2754.75
528.859	2796.75
529.074	2822.75
529.289	2855.75
529.503	2852.75
529.718	2829.75
529.933	2837.75
530.148	2836.75
530.363	2818.75
530.577	2859.75
530.792	2874.75
531.007	2894.75
531.221	2925.75
531.436	2933.75
531.651	2943.75
531.865	2946.75
532.08	3065.75
532.295	3108.75
532.509	3308.75
532.724	3305.75
532.938	3338.75
533.153	3422.75
533.367	3757.75
533.582	3933.75
533.796	3810.75
534.011	3781.75
534.225	3565.75
534.44	3409.75
534.654	3372.75
534.868	3271.75
535.083	3184.75
535.297	3130.75
535.511	3139.75
535.726	3052.75
535.94	3017.75
536.154	2921.75
536.369	2921.75
536.583	2845.75
536.797	2851.75
537.011	2783.75
537.225	2827.75
537.44	2740.75
537.654	2757.75
537.868	2709.75
538.082	2725.75
538.296	2670.75
538.51	2658.75
538.724	2693.75
538.938	2650.75
539.153	2658.75
539.367	2658.75
539.581	2641.75
539.795	2595.75
540.009	2594.75
540.222	2579.75
540.436	2520.75
540.65	2553.75
540.864	2576.75
541.078	2639.75
541.292	2753.75
541.506	3212.75
541.72	3389.75
541.934	2955.75
542.147	2825.75
542.361	2693.75
542.575	2571.75
542.789	2588.75
543.002	2532.75
543.216	2497.75
543.43	2492.75
543.644	2443.75
543.857	2455.75
544.071	2489.75
544.285	2499.75
544.498	2507.75
544.712	2547.75
544.925	2477.75
545.139	2461.75
545.352	2492.75
545.566	2502.75
545.779	2502.75
545.993	2519.75
546.206	2508.75
546.42	2521.75
546.633	2529.75
546.847	2478.75
547.06	2492.75
547.274	2503.75
547.487	2490.75
547.7	2515.75
547.914	2557.75
548.127	2523.75
548.34	2505.75
548.554	2475.75
548.767	2482.75
548.98	2460.75
549.193	2512.75
549.407	2510.75
549.62	2499.75
549.833	2481.75
550.046	2529.75
550.259	2496.75
550.473	2530.75
550.686	2530.75
550.899	2546.75
551.112	2529.75
551.325	2477.75
551.538	2525.75
551.751	2479.75
551.964	2498.75
552.177	2551.75
552.39	2569.75
552.603	2634.75
552.816	2669.75
553.029	2688.75
553.242	2737.75
553.455	2726.75
553.667	2764.75
553.88	2769.75
554.093	2741.75
554.306	2818.75
554.519	2781.75
554.732	2861.75
554.944	2964.75
555.157	2951.75
555.37	3022.75
555.583	3191.75
555.795	3349.75
556.008	3657.75
556.221	4052.75
556.433	4363.75
556.646	4320.75
556.859	4113.75
557.071	3968.75
557.284	3848.75
557.496	3678.75
557.709	3610.75
557.921	3628.75
558.134	3581.75
558.346	3625.75
558.559	3769.75
558.771	4023.75
558.984	4425.75
559.196	4720.75
559.409	4479.75
559.621	4150.75
559.833	3865.75
560.046	3625.75
560.258	3458.75
560.47	3247.75
560.683	3166.75
560.895	2985.75
561.107	2947.75
561.32	2849.75
561.532	2776.75
561.744	2726.75
561.956	2661.75
562.168	2642.75
562.381	2594.75
562.593	2567.75
562.805	2579.75
563.017	2668.75
563.229	2697.75
563.441	3129.75
563.653	2583.75
563.865	2387.75
564.077	2366.75
564.289	2340.75
564.501	2356.75
564.713	2340.75
564.925	2263.75
565.137	2281.75
565.349	2285.75
565.561	2298.75
565.773	2281.75
565.985	2362.75
566.197	2405.75
566.408	2440.75
566.62	2481.75
566.832	2530.75
567.044	2565.75
567.255	2564.75
567.467	2620.75
567.679	2673.75
567.891	2802.75
568.102	3075.75
568.314	3461.75
568.526	3030.75
568.737	2640.75
568.949	2425.75
569.161	2325.75
569.372	2245.75
569.584	2118.75
569.795	2061.75
570.007	2110.75
570.218	2173.75
570.43	2204.75
570.641	2064.75
570.853	1953.75
571.064	1938.75
571.276	1864.75
571.487	1901.75
571.698	1884.75
571.91	1825.75
572.121	1830.75
572.333	1857.75
572.544	1789.75
572.755	1921.75
572.966	2245.75
573.178	2080.75
573.389	1901.75
573.6	1787.75
573.811	1744.75
574.023	1723.75
574.234	1689.75
574.445	1662.75
574.656	1660.75
574.867	1670.75
575.078	1678.75
575.289	1691.75
575.501	1673.75
575.712	1650.75
575.923	1661.75
576.134	1649.75
576.345	1654.75
576.556	1648.75
576.767	1681.75
576.978	1717.75
577.188	1685.75
577.399	1723.75
577.61	1732.75
577.821	1700.75
578.032	1733.75
578.243	1774.75
578.454	1789.75
578.665	1801.75
578.875	1882.75
579.086	1947.75
579.297	2065.75
579.508	2131.75
579.718	2348.75
579.929	2673.75
580.14	3195.75
580.35	3205.75
580.561	2935.75
580.772	2612.75
580.982	2494.75
581.193	2288.75
581.403	2111.75
581.614	2060.75
581.825	2002.75
582.035	1898.75
582.246	1827.75
582.456	1793.75
582.667	1737.75
582.877	1743.75
583.087	1665.75
583.298	1613.75
583.508	1584.75
583.719	1531.75
583.929	1537.75
584.139	1519.75
584.35	1435.75
584.56	1431.75
584.77	1414.75
584.981	1399.75
585.191	1411.75
585.401	1386.75
585.611	1305.75
585.821	1323.75
586.032	1315.75
586.242	1319.75
586.452	1314.75
586.662	1295.75
586.872	1269.75
587.082	1279.75
587.292	1241.75
587.502	1250.75
587.713	1237.75
587.923	1254.75
588.133	1227.75
588.343	1225.75
588.553	1198.75
588.762	1176.75
588.972	1185.75
589.182	1199.75
589.392	1193.75
589.602	1166.75
589.812	1193.75
590.022	1180.75
590.232	1198.75
590.441	1171.75
590.651	1153.75
590.861	1155.75
591.071	1159.75
591.281	1133.75
591.49	1179.75
591.7	1153.75
591.91	1181.75
592.119	1151.75
592.329	1177.75
592.539	1207.75
592.748	1193.75
592.958	1208.75
593.167	1189.75
593.377	1195.75
593.587	1217.75
593.796	1204.75
594.006	1217.75
594.215	1194.75
594.424	1211.75
594.634	1165.75
594.843	1194.75
595.053	1140.75
595.262	1128.75
595.472	1137.75
595.681	1105.75
595.89	1079.75
596.1	1042.75
596.309	1073.75
596.518	1032.75
596.727	1001.75
596.937	1009.75
597.146	1024.75
597.355	1021.75
597.564	999.75
597.774	968.75
597.983	972.75
598.192	956.75
598.401	962.75
598.61	959.75
598.819	955.75
599.028	942.75
599.237	924.75
599.446	939.75
599.655	952.75
599.864	948.75
600.073	949.75
600.282	931.75
600.491	898.75
600.7	937.75
600.909	929.75
601.118	917.75
601.327	911.75
601.536	926.75
601.745	952.75
601.953	1052.75
602.162	1189.75
602.371	1048.75
602.58	972.75
602.789	962.75
602.997	939.75
603.206	898.75
603.415	910.75
603.623	886.75
603.832	893.75
604.041	900.75
604.249	890.75
604.458	920.75
604.666	865.75
604.875	877.75
605.084	875.75
605.292	893.75
605.501	883.75
605.709	893.75
605.918	855.75
606.126	885.75
606.334	907.75
606.543	897.75
606.751	992.75
606.96	1108.75
607.168	1185.75
607.376	1021.75
607.585	961.75
607.793	911.75
608.001	894.75
608.21	890.75
608.418	857.75
608.626	855.75
608.834	867.75
609.043	849.75
609.251	841.75
609.459	823.75
609.667	813.75
609.875	838.75
610.083	798.75
610.291	826.75
610.499	809.75
610.707	824.75
610.916	819.75
611.124	789.75
611.332	786.75
611.54	802.75
611.748	822.75
611.955	785.75
612.163	793.75
612.371	777.75
612.579	803.75
612.787	772.75
612.995	786.75
613.203	791.75
613.411	763.75
613.618	771.75
613.826	763.75
614.034	774.75
614.242	771.75
614.449	770.75
614.657	750.75
614.865	780.75
615.072	794.75
615.28	813.75
615.488	790.75
615.695	782.75
615.903	769.75
616.111	764.75
616.318	813.75
616.526	770.75
616.733	771.75
616.941	771.75
617.148	749.75
617.356	782.75
617.563	765.75
617.771	776.75
617.978	767.75
618.185	725.75
618.393	745.75
618.6	730.75
618.807	738.75
619.015	743.75
619.222	732.75
619.429	724.75
619.637	695.75
619.844	715.75
620.051	713.75
620.258	706.75
620.466	686.75
620.673	691.75
620.88	676.75
621.087	662.75
621.294	675.75
621.501	670.75
621.708	676.75
621.915	694.75
622.122	701.75
622.329	697.75
622.536	686.75
622.743	670.75
622.95	678.75
623.157	654.75
623.364	689.75
623.571	677.75
623.778	673.75
623.985	664.75
624.192	672.75
624.399	672.75
624.606	659.75
624.812	665.75
625.019	630.75
625.226	637.75
625.433	639.75
625.639	630.75
625.846	632.75
626.053	606.75
626.259	631.75
626.466	611.75
626.673	620.75
626.879	606.75
627.086	601.75
627.293	601.75
627.499	619.75
627.706	605.75
627.912	621.75
628.119	620.75
628.325	630.75
628.532	633.75
628.738	605.75
628.945	617.75
629.151	610.75
629.357	613.75
629.564	598.75
629.77	598.75
629.976	579.75
630.183	576.75
630.389	574.75
630.595	609.75
630.802	592.75
631.008	587.75
631.214	606.75
631.42	576.75
631.627	591.75
631.833	568.75
632.039	581.75
632.245	582.75
632.451	565.75
632.657	576.75
632.863	563.75
633.069	569.75
633.275	549.75
633.481	542.75
633.688	551.75
633.893	574.75
634.099	566.75
634.305	566.75
634.511	574.75
634.717	565.75
634.923	605.75
635.129	675.75
635.335	735.75
635.541	672.75
635.747	603.75
635.952	587.75
636.158	550.75
636.364	589.75
636.57	578.75
636.775	578.75
636.981	571.75
637.187	567.75
637.392	575.75
637.598	587.75
637.804	539.75
638.009	580.75
638.215	581.75
638.421	582.75
638.626	589.75
638.832	576.75
639.037	575.75
639.243	583.75
639.448	603.75
639.654	589.75
639.859	593.75
640.065	584.75
640.27	596.75
640.475	599.75
640.681	595.75
640.886	613.75
641.091	603.75
641.297	580.75
641.502	608.75
641.707	628.75
641.913	631.75
642.118	660.75
642.323	635.75
642.528	646.75
642.733	664.75
642.939	668.75
643.144	701.75
643.349	724.75
643.554	779.75
643.759	798.75
643.964	811.75
644.169	841.75
644.374	911.75
644.579	1009.75
644.784	1110.75
644.989	1259.75
645.194	1471.75
645.399	1839.75
645.604	1990.75
645.809	1461.75
646.014	1110.75
646.219	941.75
646.423	829.75
646.628	735.75
646.833	692.75
647.038	654.75
647.243	628.75
647.447	609.75
647.652	589.75
647.857	575.75
648.062	574.75
648.266	542.75
648.471	543.75
648.676	531.75
648.88	549.75
649.085	517.75
649.289	502.75
649.494	508.75
649.698	478.75
649.903	475.75
650.107	470.75
650.312	475.75
650.516	465.75
650.721	447.75
650.925	440.75
651.13	442.75
651.334	427.75
651.539	415.75
651.743	425.75
651.947	386.75
652.152	411.75
652.356	419.75
652.56	442.75
652.764	486.75
652.969	451.75
653.173	404.75
653.377	389.75
653.581	383.75
653.785	367.75
653.99	355.75
654.194	367.75
654.398	332.75
654.602	358.75
654.806	331.75
655.01	333.75
655.214	333.75
655.418	346.75
655.622	327.75
655.826	346.75
656.03	351.75
656.234	367.75
656.438	347.75
656.642	369.75
656.846	346.75
657.049	327.75
657.253	325.75
657.457	288.75
657.661	279.75
657.865	259.75
658.068	258.75
658.272	233.75
658.476	241.75
658.68	207.75
658.883	212.75
659.087	202.75
659.291	202.75
659.494	171.75
659.698	182.75
659.901	164.75
660.105	160.75
660.309	169.75
660.512	166.75
660.716	158.75
660.919	147.75
661.123	134.75
661.326	133.75
661.53	127.75
661.733	126.75
661.936	115.75
662.14	113.75
662.343	101.75
662.546	114.75
662.75	105.75
662.953	89.75
663.156	103.75
663.36	103.75
663.563	86.75
663.766	99.75
663.969	101.75
664.173	90.75
664.376	78.75
664.579	76.75
664.782	75.75
664.985	95.75
665.188	71.75
665.391	83.75
665.594	61.75
665.797	85.75
666	86.75
666.203	85.75
666.406	76.75
666.609	81.75
666.812	82.75
667.015	86.75
667.218	83.75
667.421	81.75
667.624	71.75
667.827	81.75
668.03	72.75
668.232	71.75
668.435	73.75
668.638	75.75
668.841	82.75
669.043	63.75
669.246	73.75
669.449	67.75
669.651	79.75
669.854	69.75
670.057	79.75
670.259	74.75
670.462	82.75
670.665	62.75
670.867	84.75
671.07	80.75
671.272	88.75
671.475	81.75
671.677	71.75
671.88	78.75
672.082	70.75
672.284	67.75
672.487	75.75
672.689	80.75
672.892	88.75
