Data from SnStandardFlinnAPT0064_LampEnergy10_LIBS07252019.E.O._I.C._HRD10591_15-21-54-495.txt Node
Date: Thu Jul 25 15:21:54 EDT 2019
User: cochatt
Spectrometer: HR+D1059
Trigger mode: 1
Integration Time (sec): 1.000000E-1
Scans to average: 1
Electric dark correction enabled: true
Nonlinearity correction enabled: false
Boxcar width: 0
XAxis mode: Wavelengths
Number of Pixels in Spectrum: 2048
>>>>>Begin Spectral Data<<<<<
223.165	-19.25
223.4	-19.25
223.635	-19.25
223.869	-17.25
224.104	-7.25
224.338	-8.25
224.573	-18.25
224.808	-2.25
225.042	-10.25
225.277	0.75
225.511	0.75
225.746	-13.25
225.98	1.75
226.215	10.75
226.449	11.75
226.683	8.75
226.918	27.75
227.152	33.75
227.387	44.75
227.621	38.75
227.856	39.75
228.09	42.75
228.324	40.75
228.559	55.75
228.793	114.75
229.027	312.75
229.262	329.75
229.496	308.75
229.73	303.75
229.964	297.75
230.199	304.75
230.433	297.75
230.667	306.75
230.901	325.75
231.136	343.75
231.37	348.75
231.604	385.75
231.838	452.75
232.072	538.75
232.306	569.75
232.541	476.75
232.775	425.75
233.009	408.75
233.243	403.75
233.477	433.75
233.711	502.75
233.945	580.75
234.179	502.75
234.413	459.75
234.647	454.75
234.881	449.75
235.115	493.75
235.349	597.75
235.583	769.75
235.817	1004.75
236.051	960.75
236.285	646.75
236.519	527.75
236.753	492.75
236.987	512.75
237.221	519.75
237.455	513.75
237.689	461.75
237.922	447.75
238.156	470.75
238.39	496.75
238.624	495.75
238.858	477.75
239.091	488.75
239.325	493.75
239.559	509.75
239.793	493.75
240.027	520.75
240.26	538.75
240.494	560.75
240.728	582.75
240.961	587.75
241.195	651.75
241.429	676.75
241.662	684.75
241.896	766.75
242.13	951.75
242.363	1238.75
242.597	1602.75
242.83	1520.75
243.064	1508.75
243.298	1768.75
243.531	1443.75
243.765	965.75
243.998	775.75
244.232	713.75
244.465	678.75
244.699	646.75
244.932	654.75
245.166	637.75
245.399	658.75
245.633	674.75
245.866	677.75
246.099	662.75
246.333	634.75
246.566	630.75
246.8	671.75
247.033	654.75
247.266	633.75
247.5	659.75
247.733	650.75
247.966	686.75
248.2	749.75
248.433	876.75
248.666	969.75
248.899	940.75
249.133	842.75
249.366	877.75
249.599	973.75
249.832	1100.75
250.066	1077.75
250.299	858.75
250.532	772.75
250.765	750.75
250.998	734.75
251.231	735.75
251.465	706.75
251.698	725.75
251.931	727.75
252.164	734.75
252.397	766.75
252.63	782.75
252.863	787.75
253.096	787.75
253.329	769.75
253.562	775.75
253.795	770.75
254.028	786.75
254.261	815.75
254.494	890.75
254.727	1012.75
254.96	1244.75
255.193	1227.75
255.426	950.75
255.659	887.75
255.892	854.75
256.124	849.75
256.357	869.75
256.59	897.75
256.823	992.75
257.056	1107.75
257.289	1360.75
257.521	1501.75
257.754	1176.75
257.987	956.75
258.22	912.75
258.452	902.75
258.685	924.75
258.918	952.75
259.151	1022.75
259.383	1069.75
259.616	1202.75
259.849	1279.75
260.081	1074.75
260.314	979.75
260.547	947.75
260.779	964.75
261.012	961.75
261.244	963.75
261.477	980.75
261.71	970.75
261.942	982.75
262.175	994.75
262.407	1048.75
262.64	1044.75
262.872	1100.75
263.105	1160.75
263.337	1197.75
263.57	1272.75
263.802	1326.75
264.035	1307.75
264.267	1334.75
264.499	1366.75
264.732	1425.75
264.964	1404.75
265.197	1446.75
265.429	1439.75
265.661	1462.75
265.894	1580.75
266.126	1782.75
266.358	1976.75
266.591	1932.75
266.823	1614.75
267.055	1445.75
267.287	1382.75
267.52	1366.75
267.752	1288.75
267.984	1247.75
268.216	1223.75
268.448	1253.75
268.681	1234.75
268.913	1222.75
269.145	1220.75
269.377	1226.75
269.609	1252.75
269.841	1276.75
270.073	1365.75
270.306	1565.75
270.538	2128.75
270.77	3218.75
271.002	3841.75
271.234	2750.75
271.466	1819.75
271.698	1509.75
271.93	1389.75
272.162	1310.75
272.394	1249.75
272.626	1221.75
272.858	1226.75
273.09	1234.75
273.322	1199.75
273.553	1185.75
273.785	1186.75
274.017	1191.75
274.249	1200.75
274.481	1196.75
274.713	1188.75
274.945	1208.75
275.176	1244.75
275.408	1194.75
275.64	1191.75
275.872	1214.75
276.104	1281.75
276.335	1276.75
276.567	1255.75
276.799	1255.75
277.031	1303.75
277.262	1346.75
277.494	1383.75
277.726	1584.75
277.957	1888.75
278.189	2171.75
278.421	1990.75
278.652	1762.75
278.884	1656.75
279.115	1506.75
279.347	1428.75
279.579	1379.75
279.81	1349.75
280.042	1345.75
280.273	1393.75
280.505	1406.75
280.736	1461.75
280.968	1562.75
281.199	1790.75
281.431	2080.75
281.662	2094.75
281.894	1789.75
282.125	1643.75
282.356	1628.75
282.588	1644.75
282.819	1682.75
283.051	1807.75
283.282	1972.75
283.513	2431.75
283.745	3604.75
283.976	5630.75
284.207	8046.75
284.439	7208.75
284.67	4540.75
284.901	3719.75
285.132	3735.75
285.364	3573.75
285.595	2695.75
285.826	2404.75
286.057	2853.75
286.288	3886.75
286.52	5153.75
286.751	4895.75
286.982	3014.75
287.213	2230.75
287.444	1969.75
287.675	1836.75
287.906	1772.75
288.138	1691.75
288.369	1678.75
288.6	1664.75
288.831	1682.75
289.062	1677.75
289.293	1664.75
289.524	1686.75
289.755	1711.75
289.986	1706.75
290.217	1697.75
290.448	1714.75
290.679	1709.75
290.91	1744.75
291.141	1898.75
291.371	2034.75
291.602	2193.75
291.833	1952.75
292.064	1761.75
292.295	1679.75
292.526	1672.75
292.757	1648.75
292.987	1568.75
293.218	1551.75
293.449	1601.75
293.68	1574.75
293.91	1595.75
294.141	1596.75
294.372	1531.75
294.603	1568.75
294.833	1539.75
295.064	1534.75
295.295	1537.75
295.525	1563.75
295.756	1567.75
295.987	1512.75
296.217	1582.75
296.448	1584.75
296.679	1599.75
296.909	1556.75
297.14	1618.75
297.37	1594.75
297.601	1630.75
297.831	1632.75
298.062	1600.75
298.292	1635.75
298.523	1675.75
298.753	1675.75
298.984	1735.75
299.214	1713.75
299.445	1696.75
299.675	1725.75
299.905	1800.75
300.136	1914.75
300.366	2137.75
300.597	2741.75
300.827	3788.75
301.057	5247.75
301.288	5213.75
301.518	3390.75
301.748	2555.75
301.979	2309.75
302.209	2265.75
302.439	2293.75
302.669	2500.75
302.9	2946.75
303.13	4200.75
303.36	6198.75
303.59	8256.75
303.82	7103.75
304.051	4233.75
304.281	3014.75
304.511	2513.75
304.741	2322.75
304.971	2176.75
305.201	2044.75
305.431	2002.75
305.661	1946.75
305.891	1912.75
306.121	1842.75
306.352	1865.75
306.582	1825.75
306.812	1829.75
307.042	1838.75
307.272	1831.75
307.502	1859.75
307.731	1818.75
307.961	1775.75
308.191	1837.75
308.421	1816.75
308.651	1799.75
308.881	1809.75
309.111	1798.75
309.341	1825.75
309.571	1823.75
309.8	1826.75
310.03	1859.75
310.26	1892.75
310.49	1824.75
310.72	1867.75
310.949	1892.75
311.179	1898.75
311.409	1902.75
311.639	1932.75
311.868	1910.75
312.098	1962.75
312.328	1982.75
312.557	1959.75
312.787	1990.75
313.017	1994.75
313.246	1983.75
313.476	2042.75
313.706	2075.75
313.935	2215.75
314.165	2381.75
314.394	2482.75
314.624	2392.75
314.853	2151.75
315.083	2132.75
315.312	2189.75
315.542	2196.75
315.771	2189.75
316.001	2267.75
316.23	2327.75
316.46	2401.75
316.689	2713.75
316.919	3214.75
317.148	4634.75
317.377	7104.75
317.607	10359.75
317.836	10678.75
318.065	6474.75
318.295	4250.75
318.524	3376.75
318.753	2930.75
318.983	2700.75
319.212	2590.75
319.441	2470.75
319.67	2443.75
319.9	2368.75
320.129	2354.75
320.358	2336.75
320.587	2307.75
320.816	2314.75
321.046	2336.75
321.275	2339.75
321.504	2360.75
321.733	2430.75
321.962	2502.75
322.191	2546.75
322.42	2463.75
322.649	2462.75
322.878	2491.75
323.108	2485.75
323.337	2532.75
323.566	2548.75
323.795	2571.75
324.024	2665.75
324.253	2688.75
324.482	2845.75
324.71	3032.75
324.939	3238.75
325.168	3244.75
325.397	3376.75
325.626	4058.75
325.855	5586.75
326.084	8687.75
326.313	12658.75
326.542	13393.75
326.77	8924.75
326.999	5884.75
327.228	4883.75
327.457	4636.75
327.686	4703.75
327.914	4996.75
328.143	5807.75
328.372	6825.75
328.6	7410.75
328.829	6721.75
329.058	5652.75
329.287	5008.75
329.515	4526.75
329.744	4183.75
329.972	4015.75
330.201	3869.75
330.43	3683.75
330.658	3638.75
330.887	3585.75
331.115	3404.75
331.344	3473.75
331.572	3394.75
331.801	3431.75
332.03	3505.75
332.258	3531.75
332.486	3751.75
332.715	4288.75
332.943	5333.75
333.172	6527.75
333.4	6529.75
333.629	4928.75
333.857	4481.75
334.085	4462.75
334.314	4610.75
334.542	5060.75
334.771	5868.75
334.999	7214.75
335.227	8964.75
335.455	9948.75
335.684	9065.75
335.912	7477.75
336.14	6328.75
336.369	5623.75
336.597	5084.75
336.825	4692.75
337.053	4477.75
337.281	4197.75
337.51	4064.75
337.738	3816.75
337.966	3744.75
338.194	3542.75
338.422	3462.75
338.65	3377.75
338.878	3304.75
339.106	3237.75
339.334	3215.75
339.562	3132.75
339.79	3084.75
340.018	3118.75
340.246	3018.75
340.474	3030.75
340.702	3016.75
340.93	3035.75
341.158	3022.75
341.386	2973.75
341.614	2979.75
341.842	2904.75
342.07	2798.75
342.298	2827.75
342.526	2775.75
342.754	2735.75
342.981	2708.75
343.209	2713.75
343.437	2717.75
343.665	2718.75
343.893	2814.75
344.12	2756.75
344.348	2793.75
344.576	2756.75
344.804	2706.75
345.031	2664.75
345.259	2590.75
345.487	2585.75
345.714	2582.75
345.942	2546.75
346.17	2526.75
346.397	2513.75
346.625	2510.75
346.853	2506.75
347.08	2513.75
347.308	2445.75
347.535	2540.75
347.763	2477.75
347.99	2506.75
348.218	2518.75
348.445	2474.75
348.673	2470.75
348.9	2480.75
349.128	2473.75
349.355	2478.75
349.583	2434.75
349.81	2415.75
350.037	2415.75
350.265	2424.75
350.492	2400.75
350.72	2406.75
350.947	2399.75
351.174	2397.75
351.402	2400.75
351.629	2407.75
351.856	2393.75
352.083	2384.75
352.311	2386.75
352.538	2388.75
352.765	2371.75
352.992	2366.75
353.22	2363.75
353.447	2384.75
353.674	2359.75
353.901	2355.75
354.128	2443.75
354.355	2339.75
354.583	2418.75
354.81	2375.75
355.037	2418.75
355.264	2421.75
355.491	2461.75
355.718	2453.75
355.945	2464.75
356.172	2490.75
356.399	2467.75
356.626	2506.75
356.853	2498.75
357.08	2488.75
357.307	2546.75
357.534	2586.75
357.761	2563.75
357.988	2582.75
358.215	2533.75
358.441	2562.75
358.668	2541.75
358.895	2553.75
359.122	2496.75
359.349	2525.75
359.576	2543.75
359.802	2527.75
360.029	2534.75
360.256	2533.75
360.483	2512.75
360.709	2550.75
360.936	2552.75
361.163	2551.75
361.39	2531.75
361.616	2578.75
361.843	2559.75
362.07	2610.75
362.296	2542.75
362.523	2529.75
362.749	2546.75
362.976	2534.75
363.203	2592.75
363.429	2526.75
363.656	2518.75
363.882	2518.75
364.109	2498.75
364.335	2530.75
364.562	2540.75
364.788	2516.75
365.015	2572.75
365.241	2643.75
365.468	2808.75
365.694	2944.75
365.92	2815.75
366.147	2590.75
366.373	2614.75
366.599	2629.75
366.826	2622.75
367.052	2573.75
367.278	2626.75
367.505	2604.75
367.731	2592.75
367.957	2574.75
368.184	2653.75
368.41	2679.75
368.636	2628.75
368.862	2668.75
369.089	2665.75
369.315	2692.75
369.541	2655.75
369.767	2607.75
369.993	2652.75
370.219	2627.75
370.445	2645.75
370.672	2680.75
370.898	2692.75
371.124	2674.75
371.35	2736.75
371.576	2687.75
371.802	2722.75
372.028	2764.75
372.254	2741.75
372.48	2824.75
372.706	2836.75
372.932	2797.75
373.158	2792.75
373.384	2814.75
373.61	2764.75
373.835	2775.75
374.061	2815.75
374.287	2867.75
374.513	2871.75
374.739	2940.75
374.965	2924.75
375.191	2873.75
375.416	2872.75
375.642	2864.75
375.868	2842.75
376.094	2797.75
376.319	2808.75
376.545	2794.75
376.771	2811.75
376.997	2712.75
377.222	2721.75
377.448	2726.75
377.674	2751.75
377.899	2699.75
378.125	2699.75
378.35	2721.75
378.576	2717.75
378.802	2773.75
379.027	2832.75
379.253	2901.75
379.478	3047.75
379.704	3569.75
379.929	5175.75
380.155	7950.75
380.38	8846.75
380.606	5294.75
380.831	3709.75
381.057	3244.75
381.282	2962.75
381.507	2866.75
381.733	2829.75
381.958	2766.75
382.184	2706.75
382.409	2715.75
382.634	2681.75
382.86	2692.75
383.085	2661.75
383.31	2694.75
383.535	2703.75
383.761	2665.75
383.986	2696.75
384.211	2766.75
384.436	2786.75
384.662	2735.75
384.887	2791.75
385.112	2830.75
385.337	2788.75
385.562	2746.75
385.787	2802.75
386.013	2789.75
386.238	2788.75
386.463	2762.75
386.688	2820.75
386.913	2780.75
387.138	2787.75
387.363	2831.75
387.588	2759.75
387.813	2726.75
388.038	2758.75
388.263	2844.75
388.488	2750.75
388.713	2784.75
388.938	2769.75
389.163	2810.75
389.387	2755.75
389.612	2718.75
389.837	2785.75
390.062	2750.75
390.287	2808.75
390.512	2767.75
390.736	2843.75
390.961	2905.75
391.186	2931.75
391.411	2886.75
391.636	2899.75
391.86	2966.75
392.085	2874.75
392.31	2940.75
392.534	2857.75
392.759	2898.75
392.984	2862.75
393.208	2838.75
393.433	2871.75
393.658	2886.75
393.882	2826.75
394.107	2785.75
394.331	2852.75
394.556	2832.75
394.78	2793.75
395.005	2826.75
395.229	2852.75
395.454	2929.75
395.678	2810.75
395.903	2892.75
396.127	2924.75
396.352	2906.75
396.576	2818.75
396.801	2823.75
397.025	2920.75
397.249	2917.75
397.474	2930.75
397.698	2937.75
397.922	2951.75
398.147	2916.75
398.371	3012.75
398.595	3007.75
398.82	3079.75
399.044	3171.75
399.268	3298.75
399.492	3561.75
399.717	3666.75
399.941	3694.75
400.165	3525.75
400.389	3419.75
400.613	3271.75
400.837	3184.75
401.062	3121.75
401.286	3067.75
401.51	3075.75
401.734	2993.75
401.958	3106.75
402.182	3063.75
402.406	3040.75
402.63	3110.75
402.854	3097.75
403.078	3099.75
403.302	3151.75
403.526	3148.75
403.75	3131.75
403.974	3121.75
404.198	3183.75
404.422	3200.75
404.645	3159.75
404.869	3151.75
405.093	3183.75
405.317	3182.75
405.541	3194.75
405.765	3269.75
405.988	3305.75
406.212	3357.75
406.436	3276.75
406.66	3292.75
406.883	3318.75
407.107	3424.75
407.331	3436.75
407.555	3522.75
407.778	3378.75
408.002	3349.75
408.226	3414.75
408.449	3392.75
408.673	3362.75
408.896	3301.75
409.12	3244.75
409.344	3200.75
409.567	3177.75
409.791	3179.75
410.014	3175.75
410.238	3150.75
410.461	3181.75
410.685	3145.75
410.908	3100.75
411.132	3182.75
411.355	3081.75
411.578	3089.75
411.802	3075.75
412.025	3098.75
412.249	3031.75
412.472	3029.75
412.695	3020.75
412.919	3006.75
413.142	3003.75
413.365	3045.75
413.589	3018.75
413.812	2956.75
414.035	2980.75
414.258	3032.75
414.482	2983.75
414.705	3022.75
414.928	2992.75
415.151	2958.75
415.374	2920.75
415.597	2984.75
415.821	2912.75
416.044	2850.75
416.267	2928.75
416.49	2853.75
416.713	2904.75
416.936	2838.75
417.159	2884.75
417.382	2837.75
417.605	2848.75
417.828	2880.75
418.051	2841.75
418.274	2892.75
418.497	2879.75
418.72	2979.75
418.943	2966.75
419.166	3055.75
419.389	3185.75
419.611	3186.75
419.834	3072.75
420.057	3025.75
420.28	2944.75
420.503	2898.75
420.726	2886.75
420.948	2896.75
421.171	2929.75
421.394	2903.75
421.617	2862.75
421.839	2889.75
422.062	2916.75
422.285	2855.75
422.507	2990.75
422.73	2906.75
422.953	2985.75
423.175	3028.75
423.398	2983.75
423.621	2836.75
423.843	2870.75
424.066	2902.75
424.288	2838.75
424.511	2896.75
424.733	2862.75
424.956	2832.75
425.178	2845.75
425.401	2841.75
425.623	2830.75
425.846	2734.75
426.068	2806.75
426.291	2845.75
426.513	2749.75
426.735	2745.75
426.958	2810.75
427.18	2743.75
427.402	2749.75
427.625	2740.75
427.847	2654.75
428.069	2622.75
428.292	2657.75
428.514	2674.75
428.736	2680.75
428.958	2704.75
429.181	2616.75
429.403	2610.75
429.625	2669.75
429.847	2648.75
430.069	2735.75
430.292	2750.75
430.514	2856.75
430.736	2856.75
430.958	2731.75
431.18	2680.75
431.402	2634.75
431.624	2577.75
431.846	2640.75
432.068	2591.75
432.29	2618.75
432.512	2605.75
432.734	2676.75
432.956	2611.75
433.178	2634.75
433.4	2589.75
433.622	2658.75
433.844	2668.75
434.066	2645.75
434.287	2628.75
434.509	2685.75
434.731	2739.75
434.953	2744.75
435.175	2790.75
435.397	2749.75
435.618	2710.75
435.84	2644.75
436.062	2638.75
436.284	2653.75
436.505	2624.75
436.727	2615.75
436.949	2600.75
437.17	2614.75
437.392	2556.75
437.614	2595.75
437.835	2515.75
438.057	2564.75
438.278	2530.75
438.5	2563.75
438.721	2624.75
438.943	2663.75
439.165	2709.75
439.386	2776.75
439.608	2776.75
439.829	2759.75
440.05	2806.75
440.272	2876.75
440.493	2741.75
440.715	2705.75
440.936	2744.75
441.158	2723.75
441.379	2765.75
441.6	2894.75
441.822	2942.75
442.043	3126.75
442.264	3143.75
442.486	2975.75
442.707	2846.75
442.928	2848.75
443.149	2830.75
443.371	2813.75
443.592	2832.75
443.813	2838.75
444.034	2833.75
444.255	2880.75
444.476	2916.75
444.698	3020.75
444.919	3087.75
445.14	3068.75
445.361	2943.75
445.582	2870.75
445.803	2828.75
446.024	2797.75
446.245	2791.75
446.466	2793.75
446.687	2754.75
446.908	2756.75
447.129	2643.75
447.35	2642.75
447.571	2710.75
447.792	2578.75
448.013	2641.75
448.234	2570.75
448.455	2576.75
448.675	2637.75
448.896	2704.75
449.117	2770.75
449.338	2982.75
449.559	3057.75
449.779	2816.75
450	2652.75
450.221	2576.75
450.442	2550.75
450.662	2529.75
450.883	2540.75
451.104	2524.75
451.324	2554.75
451.545	2571.75
451.766	2581.75
451.986	2598.75
452.207	2820.75
452.428	3654.75
452.648	5635.75
452.869	4629.75
453.089	3202.75
453.31	2896.75
453.53	2895.75
453.751	3059.75
453.971	3151.75
454.192	3054.75
454.412	2682.75
454.633	2590.75
454.853	2483.75
455.073	2446.75
455.294	2450.75
455.514	2396.75
455.734	2420.75
455.955	2402.75
456.175	2422.75
456.395	2404.75
456.616	2444.75
456.836	2473.75
457.056	2454.75
457.276	2460.75
457.497	2638.75
457.717	2611.75
457.937	2563.75
458.157	2577.75
458.377	2584.75
458.598	2588.75
458.818	2598.75
459.038	2628.75
459.258	2635.75
459.478	2681.75
459.698	2639.75
459.918	2691.75
460.138	2723.75
460.358	2812.75
460.578	2864.75
460.798	2856.75
461.018	2869.75
461.238	2907.75
461.458	2861.75
461.678	2933.75
461.898	2981.75
462.118	2992.75
462.338	3047.75
462.558	3109.75
462.777	3129.75
462.997	3295.75
463.217	3366.75
463.437	3506.75
463.657	3530.75
463.876	3527.75
464.096	3397.75
464.316	3166.75
464.536	3175.75
464.755	3078.75
464.975	3043.75
465.195	2901.75
465.414	2894.75
465.634	2772.75
465.854	2720.75
466.073	2640.75
466.293	2696.75
466.512	2672.75
466.732	2688.75
466.951	2812.75
467.171	2969.75
467.391	2930.75
467.61	2706.75
467.829	2596.75
468.049	2610.75
468.268	2565.75
468.488	2535.75
468.707	2552.75
468.927	2527.75
469.146	2513.75
469.365	2602.75
469.585	2592.75
469.804	2684.75
470.023	2724.75
470.243	2739.75
470.462	2910.75
470.681	3015.75
470.901	3236.75
471.12	3786.75
471.339	3729.75
471.558	3170.75
471.777	2875.75
471.997	2773.75
472.216	2710.75
472.435	2631.75
472.654	2634.75
472.873	2562.75
473.092	2614.75
473.311	2590.75
473.53	2640.75
473.749	2700.75
473.968	2744.75
474.187	2632.75
474.406	2584.75
474.625	2610.75
474.844	2614.75
475.063	2591.75
475.282	2608.75
475.501	2640.75
475.72	2607.75
475.939	2669.75
476.158	2744.75
476.377	2799.75
476.596	2722.75
476.814	2753.75
477.033	2737.75
477.252	2783.75
477.471	2848.75
477.69	2880.75
477.908	2925.75
478.127	2954.75
478.346	2929.75
478.564	2967.75
478.783	3038.75
479.002	3046.75
479.22	3074.75
479.439	3116.75
479.658	3080.75
479.876	3145.75
480.095	3172.75
480.313	3225.75
480.532	3265.75
480.751	3235.75
480.969	3142.75
481.188	3139.75
481.406	3162.75
481.624	3197.75
481.843	3160.75
482.061	3233.75
482.28	3184.75
482.498	3164.75
482.717	3186.75
482.935	3145.75
483.153	3239.75
483.372	3295.75
483.59	3311.75
483.808	3290.75
484.027	3446.75
484.245	3668.75
484.463	4062.75
484.681	4460.75
484.9	4068.75
485.118	3795.75
485.336	3692.75
485.554	3809.75
485.772	4007.75
485.99	4554.75
486.209	4820.75
486.427	4136.75
486.645	3666.75
486.863	3515.75
487.081	3444.75
487.299	3357.75
487.517	3355.75
487.735	3375.75
487.953	3405.75
488.171	3361.75
488.389	3330.75
488.607	3271.75
488.825	3274.75
489.043	3238.75
489.261	3247.75
489.479	3281.75
489.696	3252.75
489.914	3245.75
490.132	3311.75
490.35	3271.75
490.568	3365.75
490.786	3319.75
491.003	3326.75
491.221	3356.75
491.439	3440.75
491.657	3356.75
491.874	3418.75
492.092	3378.75
492.31	3423.75
492.527	3367.75
492.745	3417.75
492.963	3384.75
493.18	3385.75
493.398	3405.75
493.615	3374.75
493.833	3392.75
494.05	3439.75
494.268	3441.75
494.485	3438.75
494.703	3365.75
494.92	3413.75
495.138	3440.75
495.355	3408.75
495.573	3399.75
495.79	3452.75
496.008	3484.75
496.225	3471.75
496.442	3561.75
496.66	3645.75
496.877	3888.75
497.094	3837.75
497.312	3648.75
497.529	3710.75
497.746	3673.75
497.963	3795.75
498.181	3912.75
498.398	3911.75
498.615	4137.75
498.832	4263.75
499.049	4517.75
499.267	4778.75
499.484	5062.75
499.701	5046.75
499.918	5135.75
500.135	5472.75
500.352	5736.75
500.569	5868.75
500.786	5756.75
501.003	5500.75
501.22	5325.75
501.437	5035.75
501.654	4806.75
501.871	4590.75
502.088	4434.75
502.305	4259.75
502.522	4077.75
502.739	4032.75
502.956	3864.75
503.172	3786.75
503.389	3712.75
503.606	3581.75
503.823	3574.75
504.04	3571.75
504.256	3620.75
504.473	3573.75
504.69	3602.75
504.907	3537.75
505.123	3465.75
505.34	3397.75
505.557	3271.75
505.773	3230.75
505.99	3249.75
506.207	3151.75
506.423	3183.75
506.64	3137.75
506.856	3080.75
507.073	3078.75
507.289	3010.75
507.506	3022.75
507.722	2991.75
507.939	3038.75
508.155	3008.75
508.372	3008.75
508.588	2982.75
508.805	2942.75
509.021	2988.75
509.238	2997.75
509.454	3186.75
509.67	3378.75
509.887	3106.75
510.103	3031.75
510.319	2939.75
510.536	2991.75
510.752	2890.75
510.968	2898.75
511.184	2832.75
511.401	2844.75
511.617	2871.75
511.833	2870.75
512.049	2822.75
512.265	2858.75
512.481	2828.75
512.698	2821.75
512.914	2842.75
513.13	2841.75
513.346	2799.75
513.562	2816.75
513.778	2904.75
513.994	2883.75
514.21	2989.75
514.426	3139.75
514.642	3264.75
514.858	3039.75
515.074	2971.75
515.29	2889.75
515.506	2881.75
515.721	2877.75
515.937	2934.75
516.153	2893.75
516.369	2999.75
516.585	3022.75
516.801	2994.75
517.016	3085.75
517.232	3184.75
517.448	3192.75
517.664	3217.75
517.879	3283.75
518.095	3250.75
518.311	3172.75
518.527	3145.75
518.742	3172.75
518.958	3201.75
519.173	3260.75
519.389	3088.75
519.605	3015.75
519.82	2940.75
520.036	2930.75
520.251	2865.75
520.467	2921.75
520.682	2845.75
520.898	2787.75
521.113	2769.75
521.329	2755.75
521.544	2804.75
521.76	2800.75
521.975	2811.75
522.19	2782.75
522.406	2769.75
522.621	2773.75
522.836	2709.75
523.052	2741.75
523.267	2753.75
523.482	2684.75
523.698	2729.75
523.913	2710.75
524.128	2711.75
524.343	2701.75
524.559	2708.75
524.774	2688.75
524.989	2681.75
525.204	2709.75
525.419	2739.75
525.634	2626.75
525.849	2697.75
526.064	2708.75
526.28	2669.75
526.495	2706.75
526.71	2679.75
526.925	2694.75
527.14	2682.75
527.355	2690.75
527.57	2726.75
527.785	2752.75
527.999	2752.75
528.214	2773.75
528.429	2790.75
528.644	2815.75
528.859	2830.75
529.074	2931.75
529.289	2864.75
529.503	2924.75
529.718	2908.75
529.933	2929.75
530.148	2844.75
530.363	2849.75
530.577	2848.75
530.792	2883.75
531.007	2902.75
531.221	2920.75
531.436	2959.75
531.651	3052.75
531.865	3018.75
532.08	3049.75
532.295	3105.75
532.509	3354.75
532.724	3365.75
532.938	3331.75
533.153	3465.75
533.367	3708.75
533.582	4007.75
533.796	3871.75
534.011	3656.75
534.225	3538.75
534.44	3381.75
534.654	3366.75
534.868	3290.75
535.083	3265.75
535.297	3217.75
535.511	3105.75
535.726	3058.75
535.94	3043.75
536.154	2972.75
536.369	2947.75
536.583	2869.75
536.797	2888.75
537.011	2837.75
537.225	2798.75
537.44	2824.75
537.654	2793.75
537.868	2751.75
538.082	2684.75
538.296	2677.75
538.51	2703.75
538.724	2744.75
538.938	2680.75
539.153	2675.75
539.367	2632.75
539.581	2606.75
539.795	2612.75
540.009	2554.75
540.222	2616.75
540.436	2595.75
540.65	2614.75
540.864	2602.75
541.078	2703.75
541.292	2841.75
541.506	3312.75
541.72	3444.75
541.934	3047.75
542.147	2880.75
542.361	2720.75
542.575	2617.75
542.789	2563.75
543.002	2558.75
543.216	2551.75
543.43	2482.75
543.644	2448.75
543.857	2518.75
544.071	2510.75
544.285	2546.75
544.498	2540.75
544.712	2518.75
544.925	2545.75
545.139	2512.75
545.352	2559.75
545.566	2517.75
545.779	2521.75
545.993	2570.75
546.206	2566.75
546.42	2516.75
546.633	2569.75
546.847	2523.75
547.06	2542.75
547.274	2605.75
547.487	2553.75
547.7	2553.75
547.914	2556.75
548.127	2559.75
548.34	2545.75
548.554	2478.75
548.767	2533.75
548.98	2540.75
549.193	2521.75
549.407	2543.75
549.62	2533.75
549.833	2505.75
550.046	2570.75
550.259	2567.75
550.473	2541.75
550.686	2570.75
550.899	2566.75
551.112	2553.75
551.325	2560.75
551.538	2537.75
551.751	2509.75
551.964	2519.75
552.177	2563.75
552.39	2574.75
552.603	2704.75
552.816	2669.75
553.029	2725.75
553.242	2780.75
553.455	2753.75
553.667	2805.75
553.88	2852.75
554.093	2841.75
554.306	2868.75
554.519	2864.75
554.732	2916.75
554.944	2968.75
555.157	3005.75
555.37	3124.75
555.583	3193.75
555.795	3388.75
556.008	3599.75
556.221	4014.75
556.433	4345.75
556.646	4309.75
556.859	4095.75
557.071	3979.75
557.284	3872.75
557.496	3728.75
557.709	3688.75
557.921	3642.75
558.134	3573.75
558.346	3656.75
558.559	3761.75
558.771	3949.75
558.984	4302.75
559.196	4644.75
559.409	4473.75
559.621	4135.75
559.833	3879.75
560.046	3707.75
560.258	3434.75
560.47	3248.75
560.683	3175.75
560.895	3068.75
561.107	2964.75
561.32	2860.75
561.532	2826.75
561.744	2752.75
561.956	2712.75
562.168	2686.75
562.381	2598.75
562.593	2594.75
562.805	2658.75
563.017	2689.75
563.229	2748.75
563.441	3239.75
563.653	2644.75
563.865	2494.75
564.077	2393.75
564.289	2373.75
564.501	2337.75
564.713	2368.75
564.925	2338.75
565.137	2350.75
565.349	2322.75
565.561	2360.75
565.773	2401.75
565.985	2408.75
566.197	2413.75
566.408	2440.75
566.62	2523.75
566.832	2532.75
567.044	2588.75
567.255	2624.75
567.467	2685.75
567.679	2686.75
567.891	2844.75
568.102	3155.75
568.314	3572.75
568.526	3138.75
568.737	2681.75
568.949	2459.75
569.161	2308.75
569.372	2220.75
569.584	2152.75
569.795	2166.75
570.007	2108.75
570.218	2176.75
570.43	2258.75
570.641	2040.75
570.853	2017.75
571.064	1965.75
571.276	1986.75
571.487	1884.75
571.698	1889.75
571.91	1859.75
572.121	1835.75
572.333	1858.75
572.544	1838.75
572.755	1981.75
572.966	2362.75
573.178	2087.75
573.389	1923.75
573.6	1811.75
573.811	1749.75
574.023	1763.75
574.234	1775.75
574.445	1732.75
574.656	1729.75
574.867	1702.75
575.078	1727.75
575.289	1719.75
575.501	1682.75
575.712	1684.75
575.923	1679.75
576.134	1709.75
576.345	1683.75
576.556	1700.75
576.767	1716.75
576.978	1697.75
577.188	1692.75
577.399	1742.75
577.61	1704.75
577.821	1741.75
578.032	1734.75
578.243	1803.75
578.454	1790.75
578.665	1873.75
578.875	1878.75
579.086	1922.75
579.297	2022.75
579.508	2168.75
579.718	2343.75
579.929	2687.75
580.14	3128.75
580.35	3176.75
580.561	2920.75
580.772	2668.75
580.982	2464.75
581.193	2262.75
581.403	2155.75
581.614	2046.75
581.825	1929.75
582.035	1912.75
582.246	1836.75
582.456	1842.75
582.667	1736.75
582.877	1769.75
583.087	1718.75
583.298	1630.75
583.508	1566.75
583.719	1548.75
583.929	1501.75
584.139	1496.75
584.35	1467.75
584.56	1448.75
584.77	1460.75
584.981	1433.75
585.191	1381.75
585.401	1368.75
585.611	1334.75
585.821	1359.75
586.032	1341.75
586.242	1345.75
586.452	1310.75
586.662	1305.75
586.872	1287.75
587.082	1276.75
587.292	1293.75
587.502	1280.75
587.713	1235.75
587.923	1270.75
588.133	1246.75
588.343	1231.75
588.553	1241.75
588.762	1224.75
588.972	1209.75
589.182	1234.75
589.392	1226.75
589.602	1200.75
589.812	1237.75
590.022	1208.75
590.232	1208.75
590.441	1197.75
590.651	1206.75
590.861	1163.75
591.071	1162.75
591.281	1186.75
591.49	1193.75
591.7	1227.75
591.91	1166.75
592.119	1166.75
592.329	1175.75
592.539	1193.75
592.748	1215.75
592.958	1182.75
593.167	1206.75
593.377	1217.75
593.587	1233.75
593.796	1220.75
594.006	1238.75
594.215	1235.75
594.424	1212.75
594.634	1176.75
594.843	1152.75
595.053	1148.75
595.262	1156.75
595.472	1114.75
595.681	1113.75
595.89	1127.75
596.1	1078.75
596.309	1068.75
596.518	1072.75
596.727	1069.75
596.937	1020.75
597.146	1015.75
597.355	1032.75
597.564	1018.75
597.774	1016.75
597.983	985.75
598.192	975.75
598.401	956.75
598.61	975.75
598.819	958.75
599.028	948.75
599.237	991.75
599.446	969.75
599.655	965.75
599.864	983.75
600.073	932.75
600.282	966.75
600.491	928.75
600.7	952.75
600.909	938.75
601.118	932.75
601.327	948.75
601.536	935.75
601.745	966.75
601.953	1094.75
602.162	1202.75
602.371	1032.75
602.58	988.75
602.789	941.75
602.997	932.75
603.206	952.75
603.415	934.75
603.623	914.75
603.832	926.75
604.041	934.75
604.249	911.75
604.458	887.75
604.666	899.75
604.875	885.75
605.084	891.75
605.292	887.75
605.501	930.75
605.709	865.75
605.918	899.75
606.126	910.75
606.334	904.75
606.543	940.75
606.751	1012.75
606.96	1113.75
607.168	1203.75
607.376	1055.75
607.585	969.75
607.793	947.75
608.001	892.75
608.21	885.75
608.418	898.75
608.626	885.75
608.834	878.75
609.043	873.75
609.251	853.75
609.459	828.75
609.667	829.75
609.875	846.75
610.083	834.75
610.291	840.75
610.499	835.75
610.707	831.75
610.916	814.75
611.124	826.75
611.332	802.75
611.54	820.75
611.748	791.75
611.955	800.75
612.163	808.75
612.371	795.75
612.579	801.75
612.787	773.75
612.995	793.75
613.203	777.75
613.411	798.75
613.618	791.75
613.826	790.75
614.034	782.75
614.242	790.75
614.449	791.75
614.657	787.75
614.865	774.75
615.072	803.75
615.28	831.75
615.488	761.75
615.695	785.75
615.903	790.75
616.111	776.75
616.318	778.75
616.526	803.75
616.733	780.75
616.941	774.75
617.148	775.75
617.356	755.75
617.563	766.75
617.771	740.75
617.978	727.75
618.185	759.75
618.393	766.75
618.6	758.75
618.807	758.75
619.015	752.75
619.222	719.75
619.429	742.75
619.637	709.75
619.844	701.75
620.051	699.75
620.258	701.75
620.466	701.75
620.673	684.75
620.88	697.75
621.087	695.75
621.294	689.75
621.501	673.75
621.708	708.75
621.915	691.75
622.122	690.75
622.329	690.75
622.536	717.75
622.743	708.75
622.95	702.75
623.157	702.75
623.364	688.75
623.571	721.75
623.778	692.75
623.985	668.75
624.192	651.75
624.399	665.75
624.606	649.75
624.812	657.75
625.019	673.75
625.226	662.75
625.433	638.75
625.639	649.75
625.846	632.75
626.053	656.75
626.259	625.75
626.466	646.75
626.673	627.75
626.879	622.75
627.086	615.75
627.293	642.75
627.499	633.75
627.706	641.75
627.912	633.75
628.119	611.75
628.325	641.75
628.532	632.75
628.738	643.75
628.945	595.75
629.151	598.75
629.357	610.75
629.564	619.75
629.77	592.75
629.976	598.75
630.183	635.75
630.389	612.75
630.595	626.75
630.802	612.75
631.008	572.75
631.214	574.75
631.42	573.75
631.627	606.75
631.833	587.75
632.039	588.75
632.245	586.75
632.451	580.75
632.657	613.75
632.863	581.75
633.069	585.75
633.275	584.75
633.481	605.75
633.688	557.75
633.893	559.75
634.099	592.75
634.305	596.75
634.511	586.75
634.717	598.75
634.923	614.75
635.129	707.75
635.335	771.75
635.541	679.75
635.747	626.75
635.952	608.75
636.158	592.75
636.364	591.75
636.57	594.75
636.775	608.75
636.981	576.75
637.187	553.75
637.392	584.75
637.598	584.75
637.804	587.75
638.009	592.75
638.215	583.75
638.421	570.75
638.626	578.75
638.832	566.75
639.037	601.75
639.243	594.75
639.448	585.75
639.654	595.75
639.859	594.75
640.065	597.75
640.27	582.75
640.475	597.75
640.681	593.75
640.886	603.75
641.091	616.75
641.297	610.75
641.502	609.75
641.707	614.75
641.913	629.75
642.118	638.75
642.323	639.75
642.528	688.75
642.733	693.75
642.939	702.75
643.144	728.75
643.349	756.75
643.554	787.75
643.759	797.75
643.964	830.75
644.169	871.75
644.374	927.75
644.579	1000.75
644.784	1082.75
644.989	1257.75
645.194	1454.75
645.399	1826.75
645.604	1958.75
645.809	1433.75
646.014	1111.75
646.219	928.75
646.423	816.75
646.628	747.75
646.833	711.75
647.038	670.75
647.243	656.75
647.447	609.75
647.652	601.75
647.857	593.75
648.062	592.75
648.266	565.75
648.471	560.75
648.676	546.75
648.88	557.75
649.085	549.75
649.289	535.75
649.494	515.75
649.698	517.75
649.903	483.75
650.107	468.75
650.312	496.75
650.516	470.75
650.721	436.75
650.925	452.75
651.13	437.75
651.334	432.75
651.539	441.75
651.743	424.75
651.947	423.75
652.152	423.75
652.356	411.75
652.56	422.75
652.764	501.75
652.969	453.75
653.173	409.75
653.377	392.75
653.581	372.75
653.785	370.75
653.99	368.75
654.194	350.75
654.398	358.75
654.602	364.75
654.806	346.75
655.01	356.75
655.214	359.75
655.418	353.75
655.622	362.75
655.826	360.75
656.03	367.75
656.234	380.75
656.438	391.75
656.642	381.75
656.846	366.75
657.049	355.75
657.253	319.75
657.457	284.75
657.661	294.75
657.865	288.75
658.068	258.75
658.272	258.75
658.476	252.75
658.68	226.75
658.883	221.75
659.087	207.75
659.291	199.75
659.494	184.75
659.698	192.75
659.901	165.75
660.105	174.75
660.309	166.75
660.512	160.75
660.716	165.75
660.919	137.75
661.123	152.75
661.326	124.75
661.53	136.75
661.733	124.75
661.936	127.75
662.14	125.75
662.343	112.75
662.546	108.75
662.75	121.75
662.953	86.75
663.156	95.75
663.36	96.75
663.563	86.75
663.766	84.75
663.969	97.75
664.173	87.75
664.376	101.75
664.579	94.75
664.782	92.75
664.985	85.75
665.188	95.75
665.391	84.75
665.594	85.75
665.797	92.75
666	88.75
666.203	72.75
666.406	85.75
666.609	81.75
666.812	75.75
667.015	87.75
667.218	85.75
667.421	96.75
667.624	74.75
667.827	76.75
668.03	74.75
668.232	74.75
668.435	83.75
668.638	85.75
668.841	84.75
669.043	82.75
669.246	76.75
669.449	71.75
669.651	75.75
669.854	70.75
670.057	84.75
670.259	88.75
670.462	91.75
670.665	92.75
670.867	80.75
671.07	78.75
671.272	93.75
671.475	84.75
671.677	80.75
671.88	82.75
672.082	82.75
672.284	87.75
672.487	86.75
672.689	74.75
672.892	74.75
