Data from SnStandardFlinnAPT0064_LampEnergy10_LIBS07252019.E.O._I.C._HRD10591_15-22-16-495.txt Node
Date: Thu Jul 25 15:22:16 EDT 2019
User: cochatt
Spectrometer: HR+D1059
Trigger mode: 1
Integration Time (sec): 1.000000E-1
Scans to average: 1
Electric dark correction enabled: true
Nonlinearity correction enabled: false
Boxcar width: 0
XAxis mode: Wavelengths
Number of Pixels in Spectrum: 2048
>>>>>Begin Spectral Data<<<<<
223.165	-10.94
223.4	-10.94
223.635	-10.94
223.869	-18.94
224.104	-13.94
224.338	-15.94
224.573	-18.94
224.808	-13.94
225.042	-5.94
225.277	-6.94
225.511	-4.94
225.746	4.06
225.98	2.06
226.215	11.06
226.449	7.06
226.683	20.06
226.918	23.06
227.152	43.06
227.387	34.06
227.621	44.06
227.856	38.06
228.09	53.06
228.324	47.06
228.559	73.06
228.793	119.06
229.027	308.06
229.262	356.06
229.496	284.06
229.73	271.06
229.964	290.06
230.199	295.06
230.433	298.06
230.667	308.06
230.901	315.06
231.136	335.06
231.37	369.06
231.604	394.06
231.838	457.06
232.072	518.06
232.306	582.06
232.541	481.06
232.775	400.06
233.009	404.06
233.243	421.06
233.477	456.06
233.711	506.06
233.945	582.06
234.179	518.06
234.413	463.06
234.647	429.06
234.881	463.06
235.115	529.06
235.349	618.06
235.583	743.06
235.817	985.06
236.051	993.06
236.285	642.06
236.519	516.06
236.753	503.06
236.987	497.06
237.221	538.06
237.455	493.06
237.689	460.06
237.922	441.06
238.156	445.06
238.39	470.06
238.624	475.06
238.858	461.06
239.091	488.06
239.325	485.06
239.559	478.06
239.793	505.06
240.027	504.06
240.26	540.06
240.494	575.06
240.728	558.06
240.961	609.06
241.195	658.06
241.429	675.06
241.662	705.06
241.896	783.06
242.13	917.06
242.363	1268.06
242.597	1642.06
242.83	1568.06
243.064	1492.06
243.298	1778.06
243.531	1525.06
243.765	976.06
243.998	781.06
244.232	681.06
244.465	658.06
244.699	646.06
244.932	656.06
245.166	665.06
245.399	674.06
245.633	690.06
245.866	680.06
246.099	658.06
246.333	647.06
246.566	639.06
246.8	640.06
247.033	629.06
247.266	636.06
247.5	628.06
247.733	665.06
247.966	712.06
248.2	764.06
248.433	877.06
248.666	974.06
248.899	937.06
249.133	853.06
249.366	892.06
249.599	932.06
249.832	1095.06
250.066	1085.06
250.299	850.06
250.532	770.06
250.765	746.06
250.998	750.06
251.231	749.06
251.465	736.06
251.698	734.06
251.931	713.06
252.164	745.06
252.397	751.06
252.63	800.06
252.863	783.06
253.096	762.06
253.329	790.06
253.562	777.06
253.795	797.06
254.028	800.06
254.261	832.06
254.494	861.06
254.727	1012.06
254.96	1254.06
255.193	1220.06
255.426	976.06
255.659	871.06
255.892	860.06
256.124	864.06
256.357	871.06
256.59	908.06
256.823	952.06
257.056	1127.06
257.289	1332.06
257.521	1497.06
257.754	1194.06
257.987	943.06
258.22	875.06
258.452	932.06
258.685	920.06
258.918	932.06
259.151	994.06
259.383	1055.06
259.616	1212.06
259.849	1276.06
260.081	1081.06
260.314	994.06
260.547	948.06
260.779	948.06
261.012	946.06
261.244	978.06
261.477	963.06
261.71	1002.06
261.942	1023.06
262.175	1003.06
262.407	1051.06
262.64	1051.06
262.872	1097.06
263.105	1169.06
263.337	1220.06
263.57	1262.06
263.802	1305.06
264.035	1340.06
264.267	1368.06
264.499	1424.06
264.732	1420.06
264.964	1434.06
265.197	1401.06
265.429	1425.06
265.661	1441.06
265.894	1595.06
266.126	1751.06
266.358	1965.06
266.591	1927.06
266.823	1622.06
267.055	1458.06
267.287	1392.06
267.52	1350.06
267.752	1302.06
267.984	1276.06
268.216	1280.06
268.448	1260.06
268.681	1250.06
268.913	1221.06
269.145	1291.06
269.377	1222.06
269.609	1236.06
269.841	1281.06
270.073	1354.06
270.306	1581.06
270.538	2190.06
270.77	3242.06
271.002	3974.06
271.234	2766.06
271.466	1849.06
271.698	1540.06
271.93	1400.06
272.162	1310.06
272.394	1268.06
272.626	1280.06
272.858	1198.06
273.09	1237.06
273.322	1198.06
273.553	1202.06
273.785	1191.06
274.017	1200.06
274.249	1216.06
274.481	1200.06
274.713	1217.06
274.945	1240.06
275.176	1198.06
275.408	1222.06
275.64	1219.06
275.872	1234.06
276.104	1236.06
276.335	1273.06
276.567	1268.06
276.799	1274.06
277.031	1307.06
277.262	1312.06
277.494	1374.06
277.726	1548.06
277.957	1858.06
278.189	2100.06
278.421	1962.06
278.652	1702.06
278.884	1676.06
279.115	1520.06
279.347	1405.06
279.579	1371.06
279.81	1400.06
280.042	1400.06
280.273	1439.06
280.505	1432.06
280.736	1480.06
280.968	1580.06
281.199	1811.06
281.431	2025.06
281.662	2134.06
281.894	1760.06
282.125	1614.06
282.356	1622.06
282.588	1631.06
282.819	1708.06
283.051	1814.06
283.282	1990.06
283.513	2491.06
283.745	3596.06
283.976	5730.06
284.207	8076.06
284.439	7295.06
284.67	4432.06
284.901	3701.06
285.132	3721.06
285.364	3563.06
285.595	2720.06
285.826	2400.06
286.057	2859.06
286.288	3959.06
286.52	5258.06
286.751	4925.06
286.982	3012.06
287.213	2248.06
287.444	1973.06
287.675	1874.06
287.906	1760.06
288.138	1728.06
288.369	1701.06
288.6	1672.06
288.831	1661.06
289.062	1677.06
289.293	1674.06
289.524	1687.06
289.755	1718.06
289.986	1738.06
290.217	1704.06
290.448	1700.06
290.679	1664.06
290.91	1814.06
291.141	1871.06
291.371	2008.06
291.602	2132.06
291.833	1958.06
292.064	1746.06
292.295	1660.06
292.526	1625.06
292.757	1603.06
292.987	1604.06
293.218	1566.06
293.449	1619.06
293.68	1584.06
293.91	1561.06
294.141	1581.06
294.372	1550.06
294.603	1551.06
294.833	1556.06
295.064	1542.06
295.295	1558.06
295.525	1572.06
295.756	1600.06
295.987	1508.06
296.217	1576.06
296.448	1564.06
296.679	1566.06
296.909	1590.06
297.14	1596.06
297.37	1665.06
297.601	1636.06
297.831	1640.06
298.062	1623.06
298.292	1657.06
298.523	1675.06
298.753	1665.06
298.984	1702.06
299.214	1718.06
299.445	1742.06
299.675	1777.06
299.905	1804.06
300.136	1889.06
300.366	2134.06
300.597	2720.06
300.827	3866.06
301.057	5274.06
301.288	5210.06
301.518	3320.06
301.748	2600.06
301.979	2349.06
302.209	2232.06
302.439	2297.06
302.669	2455.06
302.9	2941.06
303.13	4174.06
303.36	6258.06
303.59	8321.06
303.82	7118.06
304.051	4160.06
304.281	2978.06
304.511	2542.06
304.741	2335.06
304.971	2177.06
305.201	2069.06
305.431	2012.06
305.661	1973.06
305.891	1909.06
306.121	1871.06
306.352	1859.06
306.582	1800.06
306.812	1860.06
307.042	1822.06
307.272	1844.06
307.502	1824.06
307.731	1823.06
307.961	1797.06
308.191	1809.06
308.421	1821.06
308.651	1832.06
308.881	1797.06
309.111	1804.06
309.341	1811.06
309.571	1834.06
309.8	1845.06
310.03	1869.06
310.26	1881.06
310.49	1820.06
310.72	1879.06
310.949	1895.06
311.179	1886.06
311.409	1920.06
311.639	1948.06
311.868	1933.06
312.098	1940.06
312.328	1942.06
312.557	1986.06
312.787	1935.06
313.017	1919.06
313.246	2009.06
313.476	2034.06
313.706	2108.06
313.935	2239.06
314.165	2360.06
314.394	2515.06
314.624	2368.06
314.853	2221.06
315.083	2141.06
315.312	2137.06
315.542	2204.06
315.771	2226.06
316.001	2242.06
316.23	2364.06
316.46	2417.06
316.689	2644.06
316.919	3212.06
317.148	4674.06
317.377	7123.06
317.607	10502.06
317.836	10903.06
318.065	6528.06
318.295	4243.06
318.524	3396.06
318.753	2935.06
318.983	2758.06
319.212	2586.06
319.441	2528.06
319.67	2410.06
319.9	2406.06
320.129	2356.06
320.358	2365.06
320.587	2338.06
320.816	2304.06
321.046	2322.06
321.275	2351.06
321.504	2400.06
321.733	2403.06
321.962	2503.06
322.191	2509.06
322.42	2503.06
322.649	2499.06
322.878	2461.06
323.108	2504.06
323.337	2520.06
323.566	2581.06
323.795	2614.06
324.024	2675.06
324.253	2704.06
324.482	2829.06
324.71	3016.06
324.939	3186.06
325.168	3317.06
325.397	3354.06
325.626	4013.06
325.855	5644.06
326.084	8824.06
326.313	12866.06
326.542	13557.06
326.77	8992.06
326.999	5902.06
327.228	4886.06
327.457	4651.06
327.686	4733.06
327.914	5059.06
328.143	5864.06
328.372	6976.06
328.6	7555.06
328.829	6818.06
329.058	5673.06
329.287	4995.06
329.515	4554.06
329.744	4203.06
329.972	4031.06
330.201	3794.06
330.43	3715.06
330.658	3609.06
330.887	3563.06
331.115	3462.06
331.344	3488.06
331.572	3420.06
331.801	3480.06
332.03	3488.06
332.258	3501.06
332.486	3782.06
332.715	4305.06
332.943	5334.06
333.172	6650.06
333.4	6650.06
333.629	4954.06
333.857	4492.06
334.085	4528.06
334.314	4656.06
334.542	5004.06
334.771	5961.06
334.999	7275.06
335.227	9141.06
335.455	10187.06
335.684	9234.06
335.912	7485.06
336.14	6373.06
336.369	5613.06
336.597	5099.06
336.825	4764.06
337.053	4491.06
337.281	4174.06
337.51	3948.06
337.738	3882.06
337.966	3720.06
338.194	3542.06
338.422	3488.06
338.65	3329.06
338.878	3303.06
339.106	3294.06
339.334	3162.06
339.562	3149.06
339.79	3045.06
340.018	3062.06
340.246	3025.06
340.474	3074.06
340.702	3004.06
340.93	3018.06
341.158	3006.06
341.386	3033.06
341.614	2967.06
341.842	2891.06
342.07	2806.06
342.298	2806.06
342.526	2787.06
342.754	2766.06
342.981	2720.06
343.209	2734.06
343.437	2784.06
343.665	2822.06
343.893	2851.06
344.12	2865.06
344.348	2765.06
344.576	2739.06
344.804	2699.06
345.031	2578.06
345.259	2622.06
345.487	2580.06
345.714	2612.06
345.942	2560.06
346.17	2565.06
346.397	2518.06
346.625	2579.06
346.853	2510.06
347.08	2530.06
347.308	2567.06
347.535	2564.06
347.763	2507.06
347.99	2522.06
348.218	2518.06
348.445	2422.06
348.673	2489.06
348.9	2442.06
349.128	2478.06
349.355	2433.06
349.583	2411.06
349.81	2422.06
350.037	2455.06
350.265	2402.06
350.492	2420.06
350.72	2362.06
350.947	2383.06
351.174	2430.06
351.402	2427.06
351.629	2442.06
351.856	2393.06
352.083	2376.06
352.311	2408.06
352.538	2375.06
352.765	2379.06
352.992	2400.06
353.22	2394.06
353.447	2352.06
353.674	2395.06
353.901	2370.06
354.128	2423.06
354.355	2393.06
354.583	2412.06
354.81	2426.06
355.037	2448.06
355.264	2461.06
355.491	2444.06
355.718	2471.06
355.945	2462.06
356.172	2450.06
356.399	2459.06
356.626	2475.06
356.853	2509.06
357.08	2536.06
357.307	2560.06
357.534	2508.06
357.761	2606.06
357.988	2577.06
358.215	2620.06
358.441	2551.06
358.668	2550.06
358.895	2553.06
359.122	2566.06
359.349	2546.06
359.576	2501.06
359.802	2578.06
360.029	2562.06
360.256	2540.06
360.483	2562.06
360.709	2564.06
360.936	2607.06
361.163	2574.06
361.39	2571.06
361.616	2564.06
361.843	2589.06
362.07	2581.06
362.296	2588.06
362.523	2571.06
362.749	2582.06
362.976	2528.06
363.203	2566.06
363.429	2488.06
363.656	2521.06
363.882	2515.06
364.109	2550.06
364.335	2543.06
364.562	2546.06
364.788	2586.06
365.015	2594.06
365.241	2651.06
365.468	2825.06
365.694	2912.06
365.92	2814.06
366.147	2633.06
366.373	2632.06
366.599	2624.06
366.826	2638.06
367.052	2567.06
367.278	2630.06
367.505	2607.06
367.731	2633.06
367.957	2656.06
368.184	2613.06
368.41	2680.06
368.636	2657.06
368.862	2664.06
369.089	2666.06
369.315	2675.06
369.541	2639.06
369.767	2640.06
369.993	2645.06
370.219	2637.06
370.445	2648.06
370.672	2707.06
370.898	2692.06
371.124	2699.06
371.35	2740.06
371.576	2744.06
371.802	2746.06
372.028	2785.06
372.254	2733.06
372.48	2793.06
372.706	2803.06
372.932	2858.06
373.158	2782.06
373.384	2808.06
373.61	2802.06
373.835	2838.06
374.061	2812.06
374.287	2804.06
374.513	2841.06
374.739	2908.06
374.965	2912.06
375.191	2926.06
375.416	2962.06
375.642	2886.06
375.868	2890.06
376.094	2833.06
376.319	2828.06
376.545	2809.06
376.771	2773.06
376.997	2778.06
377.222	2734.06
377.448	2784.06
377.674	2779.06
377.899	2732.06
378.125	2774.06
378.35	2718.06
378.576	2734.06
378.802	2800.06
379.027	2824.06
379.253	2860.06
379.478	3053.06
379.704	3580.06
379.929	5200.06
380.155	7893.06
380.38	8642.06
380.606	5282.06
380.831	3632.06
381.057	3222.06
381.282	2992.06
381.507	2867.06
381.733	2864.06
381.958	2768.06
382.184	2707.06
382.409	2702.06
382.634	2705.06
382.86	2688.06
383.085	2712.06
383.31	2692.06
383.535	2746.06
383.761	2696.06
383.986	2682.06
384.211	2722.06
384.436	2703.06
384.662	2730.06
384.887	2812.06
385.112	2755.06
385.337	2794.06
385.562	2798.06
385.787	2809.06
386.013	2809.06
386.238	2818.06
386.463	2783.06
386.688	2824.06
386.913	2771.06
387.138	2781.06
387.363	2816.06
387.588	2741.06
387.813	2750.06
388.038	2808.06
388.263	2758.06
388.488	2738.06
388.713	2763.06
388.938	2806.06
389.163	2774.06
389.387	2785.06
389.612	2727.06
389.837	2828.06
390.062	2748.06
390.287	2859.06
390.512	2853.06
390.736	2847.06
390.961	2867.06
391.186	2869.06
391.411	2931.06
391.636	2888.06
391.86	2986.06
392.085	2946.06
392.31	2926.06
392.534	2852.06
392.759	2857.06
392.984	2843.06
393.208	2853.06
393.433	2869.06
393.658	2888.06
393.882	2815.06
394.107	2834.06
394.331	2818.06
394.556	2795.06
394.78	2831.06
395.005	2840.06
395.229	2842.06
395.454	2903.06
395.678	2860.06
395.903	2873.06
396.127	2902.06
396.352	2855.06
396.576	2872.06
396.801	2879.06
397.025	2928.06
397.249	2899.06
397.474	2968.06
397.698	2948.06
397.922	2957.06
398.147	2915.06
398.371	2983.06
398.595	3002.06
398.82	3112.06
399.044	3242.06
399.268	3338.06
399.492	3550.06
399.717	3674.06
399.941	3700.06
400.165	3546.06
400.389	3391.06
400.613	3270.06
400.837	3195.06
401.062	3150.06
401.286	3072.06
401.51	3068.06
401.734	3051.06
401.958	3111.06
402.182	3078.06
402.406	3027.06
402.63	3099.06
402.854	3124.06
403.078	3161.06
403.302	3103.06
403.526	3239.06
403.75	3192.06
403.974	3245.06
404.198	3195.06
404.422	3186.06
404.645	3179.06
404.869	3160.06
405.093	3194.06
405.317	3226.06
405.541	3213.06
405.765	3227.06
405.988	3269.06
406.212	3274.06
406.436	3269.06
406.66	3305.06
406.883	3330.06
407.107	3417.06
407.331	3388.06
407.555	3543.06
407.778	3480.06
408.002	3409.06
408.226	3457.06
408.449	3388.06
408.673	3283.06
408.896	3292.06
409.12	3258.06
409.344	3263.06
409.567	3188.06
409.791	3195.06
410.014	3188.06
410.238	3206.06
410.461	3176.06
410.685	3144.06
410.908	3112.06
411.132	3059.06
411.355	3039.06
411.578	3098.06
411.802	3052.06
412.025	3090.06
412.249	3120.06
412.472	3093.06
412.695	3033.06
412.919	3028.06
413.142	3044.06
413.365	2986.06
413.589	3026.06
413.812	2999.06
414.035	2993.06
414.258	3069.06
414.482	2985.06
414.705	3032.06
414.928	3028.06
415.151	2988.06
415.374	3018.06
415.597	2940.06
415.821	2870.06
416.044	2883.06
416.267	2900.06
416.49	2928.06
416.713	2854.06
416.936	2887.06
417.159	2852.06
417.382	2882.06
417.605	2840.06
417.828	2855.06
418.051	2908.06
418.274	2943.06
418.497	2918.06
418.72	2978.06
418.943	2950.06
419.166	3082.06
419.389	3174.06
419.611	3162.06
419.834	3061.06
420.057	2977.06
420.28	2917.06
420.503	2845.06
420.726	2841.06
420.948	2847.06
421.171	2859.06
421.394	2874.06
421.617	2878.06
421.839	2891.06
422.062	2878.06
422.285	2890.06
422.507	2979.06
422.73	2930.06
422.953	2991.06
423.175	2981.06
423.398	2905.06
423.621	2898.06
423.843	2893.06
424.066	2911.06
424.288	2847.06
424.511	2885.06
424.733	2893.06
424.956	2888.06
425.178	2803.06
425.401	2871.06
425.623	2824.06
425.846	2842.06
426.068	2794.06
426.291	2763.06
426.513	2733.06
426.735	2743.06
426.958	2770.06
427.18	2682.06
427.402	2753.06
427.625	2742.06
427.847	2661.06
428.069	2674.06
428.292	2718.06
428.514	2685.06
428.736	2666.06
428.958	2722.06
429.181	2588.06
429.403	2629.06
429.625	2634.06
429.847	2685.06
430.069	2698.06
430.292	2801.06
430.514	2896.06
430.736	2855.06
430.958	2663.06
431.18	2658.06
431.402	2699.06
431.624	2598.06
431.846	2686.06
432.068	2642.06
432.29	2665.06
432.512	2609.06
432.734	2663.06
432.956	2619.06
433.178	2651.06
433.4	2632.06
433.622	2682.06
433.844	2688.06
434.066	2705.06
434.287	2669.06
434.509	2718.06
434.731	2702.06
434.953	2744.06
435.175	2800.06
435.397	2729.06
435.618	2690.06
435.84	2656.06
436.062	2656.06
436.284	2628.06
436.505	2631.06
436.727	2624.06
436.949	2639.06
437.17	2571.06
437.392	2607.06
437.614	2582.06
437.835	2552.06
438.057	2507.06
438.278	2491.06
438.5	2564.06
438.721	2639.06
438.943	2697.06
439.165	2693.06
439.386	2736.06
439.608	2720.06
439.829	2757.06
440.05	2855.06
440.272	2878.06
440.493	2733.06
440.715	2712.06
440.936	2732.06
441.158	2792.06
441.379	2714.06
441.6	2812.06
441.822	2929.06
442.043	3065.06
442.264	3169.06
442.486	2969.06
442.707	2909.06
442.928	2842.06
443.149	2806.06
443.371	2812.06
443.592	2822.06
443.813	2847.06
444.034	2868.06
444.255	2917.06
444.476	2950.06
444.698	3008.06
444.919	3030.06
445.14	3098.06
445.361	2985.06
445.582	2876.06
445.803	2855.06
446.024	2850.06
446.245	2837.06
446.466	2825.06
446.687	2763.06
446.908	2727.06
447.129	2686.06
447.35	2663.06
447.571	2644.06
447.792	2624.06
448.013	2548.06
448.234	2591.06
448.455	2566.06
448.675	2635.06
448.896	2673.06
449.117	2806.06
449.338	2998.06
449.559	3117.06
449.779	2805.06
450	2649.06
450.221	2574.06
450.442	2581.06
450.662	2530.06
450.883	2533.06
451.104	2510.06
451.324	2556.06
451.545	2563.06
451.766	2586.06
451.986	2580.06
452.207	2782.06
452.428	3626.06
452.648	5473.06
452.869	4565.06
453.089	3157.06
453.31	2924.06
453.53	2923.06
453.751	2994.06
453.971	3136.06
454.192	3067.06
454.412	2717.06
454.633	2534.06
454.853	2518.06
455.073	2446.06
455.294	2478.06
455.514	2446.06
455.734	2423.06
455.955	2397.06
456.175	2387.06
456.395	2453.06
456.616	2410.06
456.836	2450.06
457.056	2476.06
457.276	2472.06
457.497	2646.06
457.717	2667.06
457.937	2589.06
458.157	2589.06
458.377	2569.06
458.598	2591.06
458.818	2611.06
459.038	2598.06
459.258	2625.06
459.478	2660.06
459.698	2667.06
459.918	2690.06
460.138	2747.06
460.358	2844.06
460.578	2869.06
460.798	2903.06
461.018	2876.06
461.238	2894.06
461.458	2924.06
461.678	2887.06
461.898	3000.06
462.118	3017.06
462.338	3088.06
462.558	3090.06
462.777	3143.06
462.997	3277.06
463.217	3370.06
463.437	3492.06
463.657	3572.06
463.876	3559.06
464.096	3372.06
464.316	3216.06
464.536	3129.06
464.755	3090.06
464.975	3049.06
465.195	2930.06
465.414	2856.06
465.634	2770.06
465.854	2744.06
466.073	2703.06
466.293	2683.06
466.512	2675.06
466.732	2722.06
466.951	2851.06
467.171	3017.06
467.391	2964.06
467.61	2772.06
467.829	2589.06
468.049	2590.06
468.268	2577.06
468.488	2587.06
468.707	2567.06
468.927	2583.06
469.146	2561.06
469.365	2587.06
469.585	2629.06
469.804	2688.06
470.023	2717.06
470.243	2762.06
470.462	2843.06
470.681	2980.06
470.901	3282.06
471.12	3802.06
471.339	3809.06
471.558	3145.06
471.777	2872.06
471.997	2760.06
472.216	2682.06
472.435	2690.06
472.654	2610.06
472.873	2592.06
473.092	2609.06
473.311	2628.06
473.53	2632.06
473.749	2702.06
473.968	2774.06
474.187	2660.06
474.406	2624.06
474.625	2665.06
474.844	2612.06
475.063	2621.06
475.282	2638.06
475.501	2629.06
475.72	2622.06
475.939	2674.06
476.158	2720.06
476.377	2754.06
476.596	2736.06
476.814	2778.06
477.033	2726.06
477.252	2823.06
477.471	2834.06
477.69	2879.06
477.908	2910.06
478.127	3005.06
478.346	2970.06
478.564	2982.06
478.783	3022.06
479.002	3088.06
479.22	3090.06
479.439	3115.06
479.658	3109.06
479.876	3129.06
480.095	3148.06
480.313	3206.06
480.532	3299.06
480.751	3228.06
480.969	3204.06
481.188	3208.06
481.406	3145.06
481.624	3152.06
481.843	3176.06
482.061	3202.06
482.28	3128.06
482.498	3118.06
482.717	3160.06
482.935	3232.06
483.153	3261.06
483.372	3252.06
483.59	3295.06
483.808	3356.06
484.027	3427.06
484.245	3617.06
484.463	4080.06
484.681	4550.06
484.9	4150.06
485.118	3793.06
485.336	3772.06
485.554	3765.06
485.772	4070.06
485.99	4618.06
486.209	4932.06
486.427	4166.06
486.645	3679.06
486.863	3540.06
487.081	3434.06
487.299	3365.06
487.517	3388.06
487.735	3393.06
487.953	3364.06
488.171	3339.06
488.389	3330.06
488.607	3320.06
488.825	3284.06
489.043	3197.06
489.261	3232.06
489.479	3301.06
489.696	3281.06
489.914	3298.06
490.132	3259.06
490.35	3296.06
490.568	3346.06
490.786	3340.06
491.003	3344.06
491.221	3404.06
491.439	3406.06
491.657	3380.06
491.874	3385.06
492.092	3427.06
492.31	3451.06
492.527	3436.06
492.745	3415.06
492.963	3385.06
493.18	3422.06
493.398	3392.06
493.615	3410.06
493.833	3384.06
494.05	3404.06
494.268	3414.06
494.485	3455.06
494.703	3456.06
494.92	3447.06
495.138	3376.06
495.355	3440.06
495.573	3460.06
495.79	3498.06
496.008	3463.06
496.225	3525.06
496.442	3562.06
496.66	3689.06
496.877	3854.06
497.094	3831.06
497.312	3740.06
497.529	3685.06
497.746	3722.06
497.963	3840.06
498.181	3945.06
498.398	3976.06
498.615	4101.06
498.832	4208.06
499.049	4490.06
499.267	4814.06
499.484	5088.06
499.701	5043.06
499.918	5115.06
500.135	5500.06
500.352	5705.06
500.569	5770.06
500.786	5785.06
501.003	5576.06
501.22	5312.06
501.437	5016.06
501.654	4749.06
501.871	4578.06
502.088	4400.06
502.305	4233.06
502.522	4140.06
502.739	4033.06
502.956	3850.06
503.172	3812.06
503.389	3711.06
503.606	3653.06
503.823	3624.06
504.04	3612.06
504.256	3546.06
504.473	3576.06
504.69	3587.06
504.907	3512.06
505.123	3468.06
505.34	3380.06
505.557	3225.06
505.773	3266.06
505.99	3193.06
506.207	3198.06
506.423	3175.06
506.64	3150.06
506.856	3093.06
507.073	3038.06
507.289	3089.06
507.506	3041.06
507.722	3021.06
507.939	2993.06
508.155	3018.06
508.372	3012.06
508.588	2967.06
508.805	2916.06
509.021	3001.06
509.238	3014.06
509.454	3162.06
509.67	3399.06
509.887	3137.06
510.103	3056.06
510.319	3016.06
510.536	2976.06
510.752	2919.06
510.968	2925.06
511.184	2851.06
511.401	2849.06
511.617	2890.06
511.833	2856.06
512.049	2786.06
512.265	2817.06
512.481	2814.06
512.698	2824.06
512.914	2829.06
513.13	2832.06
513.346	2825.06
513.562	2847.06
513.778	2870.06
513.994	2914.06
514.21	2944.06
514.426	3148.06
514.642	3256.06
514.858	3026.06
515.074	2906.06
515.29	2931.06
515.506	2955.06
515.721	2916.06
515.937	2957.06
516.153	2947.06
516.369	2933.06
516.585	2995.06
516.801	3056.06
517.016	3099.06
517.232	3119.06
517.448	3237.06
517.664	3220.06
517.879	3217.06
518.095	3208.06
518.311	3260.06
518.527	3161.06
518.742	3206.06
518.958	3234.06
519.173	3225.06
519.389	3128.06
519.605	3076.06
519.82	2893.06
520.036	2908.06
520.251	2838.06
520.467	2860.06
520.682	2818.06
520.898	2761.06
521.113	2786.06
521.329	2783.06
521.544	2786.06
521.76	2811.06
521.975	2790.06
522.19	2762.06
522.406	2722.06
522.621	2731.06
522.836	2740.06
523.052	2774.06
523.267	2718.06
523.482	2700.06
523.698	2728.06
523.913	2740.06
524.128	2786.06
524.343	2706.06
524.559	2700.06
524.774	2672.06
524.989	2712.06
525.204	2707.06
525.419	2744.06
525.634	2703.06
525.849	2717.06
526.064	2685.06
526.28	2676.06
526.495	2679.06
526.71	2665.06
526.925	2686.06
527.14	2715.06
527.355	2744.06
527.57	2770.06
527.785	2762.06
527.999	2765.06
528.214	2805.06
528.429	2757.06
528.644	2817.06
528.859	2854.06
529.074	2899.06
529.289	2949.06
529.503	2933.06
529.718	2877.06
529.933	2865.06
530.148	2878.06
530.363	2885.06
530.577	2913.06
530.792	2846.06
531.007	2928.06
531.221	2931.06
531.436	3006.06
531.651	3006.06
531.865	3003.06
532.08	3016.06
532.295	3183.06
532.509	3357.06
532.724	3338.06
532.938	3424.06
533.153	3571.06
533.367	3871.06
533.582	3971.06
533.796	3854.06
534.011	3739.06
534.225	3572.06
534.44	3434.06
534.654	3366.06
534.868	3307.06
535.083	3208.06
535.297	3228.06
535.511	3094.06
535.726	3095.06
535.94	3130.06
536.154	2996.06
536.369	2930.06
536.583	2961.06
536.797	2908.06
537.011	2880.06
537.225	2814.06
537.44	2841.06
537.654	2795.06
537.868	2790.06
538.082	2718.06
538.296	2722.06
538.51	2740.06
538.724	2768.06
538.938	2705.06
539.153	2697.06
539.367	2695.06
539.581	2659.06
539.795	2592.06
540.009	2596.06
540.222	2572.06
540.436	2618.06
540.65	2674.06
540.864	2656.06
541.078	2694.06
541.292	2824.06
541.506	3346.06
541.72	3474.06
541.934	2980.06
542.147	2826.06
542.361	2762.06
542.575	2633.06
542.789	2623.06
543.002	2528.06
543.216	2537.06
543.43	2572.06
543.644	2494.06
543.857	2497.06
544.071	2536.06
544.285	2540.06
544.498	2556.06
544.712	2516.06
544.925	2548.06
545.139	2569.06
545.352	2472.06
545.566	2544.06
545.779	2504.06
545.993	2590.06
546.206	2587.06
546.42	2511.06
546.633	2563.06
546.847	2578.06
547.06	2498.06
547.274	2509.06
547.487	2563.06
547.7	2557.06
547.914	2525.06
548.127	2558.06
548.34	2498.06
548.554	2485.06
548.767	2508.06
548.98	2535.06
549.193	2514.06
549.407	2551.06
549.62	2585.06
549.833	2551.06
550.046	2568.06
550.259	2560.06
550.473	2507.06
550.686	2589.06
550.899	2540.06
551.112	2525.06
551.325	2526.06
551.538	2548.06
551.751	2510.06
551.964	2544.06
552.177	2596.06
552.39	2641.06
552.603	2654.06
552.816	2728.06
553.029	2743.06
553.242	2746.06
553.455	2762.06
553.667	2838.06
553.88	2860.06
554.093	2870.06
554.306	2895.06
554.519	2857.06
554.732	2922.06
554.944	2992.06
555.157	3024.06
555.37	3078.06
555.583	3202.06
555.795	3374.06
556.008	3609.06
556.221	4061.06
556.433	4458.06
556.646	4437.06
556.859	4200.06
557.071	3995.06
557.284	3847.06
557.496	3689.06
557.709	3709.06
557.921	3660.06
558.134	3636.06
558.346	3697.06
558.559	3837.06
558.771	4044.06
558.984	4386.06
559.196	4837.06
559.409	4472.06
559.621	4099.06
559.833	3863.06
560.046	3653.06
560.258	3495.06
560.47	3274.06
560.683	3146.06
560.895	3059.06
561.107	2929.06
561.32	2885.06
561.532	2760.06
561.744	2749.06
561.956	2686.06
562.168	2636.06
562.381	2678.06
562.593	2673.06
562.805	2700.06
563.017	2723.06
563.229	2693.06
563.441	3168.06
563.653	2674.06
563.865	2434.06
564.077	2401.06
564.289	2380.06
564.501	2353.06
564.713	2352.06
564.925	2360.06
565.137	2397.06
565.349	2349.06
565.561	2365.06
565.773	2379.06
565.985	2380.06
566.197	2397.06
566.408	2453.06
566.62	2532.06
566.832	2612.06
567.044	2595.06
567.255	2640.06
567.467	2636.06
567.679	2659.06
567.891	2843.06
568.102	3136.06
568.314	3618.06
568.526	3146.06
568.737	2698.06
568.949	2482.06
569.161	2352.06
569.372	2265.06
569.584	2170.06
569.795	2161.06
570.007	2149.06
570.218	2157.06
570.43	2272.06
570.641	2062.06
570.853	2029.06
571.064	1960.06
571.276	1942.06
571.487	1883.06
571.698	1889.06
571.91	1838.06
572.121	1880.06
572.333	1877.06
572.544	1884.06
572.755	1992.06
572.966	2298.06
573.178	2116.06
573.389	1913.06
573.6	1803.06
573.811	1783.06
574.023	1773.06
574.234	1774.06
574.445	1724.06
574.656	1733.06
574.867	1740.06
575.078	1684.06
575.289	1704.06
575.501	1671.06
575.712	1674.06
575.923	1690.06
576.134	1657.06
576.345	1722.06
576.556	1735.06
576.767	1702.06
576.978	1704.06
577.188	1726.06
577.399	1750.06
577.61	1765.06
577.821	1760.06
578.032	1741.06
578.243	1772.06
578.454	1820.06
578.665	1856.06
578.875	1912.06
579.086	1934.06
579.297	2023.06
579.508	2182.06
579.718	2388.06
579.929	2736.06
580.14	3217.06
580.35	3291.06
580.561	2944.06
580.772	2635.06
580.982	2475.06
581.193	2294.06
581.403	2143.06
581.614	2116.06
581.825	1993.06
582.035	1890.06
582.246	1834.06
582.456	1746.06
582.667	1794.06
582.877	1727.06
583.087	1733.06
583.298	1634.06
583.508	1628.06
583.719	1579.06
583.929	1539.06
584.139	1525.06
584.35	1489.06
584.56	1483.06
584.77	1454.06
584.981	1447.06
585.191	1423.06
585.401	1388.06
585.611	1369.06
585.821	1368.06
586.032	1322.06
586.242	1337.06
586.452	1333.06
586.662	1294.06
586.872	1302.06
587.082	1290.06
587.292	1274.06
587.502	1289.06
587.713	1284.06
587.923	1240.06
588.133	1216.06
588.343	1223.06
588.553	1245.06
588.762	1229.06
588.972	1210.06
589.182	1240.06
589.392	1232.06
589.602	1212.06
589.812	1187.06
590.022	1192.06
590.232	1177.06
590.441	1219.06
590.651	1222.06
590.861	1178.06
591.071	1189.06
591.281	1182.06
591.49	1160.06
591.7	1198.06
591.91	1233.06
592.119	1205.06
592.329	1172.06
592.539	1230.06
592.748	1205.06
592.958	1198.06
593.167	1226.06
593.377	1238.06
593.587	1239.06
593.796	1193.06
594.006	1225.06
594.215	1228.06
594.424	1180.06
594.634	1192.06
594.843	1162.06
595.053	1160.06
595.262	1146.06
595.472	1134.06
595.681	1094.06
595.89	1124.06
596.1	1056.06
596.309	1066.06
596.518	1046.06
596.727	1023.06
596.937	1054.06
597.146	1058.06
597.355	1041.06
597.564	1034.06
597.774	1030.06
597.983	984.06
598.192	974.06
598.401	1003.06
598.61	978.06
598.819	975.06
599.028	944.06
599.237	947.06
599.446	944.06
599.655	977.06
599.864	948.06
600.073	957.06
600.282	952.06
600.491	945.06
600.7	942.06
600.909	940.06
601.118	956.06
601.327	956.06
601.536	933.06
601.745	966.06
601.953	1052.06
602.162	1202.06
602.371	1072.06
602.58	983.06
602.789	968.06
602.997	945.06
603.206	931.06
603.415	960.06
603.623	902.06
603.832	911.06
604.041	922.06
604.249	883.06
604.458	898.06
604.666	869.06
604.875	877.06
605.084	867.06
605.292	888.06
605.501	877.06
605.709	922.06
605.918	932.06
606.126	892.06
606.334	928.06
606.543	916.06
606.751	994.06
606.96	1113.06
607.168	1237.06
607.376	1028.06
607.585	964.06
607.793	914.06
608.001	925.06
608.21	900.06
608.418	877.06
608.626	868.06
608.834	890.06
609.043	878.06
609.251	861.06
609.459	857.06
609.667	855.06
609.875	864.06
610.083	805.06
610.291	826.06
610.499	856.06
610.707	819.06
610.916	798.06
611.124	793.06
611.332	825.06
611.54	813.06
611.748	832.06
611.955	822.06
612.163	803.06
612.371	806.06
612.579	810.06
612.787	812.06
612.995	810.06
613.203	790.06
613.411	784.06
613.618	791.06
613.826	797.06
614.034	788.06
614.242	776.06
614.449	781.06
614.657	801.06
614.865	790.06
615.072	816.06
615.28	791.06
615.488	802.06
615.695	790.06
615.903	793.06
616.111	803.06
616.318	812.06
616.526	804.06
616.733	789.06
616.941	778.06
617.148	793.06
617.356	762.06
617.563	772.06
617.771	756.06
617.978	736.06
618.185	748.06
618.393	757.06
618.6	764.06
618.807	746.06
619.015	770.06
619.222	744.06
619.429	730.06
619.637	724.06
619.844	716.06
620.051	722.06
620.258	710.06
620.466	697.06
620.673	708.06
620.88	698.06
621.087	670.06
621.294	707.06
621.501	684.06
621.708	706.06
621.915	691.06
622.122	694.06
622.329	700.06
622.536	708.06
622.743	678.06
622.95	714.06
623.157	675.06
623.364	702.06
623.571	704.06
623.778	672.06
623.985	713.06
624.192	685.06
624.399	685.06
624.606	659.06
624.812	641.06
625.019	654.06
625.226	651.06
625.433	646.06
625.639	653.06
625.846	650.06
626.053	643.06
626.259	642.06
626.466	594.06
626.673	638.06
626.879	611.06
627.086	645.06
627.293	644.06
627.499	634.06
627.706	625.06
627.912	645.06
628.119	636.06
628.325	628.06
628.532	637.06
628.738	613.06
628.945	603.06
629.151	617.06
629.357	620.06
629.564	630.06
629.77	614.06
629.976	604.06
630.183	606.06
630.389	594.06
630.595	588.06
630.802	576.06
631.008	558.06
631.214	599.06
631.42	590.06
631.627	585.06
631.833	593.06
632.039	615.06
632.245	590.06
632.451	574.06
632.657	582.06
632.863	613.06
633.069	580.06
633.275	597.06
633.481	577.06
633.688	590.06
633.893	587.06
634.099	612.06
634.305	589.06
634.511	594.06
634.717	581.06
634.923	626.06
635.129	692.06
635.335	757.06
635.541	675.06
635.747	637.06
635.952	608.06
636.158	590.06
636.364	596.06
636.57	576.06
636.775	575.06
636.981	597.06
637.187	586.06
637.392	571.06
637.598	578.06
637.804	598.06
638.009	566.06
638.215	578.06
638.421	573.06
638.626	585.06
638.832	584.06
639.037	583.06
639.243	615.06
639.448	614.06
639.654	585.06
639.859	614.06
640.065	584.06
640.27	592.06
640.475	593.06
640.681	616.06
640.886	634.06
641.091	637.06
641.297	622.06
641.502	618.06
641.707	631.06
641.913	640.06
642.118	659.06
642.323	646.06
642.528	675.06
642.733	663.06
642.939	693.06
643.144	736.06
643.349	737.06
643.554	779.06
643.759	785.06
643.964	816.06
644.169	886.06
644.374	937.06
644.579	1027.06
644.784	1137.06
644.989	1276.06
645.194	1540.06
645.399	1867.06
645.604	2065.06
645.809	1520.06
646.014	1140.06
646.219	941.06
646.423	852.06
646.628	768.06
646.833	732.06
647.038	670.06
647.243	654.06
647.447	631.06
647.652	623.06
647.857	587.06
648.062	592.06
648.266	560.06
648.471	548.06
648.676	540.06
648.88	547.06
649.085	545.06
649.289	509.06
649.494	516.06
649.698	507.06
649.903	509.06
650.107	479.06
650.312	478.06
650.516	498.06
650.721	464.06
650.925	451.06
651.13	433.06
651.334	448.06
651.539	430.06
651.743	433.06
651.947	420.06
652.152	423.06
652.356	420.06
652.56	450.06
652.764	505.06
652.969	481.06
653.173	430.06
653.377	406.06
653.581	388.06
653.785	362.06
653.99	377.06
654.194	368.06
654.398	349.06
654.602	378.06
654.806	346.06
655.01	363.06
655.214	361.06
655.418	355.06
655.622	350.06
655.826	350.06
656.03	371.06
656.234	354.06
656.438	375.06
656.642	388.06
656.846	347.06
657.049	352.06
657.253	343.06
657.457	318.06
657.661	284.06
657.865	273.06
658.068	262.06
658.272	261.06
658.476	241.06
658.68	229.06
658.883	209.06
659.087	205.06
659.291	198.06
659.494	212.06
659.698	199.06
659.901	184.06
660.105	197.06
660.309	184.06
660.512	164.06
660.716	166.06
660.919	153.06
661.123	158.06
661.326	138.06
661.53	130.06
661.733	126.06
661.936	125.06
662.14	126.06
662.343	112.06
662.546	112.06
662.75	115.06
662.953	114.06
663.156	114.06
663.36	94.06
663.563	98.06
663.766	109.06
663.969	97.06
664.173	91.06
664.376	95.06
664.579	88.06
664.782	95.06
664.985	96.06
665.188	87.06
665.391	83.06
665.594	91.06
665.797	88.06
666	90.06
666.203	85.06
666.406	81.06
666.609	77.06
666.812	95.06
667.015	94.06
667.218	85.06
667.421	93.06
667.624	78.06
667.827	86.06
668.03	72.06
668.232	85.06
668.435	77.06
668.638	85.06
668.841	84.06
669.043	84.06
669.246	65.06
669.449	88.06
669.651	88.06
669.854	89.06
670.057	78.06
670.259	77.06
670.462	80.06
670.665	90.06
670.867	76.06
671.07	88.06
671.272	92.06
671.475	77.06
671.677	87.06
671.88	90.06
672.082	90.06
672.284	86.06
672.487	90.06
672.689	84.06
672.892	75.06
