Data from SnStandardFlinnAPT0064_LampEnergy5.5_LIBS07252019.E.O._I.C._HRD10591_15-17-08-492.txt Node
Date: Thu Jul 25 15:17:08 EDT 2019
User: cochatt
Spectrometer: HR+D1059
Trigger mode: 1
Integration Time (sec): 1.000000E-1
Scans to average: 1
Electric dark correction enabled: true
Nonlinearity correction enabled: false
Boxcar width: 0
XAxis mode: Wavelengths
Number of Pixels in Spectrum: 2048
>>>>>Begin Spectral Data<<<<<
223.165	-2.94
223.4	-2.94
223.635	-2.94
223.869	-20.94
224.104	-28.94
224.338	-8.94
224.573	-16.94
224.808	-13.94
225.042	-9.94
225.277	-7.94
225.511	3.06
225.746	5.06
225.98	11.06
226.215	6.06
226.449	9.06
226.683	21.06
226.918	29.06
227.152	26.06
227.387	21.06
227.621	48.06
227.856	50.06
228.09	36.06
228.324	60.06
228.559	51.06
228.793	85.06
229.027	135.06
229.262	163.06
229.496	160.06
229.73	149.06
229.964	172.06
230.199	165.06
230.433	167.06
230.667	178.06
230.901	173.06
231.136	170.06
231.37	196.06
231.604	194.06
231.838	217.06
232.072	263.06
232.306	273.06
232.541	221.06
232.775	222.06
233.009	199.06
233.243	204.06
233.477	203.06
233.711	237.06
233.945	279.06
234.179	233.06
234.413	232.06
234.647	219.06
234.881	227.06
235.115	257.06
235.349	296.06
235.583	352.06
235.817	450.06
236.051	477.06
236.285	325.06
236.519	250.06
236.753	243.06
236.987	252.06
237.221	245.06
237.455	242.06
237.689	241.06
237.922	213.06
238.156	219.06
238.39	243.06
238.624	248.06
238.858	239.06
239.091	232.06
239.325	227.06
239.559	230.06
239.793	260.06
240.027	261.06
240.26	254.06
240.494	257.06
240.728	265.06
240.961	297.06
241.195	289.06
241.429	299.06
241.662	340.06
241.896	351.06
242.13	423.06
242.363	541.06
242.597	688.06
242.83	657.06
243.064	661.06
243.298	827.06
243.531	653.06
243.765	436.06
243.998	345.06
244.232	326.06
244.465	307.06
244.699	323.06
244.932	320.06
245.166	311.06
245.399	302.06
245.633	297.06
245.866	311.06
246.099	316.06
246.333	294.06
246.566	300.06
246.8	284.06
247.033	311.06
247.266	300.06
247.5	296.06
247.733	312.06
247.966	314.06
248.2	347.06
248.433	375.06
248.666	441.06
248.899	400.06
249.133	372.06
249.366	393.06
249.599	424.06
249.832	461.06
250.066	460.06
250.299	371.06
250.532	348.06
250.765	347.06
250.998	354.06
251.231	350.06
251.465	345.06
251.698	344.06
251.931	345.06
252.164	347.06
252.397	353.06
252.63	374.06
252.863	365.06
253.096	357.06
253.329	355.06
253.562	347.06
253.795	364.06
254.028	393.06
254.261	353.06
254.494	399.06
254.727	460.06
254.96	553.06
255.193	550.06
255.426	419.06
255.659	393.06
255.892	411.06
256.124	389.06
256.357	379.06
256.59	400.06
256.823	428.06
257.056	479.06
257.289	584.06
257.521	619.06
257.754	515.06
257.987	426.06
258.22	402.06
258.452	411.06
258.685	393.06
258.918	440.06
259.151	441.06
259.383	467.06
259.616	538.06
259.849	559.06
260.081	486.06
260.314	431.06
260.547	428.06
260.779	427.06
261.012	434.06
261.244	440.06
261.477	460.06
261.71	452.06
261.942	452.06
262.175	488.06
262.407	491.06
262.64	483.06
262.872	500.06
263.105	511.06
263.337	551.06
263.57	552.06
263.802	576.06
264.035	594.06
264.267	624.06
264.499	635.06
264.732	643.06
264.964	655.06
265.197	653.06
265.429	663.06
265.661	664.06
265.894	675.06
266.126	763.06
266.358	874.06
266.591	828.06
266.823	719.06
267.055	671.06
267.287	620.06
267.52	603.06
267.752	579.06
267.984	582.06
268.216	572.06
268.448	566.06
268.681	580.06
268.913	569.06
269.145	541.06
269.377	564.06
269.609	576.06
269.841	602.06
270.073	621.06
270.306	712.06
270.538	937.06
270.77	1363.06
271.002	1640.06
271.234	1164.06
271.466	796.06
271.698	664.06
271.93	605.06
272.162	565.06
272.394	569.06
272.626	579.06
272.858	557.06
273.09	540.06
273.322	548.06
273.553	550.06
273.785	550.06
274.017	541.06
274.249	522.06
274.481	513.06
274.713	533.06
274.945	554.06
275.176	549.06
275.408	521.06
275.64	537.06
275.872	555.06
276.104	558.06
276.335	555.06
276.567	589.06
276.799	560.06
277.031	559.06
277.262	569.06
277.494	629.06
277.726	653.06
277.957	773.06
278.189	849.06
278.421	797.06
278.652	741.06
278.884	707.06
279.115	637.06
279.347	623.06
279.579	638.06
279.81	613.06
280.042	623.06
280.273	614.06
280.505	627.06
280.736	655.06
280.968	671.06
281.199	717.06
281.431	843.06
281.662	853.06
281.894	756.06
282.125	685.06
282.356	674.06
282.588	724.06
282.819	731.06
283.051	765.06
283.282	832.06
283.513	1043.06
283.745	1527.06
283.976	2387.06
284.207	3443.06
284.439	3063.06
284.67	1808.06
284.901	1432.06
285.132	1451.06
285.364	1420.06
285.595	1093.06
285.826	1012.06
286.057	1187.06
286.288	1647.06
286.52	2195.06
286.751	2046.06
286.982	1229.06
287.213	931.06
287.444	819.06
287.675	753.06
287.906	744.06
288.138	746.06
288.369	711.06
288.6	733.06
288.831	735.06
289.062	678.06
289.293	737.06
289.524	729.06
289.755	756.06
289.986	737.06
290.217	740.06
290.448	727.06
290.679	736.06
290.91	758.06
291.141	807.06
291.371	832.06
291.602	880.06
291.833	779.06
292.064	736.06
292.295	723.06
292.526	722.06
292.757	696.06
292.987	705.06
293.218	713.06
293.449	713.06
293.68	669.06
293.91	697.06
294.141	703.06
294.372	687.06
294.603	697.06
294.833	667.06
295.064	687.06
295.295	684.06
295.525	675.06
295.756	671.06
295.987	674.06
296.217	707.06
296.448	720.06
296.679	685.06
296.909	685.06
297.14	695.06
297.37	722.06
297.601	699.06
297.831	729.06
298.062	705.06
298.292	719.06
298.523	732.06
298.753	732.06
298.984	758.06
299.214	748.06
299.445	752.06
299.675	746.06
299.905	776.06
300.136	794.06
300.366	917.06
300.597	1170.06
300.827	1622.06
301.057	2205.06
301.288	2175.06
301.518	1335.06
301.748	1034.06
301.979	955.06
302.209	935.06
302.439	943.06
302.669	1029.06
302.9	1215.06
303.13	1725.06
303.36	2539.06
303.59	3407.06
303.82	2943.06
304.051	1726.06
304.281	1250.06
304.511	1031.06
304.741	977.06
304.971	908.06
305.201	860.06
305.431	842.06
305.661	813.06
305.891	817.06
306.121	821.06
306.352	821.06
306.582	801.06
306.812	788.06
307.042	797.06
307.272	789.06
307.502	806.06
307.731	795.06
307.961	794.06
308.191	776.06
308.421	795.06
308.651	791.06
308.881	769.06
309.111	799.06
309.341	784.06
309.571	818.06
309.8	801.06
310.03	833.06
310.26	803.06
310.49	799.06
310.72	813.06
310.949	809.06
311.179	830.06
311.409	823.06
311.639	844.06
311.868	823.06
312.098	843.06
312.328	846.06
312.557	867.06
312.787	844.06
313.017	857.06
313.246	863.06
313.476	865.06
313.706	897.06
313.935	947.06
314.165	986.06
314.394	1021.06
314.624	995.06
314.853	929.06
315.083	921.06
315.312	927.06
315.542	927.06
315.771	978.06
316.001	940.06
316.23	1002.06
316.46	1020.06
316.689	1126.06
316.919	1345.06
317.148	1970.06
317.377	3025.06
317.607	4555.06
317.836	4655.06
318.065	2647.06
318.295	1647.06
318.524	1373.06
318.753	1192.06
318.983	1117.06
319.212	1088.06
319.441	1065.06
319.67	1023.06
319.9	1004.06
320.129	1025.06
320.358	993.06
320.587	985.06
320.816	1000.06
321.046	987.06
321.275	983.06
321.504	988.06
321.733	1019.06
321.962	1055.06
322.191	1080.06
322.42	1059.06
322.649	1051.06
322.878	1031.06
323.108	1071.06
323.337	1065.06
323.566	1084.06
323.795	1123.06
324.024	1128.06
324.253	1155.06
324.482	1165.06
324.71	1250.06
324.939	1322.06
325.168	1334.06
325.397	1373.06
325.626	1650.06
325.855	2311.06
326.084	3645.06
326.313	5538.06
326.542	5837.06
326.77	3563.06
326.999	2291.06
327.228	1916.06
327.457	1860.06
327.686	1862.06
327.914	1974.06
328.143	2267.06
328.372	2605.06
328.6	2831.06
328.829	2623.06
329.058	2313.06
329.287	2026.06
329.515	1855.06
329.744	1772.06
329.972	1667.06
330.201	1610.06
330.43	1533.06
330.658	1469.06
330.887	1464.06
331.115	1443.06
331.344	1441.06
331.572	1431.06
331.801	1461.06
332.03	1465.06
332.258	1472.06
332.486	1546.06
332.715	1744.06
332.943	2152.06
333.172	2633.06
333.4	2629.06
333.629	2003.06
333.857	1746.06
334.085	1776.06
334.314	1897.06
334.542	2033.06
334.771	2302.06
334.999	2836.06
335.227	3416.06
335.455	3753.06
335.684	3477.06
335.912	2937.06
336.14	2567.06
336.369	2303.06
336.597	2103.06
336.825	1930.06
337.053	1851.06
337.281	1736.06
337.51	1689.06
337.738	1580.06
337.966	1526.06
338.194	1469.06
338.422	1450.06
338.65	1418.06
338.878	1401.06
339.106	1369.06
339.334	1385.06
339.562	1356.06
339.79	1271.06
340.018	1260.06
340.246	1284.06
340.474	1283.06
340.702	1281.06
340.93	1284.06
341.158	1286.06
341.386	1269.06
341.614	1301.06
341.842	1239.06
342.07	1201.06
342.298	1193.06
342.526	1193.06
342.754	1161.06
342.981	1205.06
343.209	1171.06
343.437	1196.06
343.665	1197.06
343.893	1209.06
344.12	1229.06
344.348	1193.06
344.576	1187.06
344.804	1140.06
345.031	1147.06
345.259	1116.06
345.487	1108.06
345.714	1113.06
345.942	1111.06
346.17	1106.06
346.397	1132.06
346.625	1104.06
346.853	1077.06
347.08	1060.06
347.308	1104.06
347.535	1096.06
347.763	1041.06
347.99	1089.06
348.218	1058.06
348.445	1059.06
348.673	1075.06
348.9	1059.06
349.128	1054.06
349.355	1069.06
349.583	1053.06
349.81	1081.06
350.037	1035.06
350.265	1048.06
350.492	1049.06
350.72	1039.06
350.947	1074.06
351.174	1065.06
351.402	1082.06
351.629	1043.06
351.856	1043.06
352.083	1033.06
352.311	1050.06
352.538	1059.06
352.765	1032.06
352.992	1007.06
353.22	1041.06
353.447	1038.06
353.674	1023.06
353.901	1031.06
354.128	1051.06
354.355	1044.06
354.583	1054.06
354.81	1038.06
355.037	1029.06
355.264	1053.06
355.491	1030.06
355.718	1051.06
355.945	1078.06
356.172	1063.06
356.399	1080.06
356.626	1107.06
356.853	1068.06
357.08	1077.06
357.307	1088.06
357.534	1117.06
357.761	1114.06
357.988	1115.06
358.215	1112.06
358.441	1095.06
358.668	1109.06
358.895	1103.06
359.122	1064.06
359.349	1087.06
359.576	1100.06
359.802	1105.06
360.029	1115.06
360.256	1106.06
360.483	1114.06
360.709	1109.06
360.936	1131.06
361.163	1066.06
361.39	1111.06
361.616	1101.06
361.843	1113.06
362.07	1123.06
362.296	1129.06
362.523	1092.06
362.749	1125.06
362.976	1104.06
363.203	1113.06
363.429	1094.06
363.656	1098.06
363.882	1093.06
364.109	1076.06
364.335	1096.06
364.562	1084.06
364.788	1084.06
365.015	1129.06
365.241	1134.06
365.468	1193.06
365.694	1212.06
365.92	1210.06
366.147	1116.06
366.373	1144.06
366.599	1119.06
366.826	1119.06
367.052	1149.06
367.278	1098.06
367.505	1125.06
367.731	1127.06
367.957	1139.06
368.184	1157.06
368.41	1164.06
368.636	1186.06
368.862	1123.06
369.089	1177.06
369.315	1169.06
369.541	1151.06
369.767	1143.06
369.993	1159.06
370.219	1143.06
370.445	1147.06
370.672	1142.06
370.898	1155.06
371.124	1169.06
371.35	1194.06
371.576	1191.06
371.802	1191.06
372.028	1167.06
372.254	1221.06
372.48	1201.06
372.706	1204.06
372.932	1177.06
373.158	1209.06
373.384	1212.06
373.61	1220.06
373.835	1251.06
374.061	1221.06
374.287	1213.06
374.513	1234.06
374.739	1241.06
374.965	1256.06
375.191	1237.06
375.416	1248.06
375.642	1207.06
375.868	1244.06
376.094	1195.06
376.319	1219.06
376.545	1192.06
376.771	1210.06
376.997	1203.06
377.222	1202.06
377.448	1178.06
377.674	1209.06
377.899	1179.06
378.125	1191.06
378.35	1199.06
378.576	1196.06
378.802	1201.06
379.027	1216.06
379.253	1281.06
379.478	1313.06
379.704	1519.06
379.929	2096.06
380.155	3280.06
380.38	3523.06
380.606	2118.06
380.831	1521.06
381.057	1352.06
381.282	1267.06
381.507	1213.06
381.733	1216.06
381.958	1196.06
382.184	1184.06
382.409	1173.06
382.634	1182.06
382.86	1175.06
383.085	1191.06
383.31	1169.06
383.535	1164.06
383.761	1144.06
383.986	1184.06
384.211	1178.06
384.436	1217.06
384.662	1207.06
384.887	1188.06
385.112	1226.06
385.337	1254.06
385.562	1256.06
385.787	1225.06
386.013	1233.06
386.238	1199.06
386.463	1211.06
386.688	1238.06
386.913	1211.06
387.138	1204.06
387.363	1228.06
387.588	1223.06
387.813	1202.06
388.038	1224.06
388.263	1213.06
388.488	1242.06
388.713	1196.06
388.938	1197.06
389.163	1185.06
389.387	1231.06
389.612	1199.06
389.837	1217.06
390.062	1210.06
390.287	1249.06
390.512	1217.06
390.736	1260.06
390.961	1277.06
391.186	1239.06
391.411	1290.06
391.636	1277.06
391.86	1260.06
392.085	1289.06
392.31	1289.06
392.534	1250.06
392.759	1261.06
392.984	1217.06
393.208	1264.06
393.433	1275.06
393.658	1258.06
393.882	1193.06
394.107	1217.06
394.331	1201.06
394.556	1213.06
394.78	1235.06
395.005	1279.06
395.229	1247.06
395.454	1263.06
395.678	1300.06
395.903	1307.06
396.127	1280.06
396.352	1264.06
396.576	1269.06
396.801	1271.06
397.025	1284.06
397.249	1242.06
397.474	1257.06
397.698	1255.06
397.922	1280.06
398.147	1283.06
398.371	1327.06
398.595	1340.06
398.82	1365.06
399.044	1390.06
399.268	1459.06
399.492	1555.06
399.717	1612.06
399.941	1620.06
400.165	1535.06
400.389	1501.06
400.613	1431.06
400.837	1420.06
401.062	1375.06
401.286	1382.06
401.51	1381.06
401.734	1324.06
401.958	1361.06
402.182	1359.06
402.406	1365.06
402.63	1380.06
402.854	1329.06
403.078	1373.06
403.302	1358.06
403.526	1393.06
403.75	1384.06
403.974	1407.06
404.198	1378.06
404.422	1433.06
404.645	1403.06
404.869	1402.06
405.093	1418.06
405.317	1357.06
405.541	1423.06
405.765	1433.06
405.988	1461.06
406.212	1423.06
406.436	1413.06
406.66	1430.06
406.883	1411.06
407.107	1457.06
407.331	1489.06
407.555	1525.06
407.778	1511.06
408.002	1467.06
408.226	1453.06
408.449	1474.06
408.673	1439.06
408.896	1397.06
409.12	1404.06
409.344	1408.06
409.567	1395.06
409.791	1410.06
410.014	1379.06
410.238	1404.06
410.461	1378.06
410.685	1373.06
410.908	1351.06
411.132	1379.06
411.355	1340.06
411.578	1333.06
411.802	1340.06
412.025	1339.06
412.249	1337.06
412.472	1324.06
412.695	1323.06
412.919	1298.06
413.142	1336.06
413.365	1328.06
413.589	1317.06
413.812	1281.06
414.035	1318.06
414.258	1334.06
414.482	1302.06
414.705	1343.06
414.928	1340.06
415.151	1309.06
415.374	1320.06
415.597	1314.06
415.821	1275.06
416.044	1236.06
416.267	1275.06
416.49	1283.06
416.713	1259.06
416.936	1273.06
417.159	1279.06
417.382	1233.06
417.605	1267.06
417.828	1251.06
418.051	1269.06
418.274	1273.06
418.497	1278.06
418.72	1290.06
418.943	1277.06
419.166	1318.06
419.389	1400.06
419.611	1405.06
419.834	1369.06
420.057	1328.06
420.28	1316.06
420.503	1272.06
420.726	1287.06
420.948	1253.06
421.171	1260.06
421.394	1271.06
421.617	1291.06
421.839	1276.06
422.062	1264.06
422.285	1269.06
422.507	1290.06
422.73	1314.06
422.953	1341.06
423.175	1333.06
423.398	1316.06
423.621	1266.06
423.843	1290.06
424.066	1322.06
424.288	1300.06
424.511	1283.06
424.733	1268.06
424.956	1280.06
425.178	1247.06
425.401	1295.06
425.623	1300.06
425.846	1255.06
426.068	1221.06
426.291	1237.06
426.513	1203.06
426.735	1222.06
426.958	1211.06
427.18	1201.06
427.402	1213.06
427.625	1227.06
427.847	1161.06
428.069	1177.06
428.292	1215.06
428.514	1200.06
428.736	1195.06
428.958	1197.06
429.181	1177.06
429.403	1173.06
429.625	1182.06
429.847	1173.06
430.069	1191.06
430.292	1233.06
430.514	1245.06
430.736	1279.06
430.958	1203.06
431.18	1173.06
431.402	1179.06
431.624	1185.06
431.846	1158.06
432.068	1145.06
432.29	1157.06
432.512	1175.06
432.734	1165.06
432.956	1188.06
433.178	1211.06
433.4	1195.06
433.622	1192.06
433.844	1199.06
434.066	1163.06
434.287	1165.06
434.509	1188.06
434.731	1225.06
434.953	1213.06
435.175	1224.06
435.397	1239.06
435.618	1192.06
435.84	1204.06
436.062	1192.06
436.284	1171.06
436.505	1133.06
436.727	1211.06
436.949	1164.06
437.17	1174.06
437.392	1146.06
437.614	1148.06
437.835	1126.06
438.057	1132.06
438.278	1110.06
438.5	1159.06
438.721	1194.06
438.943	1219.06
439.165	1225.06
439.386	1206.06
439.608	1177.06
439.829	1250.06
440.05	1252.06
440.272	1304.06
440.493	1240.06
440.715	1203.06
440.936	1203.06
441.158	1210.06
441.379	1251.06
441.6	1276.06
441.822	1313.06
442.043	1355.06
442.264	1417.06
442.486	1362.06
442.707	1285.06
442.928	1263.06
443.149	1251.06
443.371	1247.06
443.592	1279.06
443.813	1285.06
444.034	1249.06
444.255	1295.06
444.476	1315.06
444.698	1339.06
444.919	1347.06
445.14	1430.06
445.361	1373.06
445.582	1307.06
445.803	1260.06
446.024	1254.06
446.245	1280.06
446.466	1257.06
446.687	1250.06
446.908	1255.06
447.129	1213.06
447.35	1210.06
447.571	1156.06
447.792	1165.06
448.013	1162.06
448.234	1151.06
448.455	1173.06
448.675	1163.06
448.896	1190.06
449.117	1261.06
449.338	1330.06
449.559	1392.06
449.779	1254.06
450	1161.06
450.221	1144.06
450.442	1135.06
450.662	1109.06
450.883	1125.06
451.104	1133.06
451.324	1133.06
451.545	1116.06
451.766	1139.06
451.986	1161.06
452.207	1214.06
452.428	1541.06
452.648	2103.06
452.869	1805.06
453.089	1330.06
453.31	1250.06
453.53	1248.06
453.751	1274.06
453.971	1370.06
454.192	1331.06
454.412	1175.06
454.633	1120.06
454.853	1059.06
455.073	1085.06
455.294	1079.06
455.514	1095.06
455.734	1065.06
455.955	1081.06
456.175	1065.06
456.395	1093.06
456.616	1090.06
456.836	1106.06
457.056	1122.06
457.276	1087.06
457.497	1127.06
457.717	1159.06
457.937	1145.06
458.157	1132.06
458.377	1091.06
458.598	1123.06
458.818	1135.06
459.038	1146.06
459.258	1174.06
459.478	1155.06
459.698	1176.06
459.918	1175.06
460.138	1220.06
460.358	1230.06
460.578	1234.06
460.798	1264.06
461.018	1283.06
461.238	1279.06
461.458	1259.06
461.678	1279.06
461.898	1305.06
462.118	1338.06
462.338	1314.06
462.558	1327.06
462.777	1373.06
462.997	1413.06
463.217	1455.06
463.437	1500.06
463.657	1537.06
463.876	1515.06
464.096	1425.06
464.316	1397.06
464.536	1370.06
464.755	1356.06
464.975	1327.06
465.195	1291.06
465.414	1248.06
465.634	1204.06
465.854	1210.06
466.073	1183.06
466.293	1162.06
466.512	1165.06
466.732	1197.06
466.951	1242.06
467.171	1329.06
467.391	1255.06
467.61	1229.06
467.829	1141.06
468.049	1140.06
468.268	1170.06
468.488	1153.06
468.707	1146.06
468.927	1122.06
469.146	1151.06
469.365	1159.06
469.585	1158.06
469.804	1184.06
470.023	1213.06
470.243	1221.06
470.462	1244.06
470.681	1321.06
470.901	1436.06
471.12	1671.06
471.339	1711.06
471.558	1347.06
471.777	1256.06
471.997	1231.06
472.216	1201.06
472.435	1175.06
472.654	1160.06
472.873	1148.06
473.092	1119.06
473.311	1161.06
473.53	1158.06
473.749	1199.06
473.968	1213.06
474.187	1149.06
474.406	1129.06
474.625	1159.06
474.844	1188.06
475.063	1175.06
475.282	1179.06
475.501	1126.06
475.72	1171.06
475.939	1173.06
476.158	1199.06
476.377	1204.06
476.596	1215.06
476.814	1228.06
477.033	1177.06
477.252	1263.06
477.471	1264.06
477.69	1283.06
477.908	1281.06
478.127	1313.06
478.346	1312.06
478.564	1378.06
478.783	1367.06
479.002	1381.06
479.22	1375.06
479.439	1363.06
479.658	1367.06
479.876	1381.06
480.095	1371.06
480.313	1388.06
480.532	1406.06
480.751	1404.06
480.969	1381.06
481.188	1369.06
481.406	1334.06
481.624	1354.06
481.843	1365.06
482.061	1395.06
482.28	1397.06
482.498	1359.06
482.717	1363.06
482.935	1389.06
483.153	1396.06
483.372	1473.06
483.59	1429.06
483.808	1479.06
484.027	1493.06
484.245	1545.06
484.463	1772.06
484.681	1939.06
484.9	1764.06
485.118	1642.06
485.336	1606.06
485.554	1631.06
485.772	1689.06
485.99	1961.06
486.209	2144.06
486.427	1741.06
486.645	1603.06
486.863	1515.06
487.081	1528.06
487.299	1506.06
487.517	1518.06
487.735	1489.06
487.953	1525.06
488.171	1464.06
488.389	1503.06
488.607	1448.06
488.825	1407.06
489.043	1407.06
489.261	1401.06
489.479	1424.06
489.696	1476.06
489.914	1435.06
490.132	1414.06
490.35	1444.06
490.568	1459.06
490.786	1489.06
491.003	1505.06
491.221	1525.06
491.439	1537.06
491.657	1564.06
491.874	1566.06
492.092	1553.06
492.31	1577.06
492.527	1561.06
492.745	1531.06
492.963	1551.06
493.18	1537.06
493.398	1504.06
493.615	1545.06
493.833	1561.06
494.05	1500.06
494.268	1542.06
494.485	1495.06
494.703	1516.06
494.92	1559.06
495.138	1546.06
495.355	1537.06
495.573	1537.06
495.79	1510.06
496.008	1559.06
496.225	1560.06
496.442	1576.06
496.66	1631.06
496.877	1695.06
497.094	1686.06
497.312	1633.06
497.529	1653.06
497.746	1651.06
497.963	1670.06
498.181	1680.06
498.398	1713.06
498.615	1796.06
498.832	1848.06
499.049	1926.06
499.267	2065.06
499.484	2188.06
499.701	2198.06
499.918	2342.06
500.135	2365.06
500.352	2555.06
500.569	2580.06
500.786	2515.06
501.003	2465.06
501.22	2343.06
501.437	2245.06
501.654	2113.06
501.871	1941.06
502.088	1916.06
502.305	1852.06
502.522	1780.06
502.739	1744.06
502.956	1724.06
503.172	1663.06
503.389	1621.06
503.606	1612.06
503.823	1589.06
504.04	1571.06
504.256	1574.06
504.473	1558.06
504.69	1507.06
504.907	1540.06
505.123	1522.06
505.34	1481.06
505.557	1417.06
505.773	1426.06
505.99	1399.06
506.207	1386.06
506.423	1384.06
506.64	1361.06
506.856	1362.06
507.073	1370.06
507.289	1375.06
507.506	1323.06
507.722	1319.06
507.939	1306.06
508.155	1319.06
508.372	1286.06
508.588	1290.06
508.805	1308.06
509.021	1312.06
509.238	1317.06
509.454	1404.06
509.67	1449.06
509.887	1362.06
510.103	1331.06
510.319	1307.06
510.536	1285.06
510.752	1270.06
510.968	1267.06
511.184	1219.06
511.401	1243.06
511.617	1250.06
511.833	1235.06
512.049	1236.06
512.265	1255.06
512.481	1252.06
512.698	1247.06
512.914	1241.06
513.13	1237.06
513.346	1213.06
513.562	1240.06
513.778	1269.06
513.994	1280.06
514.21	1310.06
514.426	1364.06
514.642	1405.06
514.858	1297.06
515.074	1257.06
515.29	1276.06
515.506	1302.06
515.721	1265.06
515.937	1272.06
516.153	1303.06
516.369	1304.06
516.585	1313.06
516.801	1337.06
517.016	1384.06
517.232	1396.06
517.448	1407.06
517.664	1391.06
517.879	1400.06
518.095	1412.06
518.311	1387.06
518.527	1383.06
518.742	1371.06
518.958	1353.06
519.173	1395.06
519.389	1323.06
519.605	1329.06
519.82	1292.06
520.036	1281.06
520.251	1226.06
520.467	1242.06
520.682	1240.06
520.898	1242.06
521.113	1235.06
521.329	1230.06
521.544	1218.06
521.76	1249.06
521.975	1215.06
522.19	1227.06
522.406	1216.06
522.621	1192.06
522.836	1199.06
523.052	1204.06
523.267	1219.06
523.482	1187.06
523.698	1169.06
523.913	1185.06
524.128	1182.06
524.343	1212.06
524.559	1215.06
524.774	1162.06
524.989	1194.06
525.204	1235.06
525.419	1216.06
525.634	1209.06
525.849	1193.06
526.064	1187.06
526.28	1187.06
526.495	1159.06
526.71	1191.06
526.925	1223.06
527.14	1161.06
527.355	1201.06
527.57	1197.06
527.785	1192.06
527.999	1203.06
528.214	1240.06
528.429	1233.06
528.644	1221.06
528.859	1256.06
529.074	1300.06
529.289	1297.06
529.503	1297.06
529.718	1285.06
529.933	1272.06
530.148	1233.06
530.363	1264.06
530.577	1261.06
530.792	1257.06
531.007	1256.06
531.221	1260.06
531.436	1283.06
531.651	1303.06
531.865	1300.06
532.08	1293.06
532.295	1339.06
532.509	1441.06
532.724	1401.06
532.938	1419.06
533.153	1452.06
533.367	1513.06
533.582	1620.06
533.796	1597.06
534.011	1547.06
534.225	1477.06
534.44	1433.06
534.654	1468.06
534.868	1418.06
535.083	1382.06
535.297	1372.06
535.511	1357.06
535.726	1379.06
535.94	1327.06
536.154	1307.06
536.369	1296.06
536.583	1253.06
536.797	1241.06
537.011	1272.06
537.225	1219.06
537.44	1196.06
537.654	1220.06
537.868	1218.06
538.082	1200.06
538.296	1161.06
538.51	1193.06
538.724	1162.06
538.938	1174.06
539.153	1213.06
539.367	1209.06
539.581	1164.06
539.795	1183.06
540.009	1154.06
540.222	1145.06
540.436	1157.06
540.65	1133.06
540.864	1173.06
541.078	1217.06
541.292	1275.06
541.506	1508.06
541.72	1573.06
541.934	1368.06
542.147	1316.06
542.361	1243.06
542.575	1203.06
542.789	1151.06
543.002	1160.06
543.216	1130.06
543.43	1126.06
543.644	1141.06
543.857	1143.06
544.071	1141.06
544.285	1158.06
544.498	1162.06
544.712	1149.06
544.925	1130.06
545.139	1154.06
545.352	1128.06
545.566	1111.06
545.779	1169.06
545.993	1175.06
546.206	1153.06
546.42	1139.06
546.633	1160.06
546.847	1151.06
547.06	1155.06
547.274	1192.06
547.487	1201.06
547.7	1188.06
547.914	1191.06
548.127	1166.06
548.34	1193.06
548.554	1151.06
548.767	1154.06
548.98	1171.06
549.193	1176.06
549.407	1167.06
549.62	1161.06
549.833	1154.06
550.046	1164.06
550.259	1164.06
550.473	1153.06
550.686	1171.06
550.899	1179.06
551.112	1140.06
551.325	1122.06
551.538	1132.06
551.751	1132.06
551.964	1140.06
552.177	1172.06
552.39	1179.06
552.603	1193.06
552.816	1219.06
553.029	1252.06
553.242	1241.06
553.455	1254.06
553.667	1268.06
553.88	1239.06
554.093	1249.06
554.306	1259.06
554.519	1305.06
554.732	1315.06
554.944	1337.06
555.157	1360.06
555.37	1332.06
555.583	1405.06
555.795	1449.06
556.008	1513.06
556.221	1661.06
556.433	1719.06
556.646	1720.06
556.859	1705.06
557.071	1633.06
557.284	1621.06
557.496	1576.06
557.709	1560.06
557.921	1541.06
558.134	1561.06
558.346	1586.06
558.559	1605.06
558.771	1679.06
558.984	1796.06
559.196	1892.06
559.409	1811.06
559.621	1707.06
559.833	1616.06
560.046	1537.06
560.258	1506.06
560.47	1448.06
560.683	1365.06
560.895	1377.06
561.107	1337.06
561.32	1285.06
561.532	1238.06
561.744	1222.06
561.956	1219.06
562.168	1179.06
562.381	1183.06
562.593	1162.06
562.805	1164.06
563.017	1190.06
563.229	1200.06
563.441	1317.06
563.653	1161.06
563.865	1113.06
564.077	1060.06
564.289	1086.06
564.501	1076.06
564.713	1096.06
564.925	1053.06
565.137	1096.06
565.349	1081.06
565.561	1085.06
565.773	1064.06
565.985	1108.06
566.197	1097.06
566.408	1140.06
566.62	1187.06
566.832	1173.06
567.044	1172.06
567.255	1160.06
567.467	1200.06
567.679	1161.06
567.891	1272.06
568.102	1422.06
568.314	1679.06
568.526	1409.06
568.737	1224.06
568.949	1107.06
569.161	1041.06
569.372	1002.06
569.584	978.06
569.795	935.06
570.007	969.06
570.218	981.06
570.43	993.06
570.641	931.06
570.853	899.06
571.064	914.06
571.276	899.06
571.487	885.06
571.698	849.06
571.91	856.06
572.121	854.06
572.333	834.06
572.544	844.06
572.755	922.06
572.966	1065.06
573.178	951.06
573.389	865.06
573.6	804.06
573.811	793.06
574.023	808.06
574.234	790.06
574.445	773.06
574.656	782.06
574.867	800.06
575.078	785.06
575.289	803.06
575.501	774.06
575.712	777.06
575.923	761.06
576.134	790.06
576.345	793.06
576.556	772.06
576.767	795.06
576.978	781.06
577.188	791.06
577.399	749.06
577.61	803.06
577.821	793.06
578.032	793.06
578.243	797.06
578.454	828.06
578.665	844.06
578.875	858.06
579.086	876.06
579.297	905.06
579.508	922.06
579.718	987.06
579.929	1132.06
580.14	1212.06
580.35	1269.06
580.561	1228.06
580.772	1114.06
580.982	1042.06
581.193	973.06
581.403	965.06
581.614	904.06
581.825	887.06
582.035	858.06
582.246	818.06
582.456	809.06
582.667	764.06
582.877	794.06
583.087	787.06
583.298	752.06
583.508	737.06
583.719	720.06
583.929	720.06
584.139	695.06
584.35	709.06
584.56	679.06
584.77	673.06
584.981	673.06
585.191	661.06
585.401	658.06
585.611	618.06
585.821	637.06
586.032	632.06
586.242	633.06
586.452	631.06
586.662	625.06
586.872	602.06
587.082	590.06
587.292	581.06
587.502	588.06
587.713	599.06
587.923	599.06
588.133	574.06
588.343	560.06
588.553	574.06
588.762	580.06
588.972	564.06
589.182	603.06
589.392	578.06
589.602	560.06
589.812	572.06
590.022	575.06
590.232	547.06
590.441	560.06
590.651	574.06
590.861	536.06
591.071	549.06
591.281	543.06
591.49	557.06
591.7	560.06
591.91	565.06
592.119	569.06
592.329	585.06
592.539	551.06
592.748	596.06
592.958	599.06
593.167	578.06
593.377	585.06
593.587	588.06
593.796	584.06
594.006	570.06
594.215	573.06
594.424	580.06
594.634	571.06
594.843	576.06
595.053	567.06
595.262	560.06
595.472	547.06
595.681	524.06
595.89	531.06
596.1	525.06
596.309	529.06
596.518	479.06
596.727	534.06
596.937	513.06
597.146	491.06
597.355	493.06
597.564	481.06
597.774	484.06
597.983	503.06
598.192	467.06
598.401	485.06
598.61	477.06
598.819	477.06
599.028	473.06
599.237	484.06
599.446	472.06
599.655	457.06
599.864	473.06
600.073	467.06
600.282	468.06
600.491	457.06
600.7	446.06
600.909	436.06
601.118	443.06
601.327	461.06
601.536	469.06
601.745	478.06
601.953	543.06
602.162	579.06
602.371	521.06
602.58	472.06
602.789	470.06
602.997	464.06
603.206	468.06
603.415	475.06
603.623	440.06
603.832	460.06
604.041	448.06
604.249	448.06
604.458	441.06
604.666	432.06
604.875	437.06
605.084	446.06
605.292	421.06
605.501	443.06
605.709	463.06
605.918	440.06
606.126	445.06
606.334	457.06
606.543	481.06
606.751	493.06
606.96	573.06
607.168	603.06
607.376	497.06
607.585	464.06
607.793	455.06
608.001	451.06
608.21	431.06
608.418	451.06
608.626	450.06
608.834	438.06
609.043	420.06
609.251	417.06
609.459	425.06
609.667	423.06
609.875	421.06
610.083	428.06
610.291	420.06
610.499	433.06
610.707	405.06
610.916	414.06
611.124	427.06
611.332	418.06
611.54	426.06
611.748	396.06
611.955	412.06
612.163	416.06
612.371	416.06
612.579	410.06
612.787	393.06
612.995	403.06
613.203	415.06
613.411	397.06
613.618	418.06
613.826	412.06
614.034	399.06
614.242	392.06
614.449	387.06
614.657	389.06
614.865	378.06
615.072	410.06
615.28	412.06
615.488	400.06
615.695	407.06
615.903	400.06
616.111	409.06
616.318	405.06
616.526	413.06
616.733	390.06
616.941	372.06
617.148	401.06
617.356	392.06
617.563	387.06
617.771	386.06
617.978	383.06
618.185	369.06
618.393	394.06
618.6	388.06
618.807	377.06
619.015	400.06
619.222	398.06
619.429	401.06
619.637	389.06
619.844	381.06
620.051	374.06
620.258	375.06
620.466	362.06
620.673	355.06
620.88	346.06
621.087	351.06
621.294	366.06
621.501	377.06
621.708	368.06
621.915	372.06
622.122	369.06
622.329	353.06
622.536	368.06
622.743	384.06
622.95	361.06
623.157	349.06
623.364	375.06
623.571	343.06
623.778	351.06
623.985	354.06
624.192	347.06
624.399	350.06
624.606	371.06
624.812	348.06
625.019	349.06
625.226	341.06
625.433	346.06
625.639	345.06
625.846	324.06
626.053	341.06
626.259	324.06
626.466	326.06
626.673	325.06
626.879	317.06
627.086	324.06
627.293	320.06
627.499	312.06
627.706	342.06
627.912	323.06
628.119	329.06
628.325	344.06
628.532	336.06
628.738	325.06
628.945	327.06
629.151	333.06
629.357	324.06
629.564	317.06
629.77	320.06
629.976	330.06
630.183	313.06
630.389	323.06
630.595	324.06
630.802	322.06
631.008	318.06
631.214	305.06
631.42	334.06
631.627	307.06
631.833	338.06
632.039	304.06
632.245	324.06
632.451	315.06
632.657	310.06
632.863	308.06
633.069	303.06
633.275	318.06
633.481	314.06
633.688	314.06
633.893	314.06
634.099	307.06
634.305	307.06
634.511	304.06
634.717	307.06
634.923	311.06
635.129	341.06
635.335	385.06
635.541	351.06
635.747	332.06
635.952	327.06
636.158	321.06
636.364	299.06
636.57	316.06
636.775	304.06
636.981	309.06
637.187	319.06
637.392	301.06
637.598	321.06
637.804	300.06
638.009	297.06
638.215	321.06
638.421	321.06
638.626	315.06
638.832	332.06
639.037	305.06
639.243	292.06
639.448	314.06
639.654	321.06
639.859	318.06
640.065	316.06
640.27	316.06
640.475	312.06
640.681	309.06
640.886	322.06
641.091	320.06
641.297	332.06
641.502	323.06
641.707	323.06
641.913	346.06
642.118	339.06
642.323	340.06
642.528	347.06
642.733	346.06
642.939	376.06
643.144	363.06
643.349	366.06
643.554	384.06
643.759	398.06
643.964	387.06
644.169	418.06
644.374	457.06
644.579	479.06
644.784	512.06
644.989	581.06
645.194	682.06
645.399	768.06
645.604	779.06
645.809	618.06
646.014	537.06
646.219	443.06
646.423	380.06
646.628	372.06
646.833	359.06
647.038	367.06
647.243	344.06
647.447	342.06
647.652	325.06
647.857	326.06
648.062	300.06
648.266	297.06
648.471	297.06
648.676	296.06
648.88	295.06
649.085	287.06
649.289	278.06
649.494	285.06
649.698	275.06
649.903	289.06
650.107	255.06
650.312	270.06
650.516	256.06
650.721	264.06
650.925	255.06
651.13	247.06
651.334	236.06
651.539	245.06
651.743	234.06
651.947	234.06
652.152	243.06
652.356	250.06
652.56	257.06
652.764	287.06
652.969	245.06
653.173	235.06
653.377	236.06
653.581	226.06
653.785	211.06
653.99	209.06
654.194	220.06
654.398	226.06
654.602	204.06
654.806	219.06
655.01	225.06
655.214	211.06
655.418	217.06
655.622	221.06
655.826	201.06
656.03	230.06
656.234	214.06
656.438	246.06
656.642	226.06
656.846	239.06
657.049	205.06
657.253	194.06
657.457	193.06
657.661	176.06
657.865	172.06
658.068	181.06
658.272	153.06
658.476	149.06
658.68	162.06
658.883	138.06
659.087	139.06
659.291	146.06
659.494	131.06
659.698	131.06
659.901	120.06
660.105	118.06
660.309	132.06
660.512	119.06
660.716	109.06
660.919	99.06
661.123	123.06
661.326	115.06
661.53	112.06
661.733	103.06
661.936	102.06
662.14	83.06
662.343	100.06
662.546	89.06
662.75	105.06
662.953	96.06
663.156	81.06
663.36	88.06
663.563	92.06
663.766	97.06
663.969	82.06
664.173	83.06
664.376	92.06
664.579	90.06
664.782	91.06
664.985	78.06
665.188	80.06
665.391	75.06
665.594	77.06
665.797	71.06
666	80.06
666.203	90.06
666.406	92.06
666.609	96.06
666.812	88.06
667.015	87.06
667.218	91.06
667.421	80.06
667.624	83.06
667.827	88.06
668.03	88.06
668.232	84.06
668.435	71.06
668.638	86.06
668.841	84.06
669.043	77.06
669.246	95.06
669.449	85.06
669.651	103.06
669.854	87.06
670.057	83.06
670.259	100.06
670.462	98.06
670.665	89.06
670.867	94.06
671.07	92.06
671.272	86.06
671.475	83.06
671.677	62.06
671.88	91.06
672.082	84.06
672.284	92.06
672.487	86.06
672.689	76.06
672.892	78.06
