Data from SnStandardFlinnAPT0064_LampEnergy10_LIBS07252019.E.O._I.C._HRD10591_15-19-52-493.txt Node
Date: Thu Jul 25 15:19:52 EDT 2019
User: cochatt
Spectrometer: HR+D1059
Trigger mode: 1
Integration Time (sec): 1.000000E-1
Scans to average: 1
Electric dark correction enabled: true
Nonlinearity correction enabled: false
Boxcar width: 0
XAxis mode: Wavelengths
Number of Pixels in Spectrum: 2048
>>>>>Begin Spectral Data<<<<<
223.165	-15.25
223.4	-15.25
223.635	-15.25
223.869	-29.25
224.104	-23.25
224.338	-1.25
224.573	-11.25
224.808	-15.25
225.042	-7.25
225.277	-5.25
225.511	-11.25
225.746	-7.25
225.98	12.75
226.215	21.75
226.449	7.75
226.683	24.75
226.918	32.75
227.152	26.75
227.387	46.75
227.621	36.75
227.856	38.75
228.09	49.75
228.324	44.75
228.559	57.75
228.793	112.75
229.027	321.75
229.262	358.75
229.496	321.75
229.73	314.75
229.964	309.75
230.199	311.75
230.433	326.75
230.667	328.75
230.901	334.75
231.136	349.75
231.37	378.75
231.604	426.75
231.838	456.75
232.072	533.75
232.306	573.75
232.541	490.75
232.775	420.75
233.009	401.75
233.243	440.75
233.477	480.75
233.711	533.75
233.945	621.75
234.179	530.75
234.413	468.75
234.647	471.75
234.881	486.75
235.115	548.75
235.349	650.75
235.583	807.75
235.817	1028.75
236.051	989.75
236.285	676.75
236.519	550.75
236.753	534.75
236.987	513.75
237.221	564.75
237.455	534.75
237.689	474.75
237.922	482.75
238.156	488.75
238.39	498.75
238.624	505.75
238.858	493.75
239.091	510.75
239.325	525.75
239.559	510.75
239.793	530.75
240.027	530.75
240.26	571.75
240.494	572.75
240.728	618.75
240.961	645.75
241.195	695.75
241.429	704.75
241.662	735.75
241.896	805.75
242.13	1021.75
242.363	1286.75
242.597	1670.75
242.83	1637.75
243.064	1639.75
243.298	1878.75
243.531	1540.75
243.765	1033.75
243.998	839.75
244.232	720.75
244.465	679.75
244.699	668.75
244.932	692.75
245.166	693.75
245.399	723.75
245.633	724.75
245.866	698.75
246.099	694.75
246.333	678.75
246.566	635.75
246.8	654.75
247.033	655.75
247.266	649.75
247.5	677.75
247.733	715.75
247.966	709.75
248.2	785.75
248.433	896.75
248.666	1036.75
248.899	976.75
249.133	868.75
249.366	916.75
249.599	1004.75
249.832	1139.75
250.066	1141.75
250.299	890.75
250.532	790.75
250.765	791.75
250.998	773.75
251.231	762.75
251.465	755.75
251.698	785.75
251.931	749.75
252.164	772.75
252.397	757.75
252.63	789.75
252.863	822.75
253.096	822.75
253.329	816.75
253.562	801.75
253.795	781.75
254.028	811.75
254.261	854.75
254.494	900.75
254.727	1043.75
254.96	1271.75
255.193	1289.75
255.426	1009.75
255.659	890.75
255.892	876.75
256.124	869.75
256.357	905.75
256.59	923.75
256.823	1009.75
257.056	1153.75
257.289	1374.75
257.521	1525.75
257.754	1257.75
257.987	1014.75
258.22	942.75
258.452	935.75
258.685	924.75
258.918	992.75
259.151	1034.75
259.383	1101.75
259.616	1249.75
259.849	1337.75
260.081	1107.75
260.314	1010.75
260.547	982.75
260.779	960.75
261.012	966.75
261.244	947.75
261.477	997.75
261.71	1017.75
261.942	997.75
262.175	1031.75
262.407	1045.75
262.64	1071.75
262.872	1100.75
263.105	1160.75
263.337	1210.75
263.57	1260.75
263.802	1331.75
264.035	1285.75
264.267	1354.75
264.499	1365.75
264.732	1418.75
264.964	1458.75
265.197	1418.75
265.429	1445.75
265.661	1463.75
265.894	1556.75
266.126	1763.75
266.358	1977.75
266.591	1947.75
266.823	1618.75
267.055	1457.75
267.287	1375.75
267.52	1334.75
267.752	1302.75
267.984	1282.75
268.216	1260.75
268.448	1227.75
268.681	1241.75
268.913	1234.75
269.145	1266.75
269.377	1251.75
269.609	1259.75
269.841	1316.75
270.073	1414.75
270.306	1617.75
270.538	2206.75
270.77	3391.75
271.002	4104.75
271.234	2919.75
271.466	1921.75
271.698	1620.75
271.93	1474.75
272.162	1354.75
272.394	1334.75
272.626	1300.75
272.858	1256.75
273.09	1248.75
273.322	1239.75
273.553	1233.75
273.785	1208.75
274.017	1204.75
274.249	1202.75
274.481	1212.75
274.713	1251.75
274.945	1214.75
275.176	1221.75
275.408	1241.75
275.64	1223.75
275.872	1219.75
276.104	1275.75
276.335	1270.75
276.567	1272.75
276.799	1319.75
277.031	1322.75
277.262	1325.75
277.494	1419.75
277.726	1588.75
277.957	1890.75
278.189	2201.75
278.421	2074.75
278.652	1856.75
278.884	1717.75
279.115	1524.75
279.347	1457.75
279.579	1416.75
279.81	1409.75
280.042	1433.75
280.273	1489.75
280.505	1440.75
280.736	1521.75
280.968	1634.75
281.199	1862.75
281.431	2108.75
281.662	2166.75
281.894	1821.75
282.125	1668.75
282.356	1687.75
282.588	1722.75
282.819	1733.75
283.051	1864.75
283.282	2113.75
283.513	2556.75
283.745	3745.75
283.976	5887.75
284.207	8299.75
284.439	7650.75
284.67	4802.75
284.901	3917.75
285.132	3996.75
285.364	3786.75
285.595	2781.75
285.826	2542.75
286.057	2974.75
286.288	4032.75
286.52	5370.75
286.751	5069.75
286.982	3212.75
287.213	2403.75
287.444	2070.75
287.675	1932.75
287.906	1839.75
288.138	1770.75
288.369	1735.75
288.6	1728.75
288.831	1692.75
289.062	1704.75
289.293	1703.75
289.524	1707.75
289.755	1737.75
289.986	1747.75
290.217	1714.75
290.448	1697.75
290.679	1750.75
290.91	1836.75
291.141	1917.75
291.371	2065.75
291.602	2205.75
291.833	1989.75
292.064	1810.75
292.295	1718.75
292.526	1679.75
292.757	1654.75
292.987	1639.75
293.218	1634.75
293.449	1650.75
293.68	1652.75
293.91	1593.75
294.141	1604.75
294.372	1545.75
294.603	1596.75
294.833	1581.75
295.064	1590.75
295.295	1600.75
295.525	1605.75
295.756	1608.75
295.987	1568.75
296.217	1591.75
296.448	1617.75
296.679	1600.75
296.909	1578.75
297.14	1635.75
297.37	1668.75
297.601	1668.75
297.831	1645.75
298.062	1678.75
298.292	1692.75
298.523	1729.75
298.753	1718.75
298.984	1751.75
299.214	1735.75
299.445	1805.75
299.675	1779.75
299.905	1897.75
300.136	1926.75
300.366	2188.75
300.597	2858.75
300.827	3940.75
301.057	5410.75
301.288	5472.75
301.518	3527.75
301.748	2645.75
301.979	2428.75
302.209	2358.75
302.439	2381.75
302.669	2537.75
302.9	3035.75
303.13	4291.75
303.36	6404.75
303.59	8550.75
303.82	7526.75
304.051	4511.75
304.281	3164.75
304.511	2592.75
304.741	2445.75
304.971	2297.75
305.201	2165.75
305.431	2049.75
305.661	1981.75
305.891	1980.75
306.121	1906.75
306.352	1910.75
306.582	1901.75
306.812	1880.75
307.042	1867.75
307.272	1869.75
307.502	1830.75
307.731	1843.75
307.961	1850.75
308.191	1842.75
308.421	1845.75
308.651	1823.75
308.881	1848.75
309.111	1859.75
309.341	1837.75
309.571	1845.75
309.8	1897.75
310.03	1889.75
310.26	1878.75
310.49	1899.75
310.72	1891.75
310.949	1852.75
311.179	1950.75
311.409	1935.75
311.639	1969.75
311.868	1945.75
312.098	1921.75
312.328	1975.75
312.557	1948.75
312.787	1980.75
313.017	1962.75
313.246	2026.75
313.476	2033.75
313.706	2122.75
313.935	2187.75
314.165	2393.75
314.394	2535.75
314.624	2396.75
314.853	2224.75
315.083	2184.75
315.312	2217.75
315.542	2248.75
315.771	2200.75
316.001	2281.75
316.23	2344.75
316.46	2496.75
316.689	2714.75
316.919	3329.75
317.148	4773.75
317.377	7376.75
317.607	10808.75
317.836	11234.75
318.065	6953.75
318.295	4568.75
318.524	3534.75
318.753	3123.75
318.983	2869.75
319.212	2694.75
319.441	2558.75
319.67	2498.75
319.9	2406.75
320.129	2395.75
320.358	2401.75
320.587	2353.75
320.816	2382.75
321.046	2422.75
321.275	2383.75
321.504	2432.75
321.733	2443.75
321.962	2549.75
322.191	2576.75
322.42	2582.75
322.649	2519.75
322.878	2533.75
323.108	2549.75
323.337	2573.75
323.566	2594.75
323.795	2640.75
324.024	2710.75
324.253	2762.75
324.482	2945.75
324.71	3084.75
324.939	3278.75
325.168	3384.75
325.397	3532.75
325.626	4220.75
325.855	5845.75
326.084	9042.75
326.313	13024.75
326.542	13782.75
326.77	9544.75
326.999	6345.75
327.228	5204.75
327.457	4984.75
327.686	4989.75
327.914	5313.75
328.143	6211.75
328.372	7424.75
328.6	8162.75
328.829	7297.75
329.058	6074.75
329.287	5250.75
329.515	4742.75
329.744	4413.75
329.972	4153.75
330.201	3929.75
330.43	3814.75
330.658	3667.75
330.887	3688.75
331.115	3558.75
331.344	3538.75
331.572	3523.75
331.801	3561.75
332.03	3616.75
332.258	3647.75
332.486	3858.75
332.715	4378.75
332.943	5417.75
333.172	6789.75
333.4	6745.75
333.629	5147.75
333.857	4658.75
334.085	4574.75
334.314	4856.75
334.542	5292.75
334.771	6289.75
334.999	7702.75
335.227	9646.75
335.455	10806.75
335.684	9812.75
335.912	8019.75
336.14	6770.75
336.369	5928.75
336.597	5378.75
336.825	4871.75
337.053	4626.75
337.281	4317.75
337.51	4107.75
337.738	3957.75
337.966	3744.75
338.194	3645.75
338.422	3521.75
338.65	3385.75
338.878	3339.75
339.106	3260.75
339.334	3268.75
339.562	3203.75
339.79	3143.75
340.018	3096.75
340.246	3120.75
340.474	3049.75
340.702	3080.75
340.93	3012.75
341.158	3062.75
341.386	3039.75
341.614	2972.75
341.842	2935.75
342.07	2841.75
342.298	2872.75
342.526	2801.75
342.754	2782.75
342.981	2751.75
343.209	2732.75
343.437	2761.75
343.665	2818.75
343.893	2858.75
344.12	2831.75
344.348	2780.75
344.576	2784.75
344.804	2702.75
345.031	2633.75
345.259	2639.75
345.487	2616.75
345.714	2662.75
345.942	2546.75
346.17	2575.75
346.397	2604.75
346.625	2567.75
346.853	2561.75
347.08	2552.75
347.308	2525.75
347.535	2499.75
347.763	2537.75
347.99	2510.75
348.218	2485.75
348.445	2488.75
348.673	2494.75
348.9	2468.75
349.128	2493.75
349.355	2470.75
349.583	2474.75
349.81	2482.75
350.037	2441.75
350.265	2435.75
350.492	2381.75
350.72	2389.75
350.947	2425.75
351.174	2449.75
351.402	2425.75
351.629	2442.75
351.856	2412.75
352.083	2419.75
352.311	2399.75
352.538	2370.75
352.765	2433.75
352.992	2408.75
353.22	2364.75
353.447	2349.75
353.674	2408.75
353.901	2426.75
354.128	2461.75
354.355	2441.75
354.583	2362.75
354.81	2400.75
355.037	2450.75
355.264	2442.75
355.491	2429.75
355.718	2462.75
355.945	2464.75
356.172	2504.75
356.399	2500.75
356.626	2477.75
356.853	2514.75
357.08	2537.75
357.307	2551.75
357.534	2566.75
357.761	2583.75
357.988	2626.75
358.215	2574.75
358.441	2587.75
358.668	2544.75
358.895	2568.75
359.122	2555.75
359.349	2573.75
359.576	2553.75
359.802	2568.75
360.029	2523.75
360.256	2541.75
360.483	2558.75
360.709	2589.75
360.936	2510.75
361.163	2562.75
361.39	2584.75
361.616	2532.75
361.843	2557.75
362.07	2557.75
362.296	2594.75
362.523	2576.75
362.749	2565.75
362.976	2554.75
363.203	2546.75
363.429	2537.75
363.656	2540.75
363.882	2539.75
364.109	2550.75
364.335	2540.75
364.562	2571.75
364.788	2550.75
365.015	2608.75
365.241	2636.75
365.468	2844.75
365.694	2926.75
365.92	2823.75
366.147	2608.75
366.373	2675.75
366.599	2626.75
366.826	2593.75
367.052	2603.75
367.278	2616.75
367.505	2633.75
367.731	2600.75
367.957	2577.75
368.184	2629.75
368.41	2660.75
368.636	2700.75
368.862	2705.75
369.089	2720.75
369.315	2652.75
369.541	2644.75
369.767	2660.75
369.993	2666.75
370.219	2587.75
370.445	2678.75
370.672	2699.75
370.898	2646.75
371.124	2701.75
371.35	2712.75
371.576	2748.75
371.802	2770.75
372.028	2734.75
372.254	2772.75
372.48	2776.75
372.706	2795.75
372.932	2790.75
373.158	2833.75
373.384	2775.75
373.61	2800.75
373.835	2812.75
374.061	2788.75
374.287	2857.75
374.513	2844.75
374.739	2889.75
374.965	2909.75
375.191	2868.75
375.416	2892.75
375.642	2842.75
375.868	2831.75
376.094	2850.75
376.319	2759.75
376.545	2763.75
376.771	2756.75
376.997	2721.75
377.222	2740.75
377.448	2748.75
377.674	2720.75
377.899	2742.75
378.125	2755.75
378.35	2723.75
378.576	2770.75
378.802	2756.75
379.027	2837.75
379.253	2850.75
379.478	3046.75
379.704	3612.75
379.929	5246.75
380.155	8079.75
380.38	8964.75
380.606	5503.75
380.831	3789.75
381.057	3273.75
381.282	3029.75
381.507	2899.75
381.733	2854.75
381.958	2781.75
382.184	2731.75
382.409	2752.75
382.634	2725.75
382.86	2716.75
383.085	2702.75
383.31	2704.75
383.535	2732.75
383.761	2710.75
383.986	2729.75
384.211	2752.75
384.436	2801.75
384.662	2725.75
384.887	2845.75
385.112	2736.75
385.337	2786.75
385.562	2786.75
385.787	2795.75
386.013	2806.75
386.238	2844.75
386.463	2741.75
386.688	2776.75
386.913	2786.75
387.138	2774.75
387.363	2737.75
387.588	2803.75
387.813	2774.75
388.038	2797.75
388.263	2686.75
388.488	2752.75
388.713	2723.75
388.938	2791.75
389.163	2765.75
389.387	2806.75
389.612	2776.75
389.837	2786.75
390.062	2741.75
390.287	2785.75
390.512	2788.75
390.736	2847.75
390.961	2880.75
391.186	2876.75
391.411	2884.75
391.636	2891.75
391.86	2934.75
392.085	2948.75
392.31	2889.75
392.534	2869.75
392.759	2837.75
392.984	2809.75
393.208	2874.75
393.433	2840.75
393.658	2825.75
393.882	2772.75
394.107	2794.75
394.331	2784.75
394.556	2805.75
394.78	2843.75
395.005	2897.75
395.229	2856.75
395.454	2849.75
395.678	2914.75
395.903	2928.75
396.127	2885.75
396.352	2864.75
396.576	2882.75
396.801	2827.75
397.025	2923.75
397.249	2932.75
397.474	2912.75
397.698	2892.75
397.922	2962.75
398.147	2923.75
398.371	2982.75
398.595	3019.75
398.82	3092.75
399.044	3171.75
399.268	3344.75
399.492	3502.75
399.717	3611.75
399.941	3693.75
400.165	3500.75
400.389	3396.75
400.613	3238.75
400.837	3149.75
401.062	3108.75
401.286	3097.75
401.51	3073.75
401.734	3026.75
401.958	3059.75
402.182	3037.75
402.406	3030.75
402.63	3062.75
402.854	3095.75
403.078	3134.75
403.302	3103.75
403.526	3118.75
403.75	3088.75
403.974	3186.75
404.198	3165.75
404.422	3165.75
404.645	3146.75
404.869	3100.75
405.093	3145.75
405.317	3181.75
405.541	3217.75
405.765	3248.75
405.988	3256.75
406.212	3286.75
406.436	3234.75
406.66	3303.75
406.883	3315.75
407.107	3340.75
407.331	3422.75
407.555	3456.75
407.778	3464.75
408.002	3363.75
408.226	3416.75
408.449	3397.75
408.673	3333.75
408.896	3213.75
409.12	3216.75
409.344	3245.75
409.567	3199.75
409.791	3212.75
410.014	3147.75
410.238	3094.75
410.461	3166.75
410.685	3116.75
410.908	3098.75
411.132	3036.75
411.355	3074.75
411.578	3045.75
411.802	2988.75
412.025	3036.75
412.249	3033.75
412.472	3066.75
412.695	3004.75
412.919	3008.75
413.142	3026.75
413.365	2956.75
413.589	2972.75
413.812	3006.75
414.035	3045.75
414.258	2989.75
414.482	3018.75
414.705	3046.75
414.928	3001.75
415.151	2981.75
415.374	2938.75
415.597	2972.75
415.821	2888.75
416.044	2904.75
416.267	2852.75
416.49	2866.75
416.713	2874.75
416.936	2870.75
417.159	2795.75
417.382	2885.75
417.605	2848.75
417.828	2834.75
418.051	2872.75
418.274	2912.75
418.497	2896.75
418.72	3000.75
418.943	2899.75
419.166	3029.75
419.389	3234.75
419.611	3169.75
419.834	3045.75
420.057	3022.75
420.28	2962.75
420.503	2873.75
420.726	2904.75
420.948	2888.75
421.171	2852.75
421.394	2898.75
421.617	2921.75
421.839	2929.75
422.062	2878.75
422.285	2888.75
422.507	2957.75
422.73	2918.75
422.953	2966.75
423.175	2998.75
423.398	2952.75
423.621	2864.75
423.843	2888.75
424.066	2874.75
424.288	2870.75
424.511	2874.75
424.733	2898.75
424.956	2848.75
425.178	2853.75
425.401	2857.75
425.623	2843.75
425.846	2795.75
426.068	2759.75
426.291	2754.75
426.513	2738.75
426.735	2761.75
426.958	2723.75
427.18	2700.75
427.402	2769.75
427.625	2780.75
427.847	2672.75
428.069	2653.75
428.292	2717.75
428.514	2697.75
428.736	2654.75
428.958	2666.75
429.181	2659.75
429.403	2579.75
429.625	2631.75
429.847	2642.75
430.069	2707.75
430.292	2840.75
430.514	2856.75
430.736	2913.75
430.958	2693.75
431.18	2618.75
431.402	2638.75
431.624	2637.75
431.846	2571.75
432.068	2644.75
432.29	2652.75
432.512	2582.75
432.734	2682.75
432.956	2655.75
433.178	2657.75
433.4	2673.75
433.622	2683.75
433.844	2661.75
434.066	2642.75
434.287	2647.75
434.509	2676.75
434.731	2712.75
434.953	2738.75
435.175	2774.75
435.397	2763.75
435.618	2698.75
435.84	2664.75
436.062	2644.75
436.284	2621.75
436.505	2632.75
436.727	2628.75
436.949	2633.75
437.17	2558.75
437.392	2528.75
437.614	2558.75
437.835	2518.75
438.057	2594.75
438.278	2557.75
438.5	2604.75
438.721	2641.75
438.943	2672.75
439.165	2728.75
439.386	2756.75
439.608	2764.75
439.829	2764.75
440.05	2865.75
440.272	2933.75
440.493	2766.75
440.715	2715.75
440.936	2772.75
441.158	2751.75
441.379	2803.75
441.6	2906.75
441.822	2983.75
442.043	3123.75
442.264	3232.75
442.486	3028.75
442.707	2873.75
442.928	2872.75
443.149	2777.75
443.371	2779.75
443.592	2748.75
443.813	2880.75
444.034	2817.75
444.255	2868.75
444.476	2950.75
444.698	2993.75
444.919	3039.75
445.14	3117.75
445.361	2964.75
445.582	2887.75
445.803	2840.75
446.024	2822.75
446.245	2805.75
446.466	2813.75
446.687	2802.75
446.908	2769.75
447.129	2660.75
447.35	2656.75
447.571	2682.75
447.792	2597.75
448.013	2563.75
448.234	2617.75
448.455	2612.75
448.675	2669.75
448.896	2746.75
449.117	2820.75
449.338	3043.75
449.559	3180.75
449.779	2831.75
450	2664.75
450.221	2587.75
450.442	2582.75
450.662	2600.75
450.883	2570.75
451.104	2554.75
451.324	2580.75
451.545	2552.75
451.766	2602.75
451.986	2635.75
452.207	2848.75
452.428	3663.75
452.648	5640.75
452.869	4744.75
453.089	3240.75
453.31	3000.75
453.53	3003.75
453.751	3090.75
453.971	3199.75
454.192	3235.75
454.412	2801.75
454.633	2597.75
454.853	2546.75
455.073	2426.75
455.294	2449.75
455.514	2398.75
455.734	2448.75
455.955	2391.75
456.175	2445.75
456.395	2418.75
456.616	2416.75
456.836	2465.75
457.056	2527.75
457.276	2509.75
457.497	2651.75
457.717	2691.75
457.937	2550.75
458.157	2621.75
458.377	2560.75
458.598	2605.75
458.818	2628.75
459.038	2610.75
459.258	2623.75
459.478	2663.75
459.698	2646.75
459.918	2674.75
460.138	2740.75
460.358	2797.75
460.578	2792.75
460.798	2877.75
461.018	2867.75
461.238	2866.75
461.458	2913.75
461.678	2914.75
461.898	2988.75
462.118	2994.75
462.338	3041.75
462.558	3110.75
462.777	3178.75
462.997	3283.75
463.217	3456.75
463.437	3484.75
463.657	3630.75
463.876	3572.75
464.096	3421.75
464.316	3282.75
464.536	3201.75
464.755	3123.75
464.975	3051.75
465.195	2950.75
465.414	2887.75
465.634	2714.75
465.854	2763.75
466.073	2713.75
466.293	2728.75
466.512	2715.75
466.732	2716.75
466.951	2859.75
467.171	3050.75
467.391	2970.75
467.61	2793.75
467.829	2631.75
468.049	2604.75
468.268	2592.75
468.488	2611.75
468.707	2582.75
468.927	2631.75
469.146	2598.75
469.365	2602.75
469.585	2679.75
469.804	2701.75
470.023	2758.75
470.243	2771.75
470.462	2859.75
470.681	3034.75
470.901	3370.75
471.12	3805.75
471.339	3829.75
471.558	3228.75
471.777	2961.75
471.997	2752.75
472.216	2708.75
472.435	2722.75
472.654	2626.75
472.873	2610.75
473.092	2598.75
473.311	2629.75
473.53	2645.75
473.749	2720.75
473.968	2784.75
474.187	2680.75
474.406	2597.75
474.625	2610.75
474.844	2609.75
475.063	2636.75
475.282	2616.75
475.501	2656.75
475.72	2628.75
475.939	2693.75
476.158	2742.75
476.377	2788.75
476.596	2737.75
476.814	2769.75
477.033	2785.75
477.252	2835.75
477.471	2829.75
477.69	2949.75
477.908	2992.75
478.127	2998.75
478.346	2944.75
478.564	3028.75
478.783	3082.75
479.002	3122.75
479.22	3076.75
479.439	3143.75
479.658	3129.75
479.876	3109.75
480.095	3160.75
480.313	3240.75
480.532	3302.75
480.751	3213.75
480.969	3207.75
481.188	3190.75
481.406	3133.75
481.624	3150.75
481.843	3261.75
482.061	3211.75
482.28	3152.75
482.498	3204.75
482.717	3176.75
482.935	3226.75
483.153	3239.75
483.372	3232.75
483.59	3341.75
483.808	3382.75
484.027	3448.75
484.245	3698.75
484.463	4095.75
484.681	4621.75
484.9	4187.75
485.118	3930.75
485.336	3813.75
485.554	3853.75
485.772	4086.75
485.99	4651.75
486.209	4948.75
486.427	4262.75
486.645	3715.75
486.863	3594.75
487.081	3442.75
487.299	3417.75
487.517	3389.75
487.735	3448.75
487.953	3456.75
488.171	3386.75
488.389	3283.75
488.607	3362.75
488.825	3306.75
489.043	3237.75
489.261	3262.75
489.479	3242.75
489.696	3314.75
489.914	3293.75
490.132	3303.75
490.35	3381.75
490.568	3291.75
490.786	3332.75
491.003	3396.75
491.221	3373.75
491.439	3432.75
491.657	3382.75
491.874	3340.75
492.092	3496.75
492.31	3461.75
492.527	3409.75
492.745	3427.75
492.963	3437.75
493.18	3468.75
493.398	3384.75
493.615	3434.75
493.833	3463.75
494.05	3398.75
494.268	3405.75
494.485	3470.75
494.703	3468.75
494.92	3431.75
495.138	3448.75
495.355	3446.75
495.573	3453.75
495.79	3482.75
496.008	3511.75
496.225	3584.75
496.442	3597.75
496.66	3707.75
496.877	3922.75
497.094	3853.75
497.312	3752.75
497.529	3723.75
497.746	3735.75
497.963	3824.75
498.181	3911.75
498.398	4023.75
498.615	4131.75
498.832	4226.75
499.049	4451.75
499.267	4794.75
499.484	5169.75
499.701	5061.75
499.918	5083.75
500.135	5476.75
500.352	5691.75
500.569	5804.75
500.786	5705.75
501.003	5551.75
501.22	5346.75
501.437	5068.75
501.654	4816.75
501.871	4648.75
502.088	4397.75
502.305	4251.75
502.522	4132.75
502.739	4052.75
502.956	3842.75
503.172	3820.75
503.389	3717.75
503.606	3668.75
503.823	3559.75
504.04	3547.75
504.256	3558.75
504.473	3659.75
504.69	3542.75
504.907	3518.75
505.123	3461.75
505.34	3370.75
505.557	3310.75
505.773	3276.75
505.99	3251.75
506.207	3144.75
506.423	3172.75
506.64	3074.75
506.856	3072.75
507.073	3122.75
507.289	3011.75
507.506	2970.75
507.722	3024.75
507.939	3002.75
508.155	2998.75
508.372	2977.75
508.588	2997.75
508.805	2971.75
509.021	2972.75
509.238	2971.75
509.454	3185.75
509.67	3405.75
509.887	3140.75
510.103	3020.75
510.319	3010.75
510.536	3018.75
510.752	2942.75
510.968	2953.75
511.184	2840.75
511.401	2864.75
511.617	2885.75
511.833	2851.75
512.049	2865.75
512.265	2875.75
512.481	2875.75
512.698	2810.75
512.914	2814.75
513.13	2869.75
513.346	2830.75
513.562	2868.75
513.778	2896.75
513.994	2890.75
514.21	2975.75
514.426	3190.75
514.642	3316.75
514.858	3046.75
515.074	2940.75
515.29	2921.75
515.506	2942.75
515.721	2980.75
515.937	2963.75
516.153	2937.75
516.369	2922.75
516.585	3015.75
516.801	3041.75
517.016	3078.75
517.232	3114.75
517.448	3227.75
517.664	3272.75
517.879	3266.75
518.095	3219.75
518.311	3226.75
518.527	3140.75
518.742	3167.75
518.958	3252.75
519.173	3337.75
519.389	3136.75
519.605	3053.75
519.82	3006.75
520.036	2960.75
520.251	2902.75
520.467	2884.75
520.682	2859.75
520.898	2815.75
521.113	2776.75
521.329	2838.75
521.544	2824.75
521.76	2840.75
521.975	2805.75
522.19	2777.75
522.406	2771.75
522.621	2763.75
522.836	2756.75
523.052	2743.75
523.267	2725.75
523.482	2773.75
523.698	2763.75
523.913	2703.75
524.128	2742.75
524.343	2726.75
524.559	2771.75
524.774	2688.75
524.989	2750.75
525.204	2699.75
525.419	2703.75
525.634	2699.75
525.849	2729.75
526.064	2749.75
526.28	2725.75
526.495	2730.75
526.71	2733.75
526.925	2770.75
527.14	2750.75
527.355	2773.75
527.57	2789.75
527.785	2820.75
527.999	2782.75
528.214	2785.75
528.429	2900.75
528.644	2840.75
528.859	2869.75
529.074	2885.75
529.289	2952.75
529.503	2955.75
529.718	2964.75
529.933	2937.75
530.148	2942.75
530.363	2898.75
530.577	2918.75
530.792	2945.75
531.007	2973.75
531.221	2938.75
531.436	3012.75
531.651	3015.75
531.865	3080.75
532.08	3061.75
532.295	3227.75
532.509	3442.75
532.724	3500.75
532.938	3496.75
533.153	3644.75
533.367	3867.75
533.582	4115.75
533.796	4028.75
534.011	3944.75
534.225	3726.75
534.44	3578.75
534.654	3526.75
534.868	3363.75
535.083	3335.75
535.297	3312.75
535.511	3206.75
535.726	3164.75
535.94	3122.75
536.154	3143.75
536.369	3007.75
536.583	2980.75
536.797	2916.75
537.011	2937.75
537.225	2839.75
537.44	2873.75
537.654	2816.75
537.868	2794.75
538.082	2766.75
538.296	2733.75
538.51	2757.75
538.724	2788.75
538.938	2738.75
539.153	2690.75
539.367	2715.75
539.581	2656.75
539.795	2584.75
540.009	2659.75
540.222	2648.75
540.436	2686.75
540.65	2687.75
540.864	2715.75
541.078	2706.75
541.292	2933.75
541.506	3353.75
541.72	3571.75
541.934	3094.75
542.147	2888.75
542.361	2809.75
542.575	2704.75
542.789	2628.75
543.002	2559.75
543.216	2574.75
543.43	2592.75
543.644	2595.75
543.857	2616.75
544.071	2578.75
544.285	2553.75
544.498	2527.75
544.712	2550.75
544.925	2597.75
545.139	2592.75
545.352	2556.75
545.566	2545.75
545.779	2560.75
545.993	2586.75
546.206	2594.75
546.42	2572.75
546.633	2583.75
546.847	2583.75
547.06	2569.75
547.274	2594.75
547.487	2588.75
547.7	2560.75
547.914	2582.75
548.127	2591.75
548.34	2549.75
548.554	2549.75
548.767	2535.75
548.98	2605.75
549.193	2548.75
549.407	2655.75
549.62	2582.75
549.833	2587.75
550.046	2595.75
550.259	2536.75
550.473	2548.75
550.686	2603.75
550.899	2572.75
551.112	2592.75
551.325	2595.75
551.538	2598.75
551.751	2575.75
551.964	2598.75
552.177	2585.75
552.39	2668.75
552.603	2733.75
552.816	2772.75
553.029	2749.75
553.242	2773.75
553.455	2851.75
553.667	2843.75
553.88	2908.75
554.093	2906.75
554.306	2898.75
554.519	2968.75
554.732	3001.75
554.944	3115.75
555.157	3106.75
555.37	3205.75
555.583	3362.75
555.795	3544.75
556.008	3849.75
556.221	4292.75
556.433	4608.75
556.646	4648.75
556.859	4422.75
557.071	4183.75
557.284	4197.75
557.496	3912.75
557.709	3881.75
557.921	3868.75
558.134	3821.75
558.346	3905.75
558.559	4030.75
558.771	4268.75
558.984	4707.75
559.196	5082.75
559.409	4877.75
559.621	4427.75
559.833	4179.75
560.046	3909.75
560.258	3638.75
560.47	3475.75
560.683	3354.75
560.895	3272.75
561.107	3101.75
561.32	2982.75
561.532	2901.75
561.744	2876.75
561.956	2830.75
562.168	2757.75
562.381	2738.75
562.593	2681.75
562.805	2736.75
563.017	2792.75
563.229	2864.75
563.441	3277.75
563.653	2725.75
563.865	2516.75
564.077	2518.75
564.289	2410.75
564.501	2440.75
564.713	2413.75
564.925	2409.75
565.137	2403.75
565.349	2424.75
565.561	2414.75
565.773	2460.75
565.985	2428.75
566.197	2465.75
566.408	2496.75
566.62	2501.75
566.832	2618.75
567.044	2636.75
567.255	2631.75
567.467	2677.75
567.679	2726.75
567.891	2896.75
568.102	3140.75
568.314	3626.75
568.526	3212.75
568.737	2790.75
568.949	2522.75
569.161	2410.75
569.372	2288.75
569.584	2236.75
569.795	2178.75
570.007	2144.75
570.218	2245.75
570.43	2292.75
570.641	2104.75
570.853	2040.75
571.064	2022.75
571.276	2032.75
571.487	1977.75
571.698	1952.75
571.91	1879.75
572.121	1898.75
572.333	1901.75
572.544	1921.75
572.755	2009.75
572.966	2398.75
573.178	2145.75
573.389	1946.75
573.6	1834.75
573.811	1832.75
574.023	1771.75
574.234	1755.75
574.445	1777.75
574.656	1753.75
574.867	1734.75
575.078	1737.75
575.289	1797.75
575.501	1769.75
575.712	1690.75
575.923	1721.75
576.134	1710.75
576.345	1722.75
576.556	1733.75
576.767	1731.75
576.978	1785.75
577.188	1770.75
577.399	1799.75
577.61	1782.75
577.821	1819.75
578.032	1842.75
578.243	1913.75
578.454	1897.75
578.665	1933.75
578.875	1984.75
579.086	2055.75
579.297	2179.75
579.508	2285.75
579.718	2490.75
579.929	2864.75
580.14	3400.75
580.35	3462.75
580.561	3147.75
580.772	2861.75
580.982	2640.75
581.193	2477.75
581.403	2273.75
581.614	2184.75
581.825	2076.75
582.035	2024.75
582.246	1892.75
582.456	1830.75
582.667	1836.75
582.877	1807.75
583.087	1776.75
583.298	1696.75
583.508	1637.75
583.719	1616.75
583.929	1578.75
584.139	1569.75
584.35	1493.75
584.56	1497.75
584.77	1483.75
584.981	1443.75
585.191	1461.75
585.401	1428.75
585.611	1369.75
585.821	1371.75
586.032	1369.75
586.242	1340.75
586.452	1347.75
586.662	1332.75
586.872	1324.75
587.082	1320.75
587.292	1299.75
587.502	1298.75
587.713	1278.75
587.923	1269.75
588.133	1255.75
588.343	1258.75
588.553	1254.75
588.762	1205.75
588.972	1218.75
589.182	1298.75
589.392	1224.75
589.602	1184.75
589.812	1233.75
590.022	1196.75
590.232	1183.75
590.441	1216.75
590.651	1222.75
590.861	1233.75
591.071	1153.75
591.281	1216.75
591.49	1193.75
591.7	1192.75
591.91	1211.75
592.119	1202.75
592.329	1223.75
592.539	1200.75
592.748	1200.75
592.958	1225.75
593.167	1184.75
593.377	1207.75
593.587	1238.75
593.796	1228.75
594.006	1226.75
594.215	1221.75
594.424	1236.75
594.634	1221.75
594.843	1180.75
595.053	1174.75
595.262	1139.75
595.472	1148.75
595.681	1142.75
595.89	1089.75
596.1	1081.75
596.309	1088.75
596.518	1097.75
596.727	1080.75
596.937	1062.75
597.146	1050.75
597.355	1032.75
597.564	1005.75
597.774	1039.75
597.983	1031.75
598.192	1016.75
598.401	980.75
598.61	994.75
598.819	987.75
599.028	973.75
599.237	970.75
599.446	941.75
599.655	953.75
599.864	947.75
600.073	918.75
600.282	978.75
600.491	973.75
600.7	955.75
600.909	953.75
601.118	948.75
601.327	966.75
601.536	952.75
601.745	995.75
601.953	1093.75
602.162	1228.75
602.371	1106.75
602.58	985.75
602.789	957.75
602.997	953.75
603.206	966.75
603.415	936.75
603.623	918.75
603.832	932.75
604.041	923.75
604.249	925.75
604.458	897.75
604.666	902.75
604.875	925.75
605.084	871.75
605.292	929.75
605.501	907.75
605.709	954.75
605.918	917.75
606.126	912.75
606.334	916.75
606.543	950.75
606.751	995.75
606.96	1180.75
607.168	1242.75
607.376	1076.75
607.585	972.75
607.793	931.75
608.001	940.75
608.21	902.75
608.418	911.75
608.626	894.75
608.834	872.75
609.043	877.75
609.251	875.75
609.459	875.75
609.667	869.75
609.875	852.75
610.083	841.75
610.291	848.75
610.499	880.75
610.707	846.75
610.916	833.75
611.124	855.75
611.332	820.75
611.54	839.75
611.748	819.75
611.955	810.75
612.163	798.75
612.371	836.75
612.579	813.75
612.787	802.75
612.995	809.75
613.203	798.75
613.411	828.75
613.618	807.75
613.826	794.75
614.034	822.75
614.242	777.75
614.449	786.75
614.657	814.75
614.865	816.75
615.072	805.75
615.28	809.75
615.488	805.75
615.695	812.75
615.903	830.75
616.111	775.75
616.318	804.75
616.526	796.75
616.733	803.75
616.941	797.75
617.148	788.75
617.356	787.75
617.563	758.75
617.771	757.75
617.978	787.75
618.185	774.75
618.393	723.75
618.6	768.75
618.807	770.75
619.015	779.75
619.222	736.75
619.429	773.75
619.637	742.75
619.844	730.75
620.051	757.75
620.258	724.75
620.466	709.75
620.673	715.75
620.88	679.75
621.087	693.75
621.294	729.75
621.501	717.75
621.708	716.75
621.915	721.75
622.122	695.75
622.329	708.75
622.536	711.75
622.743	690.75
622.95	722.75
623.157	725.75
623.364	681.75
623.571	692.75
623.778	700.75
623.985	691.75
624.192	681.75
624.399	694.75
624.606	678.75
624.812	673.75
625.019	662.75
625.226	675.75
625.433	671.75
625.639	651.75
625.846	673.75
626.053	658.75
626.259	634.75
626.466	652.75
626.673	640.75
626.879	622.75
627.086	637.75
627.293	653.75
627.499	655.75
627.706	637.75
627.912	662.75
628.119	643.75
628.325	635.75
628.532	646.75
628.738	666.75
628.945	616.75
629.151	637.75
629.357	609.75
629.564	595.75
629.77	621.75
629.976	613.75
630.183	594.75
630.389	637.75
630.595	594.75
630.802	608.75
631.008	610.75
631.214	609.75
631.42	600.75
631.627	602.75
631.833	584.75
632.039	583.75
632.245	592.75
632.451	612.75
632.657	621.75
632.863	612.75
633.069	603.75
633.275	593.75
633.481	570.75
633.688	599.75
633.893	589.75
634.099	592.75
634.305	587.75
634.511	610.75
634.717	612.75
634.923	632.75
635.129	664.75
635.335	783.75
635.541	710.75
635.747	649.75
635.952	622.75
636.158	617.75
636.364	599.75
636.57	616.75
636.775	615.75
636.981	605.75
637.187	613.75
637.392	600.75
637.598	583.75
637.804	604.75
638.009	616.75
638.215	621.75
638.421	594.75
638.626	613.75
638.832	587.75
639.037	579.75
639.243	587.75
639.448	609.75
639.654	600.75
639.859	624.75
640.065	593.75
640.27	604.75
640.475	615.75
640.681	640.75
640.886	627.75
641.091	640.75
641.297	635.75
641.502	644.75
641.707	658.75
641.913	689.75
642.118	691.75
642.323	691.75
642.528	712.75
642.733	716.75
642.939	734.75
643.144	763.75
643.349	769.75
643.554	813.75
643.759	828.75
643.964	889.75
644.169	937.75
644.374	981.75
644.579	1097.75
644.784	1172.75
644.989	1371.75
645.194	1611.75
645.399	1985.75
645.604	2102.75
645.809	1578.75
646.014	1252.75
646.219	991.75
646.423	892.75
646.628	816.75
646.833	758.75
647.038	689.75
647.243	653.75
647.447	640.75
647.652	635.75
647.857	594.75
648.062	596.75
648.266	573.75
648.471	568.75
648.676	561.75
648.88	554.75
649.085	546.75
649.289	519.75
649.494	531.75
649.698	522.75
649.903	537.75
650.107	520.75
650.312	478.75
650.516	485.75
650.721	477.75
650.925	458.75
651.13	434.75
651.334	456.75
651.539	452.75
651.743	450.75
651.947	444.75
652.152	459.75
652.356	452.75
652.56	465.75
652.764	536.75
652.969	483.75
653.173	425.75
653.377	411.75
653.581	393.75
653.785	384.75
653.99	390.75
654.194	386.75
654.398	369.75
654.602	377.75
654.806	374.75
655.01	358.75
655.214	371.75
655.418	356.75
655.622	364.75
655.826	364.75
656.03	360.75
656.234	384.75
656.438	380.75
656.642	404.75
656.846	373.75
657.049	342.75
657.253	329.75
657.457	321.75
657.661	300.75
657.865	289.75
658.068	278.75
658.272	257.75
658.476	244.75
658.68	225.75
658.883	228.75
659.087	199.75
659.291	196.75
659.494	198.75
659.698	198.75
659.901	183.75
660.105	187.75
660.309	170.75
660.512	160.75
660.716	159.75
660.919	152.75
661.123	154.75
661.326	152.75
661.53	145.75
661.733	143.75
661.936	128.75
662.14	122.75
662.343	117.75
662.546	122.75
662.75	104.75
662.953	118.75
663.156	102.75
663.36	106.75
663.563	103.75
663.766	112.75
663.969	105.75
664.173	90.75
664.376	99.75
664.579	102.75
664.782	81.75
664.985	80.75
665.188	83.75
665.391	84.75
665.594	84.75
665.797	92.75
666	92.75
666.203	96.75
666.406	82.75
666.609	85.75
666.812	88.75
667.015	89.75
667.218	81.75
667.421	91.75
667.624	88.75
667.827	93.75
668.03	80.75
668.232	85.75
668.435	67.75
668.638	77.75
668.841	79.75
669.043	96.75
669.246	84.75
669.449	90.75
669.651	96.75
669.854	100.75
670.057	78.75
670.259	102.75
670.462	88.75
670.665	77.75
670.867	90.75
671.07	78.75
671.272	93.75
671.475	101.75
671.677	103.75
671.88	96.75
672.082	96.75
672.284	96.75
672.487	92.75
672.689	92.75
672.892	87.75
