Data from SnStandardFlinnAPT0064_LampEnergy5.5_LIBS07252019.E.O._I.C._HRD10591_15-17-14-492.txt Node
Date: Thu Jul 25 15:17:14 EDT 2019
User: cochatt
Spectrometer: HR+D1059
Trigger mode: 1
Integration Time (sec): 1.000000E-1
Scans to average: 1
Electric dark correction enabled: true
Nonlinearity correction enabled: false
Boxcar width: 0
XAxis mode: Wavelengths
Number of Pixels in Spectrum: 2048
>>>>>Begin Spectral Data<<<<<
223.165	-22.31
223.4	-22.31
223.635	-22.31
223.869	-20.31
224.104	-12.31
224.338	-1.31
224.573	-11.31
224.808	-22.31
225.042	-12.31
225.277	3.69
225.511	-11.31
225.746	3.69
225.98	9.69
226.215	-5.31
226.449	6.69
226.683	23.69
226.918	23.69
227.152	47.69
227.387	36.69
227.621	36.69
227.856	40.69
228.09	42.69
228.324	49.69
228.559	40.69
228.793	87.69
229.027	150.69
229.262	167.69
229.496	163.69
229.73	155.69
229.964	163.69
230.199	164.69
230.433	169.69
230.667	180.69
230.901	174.69
231.136	159.69
231.37	184.69
231.604	201.69
231.838	218.69
232.072	242.69
232.306	278.69
232.541	216.69
232.775	195.69
233.009	203.69
233.243	207.69
233.477	238.69
233.711	256.69
233.945	283.69
234.179	244.69
234.413	213.69
234.647	225.69
234.881	218.69
235.115	242.69
235.349	286.69
235.583	375.69
235.817	459.69
236.051	448.69
236.285	306.69
236.519	258.69
236.753	240.69
236.987	244.69
237.221	273.69
237.455	229.69
237.689	232.69
237.922	242.69
238.156	228.69
238.39	261.69
238.624	241.69
238.858	234.69
239.091	233.69
239.325	238.69
239.559	235.69
239.793	241.69
240.027	248.69
240.26	246.69
240.494	246.69
240.728	265.69
240.961	283.69
241.195	299.69
241.429	312.69
241.662	308.69
241.896	359.69
242.13	411.69
242.363	552.69
242.597	706.69
242.83	664.69
243.064	678.69
243.298	808.69
243.531	689.69
243.765	418.69
243.998	354.69
244.232	313.69
244.465	300.69
244.699	321.69
244.932	318.69
245.166	311.69
245.399	302.69
245.633	312.69
245.866	319.69
246.099	294.69
246.333	314.69
246.566	320.69
246.8	286.69
247.033	298.69
247.266	299.69
247.5	312.69
247.733	298.69
247.966	323.69
248.2	344.69
248.433	387.69
248.666	450.69
248.899	437.69
249.133	366.69
249.366	390.69
249.599	416.69
249.832	466.69
250.066	476.69
250.299	403.69
250.532	373.69
250.765	359.69
250.998	328.69
251.231	327.69
251.465	325.69
251.698	350.69
251.931	354.69
252.164	339.69
252.397	332.69
252.63	360.69
252.863	346.69
253.096	351.69
253.329	346.69
253.562	338.69
253.795	351.69
254.028	376.69
254.261	368.69
254.494	386.69
254.727	438.69
254.96	547.69
255.193	532.69
255.426	414.69
255.659	402.69
255.892	403.69
256.124	395.69
256.357	400.69
256.59	407.69
256.823	427.69
257.056	489.69
257.289	564.69
257.521	614.69
257.754	523.69
257.987	432.69
258.22	409.69
258.452	418.69
258.685	431.69
258.918	422.69
259.151	430.69
259.383	465.69
259.616	509.69
259.849	549.69
260.081	472.69
260.314	443.69
260.547	430.69
260.779	460.69
261.012	446.69
261.244	451.69
261.477	444.69
261.71	458.69
261.942	448.69
262.175	479.69
262.407	457.69
262.64	483.69
262.872	502.69
263.105	514.69
263.337	524.69
263.57	559.69
263.802	587.69
264.035	585.69
264.267	588.69
264.499	624.69
264.732	607.69
264.964	648.69
265.197	646.69
265.429	662.69
265.661	659.69
265.894	659.69
266.126	757.69
266.358	838.69
266.591	818.69
266.823	709.69
267.055	658.69
267.287	607.69
267.52	607.69
267.752	564.69
267.984	566.69
268.216	562.69
268.448	595.69
268.681	565.69
268.913	558.69
269.145	561.69
269.377	576.69
269.609	546.69
269.841	585.69
270.073	600.69
270.306	702.69
270.538	968.69
270.77	1378.69
271.002	1695.69
271.234	1164.69
271.466	763.69
271.698	660.69
271.93	604.69
272.162	582.69
272.394	588.69
272.626	545.69
272.858	545.69
273.09	543.69
273.322	555.69
273.553	548.69
273.785	535.69
274.017	540.69
274.249	526.69
274.481	532.69
274.713	542.69
274.945	554.69
275.176	550.69
275.408	539.69
275.64	545.69
275.872	532.69
276.104	534.69
276.335	559.69
276.567	564.69
276.799	568.69
277.031	599.69
277.262	596.69
277.494	586.69
277.726	656.69
277.957	781.69
278.189	841.69
278.421	830.69
278.652	724.69
278.884	690.69
279.115	649.69
279.347	626.69
279.579	619.69
279.81	609.69
280.042	606.69
280.273	629.69
280.505	614.69
280.736	652.69
280.968	683.69
281.199	736.69
281.431	851.69
281.662	852.69
281.894	757.69
282.125	702.69
282.356	710.69
282.588	704.69
282.819	716.69
283.051	774.69
283.282	819.69
283.513	1018.69
283.745	1536.69
283.976	2442.69
284.207	3528.69
284.439	3115.69
284.67	1835.69
284.901	1460.69
285.132	1452.69
285.364	1433.69
285.595	1131.69
285.826	1007.69
286.057	1217.69
286.288	1640.69
286.52	2202.69
286.751	2038.69
286.982	1234.69
287.213	914.69
287.444	814.69
287.675	766.69
287.906	774.69
288.138	730.69
288.369	735.69
288.6	764.69
288.831	738.69
289.062	734.69
289.293	745.69
289.524	736.69
289.755	729.69
289.986	728.69
290.217	722.69
290.448	725.69
290.679	724.69
290.91	736.69
291.141	782.69
291.371	836.69
291.602	862.69
291.833	810.69
292.064	742.69
292.295	704.69
292.526	703.69
292.757	704.69
292.987	698.69
293.218	705.69
293.449	698.69
293.68	691.69
293.91	687.69
294.141	675.69
294.372	711.69
294.603	681.69
294.833	666.69
295.064	694.69
295.295	681.69
295.525	704.69
295.756	704.69
295.987	686.69
296.217	692.69
296.448	697.69
296.679	673.69
296.909	677.69
297.14	688.69
297.37	699.69
297.601	699.69
297.831	730.69
298.062	701.69
298.292	715.69
298.523	713.69
298.753	731.69
298.984	711.69
299.214	753.69
299.445	757.69
299.675	753.69
299.905	797.69
300.136	819.69
300.366	891.69
300.597	1156.69
300.827	1613.69
301.057	2220.69
301.288	2169.69
301.518	1377.69
301.748	1032.69
301.979	959.69
302.209	922.69
302.439	960.69
302.669	1018.69
302.9	1215.69
303.13	1713.69
303.36	2574.69
303.59	3474.69
303.82	2972.69
304.051	1696.69
304.281	1238.69
304.511	1009.69
304.741	968.69
304.971	902.69
305.201	858.69
305.431	848.69
305.661	818.69
305.891	815.69
306.121	825.69
306.352	791.69
306.582	781.69
306.812	774.69
307.042	778.69
307.272	811.69
307.502	764.69
307.731	775.69
307.961	795.69
308.191	779.69
308.421	801.69
308.651	790.69
308.881	799.69
309.111	795.69
309.341	809.69
309.571	794.69
309.8	801.69
310.03	819.69
310.26	818.69
310.49	801.69
310.72	799.69
310.949	818.69
311.179	814.69
311.409	822.69
311.639	830.69
311.868	842.69
312.098	833.69
312.328	835.69
312.557	827.69
312.787	851.69
313.017	859.69
313.246	869.69
313.476	875.69
313.706	873.69
313.935	926.69
314.165	980.69
314.394	1018.69
314.624	986.69
314.853	936.69
315.083	922.69
315.312	902.69
315.542	932.69
315.771	937.69
316.001	956.69
316.23	964.69
316.46	1009.69
316.689	1143.69
316.919	1379.69
317.148	1947.69
317.377	3021.69
317.607	4619.69
317.836	4691.69
318.065	2660.69
318.295	1651.69
318.524	1334.69
318.753	1199.69
318.983	1108.69
319.212	1065.69
319.441	1028.69
319.67	1035.69
319.9	1014.69
320.129	1015.69
320.358	975.69
320.587	967.69
320.816	984.69
321.046	985.69
321.275	985.69
321.504	1006.69
321.733	1024.69
321.962	1035.69
322.191	1052.69
322.42	1047.69
322.649	1039.69
322.878	1043.69
323.108	1053.69
323.337	1108.69
323.566	1082.69
323.795	1125.69
324.024	1130.69
324.253	1152.69
324.482	1185.69
324.71	1229.69
324.939	1307.69
325.168	1344.69
325.397	1371.69
325.626	1636.69
325.855	2333.69
326.084	3677.69
326.313	5487.69
326.542	5840.69
326.77	3603.69
326.999	2288.69
327.228	1988.69
327.457	1850.69
327.686	1876.69
327.914	1943.69
328.143	2264.69
328.372	2574.69
328.6	2833.69
328.829	2610.69
329.058	2271.69
329.287	2028.69
329.515	1884.69
329.744	1712.69
329.972	1618.69
330.201	1573.69
330.43	1528.69
330.658	1496.69
330.887	1439.69
331.115	1434.69
331.344	1425.69
331.572	1397.69
331.801	1442.69
332.03	1470.69
332.258	1455.69
332.486	1568.69
332.715	1763.69
332.943	2156.69
333.172	2670.69
333.4	2620.69
333.629	1981.69
333.857	1790.69
334.085	1812.69
334.314	1903.69
334.542	2066.69
334.771	2321.69
334.999	2866.69
335.227	3436.69
335.455	3822.69
335.684	3504.69
335.912	2960.69
336.14	2561.69
336.369	2304.69
336.597	2118.69
336.825	1947.69
337.053	1815.69
337.281	1730.69
337.51	1646.69
337.738	1586.69
337.966	1561.69
338.194	1508.69
338.422	1440.69
338.65	1430.69
338.878	1399.69
339.106	1359.69
339.334	1346.69
339.562	1343.69
339.79	1281.69
340.018	1282.69
340.246	1313.69
340.474	1290.69
340.702	1255.69
340.93	1274.69
341.158	1257.69
341.386	1300.69
341.614	1254.69
341.842	1233.69
342.07	1239.69
342.298	1177.69
342.526	1171.69
342.754	1178.69
342.981	1163.69
343.209	1182.69
343.437	1156.69
343.665	1195.69
343.893	1198.69
344.12	1242.69
344.348	1199.69
344.576	1168.69
344.804	1183.69
345.031	1104.69
345.259	1076.69
345.487	1111.69
345.714	1084.69
345.942	1107.69
346.17	1075.69
346.397	1064.69
346.625	1054.69
346.853	1090.69
347.08	1088.69
347.308	1094.69
347.535	1073.69
347.763	1090.69
347.99	1078.69
348.218	1064.69
348.445	1096.69
348.673	1074.69
348.9	1064.69
349.128	1067.69
349.355	1067.69
349.583	1023.69
349.81	1022.69
350.037	1038.69
350.265	1014.69
350.492	1070.69
350.72	1035.69
350.947	1032.69
351.174	1040.69
351.402	1042.69
351.629	1035.69
351.856	1054.69
352.083	1026.69
352.311	1018.69
352.538	1029.69
352.765	1031.69
352.992	1014.69
353.22	1032.69
353.447	992.69
353.674	1017.69
353.901	1030.69
354.128	1046.69
354.355	1028.69
354.583	1026.69
354.81	1031.69
355.037	1061.69
355.264	1046.69
355.491	1047.69
355.718	1027.69
355.945	1078.69
356.172	1072.69
356.399	1078.69
356.626	1093.69
356.853	1085.69
357.08	1065.69
357.307	1079.69
357.534	1080.69
357.761	1100.69
357.988	1086.69
358.215	1124.69
358.441	1092.69
358.668	1096.69
358.895	1119.69
359.122	1074.69
359.349	1083.69
359.576	1113.69
359.802	1086.69
360.029	1057.69
360.256	1097.69
360.483	1078.69
360.709	1098.69
360.936	1088.69
361.163	1114.69
361.39	1111.69
361.616	1078.69
361.843	1100.69
362.07	1153.69
362.296	1099.69
362.523	1083.69
362.749	1115.69
362.976	1064.69
363.203	1096.69
363.429	1082.69
363.656	1107.69
363.882	1109.69
364.109	1093.69
364.335	1077.69
364.562	1086.69
364.788	1118.69
365.015	1089.69
365.241	1127.69
365.468	1174.69
365.694	1208.69
365.92	1182.69
366.147	1127.69
366.373	1110.69
366.599	1081.69
366.826	1139.69
367.052	1126.69
367.278	1129.69
367.505	1107.69
367.731	1123.69
367.957	1105.69
368.184	1120.69
368.41	1150.69
368.636	1178.69
368.862	1140.69
369.089	1134.69
369.315	1155.69
369.541	1136.69
369.767	1141.69
369.993	1122.69
370.219	1150.69
370.445	1176.69
370.672	1134.69
370.898	1163.69
371.124	1147.69
371.35	1148.69
371.576	1147.69
371.802	1199.69
372.028	1200.69
372.254	1202.69
372.48	1176.69
372.706	1202.69
372.932	1193.69
373.158	1191.69
373.384	1200.69
373.61	1223.69
373.835	1239.69
374.061	1241.69
374.287	1243.69
374.513	1220.69
374.739	1243.69
374.965	1254.69
375.191	1266.69
375.416	1228.69
375.642	1241.69
375.868	1252.69
376.094	1245.69
376.319	1207.69
376.545	1208.69
376.771	1168.69
376.997	1188.69
377.222	1194.69
377.448	1161.69
377.674	1182.69
377.899	1185.69
378.125	1212.69
378.35	1151.69
378.576	1182.69
378.802	1237.69
379.027	1231.69
379.253	1228.69
379.478	1268.69
379.704	1510.69
379.929	2166.69
380.155	3258.69
380.38	3568.69
380.606	2125.69
380.831	1474.69
381.057	1339.69
381.282	1254.69
381.507	1227.69
381.733	1184.69
381.958	1178.69
382.184	1154.69
382.409	1153.69
382.634	1156.69
382.86	1176.69
383.085	1162.69
383.31	1182.69
383.535	1149.69
383.761	1177.69
383.986	1168.69
384.211	1213.69
384.436	1206.69
384.662	1216.69
384.887	1208.69
385.112	1188.69
385.337	1200.69
385.562	1200.69
385.787	1227.69
386.013	1231.69
386.238	1221.69
386.463	1221.69
386.688	1211.69
386.913	1200.69
387.138	1199.69
387.363	1219.69
387.588	1176.69
387.813	1219.69
388.038	1225.69
388.263	1204.69
388.488	1169.69
388.713	1206.69
388.938	1210.69
389.163	1201.69
389.387	1214.69
389.612	1193.69
389.837	1166.69
390.062	1227.69
390.287	1200.69
390.512	1226.69
390.736	1220.69
390.961	1234.69
391.186	1278.69
391.411	1296.69
391.636	1236.69
391.86	1272.69
392.085	1242.69
392.31	1246.69
392.534	1248.69
392.759	1253.69
392.984	1230.69
393.208	1239.69
393.433	1282.69
393.658	1263.69
393.882	1219.69
394.107	1225.69
394.331	1219.69
394.556	1244.69
394.78	1207.69
395.005	1207.69
395.229	1242.69
395.454	1267.69
395.678	1254.69
395.903	1266.69
396.127	1243.69
396.352	1236.69
396.576	1231.69
396.801	1264.69
397.025	1314.69
397.249	1256.69
397.474	1284.69
397.698	1289.69
397.922	1294.69
398.147	1293.69
398.371	1278.69
398.595	1319.69
398.82	1357.69
399.044	1396.69
399.268	1430.69
399.492	1526.69
399.717	1619.69
399.941	1561.69
400.165	1539.69
400.389	1460.69
400.613	1422.69
400.837	1395.69
401.062	1348.69
401.286	1361.69
401.51	1371.69
401.734	1333.69
401.958	1320.69
402.182	1360.69
402.406	1346.69
402.63	1326.69
402.854	1366.69
403.078	1358.69
403.302	1377.69
403.526	1392.69
403.75	1372.69
403.974	1395.69
404.198	1397.69
404.422	1424.69
404.645	1346.69
404.869	1367.69
405.093	1384.69
405.317	1358.69
405.541	1460.69
405.765	1441.69
405.988	1382.69
406.212	1395.69
406.436	1404.69
406.66	1468.69
406.883	1424.69
407.107	1487.69
407.331	1484.69
407.555	1487.69
407.778	1493.69
408.002	1439.69
408.226	1476.69
408.449	1454.69
408.673	1428.69
408.896	1421.69
409.12	1409.69
409.344	1428.69
409.567	1394.69
409.791	1408.69
410.014	1390.69
410.238	1377.69
410.461	1391.69
410.685	1354.69
410.908	1321.69
411.132	1344.69
411.355	1326.69
411.578	1339.69
411.802	1344.69
412.025	1326.69
412.249	1351.69
412.472	1336.69
412.695	1326.69
412.919	1299.69
413.142	1318.69
413.365	1290.69
413.589	1345.69
413.812	1337.69
414.035	1302.69
414.258	1295.69
414.482	1310.69
414.705	1322.69
414.928	1291.69
415.151	1298.69
415.374	1312.69
415.597	1287.69
415.821	1290.69
416.044	1280.69
416.267	1264.69
416.49	1262.69
416.713	1290.69
416.936	1290.69
417.159	1258.69
417.382	1228.69
417.605	1265.69
417.828	1242.69
418.051	1250.69
418.274	1266.69
418.497	1283.69
418.72	1279.69
418.943	1300.69
419.166	1340.69
419.389	1406.69
419.611	1350.69
419.834	1321.69
420.057	1310.69
420.28	1301.69
420.503	1271.69
420.726	1256.69
420.948	1238.69
421.171	1244.69
421.394	1268.69
421.617	1255.69
421.839	1268.69
422.062	1286.69
422.285	1263.69
422.507	1262.69
422.73	1281.69
422.953	1311.69
423.175	1325.69
423.398	1311.69
423.621	1297.69
423.843	1251.69
424.066	1303.69
424.288	1292.69
424.511	1256.69
424.733	1269.69
424.956	1285.69
425.178	1285.69
425.401	1266.69
425.623	1275.69
425.846	1206.69
426.068	1191.69
426.291	1200.69
426.513	1235.69
426.735	1211.69
426.958	1177.69
427.18	1224.69
427.402	1187.69
427.625	1200.69
427.847	1169.69
428.069	1195.69
428.292	1194.69
428.514	1171.69
428.736	1156.69
428.958	1156.69
429.181	1168.69
429.403	1162.69
429.625	1179.69
429.847	1164.69
430.069	1171.69
430.292	1239.69
430.514	1273.69
430.736	1257.69
430.958	1219.69
431.18	1174.69
431.402	1176.69
431.624	1139.69
431.846	1147.69
432.068	1142.69
432.29	1156.69
432.512	1127.69
432.734	1161.69
432.956	1166.69
433.178	1205.69
433.4	1165.69
433.622	1175.69
433.844	1205.69
434.066	1144.69
434.287	1139.69
434.509	1171.69
434.731	1170.69
434.953	1218.69
435.175	1221.69
435.397	1213.69
435.618	1216.69
435.84	1178.69
436.062	1164.69
436.284	1144.69
436.505	1144.69
436.727	1168.69
436.949	1144.69
437.17	1154.69
437.392	1156.69
437.614	1146.69
437.835	1096.69
438.057	1126.69
438.278	1114.69
438.5	1113.69
438.721	1150.69
438.943	1168.69
439.165	1184.69
439.386	1195.69
439.608	1207.69
439.829	1242.69
440.05	1259.69
440.272	1251.69
440.493	1202.69
440.715	1202.69
440.936	1195.69
441.158	1209.69
441.379	1244.69
441.6	1321.69
441.822	1319.69
442.043	1346.69
442.264	1369.69
442.486	1306.69
442.707	1282.69
442.928	1218.69
443.149	1242.69
443.371	1213.69
443.592	1221.69
443.813	1235.69
444.034	1315.69
444.255	1270.69
444.476	1301.69
444.698	1315.69
444.919	1343.69
445.14	1455.69
445.361	1343.69
445.582	1294.69
445.803	1248.69
446.024	1234.69
446.245	1254.69
446.466	1252.69
446.687	1238.69
446.908	1220.69
447.129	1230.69
447.35	1208.69
447.571	1188.69
447.792	1158.69
448.013	1120.69
448.234	1151.69
448.455	1163.69
448.675	1167.69
448.896	1204.69
449.117	1223.69
449.338	1307.69
449.559	1396.69
449.779	1242.69
450	1152.69
450.221	1131.69
450.442	1132.69
450.662	1113.69
450.883	1132.69
451.104	1136.69
451.324	1124.69
451.545	1121.69
451.766	1088.69
451.986	1151.69
452.207	1238.69
452.428	1490.69
452.648	2154.69
452.869	1764.69
453.089	1289.69
453.31	1240.69
453.53	1227.69
453.751	1294.69
453.971	1377.69
454.192	1330.69
454.412	1180.69
454.633	1142.69
454.853	1089.69
455.073	1074.69
455.294	1092.69
455.514	1084.69
455.734	1096.69
455.955	1053.69
456.175	1082.69
456.395	1062.69
456.616	1075.69
456.836	1063.69
457.056	1067.69
457.276	1084.69
457.497	1138.69
457.717	1154.69
457.937	1136.69
458.157	1098.69
458.377	1102.69
458.598	1136.69
458.818	1134.69
459.038	1127.69
459.258	1158.69
459.478	1154.69
459.698	1186.69
459.918	1148.69
460.138	1237.69
460.358	1262.69
460.578	1237.69
460.798	1266.69
461.018	1274.69
461.238	1316.69
461.458	1292.69
461.678	1274.69
461.898	1304.69
462.118	1317.69
462.338	1302.69
462.558	1365.69
462.777	1389.69
462.997	1438.69
463.217	1482.69
463.437	1512.69
463.657	1520.69
463.876	1546.69
464.096	1448.69
464.316	1418.69
464.536	1392.69
464.755	1360.69
464.975	1328.69
465.195	1282.69
465.414	1246.69
465.634	1193.69
465.854	1234.69
466.073	1185.69
466.293	1205.69
466.512	1163.69
466.732	1207.69
466.951	1237.69
467.171	1302.69
467.391	1343.69
467.61	1173.69
467.829	1192.69
468.049	1162.69
468.268	1147.69
468.488	1127.69
468.707	1139.69
468.927	1133.69
469.146	1130.69
469.365	1170.69
469.585	1158.69
469.804	1156.69
470.023	1204.69
470.243	1207.69
470.462	1253.69
470.681	1270.69
470.901	1432.69
471.12	1650.69
471.339	1679.69
471.558	1375.69
471.777	1236.69
471.997	1218.69
472.216	1184.69
472.435	1159.69
472.654	1148.69
472.873	1134.69
473.092	1151.69
473.311	1147.69
473.53	1183.69
473.749	1180.69
473.968	1184.69
474.187	1161.69
474.406	1144.69
474.625	1169.69
474.844	1169.69
475.063	1169.69
475.282	1140.69
475.501	1142.69
475.72	1150.69
475.939	1164.69
476.158	1186.69
476.377	1248.69
476.596	1226.69
476.814	1196.69
477.033	1183.69
477.252	1204.69
477.471	1241.69
477.69	1276.69
477.908	1276.69
478.127	1326.69
478.346	1326.69
478.564	1322.69
478.783	1314.69
479.002	1330.69
479.22	1357.69
479.439	1329.69
479.658	1314.69
479.876	1353.69
480.095	1379.69
480.313	1407.69
480.532	1398.69
480.751	1424.69
480.969	1380.69
481.188	1360.69
481.406	1353.69
481.624	1330.69
481.843	1385.69
482.061	1346.69
482.28	1381.69
482.498	1351.69
482.717	1347.69
482.935	1370.69
483.153	1406.69
483.372	1440.69
483.59	1445.69
483.808	1443.69
484.027	1468.69
484.245	1552.69
484.463	1778.69
484.681	1955.69
484.9	1786.69
485.118	1632.69
485.336	1597.69
485.554	1605.69
485.772	1710.69
485.99	1978.69
486.209	2137.69
486.427	1746.69
486.645	1586.69
486.863	1516.69
487.081	1491.69
487.299	1451.69
487.517	1499.69
487.735	1491.69
487.953	1513.69
488.171	1482.69
488.389	1484.69
488.607	1435.69
488.825	1434.69
489.043	1421.69
489.261	1411.69
489.479	1434.69
489.696	1414.69
489.914	1413.69
490.132	1457.69
490.35	1426.69
490.568	1454.69
490.786	1466.69
491.003	1473.69
491.221	1524.69
491.439	1476.69
491.657	1495.69
491.874	1546.69
492.092	1548.69
492.31	1571.69
492.527	1581.69
492.745	1528.69
492.963	1552.69
493.18	1526.69
493.398	1489.69
493.615	1520.69
493.833	1508.69
494.05	1518.69
494.268	1512.69
494.485	1536.69
494.703	1518.69
494.92	1519.69
495.138	1530.69
495.355	1556.69
495.573	1533.69
495.79	1510.69
496.008	1526.69
496.225	1550.69
496.442	1572.69
496.66	1638.69
496.877	1664.69
497.094	1661.69
497.312	1631.69
497.529	1626.69
497.746	1621.69
497.963	1679.69
498.181	1667.69
498.398	1729.69
498.615	1774.69
498.832	1848.69
499.049	1953.69
499.267	2032.69
499.484	2226.69
499.701	2224.69
499.918	2313.69
500.135	2352.69
500.352	2510.69
500.569	2544.69
500.786	2510.69
501.003	2475.69
501.22	2320.69
501.437	2174.69
501.654	2102.69
501.871	2058.69
502.088	1928.69
502.305	1865.69
502.522	1834.69
502.739	1751.69
502.956	1738.69
503.172	1650.69
503.389	1635.69
503.606	1562.69
503.823	1567.69
504.04	1566.69
504.256	1560.69
504.473	1524.69
504.69	1550.69
504.907	1554.69
505.123	1522.69
505.34	1460.69
505.557	1410.69
505.773	1443.69
505.99	1400.69
506.207	1384.69
506.423	1395.69
506.64	1360.69
506.856	1349.69
507.073	1351.69
507.289	1322.69
507.506	1302.69
507.722	1322.69
507.939	1291.69
508.155	1276.69
508.372	1282.69
508.588	1315.69
508.805	1322.69
509.021	1299.69
509.238	1298.69
509.454	1399.69
509.67	1420.69
509.887	1329.69
510.103	1271.69
510.319	1288.69
510.536	1271.69
510.752	1271.69
510.968	1263.69
511.184	1239.69
511.401	1257.69
511.617	1211.69
511.833	1236.69
512.049	1210.69
512.265	1215.69
512.481	1215.69
512.698	1235.69
512.914	1214.69
513.13	1235.69
513.346	1246.69
513.562	1224.69
513.778	1205.69
513.994	1254.69
514.21	1256.69
514.426	1337.69
514.642	1400.69
514.858	1319.69
515.074	1256.69
515.29	1243.69
515.506	1283.69
515.721	1275.69
515.937	1281.69
516.153	1265.69
516.369	1299.69
516.585	1337.69
516.801	1318.69
517.016	1332.69
517.232	1367.69
517.448	1385.69
517.664	1390.69
517.879	1376.69
518.095	1382.69
518.311	1406.69
518.527	1372.69
518.742	1356.69
518.958	1399.69
519.173	1383.69
519.389	1374.69
519.605	1305.69
519.82	1274.69
520.036	1273.69
520.251	1255.69
520.467	1232.69
520.682	1247.69
520.898	1213.69
521.113	1233.69
521.329	1198.69
521.544	1192.69
521.76	1203.69
521.975	1187.69
522.19	1226.69
522.406	1207.69
522.621	1201.69
522.836	1185.69
523.052	1211.69
523.267	1208.69
523.482	1214.69
523.698	1194.69
523.913	1200.69
524.128	1187.69
524.343	1217.69
524.559	1171.69
524.774	1183.69
524.989	1221.69
525.204	1245.69
525.419	1178.69
525.634	1181.69
525.849	1199.69
526.064	1182.69
526.28	1209.69
526.495	1208.69
526.71	1194.69
526.925	1197.69
527.14	1181.69
527.355	1182.69
527.57	1189.69
527.785	1196.69
527.999	1178.69
528.214	1198.69
528.429	1226.69
528.644	1227.69
528.859	1247.69
529.074	1257.69
529.289	1311.69
529.503	1269.69
529.718	1270.69
529.933	1263.69
530.148	1240.69
530.363	1237.69
530.577	1247.69
530.792	1211.69
531.007	1233.69
531.221	1264.69
531.436	1252.69
531.651	1286.69
531.865	1298.69
532.08	1309.69
532.295	1352.69
532.509	1398.69
532.724	1382.69
532.938	1447.69
533.153	1444.69
533.367	1540.69
533.582	1620.69
533.796	1605.69
534.011	1554.69
534.225	1487.69
534.44	1464.69
534.654	1450.69
534.868	1400.69
535.083	1406.69
535.297	1369.69
535.511	1344.69
535.726	1371.69
535.94	1298.69
536.154	1316.69
536.369	1298.69
536.583	1274.69
536.797	1249.69
537.011	1232.69
537.225	1238.69
537.44	1214.69
537.654	1209.69
537.868	1206.69
538.082	1176.69
538.296	1182.69
538.51	1184.69
538.724	1195.69
538.938	1191.69
539.153	1157.69
539.367	1201.69
539.581	1180.69
539.795	1163.69
540.009	1152.69
540.222	1150.69
540.436	1178.69
540.65	1147.69
540.864	1145.69
541.078	1199.69
541.292	1274.69
541.506	1519.69
541.72	1546.69
541.934	1365.69
542.147	1309.69
542.361	1223.69
542.575	1153.69
542.789	1156.69
543.002	1118.69
543.216	1091.69
543.43	1117.69
543.644	1119.69
543.857	1127.69
544.071	1161.69
544.285	1139.69
544.498	1141.69
544.712	1128.69
544.925	1165.69
545.139	1154.69
545.352	1133.69
545.566	1147.69
545.779	1170.69
545.993	1182.69
546.206	1143.69
546.42	1124.69
546.633	1175.69
546.847	1154.69
547.06	1167.69
547.274	1142.69
547.487	1162.69
547.7	1163.69
547.914	1196.69
548.127	1190.69
548.34	1157.69
548.554	1150.69
548.767	1155.69
548.98	1158.69
549.193	1162.69
549.407	1173.69
549.62	1158.69
549.833	1176.69
550.046	1134.69
550.259	1182.69
550.473	1154.69
550.686	1137.69
550.899	1154.69
551.112	1151.69
551.325	1148.69
551.538	1174.69
551.751	1134.69
551.964	1111.69
552.177	1186.69
552.39	1174.69
552.603	1194.69
552.816	1206.69
553.029	1224.69
553.242	1244.69
553.455	1251.69
553.667	1291.69
553.88	1255.69
554.093	1267.69
554.306	1264.69
554.519	1295.69
554.732	1281.69
554.944	1304.69
555.157	1328.69
555.37	1362.69
555.583	1403.69
555.795	1462.69
556.008	1534.69
556.221	1671.69
556.433	1735.69
556.646	1745.69
556.859	1694.69
557.071	1662.69
557.284	1626.69
557.496	1597.69
557.709	1597.69
557.921	1559.69
558.134	1556.69
558.346	1567.69
558.559	1607.69
558.771	1711.69
558.984	1802.69
559.196	1881.69
559.409	1808.69
559.621	1690.69
559.833	1621.69
560.046	1585.69
560.258	1490.69
560.47	1420.69
560.683	1415.69
560.895	1346.69
561.107	1296.69
561.32	1254.69
561.532	1238.69
561.744	1222.69
561.956	1215.69
562.168	1194.69
562.381	1192.69
562.593	1183.69
562.805	1188.69
563.017	1187.69
563.229	1185.69
563.441	1345.69
563.653	1139.69
563.865	1108.69
564.077	1102.69
564.289	1057.69
564.501	1057.69
564.713	1079.69
564.925	1048.69
565.137	1071.69
565.349	1080.69
565.561	1065.69
565.773	1092.69
565.985	1083.69
566.197	1116.69
566.408	1108.69
566.62	1139.69
566.832	1167.69
567.044	1150.69
567.255	1188.69
567.467	1160.69
567.679	1208.69
567.891	1258.69
568.102	1425.69
568.314	1639.69
568.526	1382.69
568.737	1211.69
568.949	1132.69
569.161	1059.69
569.372	1007.69
569.584	988.69
569.795	990.69
570.007	954.69
570.218	978.69
570.43	980.69
570.641	942.69
570.853	913.69
571.064	900.69
571.276	876.69
571.487	875.69
571.698	862.69
571.91	824.69
572.121	853.69
572.333	830.69
572.544	865.69
572.755	915.69
572.966	1071.69
573.178	944.69
573.389	858.69
573.6	802.69
573.811	800.69
574.023	786.69
574.234	769.69
574.445	761.69
574.656	801.69
574.867	790.69
575.078	774.69
575.289	772.69
575.501	787.69
575.712	735.69
575.923	758.69
576.134	756.69
576.345	772.69
576.556	788.69
576.767	777.69
576.978	774.69
577.188	763.69
577.399	801.69
577.61	790.69
577.821	804.69
578.032	786.69
578.243	775.69
578.454	796.69
578.665	809.69
578.875	837.69
579.086	857.69
579.297	882.69
579.508	926.69
579.718	1008.69
579.929	1091.69
580.14	1268.69
580.35	1257.69
580.561	1177.69
580.772	1115.69
580.982	1050.69
581.193	1006.69
581.403	948.69
581.614	906.69
581.825	892.69
582.035	846.69
582.246	839.69
582.456	820.69
582.667	802.69
582.877	780.69
583.087	771.69
583.298	751.69
583.508	713.69
583.719	708.69
583.929	692.69
584.139	684.69
584.35	659.69
584.56	671.69
584.77	663.69
584.981	651.69
585.191	670.69
585.401	656.69
585.611	636.69
585.821	617.69
586.032	634.69
586.242	611.69
586.452	605.69
586.662	592.69
586.872	591.69
587.082	595.69
587.292	589.69
587.502	569.69
587.713	560.69
587.923	553.69
588.133	587.69
588.343	566.69
588.553	573.69
588.762	580.69
588.972	554.69
589.182	592.69
589.392	583.69
589.602	550.69
589.812	567.69
590.022	563.69
590.232	543.69
590.441	541.69
590.651	545.69
590.861	563.69
591.071	556.69
591.281	553.69
591.49	564.69
591.7	542.69
591.91	568.69
592.119	558.69
592.329	560.69
592.539	558.69
592.748	569.69
592.958	580.69
593.167	591.69
593.377	594.69
593.587	605.69
593.796	584.69
594.006	592.69
594.215	585.69
594.424	566.69
594.634	565.69
594.843	563.69
595.053	574.69
595.262	554.69
595.472	535.69
595.681	517.69
595.89	519.69
596.1	523.69
596.309	518.69
596.518	493.69
596.727	502.69
596.937	506.69
597.146	484.69
597.355	490.69
597.564	472.69
597.774	474.69
597.983	457.69
598.192	459.69
598.401	464.69
598.61	468.69
598.819	464.69
599.028	453.69
599.237	446.69
599.446	464.69
599.655	434.69
599.864	444.69
600.073	443.69
600.282	467.69
600.491	469.69
600.7	476.69
600.909	458.69
601.118	466.69
601.327	446.69
601.536	471.69
601.745	475.69
601.953	522.69
602.162	597.69
602.371	512.69
602.58	470.69
602.789	472.69
602.997	435.69
603.206	431.69
603.415	469.69
603.623	460.69
603.832	472.69
604.041	462.69
604.249	435.69
604.458	422.69
604.666	442.69
604.875	420.69
605.084	440.69
605.292	430.69
605.501	446.69
605.709	455.69
605.918	446.69
606.126	454.69
606.334	449.69
606.543	446.69
606.751	481.69
606.96	520.69
607.168	598.69
607.376	525.69
607.585	457.69
607.793	475.69
608.001	449.69
608.21	438.69
608.418	421.69
608.626	410.69
608.834	423.69
609.043	433.69
609.251	407.69
609.459	430.69
609.667	427.69
609.875	443.69
610.083	416.69
610.291	428.69
610.499	416.69
610.707	405.69
610.916	412.69
611.124	393.69
611.332	408.69
611.54	412.69
611.748	434.69
611.955	396.69
612.163	410.69
612.371	406.69
612.579	387.69
612.787	438.69
612.995	410.69
613.203	419.69
613.411	423.69
613.618	412.69
613.826	419.69
614.034	422.69
614.242	415.69
614.449	403.69
614.657	388.69
614.865	400.69
615.072	400.69
615.28	412.69
615.488	400.69
615.695	391.69
615.903	374.69
616.111	389.69
616.318	419.69
616.526	418.69
616.733	408.69
616.941	403.69
617.148	418.69
617.356	383.69
617.563	397.69
617.771	375.69
617.978	384.69
618.185	393.69
618.393	408.69
618.6	381.69
618.807	384.69
619.015	389.69
619.222	394.69
619.429	366.69
619.637	393.69
619.844	374.69
620.051	366.69
620.258	359.69
620.466	366.69
620.673	367.69
620.88	363.69
621.087	349.69
621.294	363.69
621.501	350.69
621.708	370.69
621.915	364.69
622.122	372.69
622.329	341.69
622.536	342.69
622.743	355.69
622.95	358.69
623.157	345.69
623.364	375.69
623.571	350.69
623.778	352.69
623.985	332.69
624.192	365.69
624.399	352.69
624.606	354.69
624.812	340.69
625.019	326.69
625.226	355.69
625.433	350.69
625.639	345.69
625.846	318.69
626.053	324.69
626.259	331.69
626.466	318.69
626.673	315.69
626.879	296.69
627.086	333.69
627.293	341.69
627.499	341.69
627.706	326.69
627.912	340.69
628.119	341.69
628.325	328.69
628.532	314.69
628.738	319.69
628.945	322.69
629.151	327.69
629.357	327.69
629.564	320.69
629.77	328.69
629.976	333.69
630.183	301.69
630.389	338.69
630.595	312.69
630.802	310.69
631.008	294.69
631.214	311.69
631.42	323.69
631.627	308.69
631.833	311.69
632.039	323.69
632.245	310.69
632.451	306.69
632.657	315.69
632.863	310.69
633.069	304.69
633.275	285.69
633.481	300.69
633.688	306.69
633.893	304.69
634.099	310.69
634.305	294.69
634.511	330.69
634.717	306.69
634.923	318.69
635.129	352.69
635.335	388.69
635.541	344.69
635.747	327.69
635.952	324.69
636.158	306.69
636.364	331.69
636.57	325.69
636.775	294.69
636.981	306.69
637.187	310.69
637.392	294.69
637.598	305.69
637.804	305.69
638.009	298.69
638.215	306.69
638.421	318.69
638.626	314.69
638.832	317.69
639.037	328.69
639.243	315.69
639.448	305.69
639.654	311.69
639.859	338.69
640.065	347.69
640.27	311.69
640.475	318.69
640.681	314.69
640.886	324.69
641.091	341.69
641.297	329.69
641.502	355.69
641.707	334.69
641.913	328.69
642.118	336.69
642.323	336.69
642.528	353.69
642.733	370.69
642.939	349.69
643.144	358.69
643.349	377.69
643.554	384.69
643.759	411.69
643.964	411.69
644.169	429.69
644.374	460.69
644.579	473.69
644.784	522.69
644.989	574.69
645.194	646.69
645.399	756.69
645.604	802.69
645.809	642.69
646.014	552.69
646.219	454.69
646.423	401.69
646.628	366.69
646.833	352.69
647.038	334.69
647.243	305.69
647.447	309.69
647.652	318.69
647.857	290.69
648.062	329.69
648.266	302.69
648.471	294.69
648.676	291.69
648.88	289.69
649.085	280.69
649.289	284.69
649.494	255.69
649.698	279.69
649.903	271.69
650.107	263.69
650.312	277.69
650.516	250.69
650.721	279.69
650.925	266.69
651.13	272.69
651.334	246.69
651.539	237.69
651.743	218.69
651.947	238.69
652.152	235.69
652.356	218.69
652.56	255.69
652.764	281.69
652.969	248.69
653.173	244.69
653.377	218.69
653.581	218.69
653.785	213.69
653.99	210.69
654.194	211.69
654.398	196.69
654.602	197.69
654.806	218.69
655.01	219.69
655.214	206.69
655.418	217.69
655.622	202.69
655.826	207.69
656.03	204.69
656.234	206.69
656.438	211.69
656.642	226.69
656.846	218.69
657.049	209.69
657.253	214.69
657.457	190.69
657.661	182.69
657.865	156.69
658.068	164.69
658.272	163.69
658.476	170.69
658.68	150.69
658.883	146.69
659.087	148.69
659.291	139.69
659.494	139.69
659.698	128.69
659.901	126.69
660.105	125.69
660.309	122.69
660.512	113.69
660.716	118.69
660.919	117.69
661.123	121.69
661.326	102.69
661.53	111.69
661.733	99.69
661.936	102.69
662.14	104.69
662.343	111.69
662.546	92.69
662.75	90.69
662.953	86.69
663.156	89.69
663.36	89.69
663.563	74.69
663.766	98.69
663.969	89.69
664.173	93.69
664.376	86.69
664.579	74.69
664.782	80.69
664.985	75.69
665.188	83.69
665.391	75.69
665.594	86.69
665.797	80.69
666	88.69
666.203	80.69
666.406	70.69
666.609	73.69
666.812	84.69
667.015	73.69
667.218	88.69
667.421	75.69
667.624	82.69
667.827	76.69
668.03	90.69
668.232	66.69
668.435	66.69
668.638	71.69
668.841	91.69
669.043	90.69
669.246	84.69
669.449	71.69
669.651	82.69
669.854	93.69
670.057	75.69
670.259	60.69
670.462	74.69
670.665	67.69
670.867	88.69
671.07	89.69
671.272	86.69
671.475	75.69
671.677	90.69
671.88	76.69
672.082	81.69
672.284	78.69
672.487	81.69
672.689	82.69
672.892	95.69
