Data from SnStandardFlinnAPT0064_QswitchEnergy10_LIBS07252019.E.O._I.C._HRD10591_15-27-43-973.txt Node
Date: Thu Jul 25 15:27:43 EDT 2019
User: cochatt
Spectrometer: HR+D1059
Trigger mode: 1
Integration Time (sec): 1.000000E-1
Scans to average: 1
Electric dark correction enabled: true
Nonlinearity correction enabled: false
Boxcar width: 0
XAxis mode: Wavelengths
Number of Pixels in Spectrum: 2048
>>>>>Begin Spectral Data<<<<<
223.165	-16.12
223.4	-16.12
223.635	-16.12
223.869	-9.12
224.104	-14.12
224.338	-4.12
224.573	-13.12
224.808	-26.12
225.042	-7.12
225.277	-13.12
225.511	-7.12
225.746	5.88
225.98	2.88
226.215	11.88
226.449	14.88
226.683	26.88
226.918	32.88
227.152	14.88
227.387	30.88
227.621	18.88
227.856	35.88
228.09	50.88
228.324	43.88
228.559	52.88
228.793	60.88
229.027	74.88
229.262	62.88
229.496	70.88
229.73	64.88
229.964	79.88
230.199	76.88
230.433	72.88
230.667	87.88
230.901	87.88
231.136	78.88
231.37	86.88
231.604	89.88
231.838	101.88
232.072	107.88
232.306	117.88
232.541	89.88
232.775	93.88
233.009	85.88
233.243	73.88
233.477	100.88
233.711	89.88
233.945	107.88
234.179	96.88
234.413	91.88
234.647	96.88
234.881	90.88
235.115	93.88
235.349	84.88
235.583	104.88
235.817	118.88
236.051	129.88
236.285	89.88
236.519	73.88
236.753	76.88
236.987	78.88
237.221	79.88
237.455	83.88
237.689	79.88
237.922	81.88
238.156	81.88
238.39	83.88
238.624	73.88
238.858	74.88
239.091	97.88
239.325	84.88
239.559	69.88
239.793	70.88
240.027	73.88
240.26	65.88
240.494	75.88
240.728	82.88
240.961	87.88
241.195	88.88
241.429	81.88
241.662	87.88
241.896	87.88
242.13	93.88
242.363	125.88
242.597	137.88
242.83	130.88
243.064	123.88
243.298	156.88
243.531	137.88
243.765	94.88
243.998	87.88
244.232	77.88
244.465	64.88
244.699	87.88
244.932	67.88
245.166	75.88
245.399	86.88
245.633	81.88
245.866	80.88
246.099	75.88
246.333	82.88
246.566	82.88
246.8	75.88
247.033	75.88
247.266	79.88
247.5	76.88
247.733	81.88
247.966	97.88
248.2	88.88
248.433	111.88
248.666	109.88
248.899	116.88
249.133	81.88
249.366	95.88
249.599	92.88
249.832	125.88
250.066	111.88
250.299	78.88
250.532	82.88
250.765	69.88
250.998	70.88
251.231	78.88
251.465	73.88
251.698	80.88
251.931	78.88
252.164	87.88
252.397	86.88
252.63	86.88
252.863	97.88
253.096	96.88
253.329	85.88
253.562	82.88
253.795	93.88
254.028	89.88
254.261	99.88
254.494	85.88
254.727	125.88
254.96	146.88
255.193	130.88
255.426	95.88
255.659	87.88
255.892	94.88
256.124	93.88
256.357	93.88
256.59	75.88
256.823	94.88
257.056	99.88
257.289	138.88
257.521	154.88
257.754	111.88
257.987	90.88
258.22	85.88
258.452	90.88
258.685	79.88
258.918	86.88
259.151	82.88
259.383	91.88
259.616	118.88
259.849	144.88
260.081	98.88
260.314	71.88
260.547	75.88
260.779	73.88
261.012	86.88
261.244	86.88
261.477	94.88
261.71	83.88
261.942	90.88
262.175	87.88
262.407	86.88
262.64	86.88
262.872	87.88
263.105	70.88
263.337	91.88
263.57	99.88
263.802	96.88
264.035	103.88
264.267	80.88
264.499	78.88
264.732	92.88
264.964	84.88
265.197	85.88
265.429	85.88
265.661	86.88
265.894	102.88
266.126	118.88
266.358	142.88
266.591	145.88
266.823	91.88
267.055	77.88
267.287	75.88
267.52	93.88
267.752	94.88
267.984	68.88
268.216	85.88
268.448	85.88
268.681	86.88
268.913	82.88
269.145	86.88
269.377	84.88
269.609	75.88
269.841	96.88
270.073	117.88
270.306	137.88
270.538	187.88
270.77	308.88
271.002	356.88
271.234	192.88
271.466	113.88
271.698	92.88
271.93	87.88
272.162	81.88
272.394	86.88
272.626	83.88
272.858	93.88
273.09	90.88
273.322	85.88
273.553	85.88
273.785	99.88
274.017	93.88
274.249	90.88
274.481	83.88
274.713	93.88
274.945	96.88
275.176	91.88
275.408	87.88
275.64	88.88
275.872	75.88
276.104	94.88
276.335	105.88
276.567	97.88
276.799	95.88
277.031	90.88
277.262	88.88
277.494	97.88
277.726	114.88
277.957	178.88
278.189	247.88
278.421	215.88
278.652	174.88
278.884	190.88
279.115	124.88
279.347	119.88
279.579	97.88
279.81	95.88
280.042	81.88
280.273	95.88
280.505	101.88
280.736	104.88
280.968	122.88
281.199	168.88
281.431	230.88
281.662	239.88
281.894	149.88
282.125	109.88
282.356	102.88
282.588	106.88
282.819	114.88
283.051	115.88
283.282	143.88
283.513	170.88
283.745	291.88
283.976	503.88
284.207	703.88
284.439	557.88
284.67	264.88
284.901	240.88
285.132	319.88
285.364	359.88
285.595	203.88
285.826	161.88
286.057	247.88
286.288	372.88
286.52	585.88
286.751	453.88
286.982	182.88
287.213	107.88
287.444	109.88
287.675	97.88
287.906	102.88
288.138	91.88
288.369	85.88
288.6	110.88
288.831	94.88
289.062	101.88
289.293	96.88
289.524	101.88
289.755	113.88
289.986	96.88
290.217	91.88
290.448	100.88
290.679	105.88
290.91	112.88
291.141	169.88
291.371	225.88
291.602	274.88
291.833	189.88
292.064	121.88
292.295	87.88
292.526	86.88
292.757	99.88
292.987	87.88
293.218	79.88
293.449	98.88
293.68	75.88
293.91	97.88
294.141	91.88
294.372	93.88
294.603	99.88
294.833	88.88
295.064	91.88
295.295	102.88
295.525	94.88
295.756	91.88
295.987	109.88
296.217	92.88
296.448	95.88
296.679	85.88
296.909	87.88
297.14	112.88
297.37	105.88
297.601	88.88
297.831	84.88
298.062	98.88
298.292	101.88
298.523	101.88
298.753	97.88
298.984	88.88
299.214	101.88
299.445	91.88
299.675	107.88
299.905	116.88
300.136	127.88
300.366	168.88
300.597	266.88
300.827	417.88
301.057	649.88
301.288	580.88
301.518	228.88
301.748	153.88
301.979	136.88
302.209	138.88
302.439	142.88
302.669	157.88
302.9	272.88
303.13	479.88
303.36	801.88
303.59	1075.88
303.82	767.88
304.051	273.88
304.281	169.88
304.511	134.88
304.741	117.88
304.971	117.88
305.201	117.88
305.431	114.88
305.661	103.88
305.891	111.88
306.121	88.88
306.352	108.88
306.582	105.88
306.812	102.88
307.042	107.88
307.272	103.88
307.502	99.88
307.731	99.88
307.961	96.88
308.191	108.88
308.421	107.88
308.651	105.88
308.881	108.88
309.111	114.88
309.341	101.88
309.571	113.88
309.8	106.88
310.03	101.88
310.26	102.88
310.49	109.88
310.72	104.88
310.949	103.88
311.179	123.88
311.409	109.88
311.639	112.88
311.868	106.88
312.098	113.88
312.328	109.88
312.557	100.88
312.787	109.88
313.017	106.88
313.246	119.88
313.476	139.88
313.706	116.88
313.935	163.88
314.165	202.88
314.394	212.88
314.624	165.88
314.853	136.88
315.083	111.88
315.312	123.88
315.542	136.88
315.771	128.88
316.001	122.88
316.23	137.88
316.46	146.88
316.689	169.88
316.919	270.88
317.148	447.88
317.377	850.88
317.607	1383.88
317.836	1237.88
318.065	514.88
318.295	224.88
318.524	153.88
318.753	149.88
318.983	125.88
319.212	129.88
319.441	121.88
319.67	126.88
319.9	106.88
320.129	107.88
320.358	104.88
320.587	115.88
320.816	129.88
321.046	130.88
321.275	139.88
321.504	131.88
321.733	135.88
321.962	152.88
322.191	150.88
322.42	138.88
322.649	109.88
322.878	123.88
323.108	119.88
323.337	134.88
323.566	124.88
323.795	129.88
324.024	135.88
324.253	133.88
324.482	177.88
324.71	215.88
324.939	266.88
325.168	224.88
325.397	191.88
325.626	237.88
325.855	467.88
326.084	876.88
326.313	1469.88
326.542	1413.88
326.77	583.88
326.999	247.88
327.228	208.88
327.457	225.88
327.686	213.88
327.914	151.88
328.143	137.88
328.372	126.88
328.6	121.88
328.829	127.88
329.058	117.88
329.287	112.88
329.515	110.88
329.744	95.88
329.972	130.88
330.201	121.88
330.43	114.88
330.658	111.88
330.887	91.88
331.115	97.88
331.344	116.88
331.572	119.88
331.801	114.88
332.03	114.88
332.258	132.88
332.486	159.88
332.715	268.88
332.943	491.88
333.172	683.88
333.4	600.88
333.629	239.88
333.857	145.88
334.085	123.88
334.314	142.88
334.542	128.88
334.771	135.88
334.999	120.88
335.227	129.88
335.455	123.88
335.684	125.88
335.912	116.88
336.14	102.88
336.369	119.88
336.597	117.88
336.825	111.88
337.053	114.88
337.281	99.88
337.51	102.88
337.738	100.88
337.966	99.88
338.194	101.88
338.422	112.88
338.65	103.88
338.878	122.88
339.106	128.88
339.334	133.88
339.562	101.88
339.79	104.88
340.018	106.88
340.246	106.88
340.474	112.88
340.702	115.88
340.93	120.88
341.158	89.88
341.386	121.88
341.614	126.88
341.842	125.88
342.07	113.88
342.298	122.88
342.526	115.88
342.754	109.88
342.981	116.88
343.209	116.88
343.437	125.88
343.665	111.88
343.893	115.88
344.12	118.88
344.348	114.88
344.576	98.88
344.804	101.88
345.031	116.88
345.259	93.88
345.487	102.88
345.714	103.88
345.942	107.88
346.17	96.88
346.397	102.88
346.625	110.88
346.853	113.88
347.08	102.88
347.308	109.88
347.535	101.88
347.763	102.88
347.99	112.88
348.218	101.88
348.445	107.88
348.673	98.88
348.9	112.88
349.128	119.88
349.355	114.88
349.583	127.88
349.81	109.88
350.037	105.88
350.265	99.88
350.492	120.88
350.72	117.88
350.947	120.88
351.174	108.88
351.402	126.88
351.629	109.88
351.856	110.88
352.083	111.88
352.311	110.88
352.538	114.88
352.765	103.88
352.992	113.88
353.22	103.88
353.447	101.88
353.674	118.88
353.901	89.88
354.128	105.88
354.355	99.88
354.583	101.88
354.81	89.88
355.037	92.88
355.264	109.88
355.491	107.88
355.718	109.88
355.945	87.88
356.172	106.88
356.399	117.88
356.626	85.88
356.853	101.88
357.08	103.88
357.307	117.88
357.534	101.88
357.761	104.88
357.988	102.88
358.215	112.88
358.441	91.88
358.668	120.88
358.895	120.88
359.122	119.88
359.349	122.88
359.576	117.88
359.802	115.88
360.029	113.88
360.256	115.88
360.483	116.88
360.709	109.88
360.936	127.88
361.163	111.88
361.39	117.88
361.616	107.88
361.843	127.88
362.07	123.88
362.296	121.88
362.523	110.88
362.749	96.88
362.976	101.88
363.203	111.88
363.429	95.88
363.656	100.88
363.882	114.88
364.109	113.88
364.335	101.88
364.562	109.88
364.788	99.88
365.015	112.88
365.241	119.88
365.468	188.88
365.694	228.88
365.92	179.88
366.147	129.88
366.373	115.88
366.599	106.88
366.826	96.88
367.052	104.88
367.278	91.88
367.505	114.88
367.731	113.88
367.957	100.88
368.184	109.88
368.41	107.88
368.636	117.88
368.862	87.88
369.089	97.88
369.315	107.88
369.541	126.88
369.767	111.88
369.993	103.88
370.219	100.88
370.445	110.88
370.672	105.88
370.898	117.88
371.124	100.88
371.35	95.88
371.576	115.88
371.802	103.88
372.028	110.88
372.254	109.88
372.48	97.88
372.706	110.88
372.932	118.88
373.158	109.88
373.384	109.88
373.61	111.88
373.835	127.88
374.061	98.88
374.287	101.88
374.513	92.88
374.739	120.88
374.965	112.88
375.191	115.88
375.416	109.88
375.642	103.88
375.868	113.88
376.094	100.88
376.319	111.88
376.545	93.88
376.771	111.88
376.997	103.88
377.222	111.88
377.448	105.88
377.674	88.88
377.899	104.88
378.125	123.88
378.35	114.88
378.576	94.88
378.802	119.88
379.027	117.88
379.253	134.88
379.478	150.88
379.704	305.88
379.929	729.88
380.155	1469.88
380.38	1492.88
380.606	481.88
380.831	173.88
381.057	138.88
381.282	109.88
381.507	121.88
381.733	109.88
381.958	101.88
382.184	114.88
382.409	127.88
382.634	106.88
382.86	105.88
383.085	118.88
383.31	101.88
383.535	109.88
383.761	116.88
383.986	106.88
384.211	121.88
384.436	100.88
384.662	103.88
384.887	102.88
385.112	99.88
385.337	105.88
385.562	113.88
385.787	113.88
386.013	97.88
386.238	106.88
386.463	106.88
386.688	119.88
386.913	103.88
387.138	105.88
387.363	90.88
387.588	109.88
387.813	104.88
388.038	109.88
388.263	110.88
388.488	104.88
388.713	104.88
388.938	90.88
389.163	92.88
389.387	102.88
389.612	103.88
389.837	100.88
390.062	95.88
390.287	95.88
390.512	89.88
390.736	95.88
390.961	96.88
391.186	97.88
391.411	105.88
391.636	91.88
391.86	87.88
392.085	95.88
392.31	88.88
392.534	90.88
392.759	81.88
392.984	102.88
393.208	111.88
393.433	120.88
393.658	131.88
393.882	111.88
394.107	84.88
394.331	103.88
394.556	94.88
394.78	89.88
395.005	90.88
395.229	94.88
395.454	99.88
395.678	94.88
395.903	91.88
396.127	96.88
396.352	89.88
396.576	94.88
396.801	105.88
397.025	127.88
397.249	121.88
397.474	93.88
397.698	85.88
397.922	98.88
398.147	103.88
398.371	103.88
398.595	98.88
398.82	90.88
399.044	101.88
399.268	103.88
399.492	99.88
399.717	86.88
399.941	99.88
400.165	98.88
400.389	98.88
400.613	98.88
400.837	97.88
401.062	106.88
401.286	90.88
401.51	98.88
401.734	82.88
401.958	104.88
402.182	87.88
402.406	86.88
402.63	102.88
402.854	106.88
403.078	91.88
403.302	97.88
403.526	94.88
403.75	72.88
403.974	88.88
404.198	100.88
404.422	102.88
404.645	84.88
404.869	104.88
405.093	96.88
405.317	91.88
405.541	102.88
405.765	134.88
405.988	152.88
406.212	124.88
406.436	99.88
406.66	99.88
406.883	101.88
407.107	109.88
407.331	108.88
407.555	98.88
407.778	87.88
408.002	90.88
408.226	87.88
408.449	99.88
408.673	88.88
408.896	104.88
409.12	101.88
409.344	111.88
409.567	99.88
409.791	85.88
410.014	105.88
410.238	100.88
410.461	109.88
410.685	99.88
410.908	99.88
411.132	99.88
411.355	102.88
411.578	111.88
411.802	84.88
412.025	117.88
412.249	89.88
412.472	101.88
412.695	83.88
412.919	102.88
413.142	97.88
413.365	99.88
413.589	112.88
413.812	83.88
414.035	106.88
414.258	106.88
414.482	111.88
414.705	87.88
414.928	106.88
415.151	105.88
415.374	90.88
415.597	110.88
415.821	89.88
416.044	98.88
416.267	84.88
416.49	99.88
416.713	94.88
416.936	103.88
417.159	90.88
417.382	102.88
417.605	104.88
417.828	105.88
418.051	99.88
418.274	97.88
418.497	98.88
418.72	100.88
418.943	93.88
419.166	106.88
419.389	94.88
419.611	108.88
419.834	111.88
420.057	111.88
420.28	100.88
420.503	96.88
420.726	98.88
420.948	104.88
421.171	95.88
421.394	95.88
421.617	94.88
421.839	94.88
422.062	102.88
422.285	81.88
422.507	100.88
422.73	135.88
422.953	121.88
423.175	102.88
423.398	95.88
423.621	106.88
423.843	97.88
424.066	83.88
424.288	100.88
424.511	94.88
424.733	106.88
424.956	104.88
425.178	93.88
425.401	83.88
425.623	78.88
425.846	94.88
426.068	93.88
426.291	98.88
426.513	92.88
426.735	104.88
426.958	100.88
427.18	98.88
427.402	97.88
427.625	93.88
427.847	99.88
428.069	81.88
428.292	109.88
428.514	85.88
428.736	89.88
428.958	96.88
429.181	100.88
429.403	85.88
429.625	103.88
429.847	104.88
430.069	103.88
430.292	87.88
430.514	103.88
430.736	96.88
430.958	100.88
431.18	93.88
431.402	94.88
431.624	89.88
431.846	99.88
432.068	102.88
432.29	94.88
432.512	91.88
432.734	102.88
432.956	95.88
433.178	110.88
433.4	97.88
433.622	91.88
433.844	87.88
434.066	99.88
434.287	97.88
434.509	107.88
434.731	90.88
434.953	87.88
435.175	84.88
435.397	95.88
435.618	106.88
435.84	96.88
436.062	98.88
436.284	89.88
436.505	75.88
436.727	91.88
436.949	93.88
437.17	90.88
437.392	83.88
437.614	83.88
437.835	86.88
438.057	91.88
438.278	102.88
438.5	83.88
438.721	90.88
438.943	110.88
439.165	107.88
439.386	126.88
439.608	96.88
439.829	100.88
440.05	101.88
440.272	100.88
440.493	89.88
440.715	103.88
440.936	97.88
441.158	99.88
441.379	90.88
441.6	97.88
441.822	106.88
442.043	117.88
442.264	131.88
442.486	123.88
442.707	100.88
442.928	116.88
443.149	87.88
443.371	100.88
443.592	98.88
443.813	97.88
444.034	85.88
444.255	90.88
444.476	111.88
444.698	96.88
444.919	106.88
445.14	187.88
445.361	124.88
445.582	102.88
445.803	111.88
446.024	106.88
446.245	96.88
446.466	104.88
446.687	118.88
446.908	98.88
447.129	96.88
447.35	93.88
447.571	93.88
447.792	106.88
448.013	81.88
448.234	87.88
448.455	104.88
448.675	90.88
448.896	92.88
449.117	122.88
449.338	142.88
449.559	157.88
449.779	118.88
450	102.88
450.221	104.88
450.442	98.88
450.662	113.88
450.883	111.88
451.104	114.88
451.324	108.88
451.545	122.88
451.766	110.88
451.986	126.88
452.207	207.88
452.428	538.88
452.648	1217.88
452.869	718.88
453.089	191.88
453.31	122.88
453.53	112.88
453.751	137.88
453.971	144.88
454.192	140.88
454.412	119.88
454.633	104.88
454.853	105.88
455.073	102.88
455.294	98.88
455.514	92.88
455.734	85.88
455.955	87.88
456.175	98.88
456.395	95.88
456.616	102.88
456.836	107.88
457.056	106.88
457.276	107.88
457.497	117.88
457.717	119.88
457.937	110.88
458.157	106.88
458.377	102.88
458.598	83.88
458.818	92.88
459.038	95.88
459.258	94.88
459.478	93.88
459.698	94.88
459.918	89.88
460.138	83.88
460.358	81.88
460.578	90.88
460.798	98.88
461.018	86.88
461.238	90.88
461.458	99.88
461.678	95.88
461.898	94.88
462.118	85.88
462.338	97.88
462.558	94.88
462.777	95.88
462.997	105.88
463.217	92.88
463.437	122.88
463.657	170.88
463.876	185.88
464.096	117.88
464.316	97.88
464.536	92.88
464.755	105.88
464.975	104.88
465.195	94.88
465.414	93.88
465.634	88.88
465.854	97.88
466.073	95.88
466.293	99.88
466.512	102.88
466.732	106.88
466.951	112.88
467.171	145.88
467.391	137.88
467.61	121.88
467.829	89.88
468.049	107.88
468.268	107.88
468.488	101.88
468.707	100.88
468.927	102.88
469.146	87.88
469.365	92.88
469.585	86.88
469.804	118.88
470.023	106.88
470.243	96.88
470.462	102.88
470.681	109.88
470.901	111.88
471.12	184.88
471.339	186.88
471.558	134.88
471.777	116.88
471.997	113.88
472.216	93.88
472.435	104.88
472.654	94.88
472.873	90.88
473.092	111.88
473.311	80.88
473.53	70.88
473.749	108.88
473.968	99.88
474.187	94.88
474.406	112.88
474.625	106.88
474.844	102.88
475.063	97.88
475.282	98.88
475.501	101.88
475.72	93.88
475.939	97.88
476.158	92.88
476.377	113.88
476.596	124.88
476.814	99.88
477.033	94.88
477.252	91.88
477.471	87.88
477.69	94.88
477.908	102.88
478.127	106.88
478.346	98.88
478.564	90.88
478.783	114.88
479.002	109.88
479.22	94.88
479.439	83.88
479.658	101.88
479.876	92.88
480.095	92.88
480.313	103.88
480.532	94.88
480.751	103.88
480.969	94.88
481.188	86.88
481.406	91.88
481.624	96.88
481.843	104.88
482.061	111.88
482.28	110.88
482.498	98.88
482.717	96.88
482.935	91.88
483.153	109.88
483.372	97.88
483.59	103.88
483.808	100.88
484.027	107.88
484.245	122.88
484.463	166.88
484.681	205.88
484.9	148.88
485.118	105.88
485.336	95.88
485.554	107.88
485.772	123.88
485.99	163.88
486.209	239.88
486.427	161.88
486.645	113.88
486.863	98.88
487.081	109.88
487.299	103.88
487.517	105.88
487.735	105.88
487.953	89.88
488.171	108.88
488.389	102.88
488.607	97.88
488.825	113.88
489.043	94.88
489.261	89.88
489.479	89.88
489.696	105.88
489.914	129.88
490.132	95.88
490.35	99.88
490.568	94.88
490.786	98.88
491.003	96.88
491.221	104.88
491.439	126.88
491.657	103.88
491.874	101.88
492.092	107.88
492.31	116.88
492.527	117.88
492.745	110.88
492.963	108.88
493.18	103.88
493.398	107.88
493.615	106.88
493.833	100.88
494.05	99.88
494.268	97.88
494.485	112.88
494.703	99.88
494.92	97.88
495.138	103.88
495.355	110.88
495.573	116.88
495.79	111.88
496.008	118.88
496.225	100.88
496.442	114.88
496.66	125.88
496.877	137.88
497.094	152.88
497.312	114.88
497.529	106.88
497.746	103.88
497.963	103.88
498.181	105.88
498.398	100.88
498.615	113.88
498.832	109.88
499.049	96.88
499.267	136.88
499.484	149.88
499.701	106.88
499.918	110.88
500.135	104.88
500.352	99.88
500.569	114.88
500.786	105.88
501.003	102.88
501.22	110.88
501.437	110.88
501.654	103.88
501.871	103.88
502.088	98.88
502.305	84.88
502.522	98.88
502.739	90.88
502.956	95.88
503.172	101.88
503.389	102.88
503.606	96.88
503.823	100.88
504.04	93.88
504.256	105.88
504.473	97.88
504.69	98.88
504.907	104.88
505.123	117.88
505.34	96.88
505.557	97.88
505.773	109.88
505.99	102.88
506.207	91.88
506.423	106.88
506.64	109.88
506.856	113.88
507.073	85.88
507.289	107.88
507.506	102.88
507.722	93.88
507.939	106.88
508.155	93.88
508.372	105.88
508.588	102.88
508.805	112.88
509.021	101.88
509.238	107.88
509.454	126.88
509.67	157.88
509.887	121.88
510.103	94.88
510.319	98.88
510.536	98.88
510.752	110.88
510.968	115.88
511.184	104.88
511.401	87.88
511.617	99.88
511.833	105.88
512.049	107.88
512.265	106.88
512.481	102.88
512.698	99.88
512.914	102.88
513.13	98.88
513.346	107.88
513.562	87.88
513.778	87.88
513.994	102.88
514.21	103.88
514.426	135.88
514.642	176.88
514.858	119.88
515.074	109.88
515.29	106.88
515.506	116.88
515.721	88.88
515.937	104.88
516.153	95.88
516.369	111.88
516.585	104.88
516.801	109.88
517.016	106.88
517.232	87.88
517.448	87.88
517.664	97.88
517.879	97.88
518.095	89.88
518.311	115.88
518.527	99.88
518.742	107.88
518.958	121.88
519.173	149.88
519.389	117.88
519.605	94.88
519.82	105.88
520.036	91.88
520.251	95.88
520.467	91.88
520.682	98.88
520.898	85.88
521.113	91.88
521.329	103.88
521.544	87.88
521.76	95.88
521.975	110.88
522.19	111.88
522.406	111.88
522.621	110.88
522.836	107.88
523.052	102.88
523.267	106.88
523.482	99.88
523.698	102.88
523.913	94.88
524.128	80.88
524.343	90.88
524.559	91.88
524.774	85.88
524.989	103.88
525.204	100.88
525.419	103.88
525.634	106.88
525.849	105.88
526.064	97.88
526.28	94.88
526.495	107.88
526.71	105.88
526.925	103.88
527.14	86.88
527.355	111.88
527.57	91.88
527.785	103.88
527.999	95.88
528.214	100.88
528.429	101.88
528.644	104.88
528.859	105.88
529.074	87.88
529.289	100.88
529.503	92.88
529.718	103.88
529.933	109.88
530.148	91.88
530.363	88.88
530.577	89.88
530.792	91.88
531.007	90.88
531.221	95.88
531.436	93.88
531.651	99.88
531.865	111.88
532.08	105.88
532.295	106.88
532.509	148.88
532.724	122.88
532.938	98.88
533.153	104.88
533.367	102.88
533.582	105.88
533.796	100.88
534.011	96.88
534.225	104.88
534.44	99.88
534.654	94.88
534.868	88.88
535.083	102.88
535.297	84.88
535.511	109.88
535.726	98.88
535.94	101.88
536.154	83.88
536.369	90.88
536.583	81.88
536.797	97.88
537.011	98.88
537.225	106.88
537.44	92.88
537.654	81.88
537.868	106.88
538.082	97.88
538.296	94.88
538.51	93.88
538.724	100.88
538.938	96.88
539.153	113.88
539.367	102.88
539.581	100.88
539.795	103.88
540.009	96.88
540.222	110.88
540.436	94.88
540.65	99.88
540.864	99.88
541.078	107.88
541.292	137.88
541.506	202.88
541.72	203.88
541.934	108.88
542.147	103.88
542.361	101.88
542.575	104.88
542.789	90.88
543.002	104.88
543.216	110.88
543.43	116.88
543.644	90.88
543.857	95.88
544.071	86.88
544.285	97.88
544.498	104.88
544.712	117.88
544.925	100.88
545.139	96.88
545.352	107.88
545.566	117.88
545.779	115.88
545.993	99.88
546.206	106.88
546.42	102.88
546.633	104.88
546.847	112.88
547.06	113.88
547.274	121.88
547.487	110.88
547.7	89.88
547.914	101.88
548.127	108.88
548.34	102.88
548.554	102.88
548.767	105.88
548.98	97.88
549.193	100.88
549.407	107.88
549.62	108.88
549.833	107.88
550.046	106.88
550.259	99.88
550.473	98.88
550.686	106.88
550.899	96.88
551.112	114.88
551.325	103.88
551.538	98.88
551.751	102.88
551.964	100.88
552.177	107.88
552.39	99.88
552.603	112.88
552.816	92.88
553.029	88.88
553.242	107.88
553.455	106.88
553.667	115.88
553.88	99.88
554.093	116.88
554.306	115.88
554.519	103.88
554.732	100.88
554.944	112.88
555.157	103.88
555.37	113.88
555.583	103.88
555.795	117.88
556.008	126.88
556.221	151.88
556.433	121.88
556.646	105.88
556.859	104.88
557.071	102.88
557.284	122.88
557.496	123.88
557.709	95.88
557.921	100.88
558.134	108.88
558.346	101.88
558.559	100.88
558.771	95.88
558.984	105.88
559.196	101.88
559.409	95.88
559.621	112.88
559.833	101.88
560.046	102.88
560.258	97.88
560.47	96.88
560.683	105.88
560.895	102.88
561.107	99.88
561.32	104.88
561.532	99.88
561.744	115.88
561.956	106.88
562.168	93.88
562.381	99.88
562.593	125.88
562.805	137.88
563.017	162.88
563.229	236.88
563.441	567.88
563.653	194.88
563.865	111.88
564.077	98.88
564.289	114.88
564.501	109.88
564.713	109.88
564.925	100.88
565.137	111.88
565.349	109.88
565.561	105.88
565.773	91.88
565.985	98.88
566.197	99.88
566.408	106.88
566.62	87.88
566.832	91.88
567.044	96.88
567.255	101.88
567.467	90.88
567.679	110.88
567.891	132.88
568.102	174.88
568.314	247.88
568.526	138.88
568.737	120.88
568.949	109.88
569.161	104.88
569.372	91.88
569.584	96.88
569.795	113.88
570.007	112.88
570.218	125.88
570.43	153.88
570.641	113.88
570.853	105.88
571.064	106.88
571.276	88.88
571.487	98.88
571.698	106.88
571.91	90.88
572.121	102.88
572.333	105.88
572.544	98.88
572.755	135.88
572.966	193.88
573.178	121.88
573.389	88.88
573.6	95.88
573.811	94.88
574.023	105.88
574.234	90.88
574.445	86.88
574.656	94.88
574.867	79.88
575.078	90.88
575.289	98.88
575.501	101.88
575.712	92.88
575.923	100.88
576.134	88.88
576.345	95.88
576.556	101.88
576.767	98.88
576.978	84.88
577.188	80.88
577.399	94.88
577.61	100.88
577.821	94.88
578.032	90.88
578.243	85.88
578.454	88.88
578.665	98.88
578.875	80.88
579.086	98.88
579.297	102.88
579.508	93.88
579.718	99.88
579.929	84.88
580.14	102.88
580.35	88.88
580.561	88.88
580.772	91.88
580.982	96.88
581.193	99.88
581.403	100.88
581.614	94.88
581.825	87.88
582.035	105.88
582.246	90.88
582.456	103.88
582.667	91.88
582.877	100.88
583.087	102.88
583.298	110.88
583.508	86.88
583.719	98.88
583.929	89.88
584.139	91.88
584.35	98.88
584.56	103.88
584.77	75.88
584.981	91.88
585.191	88.88
585.401	88.88
585.611	77.88
585.821	86.88
586.032	84.88
586.242	87.88
586.452	96.88
586.662	89.88
586.872	85.88
587.082	84.88
587.292	102.88
587.502	93.88
587.713	89.88
587.923	83.88
588.133	95.88
588.343	97.88
588.553	79.88
588.762	89.88
588.972	97.88
589.182	130.88
589.392	114.88
589.602	93.88
589.812	109.88
590.022	106.88
590.232	103.88
590.441	96.88
590.651	97.88
590.861	96.88
591.071	94.88
591.281	84.88
591.49	93.88
591.7	84.88
591.91	77.88
592.119	94.88
592.329	102.88
592.539	108.88
592.748	87.88
592.958	101.88
593.167	83.88
593.377	93.88
593.587	111.88
593.796	102.88
594.006	80.88
594.215	79.88
594.424	100.88
594.634	86.88
594.843	83.88
595.053	89.88
595.262	86.88
595.472	82.88
595.681	80.88
595.89	87.88
596.1	89.88
596.309	93.88
596.518	94.88
596.727	99.88
596.937	91.88
597.146	93.88
597.355	100.88
597.564	89.88
597.774	95.88
597.983	94.88
598.192	97.88
598.401	100.88
598.61	101.88
598.819	101.88
599.028	89.88
599.237	84.88
599.446	83.88
599.655	103.88
599.864	75.88
600.073	94.88
600.282	88.88
600.491	86.88
600.7	105.88
600.909	85.88
601.118	93.88
601.327	97.88
601.536	92.88
601.745	105.88
601.953	129.88
602.162	134.88
602.371	103.88
602.58	96.88
602.789	89.88
602.997	101.88
603.206	100.88
603.415	100.88
603.623	95.88
603.832	94.88
604.041	100.88
604.249	99.88
604.458	99.88
604.666	81.88
604.875	88.88
605.084	88.88
605.292	93.88
605.501	100.88
605.709	107.88
605.918	101.88
606.126	106.88
606.334	98.88
606.543	95.88
606.751	122.88
606.96	155.88
607.168	160.88
607.376	127.88
607.585	98.88
607.793	88.88
608.001	97.88
608.21	99.88
608.418	93.88
608.626	92.88
608.834	89.88
609.043	64.88
609.251	89.88
609.459	96.88
609.667	91.88
609.875	88.88
610.083	79.88
610.291	93.88
610.499	93.88
610.707	93.88
610.916	98.88
611.124	105.88
611.332	95.88
611.54	89.88
611.748	95.88
611.955	81.88
612.163	112.88
612.371	97.88
612.579	85.88
612.787	91.88
612.995	106.88
613.203	102.88
613.411	77.88
613.618	93.88
613.826	78.88
614.034	83.88
614.242	97.88
614.449	99.88
614.657	90.88
614.865	88.88
615.072	109.88
615.28	108.88
615.488	101.88
615.695	105.88
615.903	111.88
616.111	96.88
616.318	84.88
616.526	92.88
616.733	84.88
616.941	102.88
617.148	104.88
617.356	94.88
617.563	83.88
617.771	91.88
617.978	98.88
618.185	88.88
618.393	74.88
618.6	94.88
618.807	90.88
619.015	86.88
619.222	106.88
619.429	101.88
619.637	99.88
619.844	76.88
620.051	82.88
620.258	78.88
620.466	94.88
620.673	82.88
620.88	89.88
621.087	90.88
621.294	91.88
621.501	79.88
621.708	85.88
621.915	89.88
622.122	97.88
622.329	102.88
622.536	85.88
622.743	74.88
622.95	90.88
623.157	79.88
623.364	100.88
623.571	97.88
623.778	101.88
623.985	88.88
624.192	81.88
624.399	105.88
624.606	86.88
624.812	100.88
625.019	87.88
625.226	86.88
625.433	84.88
625.639	104.88
625.846	89.88
626.053	90.88
626.259	87.88
626.466	93.88
626.673	89.88
626.879	78.88
627.086	84.88
627.293	87.88
627.499	82.88
627.706	86.88
627.912	83.88
628.119	95.88
628.325	88.88
628.532	105.88
628.738	98.88
628.945	94.88
629.151	94.88
629.357	94.88
629.564	82.88
629.77	89.88
629.976	89.88
630.183	75.88
630.389	88.88
630.595	88.88
630.802	69.88
631.008	83.88
631.214	85.88
631.42	70.88
631.627	88.88
631.833	93.88
632.039	93.88
632.245	93.88
632.451	96.88
632.657	90.88
632.863	88.88
633.069	84.88
633.275	86.88
633.481	85.88
633.688	102.88
633.893	88.88
634.099	100.88
634.305	85.88
634.511	96.88
634.717	99.88
634.923	94.88
635.129	114.88
635.335	119.88
635.541	100.88
635.747	91.88
635.952	101.88
636.158	78.88
636.364	88.88
636.57	79.88
636.775	93.88
636.981	93.88
637.187	93.88
637.392	93.88
637.598	86.88
637.804	85.88
638.009	83.88
638.215	83.88
638.421	83.88
638.626	81.88
638.832	86.88
639.037	80.88
639.243	85.88
639.448	86.88
639.654	83.88
639.859	91.88
640.065	103.88
640.27	87.88
640.475	82.88
640.681	80.88
640.886	95.88
641.091	85.88
641.297	88.88
641.502	86.88
641.707	94.88
641.913	88.88
642.118	82.88
642.323	90.88
642.528	87.88
642.733	76.88
642.939	83.88
643.144	83.88
643.349	82.88
643.554	79.88
643.759	93.88
643.964	99.88
644.169	93.88
644.374	79.88
644.579	90.88
644.784	84.88
644.989	82.88
645.194	72.88
645.399	102.88
645.604	101.88
645.809	88.88
646.014	100.88
646.219	87.88
646.423	90.88
646.628	64.88
646.833	82.88
647.038	93.88
647.243	87.88
647.447	85.88
647.652	79.88
647.857	93.88
648.062	85.88
648.266	80.88
648.471	94.88
648.676	98.88
648.88	77.88
649.085	92.88
649.289	84.88
649.494	97.88
649.698	78.88
649.903	103.88
650.107	79.88
650.312	81.88
650.516	79.88
650.721	101.88
650.925	93.88
651.13	80.88
651.334	87.88
651.539	80.88
651.743	85.88
651.947	79.88
652.152	78.88
652.356	80.88
652.56	102.88
652.764	104.88
652.969	111.88
653.173	85.88
653.377	71.88
653.581	94.88
653.785	84.88
653.99	74.88
654.194	88.88
654.398	82.88
654.602	81.88
654.806	82.88
655.01	83.88
655.214	85.88
655.418	79.88
655.622	90.88
655.826	94.88
656.03	71.88
656.234	82.88
656.438	78.88
656.642	73.88
656.846	96.88
657.049	90.88
657.253	79.88
657.457	85.88
657.661	76.88
657.865	83.88
658.068	93.88
658.272	96.88
658.476	87.88
658.68	66.88
658.883	67.88
659.087	93.88
659.291	73.88
659.494	86.88
659.698	84.88
659.901	72.88
660.105	88.88
660.309	90.88
660.512	92.88
660.716	81.88
660.919	78.88
661.123	96.88
661.326	83.88
661.53	90.88
661.733	81.88
661.936	91.88
662.14	81.88
662.343	82.88
662.546	73.88
662.75	83.88
662.953	83.88
663.156	94.88
663.36	90.88
663.563	82.88
663.766	76.88
663.969	85.88
664.173	90.88
664.376	74.88
664.579	83.88
664.782	80.88
664.985	83.88
665.188	78.88
665.391	71.88
665.594	81.88
665.797	74.88
666	79.88
666.203	86.88
666.406	73.88
666.609	81.88
666.812	91.88
667.015	75.88
667.218	97.88
667.421	83.88
667.624	87.88
667.827	99.88
668.03	95.88
668.232	88.88
668.435	74.88
668.638	84.88
668.841	93.88
669.043	90.88
669.246	88.88
669.449	93.88
669.651	77.88
669.854	85.88
670.057	85.88
670.259	82.88
670.462	79.88
670.665	84.88
670.867	80.88
671.07	85.88
671.272	87.88
671.475	93.88
671.677	86.88
671.88	85.88
672.082	75.88
672.284	74.88
672.487	94.88
672.689	93.88
672.892	79.88
