Data from SnStandardFlinnAPT0064_LampEnergy10_LIBS07252019.E.O._I.C._HRD10591_15-19-47-493.txt Node
Date: Thu Jul 25 15:19:47 EDT 2019
User: cochatt
Spectrometer: HR+D1059
Trigger mode: 1
Integration Time (sec): 1.000000E-1
Scans to average: 1
Electric dark correction enabled: true
Nonlinearity correction enabled: false
Boxcar width: 0
XAxis mode: Wavelengths
Number of Pixels in Spectrum: 2048
>>>>>Begin Spectral Data<<<<<
223.165	0.06
223.4	0.06
223.635	0.06
223.869	-5.94
224.104	-32.94
224.338	-36.94
224.573	-19.94
224.808	-23.94
225.042	-1.94
225.277	-5.94
225.511	-2.94
225.746	1.06
225.98	7.06
226.215	6.06
226.449	20.06
226.683	33.06
226.918	20.06
227.152	43.06
227.387	30.06
227.621	33.06
227.856	40.06
228.09	43.06
228.324	36.06
228.559	54.06
228.793	138.06
229.027	313.06
229.262	351.06
229.496	320.06
229.73	309.06
229.964	317.06
230.199	300.06
230.433	311.06
230.667	331.06
230.901	337.06
231.136	345.06
231.37	366.06
231.604	402.06
231.838	461.06
232.072	536.06
232.306	576.06
232.541	506.06
232.775	450.06
233.009	409.06
233.243	442.06
233.477	481.06
233.711	536.06
233.945	606.06
234.179	513.06
234.413	448.06
234.647	458.06
234.881	477.06
235.115	539.06
235.349	644.06
235.583	811.06
235.817	1047.06
236.051	1021.06
236.285	702.06
236.519	547.06
236.753	524.06
236.987	510.06
237.221	570.06
237.455	534.06
237.689	478.06
237.922	471.06
238.156	464.06
238.39	514.06
238.624	504.06
238.858	460.06
239.091	508.06
239.325	491.06
239.559	516.06
239.793	492.06
240.027	555.06
240.26	536.06
240.494	563.06
240.728	588.06
240.961	650.06
241.195	684.06
241.429	688.06
241.662	736.06
241.896	847.06
242.13	987.06
242.363	1324.06
242.597	1693.06
242.83	1668.06
243.064	1636.06
243.298	1903.06
243.531	1562.06
243.765	1001.06
243.998	804.06
244.232	715.06
244.465	694.06
244.699	670.06
244.932	650.06
245.166	670.06
245.399	682.06
245.633	704.06
245.866	694.06
246.099	682.06
246.333	658.06
246.566	656.06
246.8	642.06
247.033	623.06
247.266	642.06
247.5	675.06
247.733	691.06
247.966	722.06
248.2	793.06
248.433	914.06
248.666	1024.06
248.899	1000.06
249.133	860.06
249.366	888.06
249.599	982.06
249.832	1103.06
250.066	1107.06
250.299	868.06
250.532	791.06
250.765	747.06
250.998	743.06
251.231	732.06
251.465	746.06
251.698	730.06
251.931	734.06
252.164	736.06
252.397	809.06
252.63	795.06
252.863	801.06
253.096	801.06
253.329	774.06
253.562	761.06
253.795	784.06
254.028	814.06
254.261	826.06
254.494	878.06
254.727	1062.06
254.96	1275.06
255.193	1229.06
255.426	990.06
255.659	866.06
255.892	880.06
256.124	881.06
256.357	898.06
256.59	934.06
256.823	1026.06
257.056	1143.06
257.289	1394.06
257.521	1580.06
257.754	1209.06
257.987	1001.06
258.22	940.06
258.452	901.06
258.685	950.06
258.918	945.06
259.151	1011.06
259.383	1088.06
259.616	1250.06
259.849	1286.06
260.081	1096.06
260.314	1001.06
260.547	996.06
260.779	946.06
261.012	988.06
261.244	967.06
261.477	949.06
261.71	973.06
261.942	1010.06
262.175	958.06
262.407	985.06
262.64	1046.06
262.872	1069.06
263.105	1136.06
263.337	1194.06
263.57	1247.06
263.802	1284.06
264.035	1297.06
264.267	1314.06
264.499	1350.06
264.732	1394.06
264.964	1406.06
265.197	1393.06
265.429	1404.06
265.661	1435.06
265.894	1545.06
266.126	1717.06
266.358	1966.06
266.591	1946.06
266.823	1636.06
267.055	1450.06
267.287	1362.06
267.52	1319.06
267.752	1290.06
267.984	1249.06
268.216	1236.06
268.448	1207.06
268.681	1247.06
268.913	1227.06
269.145	1202.06
269.377	1253.06
269.609	1219.06
269.841	1318.06
270.073	1387.06
270.306	1630.06
270.538	2199.06
270.77	3352.06
271.002	4140.06
271.234	2946.06
271.466	1902.06
271.698	1578.06
271.93	1442.06
272.162	1328.06
272.394	1306.06
272.626	1280.06
272.858	1250.06
273.09	1228.06
273.322	1255.06
273.553	1230.06
273.785	1214.06
274.017	1191.06
274.249	1182.06
274.481	1211.06
274.713	1215.06
274.945	1212.06
275.176	1211.06
275.408	1241.06
275.64	1238.06
275.872	1264.06
276.104	1264.06
276.335	1266.06
276.567	1273.06
276.799	1299.06
277.031	1281.06
277.262	1354.06
277.494	1435.06
277.726	1584.06
277.957	1893.06
278.189	2176.06
278.421	1976.06
278.652	1792.06
278.884	1718.06
279.115	1497.06
279.347	1456.06
279.579	1392.06
279.81	1403.06
280.042	1381.06
280.273	1406.06
280.505	1472.06
280.736	1498.06
280.968	1655.06
281.199	1831.06
281.431	2102.06
281.662	2133.06
281.894	1815.06
282.125	1662.06
282.356	1656.06
282.588	1700.06
282.819	1750.06
283.051	1845.06
283.282	2005.06
283.513	2529.06
283.745	3696.06
283.976	5862.06
284.207	8347.06
284.439	7702.06
284.67	4804.06
284.901	3974.06
285.132	3913.06
285.364	3767.06
285.595	2829.06
285.826	2492.06
286.057	2967.06
286.288	4003.06
286.52	5432.06
286.751	5088.06
286.982	3115.06
287.213	2323.06
287.444	2023.06
287.675	1865.06
287.906	1801.06
288.138	1750.06
288.369	1701.06
288.6	1724.06
288.831	1658.06
289.062	1661.06
289.293	1680.06
289.524	1653.06
289.755	1721.06
289.986	1690.06
290.217	1722.06
290.448	1734.06
290.679	1691.06
290.91	1755.06
291.141	1892.06
291.371	2059.06
291.602	2156.06
291.833	1960.06
292.064	1791.06
292.295	1695.06
292.526	1664.06
292.757	1611.06
292.987	1574.06
293.218	1586.06
293.449	1589.06
293.68	1600.06
293.91	1566.06
294.141	1577.06
294.372	1583.06
294.603	1535.06
294.833	1547.06
295.064	1596.06
295.295	1532.06
295.525	1535.06
295.756	1544.06
295.987	1575.06
296.217	1562.06
296.448	1574.06
296.679	1582.06
296.909	1540.06
297.14	1612.06
297.37	1609.06
297.601	1628.06
297.831	1623.06
298.062	1635.06
298.292	1610.06
298.523	1677.06
298.753	1692.06
298.984	1696.06
299.214	1722.06
299.445	1759.06
299.675	1771.06
299.905	1841.06
300.136	1924.06
300.366	2229.06
300.597	2817.06
300.827	3981.06
301.057	5482.06
301.288	5533.06
301.518	3571.06
301.748	2647.06
301.979	2413.06
302.209	2356.06
302.439	2339.06
302.669	2490.06
302.9	3028.06
303.13	4291.06
303.36	6428.06
303.59	8532.06
303.82	7557.06
304.051	4450.06
304.281	3144.06
304.511	2610.06
304.741	2420.06
304.971	2227.06
305.201	2152.06
305.431	2005.06
305.661	1955.06
305.891	1946.06
306.121	1879.06
306.352	1890.06
306.582	1830.06
306.812	1831.06
307.042	1827.06
307.272	1815.06
307.502	1792.06
307.731	1810.06
307.961	1814.06
308.191	1831.06
308.421	1821.06
308.651	1811.06
308.881	1780.06
309.111	1827.06
309.341	1801.06
309.571	1805.06
309.8	1846.06
310.03	1827.06
310.26	1863.06
310.49	1872.06
310.72	1894.06
310.949	1885.06
311.179	1908.06
311.409	1893.06
311.639	1928.06
311.868	1914.06
312.098	1928.06
312.328	1909.06
312.557	1957.06
312.787	1969.06
313.017	2004.06
313.246	1992.06
313.476	1989.06
313.706	2070.06
313.935	2169.06
314.165	2383.06
314.394	2507.06
314.624	2333.06
314.853	2145.06
315.083	2157.06
315.312	2206.06
315.542	2196.06
315.771	2204.06
316.001	2264.06
316.23	2332.06
316.46	2438.06
316.689	2680.06
316.919	3288.06
317.148	4772.06
317.377	7434.06
317.607	10842.06
317.836	11324.06
318.065	7011.06
318.295	4484.06
318.524	3540.06
318.753	3044.06
318.983	2827.06
319.212	2618.06
319.441	2508.06
319.67	2470.06
319.9	2422.06
320.129	2368.06
320.358	2352.06
320.587	2356.06
320.816	2345.06
321.046	2380.06
321.275	2380.06
321.504	2407.06
321.733	2434.06
321.962	2503.06
322.191	2516.06
322.42	2533.06
322.649	2505.06
322.878	2496.06
323.108	2495.06
323.337	2577.06
323.566	2618.06
323.795	2663.06
324.024	2686.06
324.253	2802.06
324.482	2863.06
324.71	3022.06
324.939	3274.06
325.168	3291.06
325.397	3515.06
325.626	4126.06
325.855	5780.06
326.084	9046.06
326.313	13070.06
326.542	13866.06
326.77	9662.06
326.999	6248.06
327.228	5144.06
327.457	4830.06
327.686	4963.06
327.914	5303.06
328.143	6130.06
328.372	7324.06
328.6	8107.06
328.829	7204.06
329.058	6025.06
329.287	5225.06
329.515	4722.06
329.744	4340.06
329.972	4175.06
330.201	3845.06
330.43	3769.06
330.658	3706.06
330.887	3591.06
331.115	3476.06
331.344	3474.06
331.572	3484.06
331.801	3522.06
332.03	3533.06
332.258	3586.06
332.486	3789.06
332.715	4334.06
332.943	5358.06
333.172	6772.06
333.4	6731.06
333.629	5130.06
333.857	4596.06
334.085	4556.06
334.314	4815.06
334.542	5179.06
334.771	6198.06
334.999	7547.06
335.227	9658.06
335.455	10811.06
335.684	9640.06
335.912	7892.06
336.14	6688.06
336.369	5828.06
336.597	5248.06
336.825	4888.06
337.053	4540.06
337.281	4245.06
337.51	4107.06
337.738	3938.06
337.966	3698.06
338.194	3558.06
338.422	3490.06
338.65	3443.06
338.878	3308.06
339.106	3268.06
339.334	3154.06
339.562	3148.06
339.79	3081.06
340.018	3081.06
340.246	2972.06
340.474	2966.06
340.702	2983.06
340.93	3016.06
341.158	2999.06
341.386	3003.06
341.614	2962.06
341.842	2882.06
342.07	2823.06
342.298	2765.06
342.526	2749.06
342.754	2723.06
342.981	2684.06
343.209	2654.06
343.437	2730.06
343.665	2728.06
343.893	2808.06
344.12	2789.06
344.348	2736.06
344.576	2712.06
344.804	2640.06
345.031	2602.06
345.259	2597.06
345.487	2587.06
345.714	2546.06
345.942	2545.06
346.17	2535.06
346.397	2473.06
346.625	2462.06
346.853	2493.06
347.08	2500.06
347.308	2504.06
347.535	2543.06
347.763	2511.06
347.99	2456.06
348.218	2452.06
348.445	2445.06
348.673	2439.06
348.9	2397.06
349.128	2434.06
349.355	2418.06
349.583	2381.06
349.81	2426.06
350.037	2334.06
350.265	2389.06
350.492	2402.06
350.72	2399.06
350.947	2366.06
351.174	2362.06
351.402	2367.06
351.629	2365.06
351.856	2367.06
352.083	2394.06
352.311	2344.06
352.538	2379.06
352.765	2387.06
352.992	2371.06
353.22	2370.06
353.447	2378.06
353.674	2393.06
353.901	2315.06
354.128	2398.06
354.355	2401.06
354.583	2401.06
354.81	2404.06
355.037	2383.06
355.264	2403.06
355.491	2441.06
355.718	2425.06
355.945	2437.06
356.172	2442.06
356.399	2506.06
356.626	2459.06
356.853	2499.06
357.08	2502.06
357.307	2539.06
357.534	2537.06
357.761	2563.06
357.988	2556.06
358.215	2524.06
358.441	2544.06
358.668	2536.06
358.895	2508.06
359.122	2533.06
359.349	2527.06
359.576	2492.06
359.802	2558.06
360.029	2472.06
360.256	2488.06
360.483	2491.06
360.709	2503.06
360.936	2509.06
361.163	2497.06
361.39	2574.06
361.616	2518.06
361.843	2502.06
362.07	2515.06
362.296	2486.06
362.523	2541.06
362.749	2557.06
362.976	2516.06
363.203	2514.06
363.429	2489.06
363.656	2513.06
363.882	2521.06
364.109	2510.06
364.335	2500.06
364.562	2520.06
364.788	2513.06
365.015	2533.06
365.241	2609.06
365.468	2793.06
365.694	2926.06
365.92	2810.06
366.147	2598.06
366.373	2639.06
366.599	2563.06
366.826	2566.06
367.052	2576.06
367.278	2586.06
367.505	2550.06
367.731	2551.06
367.957	2563.06
368.184	2580.06
368.41	2627.06
368.636	2662.06
368.862	2630.06
369.089	2597.06
369.315	2625.06
369.541	2598.06
369.767	2603.06
369.993	2568.06
370.219	2556.06
370.445	2611.06
370.672	2627.06
370.898	2617.06
371.124	2676.06
371.35	2659.06
371.576	2651.06
371.802	2716.06
372.028	2718.06
372.254	2717.06
372.48	2764.06
372.706	2685.06
372.932	2812.06
373.158	2798.06
373.384	2745.06
373.61	2720.06
373.835	2725.06
374.061	2690.06
374.287	2756.06
374.513	2821.06
374.739	2838.06
374.965	2809.06
375.191	2842.06
375.416	2825.06
375.642	2752.06
375.868	2782.06
376.094	2777.06
376.319	2740.06
376.545	2707.06
376.771	2716.06
376.997	2708.06
377.222	2665.06
377.448	2650.06
377.674	2678.06
377.899	2744.06
378.125	2733.06
378.35	2688.06
378.576	2706.06
378.802	2718.06
379.027	2800.06
379.253	2860.06
379.478	3023.06
379.704	3588.06
379.929	5144.06
380.155	8155.06
380.38	8939.06
380.606	5517.06
380.831	3806.06
381.057	3260.06
381.282	2987.06
381.507	2859.06
381.733	2805.06
381.958	2736.06
382.184	2712.06
382.409	2660.06
382.634	2623.06
382.86	2686.06
383.085	2661.06
383.31	2646.06
383.535	2688.06
383.761	2650.06
383.986	2656.06
384.211	2736.06
384.436	2694.06
384.662	2707.06
384.887	2730.06
385.112	2692.06
385.337	2686.06
385.562	2714.06
385.787	2729.06
386.013	2751.06
386.238	2723.06
386.463	2730.06
386.688	2732.06
386.913	2753.06
387.138	2742.06
387.363	2729.06
387.588	2690.06
387.813	2709.06
388.038	2702.06
388.263	2734.06
388.488	2759.06
388.713	2720.06
388.938	2727.06
389.163	2680.06
389.387	2732.06
389.612	2693.06
389.837	2739.06
390.062	2722.06
390.287	2729.06
390.512	2769.06
390.736	2800.06
390.961	2859.06
391.186	2818.06
391.411	2857.06
391.636	2873.06
391.86	2852.06
392.085	2872.06
392.31	2890.06
392.534	2891.06
392.759	2815.06
392.984	2832.06
393.208	2799.06
393.433	2806.06
393.658	2788.06
393.882	2738.06
394.107	2756.06
394.331	2775.06
394.556	2788.06
394.78	2774.06
395.005	2787.06
395.229	2807.06
395.454	2823.06
395.678	2820.06
395.903	2793.06
396.127	2856.06
396.352	2848.06
396.576	2796.06
396.801	2873.06
397.025	2896.06
397.249	2907.06
397.474	2899.06
397.698	2892.06
397.922	2904.06
398.147	2885.06
398.371	2913.06
398.595	3011.06
398.82	3045.06
399.044	3146.06
399.268	3250.06
399.492	3449.06
399.717	3563.06
399.941	3598.06
400.165	3426.06
400.389	3363.06
400.613	3173.06
400.837	3121.06
401.062	3095.06
401.286	3031.06
401.51	3009.06
401.734	3024.06
401.958	2985.06
402.182	2962.06
402.406	3023.06
402.63	3041.06
402.854	3075.06
403.078	3075.06
403.302	3050.06
403.526	3094.06
403.75	3098.06
403.974	3139.06
404.198	3075.06
404.422	3144.06
404.645	3118.06
404.869	3132.06
405.093	3107.06
405.317	3110.06
405.541	3153.06
405.765	3165.06
405.988	3200.06
406.212	3206.06
406.436	3224.06
406.66	3269.06
406.883	3217.06
407.107	3338.06
407.331	3341.06
407.555	3497.06
407.778	3390.06
408.002	3370.06
408.226	3443.06
408.449	3307.06
408.673	3303.06
408.896	3235.06
409.12	3169.06
409.344	3194.06
409.567	3161.06
409.791	3144.06
410.014	3116.06
410.238	3102.06
410.461	3083.06
410.685	3059.06
410.908	3050.06
411.132	3076.06
411.355	2994.06
411.578	2976.06
411.802	2993.06
412.025	3045.06
412.249	3042.06
412.472	3044.06
412.695	2939.06
412.919	2931.06
413.142	2942.06
413.365	2932.06
413.589	2920.06
413.812	2960.06
414.035	2923.06
414.258	2922.06
414.482	2896.06
414.705	2969.06
414.928	2930.06
415.151	2925.06
415.374	2968.06
415.597	2907.06
415.821	2849.06
416.044	2840.06
416.267	2814.06
416.49	2841.06
416.713	2846.06
416.936	2803.06
417.159	2810.06
417.382	2743.06
417.605	2764.06
417.828	2762.06
418.051	2864.06
418.274	2841.06
418.497	2847.06
418.72	2971.06
418.943	2886.06
419.166	2970.06
419.389	3143.06
419.611	3139.06
419.834	3008.06
420.057	2918.06
420.28	2867.06
420.503	2882.06
420.726	2860.06
420.948	2838.06
421.171	2828.06
421.394	2857.06
421.617	2817.06
421.839	2850.06
422.062	2860.06
422.285	2879.06
422.507	2907.06
422.73	2905.06
422.953	2955.06
423.175	2950.06
423.398	2900.06
423.621	2848.06
423.843	2905.06
424.066	2864.06
424.288	2826.06
424.511	2835.06
424.733	2864.06
424.956	2829.06
425.178	2808.06
425.401	2812.06
425.623	2861.06
425.846	2742.06
426.068	2736.06
426.291	2708.06
426.513	2720.06
426.735	2732.06
426.958	2697.06
427.18	2658.06
427.402	2694.06
427.625	2706.06
427.847	2651.06
428.069	2566.06
428.292	2722.06
428.514	2646.06
428.736	2627.06
428.958	2641.06
429.181	2580.06
429.403	2594.06
429.625	2616.06
429.847	2594.06
430.069	2696.06
430.292	2752.06
430.514	2817.06
430.736	2868.06
430.958	2681.06
431.18	2556.06
431.402	2627.06
431.624	2608.06
431.846	2598.06
432.068	2588.06
432.29	2612.06
432.512	2549.06
432.734	2585.06
432.956	2573.06
433.178	2679.06
433.4	2640.06
433.622	2598.06
433.844	2651.06
434.066	2640.06
434.287	2645.06
434.509	2655.06
434.731	2637.06
434.953	2679.06
435.175	2722.06
435.397	2722.06
435.618	2666.06
435.84	2622.06
436.062	2571.06
436.284	2596.06
436.505	2600.06
436.727	2627.06
436.949	2600.06
437.17	2551.06
437.392	2550.06
437.614	2510.06
437.835	2487.06
438.057	2513.06
438.278	2517.06
438.5	2546.06
438.721	2613.06
438.943	2713.06
439.165	2746.06
439.386	2696.06
439.608	2766.06
439.829	2735.06
440.05	2854.06
440.272	2842.06
440.493	2741.06
440.715	2695.06
440.936	2723.06
441.158	2740.06
441.379	2722.06
441.6	2854.06
441.822	2953.06
442.043	3108.06
442.264	3173.06
442.486	2930.06
442.707	2849.06
442.928	2745.06
443.149	2774.06
443.371	2755.06
443.592	2801.06
443.813	2813.06
444.034	2777.06
444.255	2859.06
444.476	2910.06
444.698	2935.06
444.919	3011.06
445.14	3033.06
445.361	2967.06
445.582	2809.06
445.803	2778.06
446.024	2699.06
446.245	2749.06
446.466	2740.06
446.687	2745.06
446.908	2748.06
447.129	2637.06
447.35	2607.06
447.571	2611.06
447.792	2576.06
448.013	2565.06
448.234	2567.06
448.455	2540.06
448.675	2609.06
448.896	2668.06
449.117	2758.06
449.338	2996.06
449.559	3161.06
449.779	2860.06
450	2586.06
450.221	2523.06
450.442	2555.06
450.662	2546.06
450.883	2488.06
451.104	2511.06
451.324	2522.06
451.545	2494.06
451.766	2530.06
451.986	2606.06
452.207	2783.06
452.428	3646.06
452.648	5662.06
452.869	4719.06
453.089	3198.06
453.31	2988.06
453.53	2985.06
453.751	3100.06
453.971	3177.06
454.192	3122.06
454.412	2755.06
454.633	2565.06
454.853	2504.06
455.073	2438.06
455.294	2431.06
455.514	2427.06
455.734	2414.06
455.955	2350.06
456.175	2370.06
456.395	2416.06
456.616	2415.06
456.836	2443.06
457.056	2392.06
457.276	2428.06
457.497	2616.06
457.717	2624.06
457.937	2539.06
458.157	2510.06
458.377	2509.06
458.598	2560.06
458.818	2538.06
459.038	2528.06
459.258	2543.06
459.478	2584.06
459.698	2632.06
459.918	2693.06
460.138	2731.06
460.358	2779.06
460.578	2763.06
460.798	2834.06
461.018	2832.06
461.238	2807.06
461.458	2874.06
461.678	2834.06
461.898	2956.06
462.118	2971.06
462.338	3076.06
462.558	2999.06
462.777	3104.06
462.997	3241.06
463.217	3358.06
463.437	3498.06
463.657	3535.06
463.876	3531.06
464.096	3384.06
464.316	3188.06
464.536	3111.06
464.755	3047.06
464.975	2972.06
465.195	2904.06
465.414	2846.06
465.634	2714.06
465.854	2690.06
466.073	2722.06
466.293	2622.06
466.512	2620.06
466.732	2675.06
466.951	2814.06
467.171	2965.06
467.391	2923.06
467.61	2721.06
467.829	2614.06
468.049	2597.06
468.268	2543.06
468.488	2562.06
468.707	2560.06
468.927	2588.06
469.146	2545.06
469.365	2640.06
469.585	2645.06
469.804	2721.06
470.023	2718.06
470.243	2733.06
470.462	2851.06
470.681	3012.06
470.901	3323.06
471.12	3815.06
471.339	3782.06
471.558	3212.06
471.777	2905.06
471.997	2744.06
472.216	2710.06
472.435	2657.06
472.654	2594.06
472.873	2577.06
473.092	2587.06
473.311	2586.06
473.53	2633.06
473.749	2666.06
473.968	2794.06
474.187	2625.06
474.406	2544.06
474.625	2534.06
474.844	2590.06
475.063	2603.06
475.282	2582.06
475.501	2641.06
475.72	2624.06
475.939	2670.06
476.158	2709.06
476.377	2774.06
476.596	2711.06
476.814	2724.06
477.033	2692.06
477.252	2756.06
477.471	2753.06
477.69	2841.06
477.908	2858.06
478.127	2931.06
478.346	2984.06
478.564	3016.06
478.783	2968.06
479.002	3051.06
479.22	3025.06
479.439	3114.06
479.658	3059.06
479.876	3152.06
480.095	3127.06
480.313	3168.06
480.532	3177.06
480.751	3209.06
480.969	3157.06
481.188	3084.06
481.406	3136.06
481.624	3114.06
481.843	3165.06
482.061	3131.06
482.28	3138.06
482.498	3144.06
482.717	3102.06
482.935	3169.06
483.153	3207.06
483.372	3273.06
483.59	3304.06
483.808	3356.06
484.027	3440.06
484.245	3599.06
484.463	4088.06
484.681	4558.06
484.9	4223.06
485.118	3825.06
485.336	3756.06
485.554	3835.06
485.772	4067.06
485.99	4603.06
486.209	4873.06
486.427	4153.06
486.645	3661.06
486.863	3531.06
487.081	3431.06
487.299	3432.06
487.517	3354.06
487.735	3354.06
487.953	3330.06
488.171	3385.06
488.389	3280.06
488.607	3260.06
488.825	3206.06
489.043	3167.06
489.261	3206.06
489.479	3195.06
489.696	3196.06
489.914	3248.06
490.132	3281.06
490.35	3291.06
490.568	3275.06
490.786	3317.06
491.003	3286.06
491.221	3417.06
491.439	3376.06
491.657	3382.06
491.874	3390.06
492.092	3409.06
492.31	3392.06
492.527	3429.06
492.745	3359.06
492.963	3342.06
493.18	3404.06
493.398	3369.06
493.615	3429.06
493.833	3366.06
494.05	3423.06
494.268	3404.06
494.485	3426.06
494.703	3384.06
494.92	3410.06
495.138	3378.06
495.355	3406.06
495.573	3462.06
495.79	3412.06
496.008	3456.06
496.225	3448.06
496.442	3503.06
496.66	3636.06
496.877	3867.06
497.094	3825.06
497.312	3631.06
497.529	3634.06
497.746	3709.06
497.963	3727.06
498.181	3901.06
498.398	3934.06
498.615	4071.06
498.832	4155.06
499.049	4394.06
499.267	4751.06
499.484	5026.06
499.701	4966.06
499.918	5146.06
500.135	5367.06
500.352	5639.06
500.569	5700.06
500.786	5611.06
501.003	5479.06
501.22	5238.06
501.437	4922.06
501.654	4681.06
501.871	4514.06
502.088	4322.06
502.305	4230.06
502.522	4074.06
502.739	3951.06
502.956	3846.06
503.172	3746.06
503.389	3648.06
503.606	3640.06
503.823	3582.06
504.04	3537.06
504.256	3514.06
504.473	3556.06
504.69	3492.06
504.907	3526.06
505.123	3411.06
505.34	3329.06
505.557	3243.06
505.773	3234.06
505.99	3157.06
506.207	3133.06
506.423	3108.06
506.64	3043.06
506.856	2995.06
507.073	2986.06
507.289	2996.06
507.506	3048.06
507.722	2983.06
507.939	2952.06
508.155	2932.06
508.372	2954.06
508.588	2917.06
508.805	2950.06
509.021	2983.06
509.238	2958.06
509.454	3100.06
509.67	3344.06
509.887	3139.06
510.103	3002.06
510.319	2956.06
510.536	2949.06
510.752	2919.06
510.968	2899.06
511.184	2772.06
511.401	2828.06
511.617	2833.06
511.833	2800.06
512.049	2798.06
512.265	2849.06
512.481	2862.06
512.698	2766.06
512.914	2730.06
513.13	2756.06
513.346	2736.06
513.562	2821.06
513.778	2888.06
513.994	2880.06
514.21	2947.06
514.426	3177.06
514.642	3289.06
514.858	3011.06
515.074	2909.06
515.29	2843.06
515.506	2868.06
515.721	2933.06
515.937	2939.06
516.153	2888.06
516.369	2900.06
516.585	2944.06
516.801	3027.06
517.016	3072.06
517.232	3136.06
517.448	3211.06
517.664	3206.06
517.879	3184.06
518.095	3120.06
518.311	3175.06
518.527	3161.06
518.742	3098.06
518.958	3166.06
519.173	3219.06
519.389	3042.06
519.605	2979.06
519.82	2894.06
520.036	2953.06
520.251	2836.06
520.467	2856.06
520.682	2822.06
520.898	2767.06
521.113	2782.06
521.329	2752.06
521.544	2758.06
521.76	2790.06
521.975	2755.06
522.19	2737.06
522.406	2699.06
522.621	2713.06
522.836	2720.06
523.052	2663.06
523.267	2667.06
523.482	2720.06
523.698	2665.06
523.913	2664.06
524.128	2705.06
524.343	2706.06
524.559	2678.06
524.774	2733.06
524.989	2706.06
525.204	2659.06
525.419	2650.06
525.634	2666.06
525.849	2672.06
526.064	2690.06
526.28	2626.06
526.495	2703.06
526.71	2700.06
526.925	2672.06
527.14	2719.06
527.355	2726.06
527.57	2703.06
527.785	2728.06
527.999	2771.06
528.214	2748.06
528.429	2816.06
528.644	2801.06
528.859	2835.06
529.074	2841.06
529.289	2876.06
529.503	2883.06
529.718	2910.06
529.933	2904.06
530.148	2863.06
530.363	2867.06
530.577	2873.06
530.792	2855.06
531.007	2945.06
531.221	2943.06
531.436	2955.06
531.651	2983.06
531.865	2984.06
532.08	3098.06
532.295	3204.06
532.509	3378.06
532.724	3414.06
532.938	3465.06
533.153	3598.06
533.367	3854.06
533.582	4112.06
533.796	4002.06
534.011	3742.06
534.225	3715.06
534.44	3526.06
534.654	3457.06
534.868	3354.06
535.083	3304.06
535.297	3266.06
535.511	3158.06
535.726	3103.06
535.94	3090.06
536.154	3027.06
536.369	2984.06
536.583	2961.06
536.797	2937.06
537.011	2855.06
537.225	2873.06
537.44	2815.06
537.654	2834.06
537.868	2778.06
538.082	2782.06
538.296	2717.06
538.51	2737.06
538.724	2716.06
538.938	2702.06
539.153	2706.06
539.367	2685.06
539.581	2667.06
539.795	2639.06
540.009	2535.06
540.222	2626.06
540.436	2633.06
540.65	2592.06
540.864	2671.06
541.078	2691.06
541.292	2900.06
541.506	3353.06
541.72	3526.06
541.934	3075.06
542.147	2899.06
542.361	2769.06
542.575	2652.06
542.789	2603.06
543.002	2558.06
543.216	2499.06
543.43	2515.06
543.644	2506.06
543.857	2497.06
544.071	2521.06
544.285	2517.06
544.498	2532.06
544.712	2488.06
544.925	2514.06
545.139	2527.06
545.352	2519.06
545.566	2551.06
545.779	2509.06
545.993	2535.06
546.206	2520.06
546.42	2478.06
546.633	2563.06
546.847	2550.06
547.06	2569.06
547.274	2525.06
547.487	2517.06
547.7	2522.06
547.914	2564.06
548.127	2523.06
548.34	2505.06
548.554	2579.06
548.767	2561.06
548.98	2571.06
549.193	2596.06
549.407	2547.06
549.62	2618.06
549.833	2555.06
550.046	2579.06
550.259	2524.06
550.473	2536.06
550.686	2575.06
550.899	2550.06
551.112	2595.06
551.325	2562.06
551.538	2559.06
551.751	2533.06
551.964	2571.06
552.177	2618.06
552.39	2654.06
552.603	2698.06
552.816	2700.06
553.029	2754.06
553.242	2767.06
553.455	2793.06
553.667	2848.06
553.88	2807.06
554.093	2894.06
554.306	2867.06
554.519	2899.06
554.732	2992.06
554.944	3047.06
555.157	3090.06
555.37	3192.06
555.583	3357.06
555.795	3544.06
556.008	3848.06
556.221	4270.06
556.433	4623.06
556.646	4598.06
556.859	4422.06
557.071	4229.06
557.284	4084.06
557.496	3901.06
557.709	3859.06
557.921	3806.06
558.134	3786.06
558.346	3902.06
558.559	4060.06
558.771	4204.06
558.984	4662.06
559.196	5062.06
559.409	4811.06
559.621	4356.06
559.833	4176.06
560.046	3824.06
560.258	3645.06
560.47	3467.06
560.683	3351.06
560.895	3171.06
561.107	3065.06
561.32	2944.06
561.532	2878.06
561.744	2771.06
561.956	2831.06
562.168	2761.06
562.381	2646.06
562.593	2672.06
562.805	2679.06
563.017	2714.06
563.229	2805.06
563.441	3248.06
563.653	2730.06
563.865	2526.06
564.077	2465.06
564.289	2390.06
564.501	2417.06
564.713	2394.06
564.925	2356.06
565.137	2425.06
565.349	2382.06
565.561	2334.06
565.773	2359.06
565.985	2430.06
566.197	2443.06
566.408	2457.06
566.62	2492.06
566.832	2592.06
567.044	2616.06
567.255	2628.06
567.467	2607.06
567.679	2709.06
567.891	2866.06
568.102	3188.06
568.314	3637.06
568.526	3182.06
568.737	2742.06
568.949	2527.06
569.161	2374.06
569.372	2260.06
569.584	2188.06
569.795	2159.06
570.007	2164.06
570.218	2209.06
570.43	2280.06
570.641	2056.06
570.853	1994.06
571.064	1961.06
571.276	1926.06
571.487	1897.06
571.698	1909.06
571.91	1894.06
572.121	1866.06
572.333	1890.06
572.544	1907.06
572.755	1954.06
572.966	2386.06
573.178	2132.06
573.389	1915.06
573.6	1850.06
573.811	1801.06
574.023	1785.06
574.234	1782.06
574.445	1755.06
574.656	1720.06
574.867	1710.06
575.078	1752.06
575.289	1714.06
575.501	1711.06
575.712	1668.06
575.923	1697.06
576.134	1690.06
576.345	1706.06
576.556	1739.06
576.767	1707.06
576.978	1724.06
577.188	1723.06
577.399	1722.06
577.61	1776.06
577.821	1758.06
578.032	1778.06
578.243	1826.06
578.454	1844.06
578.665	1954.06
578.875	1953.06
579.086	2011.06
579.297	2148.06
579.508	2306.06
579.718	2509.06
579.929	2896.06
580.14	3361.06
580.35	3383.06
580.561	3080.06
580.772	2848.06
580.982	2587.06
581.193	2420.06
581.403	2316.06
581.614	2177.06
581.825	2098.06
582.035	1968.06
582.246	1891.06
582.456	1835.06
582.667	1824.06
582.877	1814.06
583.087	1756.06
583.298	1705.06
583.508	1643.06
583.719	1618.06
583.929	1578.06
584.139	1554.06
584.35	1489.06
584.56	1483.06
584.77	1484.06
584.981	1453.06
585.191	1436.06
585.401	1416.06
585.611	1394.06
585.821	1366.06
586.032	1365.06
586.242	1352.06
586.452	1335.06
586.662	1319.06
586.872	1292.06
587.082	1314.06
587.292	1267.06
587.502	1280.06
587.713	1304.06
587.923	1257.06
588.133	1250.06
588.343	1234.06
588.553	1218.06
588.762	1190.06
588.972	1205.06
589.182	1248.06
589.392	1241.06
589.602	1162.06
589.812	1222.06
590.022	1155.06
590.232	1182.06
590.441	1157.06
590.651	1170.06
590.861	1162.06
591.071	1158.06
591.281	1193.06
591.49	1178.06
591.7	1166.06
591.91	1184.06
592.119	1202.06
592.329	1174.06
592.539	1195.06
592.748	1179.06
592.958	1186.06
593.167	1202.06
593.377	1192.06
593.587	1218.06
593.796	1236.06
594.006	1214.06
594.215	1148.06
594.424	1219.06
594.634	1194.06
594.843	1160.06
595.053	1154.06
595.262	1126.06
595.472	1121.06
595.681	1093.06
595.89	1081.06
596.1	1064.06
596.309	1051.06
596.518	1058.06
596.727	1047.06
596.937	1044.06
597.146	1048.06
597.355	1048.06
597.564	1020.06
597.774	991.06
597.983	973.06
598.192	980.06
598.401	972.06
598.61	960.06
598.819	954.06
599.028	972.06
599.237	944.06
599.446	942.06
599.655	955.06
599.864	965.06
600.073	932.06
600.282	946.06
600.491	946.06
600.7	952.06
600.909	938.06
601.118	952.06
601.327	952.06
601.536	937.06
601.745	974.06
601.953	1067.06
602.162	1227.06
602.371	1077.06
602.58	1006.06
602.789	967.06
602.997	960.06
603.206	943.06
603.415	909.06
603.623	901.06
603.832	911.06
604.041	916.06
604.249	889.06
604.458	906.06
604.666	881.06
604.875	876.06
605.084	906.06
605.292	910.06
605.501	902.06
605.709	876.06
605.918	898.06
606.126	914.06
606.334	900.06
606.543	930.06
606.751	1018.06
606.96	1136.06
607.168	1264.06
607.376	1088.06
607.585	978.06
607.793	959.06
608.001	919.06
608.21	900.06
608.418	902.06
608.626	871.06
608.834	878.06
609.043	856.06
609.251	857.06
609.459	859.06
609.667	839.06
609.875	840.06
610.083	844.06
610.291	839.06
610.499	826.06
610.707	833.06
610.916	817.06
611.124	812.06
611.332	827.06
611.54	839.06
611.748	838.06
611.955	801.06
612.163	798.06
612.371	790.06
612.579	803.06
612.787	830.06
612.995	784.06
613.203	796.06
613.411	788.06
613.618	815.06
613.826	790.06
614.034	792.06
614.242	759.06
614.449	778.06
614.657	786.06
614.865	788.06
615.072	817.06
615.28	809.06
615.488	797.06
615.695	763.06
615.903	806.06
616.111	772.06
616.318	792.06
616.526	798.06
616.733	805.06
616.941	771.06
617.148	759.06
617.356	762.06
617.563	769.06
617.771	772.06
617.978	757.06
618.185	732.06
618.393	735.06
618.6	746.06
618.807	753.06
619.015	734.06
619.222	734.06
619.429	725.06
619.637	739.06
619.844	732.06
620.051	745.06
620.258	729.06
620.466	720.06
620.673	676.06
620.88	685.06
621.087	672.06
621.294	735.06
621.501	680.06
621.708	664.06
621.915	707.06
622.122	709.06
622.329	688.06
622.536	694.06
622.743	678.06
622.95	673.06
623.157	675.06
623.364	709.06
623.571	706.06
623.778	674.06
623.985	687.06
624.192	674.06
624.399	683.06
624.606	660.06
624.812	658.06
625.019	653.06
625.226	652.06
625.433	655.06
625.639	638.06
625.846	666.06
626.053	635.06
626.259	634.06
626.466	647.06
626.673	627.06
626.879	599.06
627.086	604.06
627.293	631.06
627.499	627.06
627.706	632.06
627.912	636.06
628.119	630.06
628.325	624.06
628.532	624.06
628.738	644.06
628.945	626.06
629.151	600.06
629.357	633.06
629.564	603.06
629.77	604.06
629.976	609.06
630.183	594.06
630.389	585.06
630.595	598.06
630.802	601.06
631.008	592.06
631.214	595.06
631.42	596.06
631.627	588.06
631.833	578.06
632.039	604.06
632.245	594.06
632.451	572.06
632.657	580.06
632.863	574.06
633.069	595.06
633.275	597.06
633.481	538.06
633.688	595.06
633.893	597.06
634.099	588.06
634.305	588.06
634.511	576.06
634.717	587.06
634.923	611.06
635.129	699.06
635.335	756.06
635.541	686.06
635.747	650.06
635.952	611.06
636.158	614.06
636.364	599.06
636.57	587.06
636.775	585.06
636.981	576.06
637.187	584.06
637.392	591.06
637.598	579.06
637.804	576.06
638.009	575.06
638.215	595.06
638.421	584.06
638.626	608.06
638.832	582.06
639.037	613.06
639.243	582.06
639.448	601.06
639.654	606.06
639.859	593.06
640.065	616.06
640.27	624.06
640.475	618.06
640.681	638.06
640.886	613.06
641.091	610.06
641.297	649.06
641.502	660.06
641.707	649.06
641.913	652.06
642.118	663.06
642.323	681.06
642.528	709.06
642.733	699.06
642.939	703.06
643.144	726.06
643.349	765.06
643.554	806.06
643.759	831.06
643.964	877.06
644.169	926.06
644.374	1013.06
644.579	1075.06
644.784	1183.06
644.989	1360.06
645.194	1600.06
645.399	1990.06
645.604	2084.06
645.809	1573.06
646.014	1206.06
646.219	1000.06
646.423	882.06
646.628	806.06
646.833	750.06
647.038	698.06
647.243	660.06
647.447	625.06
647.652	645.06
647.857	620.06
648.062	577.06
648.266	574.06
648.471	554.06
648.676	548.06
648.88	541.06
649.085	548.06
649.289	524.06
649.494	515.06
649.698	523.06
649.903	500.06
650.107	500.06
650.312	467.06
650.516	475.06
650.721	474.06
650.925	473.06
651.13	436.06
651.334	432.06
651.539	419.06
651.743	428.06
651.947	419.06
652.152	449.06
652.356	418.06
652.56	448.06
652.764	539.06
652.969	434.06
653.173	442.06
653.377	401.06
653.581	376.06
653.785	404.06
653.99	389.06
654.194	376.06
654.398	374.06
654.602	356.06
654.806	355.06
655.01	350.06
655.214	341.06
655.418	336.06
655.622	352.06
655.826	349.06
656.03	376.06
656.234	374.06
656.438	372.06
656.642	375.06
656.846	371.06
657.049	349.06
657.253	338.06
657.457	323.06
657.661	304.06
657.865	288.06
658.068	268.06
658.272	223.06
658.476	233.06
658.68	241.06
658.883	229.06
659.087	228.06
659.291	211.06
659.494	194.06
659.698	186.06
659.901	159.06
660.105	172.06
660.309	165.06
660.512	155.06
660.716	136.06
660.919	144.06
661.123	153.06
661.326	143.06
661.53	143.06
661.733	126.06
661.936	129.06
662.14	118.06
662.343	114.06
662.546	123.06
662.75	102.06
662.953	102.06
663.156	121.06
663.36	110.06
663.563	113.06
663.766	91.06
663.969	96.06
664.173	101.06
664.376	80.06
664.579	96.06
664.782	82.06
664.985	88.06
665.188	86.06
665.391	102.06
665.594	83.06
665.797	78.06
666	88.06
666.203	86.06
666.406	87.06
666.609	88.06
666.812	83.06
667.015	87.06
667.218	89.06
667.421	87.06
667.624	82.06
667.827	82.06
668.03	95.06
668.232	77.06
668.435	82.06
668.638	96.06
668.841	86.06
669.043	76.06
669.246	80.06
669.449	76.06
669.651	87.06
669.854	84.06
670.057	73.06
670.259	80.06
670.462	87.06
670.665	76.06
670.867	85.06
671.07	80.06
671.272	72.06
671.475	85.06
671.677	78.06
671.88	79.06
672.082	93.06
672.284	88.06
672.487	74.06
672.689	84.06
672.892	82.06
