Data from SnStandardFlinnAPT0064_LampEnergy5.5_LIBS07252019.E.O._I.C._HRD10591_15-14-40-490.txt Node
Date: Thu Jul 25 15:14:40 EDT 2019
User: cochatt
Spectrometer: HR+D1059
Trigger mode: 1
Integration Time (sec): 1.000000E-1
Scans to average: 1
Electric dark correction enabled: true
Nonlinearity correction enabled: false
Boxcar width: 0
XAxis mode: Wavelengths
Number of Pixels in Spectrum: 2048
>>>>>Begin Spectral Data<<<<<
223.165	-17.38
223.4	-17.38
223.635	-17.38
223.869	-19.38
224.104	-17.38
224.338	-20.38
224.573	-1.38
224.808	-15.38
225.042	-1.38
225.277	-1.38
225.511	-7.38
225.746	8.62
225.98	1.62
226.215	18.62
226.449	10.62
226.683	12.62
226.918	17.62
227.152	31.62
227.387	33.62
227.621	25.62
227.856	48.62
228.09	50.62
228.324	61.62
228.559	48.62
228.793	80.62
229.027	137.62
229.262	128.62
229.496	144.62
229.73	151.62
229.964	146.62
230.199	150.62
230.433	135.62
230.667	165.62
230.901	158.62
231.136	163.62
231.37	166.62
231.604	180.62
231.838	193.62
232.072	207.62
232.306	205.62
232.541	187.62
232.775	186.62
233.009	189.62
233.243	184.62
233.477	198.62
233.711	217.62
233.945	227.62
234.179	216.62
234.413	196.62
234.647	194.62
234.881	200.62
235.115	231.62
235.349	242.62
235.583	260.62
235.817	353.62
236.051	352.62
236.285	246.62
236.519	220.62
236.753	208.62
236.987	214.62
237.221	231.62
237.455	201.62
237.689	191.62
237.922	206.62
238.156	211.62
238.39	206.62
238.624	216.62
238.858	216.62
239.091	199.62
239.325	214.62
239.559	228.62
239.793	207.62
240.027	234.62
240.26	226.62
240.494	223.62
240.728	219.62
240.961	240.62
241.195	251.62
241.429	267.62
241.662	283.62
241.896	299.62
242.13	326.62
242.363	419.62
242.597	508.62
242.83	514.62
243.064	510.62
243.298	601.62
243.531	510.62
243.765	357.62
243.998	310.62
244.232	286.62
244.465	276.62
244.699	279.62
244.932	280.62
245.166	272.62
245.399	271.62
245.633	268.62
245.866	283.62
246.099	295.62
246.333	271.62
246.566	273.62
246.8	250.62
247.033	265.62
247.266	258.62
247.5	276.62
247.733	274.62
247.966	300.62
248.2	316.62
248.433	341.62
248.666	353.62
248.899	339.62
249.133	345.62
249.366	332.62
249.599	342.62
249.832	372.62
250.066	380.62
250.299	331.62
250.532	310.62
250.765	306.62
250.998	292.62
251.231	292.62
251.465	300.62
251.698	315.62
251.931	312.62
252.164	314.62
252.397	310.62
252.63	316.62
252.863	310.62
253.096	331.62
253.329	330.62
253.562	321.62
253.795	307.62
254.028	328.62
254.261	315.62
254.494	361.62
254.727	405.62
254.96	450.62
255.193	422.62
255.426	380.62
255.659	361.62
255.892	366.62
256.124	331.62
256.357	355.62
256.59	322.62
256.823	372.62
257.056	425.62
257.289	452.62
257.521	476.62
257.754	447.62
257.987	386.62
258.22	374.62
258.452	370.62
258.685	396.62
258.918	382.62
259.151	386.62
259.383	423.62
259.616	430.62
259.849	471.62
260.081	407.62
260.314	387.62
260.547	395.62
260.779	380.62
261.012	404.62
261.244	392.62
261.477	420.62
261.71	411.62
261.942	435.62
262.175	416.62
262.407	422.62
262.64	443.62
262.872	452.62
263.105	467.62
263.337	499.62
263.57	521.62
263.802	547.62
264.035	524.62
264.267	548.62
264.499	556.62
264.732	570.62
264.964	585.62
265.197	596.62
265.429	590.62
265.661	612.62
265.894	660.62
266.126	679.62
266.358	706.62
266.591	717.62
266.823	638.62
267.055	583.62
267.287	570.62
267.52	543.62
267.752	544.62
267.984	519.62
268.216	528.62
268.448	507.62
268.681	522.62
268.913	506.62
269.145	493.62
269.377	498.62
269.609	481.62
269.841	516.62
270.073	535.62
270.306	614.62
270.538	743.62
270.77	994.62
271.002	1189.62
271.234	922.62
271.466	670.62
271.698	568.62
271.93	527.62
272.162	527.62
272.394	520.62
272.626	518.62
272.858	503.62
273.09	494.62
273.322	494.62
273.553	471.62
273.785	494.62
274.017	504.62
274.249	486.62
274.481	496.62
274.713	481.62
274.945	455.62
275.176	491.62
275.408	506.62
275.64	480.62
275.872	500.62
276.104	488.62
276.335	506.62
276.567	526.62
276.799	506.62
277.031	519.62
277.262	511.62
277.494	536.62
277.726	576.62
277.957	606.62
278.189	666.62
278.421	641.62
278.652	601.62
278.884	599.62
279.115	543.62
279.347	561.62
279.579	528.62
279.81	532.62
280.042	526.62
280.273	538.62
280.505	569.62
280.736	547.62
280.968	562.62
281.199	624.62
281.431	686.62
281.662	715.62
281.894	617.62
282.125	617.62
282.356	612.62
282.588	616.62
282.819	648.62
283.051	656.62
283.282	714.62
283.513	854.62
283.745	1148.62
283.976	1769.62
284.207	2398.62
284.439	2204.62
284.67	1443.62
284.901	1184.62
285.132	1101.62
285.364	1079.62
285.595	905.62
285.826	835.62
286.057	958.62
286.288	1219.62
286.52	1546.62
286.751	1492.62
286.982	1003.62
287.213	825.62
287.444	742.62
287.675	690.62
287.906	678.62
288.138	638.62
288.369	658.62
288.6	639.62
288.831	632.62
289.062	655.62
289.293	650.62
289.524	658.62
289.755	671.62
289.986	660.62
290.217	663.62
290.448	642.62
290.679	660.62
290.91	660.62
291.141	665.62
291.371	702.62
291.602	704.62
291.833	691.62
292.064	655.62
292.295	648.62
292.526	652.62
292.757	619.62
292.987	616.62
293.218	628.62
293.449	622.62
293.68	625.62
293.91	630.62
294.141	611.62
294.372	605.62
294.603	618.62
294.833	622.62
295.064	595.62
295.295	605.62
295.525	625.62
295.756	589.62
295.987	604.62
296.217	613.62
296.448	604.62
296.679	607.62
296.909	633.62
297.14	628.62
297.37	611.62
297.601	663.62
297.831	614.62
298.062	638.62
298.292	632.62
298.523	626.62
298.753	650.62
298.984	643.62
299.214	655.62
299.445	664.62
299.675	682.62
299.905	683.62
300.136	688.62
300.366	782.62
300.597	942.62
300.827	1219.62
301.057	1540.62
301.288	1570.62
301.518	1106.62
301.748	875.62
301.979	851.62
302.209	836.62
302.439	807.62
302.669	833.62
302.9	945.62
303.13	1288.62
303.36	1754.62
303.59	2316.62
303.82	2066.62
304.051	1311.62
304.281	1034.62
304.511	899.62
304.741	826.62
304.971	791.62
305.201	761.62
305.431	755.62
305.661	735.62
305.891	732.62
306.121	709.62
306.352	713.62
306.582	691.62
306.812	690.62
307.042	693.62
307.272	728.62
307.502	727.62
307.731	701.62
307.961	689.62
308.191	720.62
308.421	701.62
308.651	691.62
308.881	692.62
309.111	693.62
309.341	730.62
309.571	710.62
309.8	720.62
310.03	738.62
310.26	716.62
310.49	721.62
310.72	740.62
310.949	736.62
311.179	733.62
311.409	732.62
311.639	730.62
311.868	750.62
312.098	738.62
312.328	759.62
312.557	751.62
312.787	763.62
313.017	762.62
313.246	752.62
313.476	759.62
313.706	785.62
313.935	784.62
314.165	830.62
314.394	865.62
314.624	829.62
314.853	803.62
315.083	821.62
315.312	830.62
315.542	831.62
315.771	836.62
316.001	826.62
316.23	852.62
316.46	878.62
316.689	966.62
316.919	1090.62
317.148	1465.62
317.377	2160.62
317.607	3049.62
317.836	3154.62
318.065	1982.62
318.295	1387.62
318.524	1138.62
318.753	1018.62
318.983	972.62
319.212	946.62
319.441	878.62
319.67	904.62
319.9	894.62
320.129	884.62
320.358	883.62
320.587	854.62
320.816	874.62
321.046	867.62
321.275	857.62
321.504	907.62
321.733	920.62
321.962	904.62
322.191	949.62
322.42	924.62
322.649	911.62
322.878	938.62
323.108	937.62
323.337	976.62
323.566	970.62
323.795	950.62
324.024	1007.62
324.253	990.62
324.482	1032.62
324.71	1066.62
324.939	1111.62
325.168	1157.62
325.397	1184.62
325.626	1356.62
325.855	1748.62
326.084	2613.62
326.313	3766.62
326.542	4005.62
326.77	2760.62
326.999	1906.62
327.228	1642.62
327.457	1589.62
327.686	1576.62
327.914	1699.62
328.143	1927.62
328.372	2177.62
328.6	2309.62
328.829	2223.62
329.058	1946.62
329.287	1782.62
329.515	1636.62
329.744	1566.62
329.972	1483.62
330.201	1392.62
330.43	1369.62
330.658	1316.62
330.887	1332.62
331.115	1301.62
331.344	1294.62
331.572	1275.62
331.801	1265.62
332.03	1297.62
332.258	1306.62
332.486	1367.62
332.715	1484.62
332.943	1688.62
333.172	1995.62
333.4	2004.62
333.629	1670.62
333.857	1577.62
334.085	1580.62
334.314	1669.62
334.542	1780.62
334.771	2046.62
334.999	2342.62
335.227	2765.62
335.455	3078.62
335.684	2953.62
335.912	2608.62
336.14	2250.62
336.369	2054.62
336.597	1833.62
336.825	1723.62
337.053	1650.62
337.281	1530.62
337.51	1478.62
337.738	1399.62
337.966	1398.62
338.194	1320.62
338.422	1322.62
338.65	1290.62
338.878	1267.62
339.106	1193.62
339.334	1219.62
339.562	1190.62
339.79	1168.62
340.018	1159.62
340.246	1149.62
340.474	1122.62
340.702	1147.62
340.93	1146.62
341.158	1131.62
341.386	1126.62
341.614	1135.62
341.842	1088.62
342.07	1103.62
342.298	1059.62
342.526	1050.62
342.754	1046.62
342.981	1056.62
343.209	1045.62
343.437	1057.62
343.665	1091.62
343.893	1084.62
344.12	1086.62
344.348	1086.62
344.576	1047.62
344.804	1036.62
345.031	1016.62
345.259	1033.62
345.487	999.62
345.714	962.62
345.942	970.62
346.17	979.62
346.397	993.62
346.625	998.62
346.853	971.62
347.08	958.62
347.308	986.62
347.535	977.62
347.763	978.62
347.99	971.62
348.218	957.62
348.445	950.62
348.673	931.62
348.9	931.62
349.128	996.62
349.355	913.62
349.583	950.62
349.81	942.62
350.037	927.62
350.265	934.62
350.492	931.62
350.72	938.62
350.947	961.62
351.174	952.62
351.402	942.62
351.629	947.62
351.856	912.62
352.083	922.62
352.311	902.62
352.538	922.62
352.765	924.62
352.992	913.62
353.22	915.62
353.447	916.62
353.674	891.62
353.901	930.62
354.128	916.62
354.355	933.62
354.583	925.62
354.81	936.62
355.037	954.62
355.264	918.62
355.491	926.62
355.718	935.62
355.945	926.62
356.172	958.62
356.399	932.62
356.626	950.62
356.853	960.62
357.08	947.62
357.307	980.62
357.534	1001.62
357.761	967.62
357.988	980.62
358.215	950.62
358.441	955.62
358.668	957.62
358.895	975.62
359.122	971.62
359.349	970.62
359.576	976.62
359.802	1031.62
360.029	1014.62
360.256	966.62
360.483	985.62
360.709	982.62
360.936	992.62
361.163	1008.62
361.39	1008.62
361.616	979.62
361.843	989.62
362.07	1006.62
362.296	984.62
362.523	989.62
362.749	974.62
362.976	958.62
363.203	984.62
363.429	993.62
363.656	975.62
363.882	985.62
364.109	982.62
364.335	955.62
364.562	987.62
364.788	983.62
365.015	1011.62
365.241	994.62
365.468	1038.62
365.694	1065.62
365.92	1044.62
366.147	996.62
366.373	1001.62
366.599	1038.62
366.826	1032.62
367.052	1003.62
367.278	1029.62
367.505	1015.62
367.731	997.62
367.957	1046.62
368.184	1031.62
368.41	1040.62
368.636	1023.62
368.862	1030.62
369.089	1026.62
369.315	1019.62
369.541	1048.62
369.767	1043.62
369.993	1009.62
370.219	1044.62
370.445	1054.62
370.672	1035.62
370.898	1040.62
371.124	1050.62
371.35	1047.62
371.576	1065.62
371.802	1047.62
372.028	1072.62
372.254	1071.62
372.48	1082.62
372.706	1073.62
372.932	1070.62
373.158	1102.62
373.384	1091.62
373.61	1074.62
373.835	1085.62
374.061	1074.62
374.287	1116.62
374.513	1093.62
374.739	1135.62
374.965	1147.62
375.191	1118.62
375.416	1132.62
375.642	1146.62
375.868	1089.62
376.094	1115.62
376.319	1103.62
376.545	1075.62
376.771	1065.62
376.997	1065.62
377.222	1062.62
377.448	1095.62
377.674	1050.62
377.899	1044.62
378.125	1061.62
378.35	1059.62
378.576	1087.62
378.802	1055.62
379.027	1052.62
379.253	1096.62
379.478	1136.62
379.704	1290.62
379.929	1666.62
380.155	2287.62
380.38	2427.62
380.606	1658.62
380.831	1304.62
381.057	1194.62
381.282	1127.62
381.507	1085.62
381.733	1076.62
381.958	1068.62
382.184	1068.62
382.409	1059.62
382.634	1051.62
382.86	1083.62
383.085	1059.62
383.31	1070.62
383.535	1081.62
383.761	1013.62
383.986	1072.62
384.211	1082.62
384.436	1100.62
384.662	1064.62
384.887	1038.62
385.112	1074.62
385.337	1112.62
385.562	1083.62
385.787	1079.62
386.013	1112.62
386.238	1092.62
386.463	1122.62
386.688	1097.62
386.913	1083.62
387.138	1103.62
387.363	1114.62
387.588	1131.62
387.813	1098.62
388.038	1084.62
388.263	1075.62
388.488	1061.62
388.713	1090.62
388.938	1111.62
389.163	1078.62
389.387	1081.62
389.612	1105.62
389.837	1093.62
390.062	1112.62
390.287	1094.62
390.512	1077.62
390.736	1108.62
390.961	1123.62
391.186	1133.62
391.411	1148.62
391.636	1154.62
391.86	1167.62
392.085	1130.62
392.31	1086.62
392.534	1146.62
392.759	1128.62
392.984	1098.62
393.208	1101.62
393.433	1103.62
393.658	1084.62
393.882	1079.62
394.107	1127.62
394.331	1133.62
394.556	1122.62
394.78	1116.62
395.005	1100.62
395.229	1114.62
395.454	1108.62
395.678	1162.62
395.903	1113.62
396.127	1144.62
396.352	1097.62
396.576	1115.62
396.801	1122.62
397.025	1116.62
397.249	1161.62
397.474	1186.62
397.698	1150.62
397.922	1184.62
398.147	1161.62
398.371	1212.62
398.595	1178.62
398.82	1219.62
399.044	1251.62
399.268	1317.62
399.492	1375.62
399.717	1461.62
399.941	1454.62
400.165	1412.62
400.389	1317.62
400.613	1288.62
400.837	1259.62
401.062	1247.62
401.286	1237.62
401.51	1213.62
401.734	1203.62
401.958	1234.62
402.182	1234.62
402.406	1184.62
402.63	1233.62
402.854	1231.62
403.078	1235.62
403.302	1247.62
403.526	1270.62
403.75	1297.62
403.974	1285.62
404.198	1244.62
404.422	1258.62
404.645	1269.62
404.869	1246.62
405.093	1242.62
405.317	1231.62
405.541	1288.62
405.765	1265.62
405.988	1278.62
406.212	1279.62
406.436	1268.62
406.66	1302.62
406.883	1285.62
407.107	1351.62
407.331	1366.62
407.555	1362.62
407.778	1356.62
408.002	1348.62
408.226	1340.62
408.449	1323.62
408.673	1309.62
408.896	1282.62
409.12	1283.62
409.344	1274.62
409.567	1282.62
409.791	1280.62
410.014	1264.62
410.238	1247.62
410.461	1255.62
410.685	1217.62
410.908	1210.62
411.132	1225.62
411.355	1230.62
411.578	1240.62
411.802	1239.62
412.025	1177.62
412.249	1205.62
412.472	1223.62
412.695	1202.62
412.919	1168.62
413.142	1189.62
413.365	1188.62
413.589	1185.62
413.812	1178.62
414.035	1157.62
414.258	1198.62
414.482	1209.62
414.705	1182.62
414.928	1184.62
415.151	1175.62
415.374	1156.62
415.597	1198.62
415.821	1127.62
416.044	1146.62
416.267	1144.62
416.49	1141.62
416.713	1130.62
416.936	1154.62
417.159	1135.62
417.382	1155.62
417.605	1171.62
417.828	1130.62
418.051	1183.62
418.274	1152.62
418.497	1159.62
418.72	1161.62
418.943	1182.62
419.166	1204.62
419.389	1256.62
419.611	1212.62
419.834	1224.62
420.057	1211.62
420.28	1184.62
420.503	1171.62
420.726	1160.62
420.948	1155.62
421.171	1154.62
421.394	1141.62
421.617	1170.62
421.839	1129.62
422.062	1182.62
422.285	1146.62
422.507	1160.62
422.73	1147.62
422.953	1165.62
423.175	1169.62
423.398	1184.62
423.621	1168.62
423.843	1182.62
424.066	1146.62
424.288	1141.62
424.511	1146.62
424.733	1164.62
424.956	1148.62
425.178	1140.62
425.401	1123.62
425.623	1131.62
425.846	1155.62
426.068	1147.62
426.291	1100.62
426.513	1086.62
426.735	1122.62
426.958	1105.62
427.18	1060.62
427.402	1091.62
427.625	1107.62
427.847	1065.62
428.069	1050.62
428.292	1097.62
428.514	1066.62
428.736	1068.62
428.958	1063.62
429.181	1060.62
429.403	1039.62
429.625	1039.62
429.847	1065.62
430.069	1074.62
430.292	1089.62
430.514	1115.62
430.736	1112.62
430.958	1104.62
431.18	1059.62
431.402	1092.62
431.624	1064.62
431.846	1029.62
432.068	990.62
432.29	1048.62
432.512	1031.62
432.734	1060.62
432.956	1082.62
433.178	1099.62
433.4	1077.62
433.622	1046.62
433.844	1075.62
434.066	1045.62
434.287	1032.62
434.509	1080.62
434.731	1087.62
434.953	1084.62
435.175	1104.62
435.397	1146.62
435.618	1099.62
435.84	1094.62
436.062	1032.62
436.284	1084.62
436.505	1053.62
436.727	1048.62
436.949	1068.62
437.17	1064.62
437.392	1051.62
437.614	1019.62
437.835	1013.62
438.057	1043.62
438.278	1038.62
438.5	1055.62
438.721	1032.62
438.943	1075.62
439.165	1041.62
439.386	1082.62
439.608	1092.62
439.829	1094.62
440.05	1122.62
440.272	1113.62
440.493	1121.62
440.715	1140.62
440.936	1077.62
441.158	1103.62
441.379	1100.62
441.6	1166.62
441.822	1170.62
442.043	1246.62
442.264	1248.62
442.486	1158.62
442.707	1136.62
442.928	1150.62
443.149	1145.62
443.371	1094.62
443.592	1123.62
443.813	1106.62
444.034	1127.62
444.255	1144.62
444.476	1194.62
444.698	1207.62
444.919	1232.62
445.14	1287.62
445.361	1182.62
445.582	1183.62
445.803	1168.62
446.024	1136.62
446.245	1142.62
446.466	1145.62
446.687	1114.62
446.908	1123.62
447.129	1078.62
447.35	1072.62
447.571	1090.62
447.792	1063.62
448.013	1064.62
448.234	1055.62
448.455	1074.62
448.675	1051.62
448.896	1084.62
449.117	1080.62
449.338	1190.62
449.559	1188.62
449.779	1092.62
450	1037.62
450.221	1045.62
450.442	1042.62
450.662	1022.62
450.883	1001.62
451.104	1034.62
451.324	1018.62
451.545	1008.62
451.766	1000.62
451.986	1022.62
452.207	1071.62
452.428	1229.62
452.648	1586.62
452.869	1362.62
453.089	1140.62
453.31	1077.62
453.53	1088.62
453.751	1111.62
453.971	1160.62
454.192	1106.62
454.412	1028.62
454.633	987.62
454.853	1001.62
455.073	980.62
455.294	977.62
455.514	990.62
455.734	980.62
455.955	950.62
456.175	953.62
456.395	963.62
456.616	954.62
456.836	1001.62
457.056	955.62
457.276	981.62
457.497	1007.62
457.717	1036.62
457.937	1013.62
458.157	1014.62
458.377	1028.62
458.598	1014.62
458.818	1072.62
459.038	1033.62
459.258	1043.62
459.478	1060.62
459.698	1045.62
459.918	1072.62
460.138	1094.62
460.358	1162.62
460.578	1124.62
460.798	1136.62
461.018	1143.62
461.238	1144.62
461.458	1176.62
461.678	1127.62
461.898	1177.62
462.118	1170.62
462.338	1241.62
462.558	1266.62
462.777	1233.62
462.997	1255.62
463.217	1319.62
463.437	1391.62
463.657	1356.62
463.876	1354.62
464.096	1299.62
464.316	1257.62
464.536	1233.62
464.755	1210.62
464.975	1168.62
465.195	1150.62
465.414	1116.62
465.634	1088.62
465.854	1092.62
466.073	1078.62
466.293	1093.62
466.512	1054.62
466.732	1094.62
466.951	1117.62
467.171	1165.62
467.391	1132.62
467.61	1093.62
467.829	1047.62
468.049	1077.62
468.268	1062.62
468.488	1050.62
468.707	1041.62
468.927	1082.62
469.146	1040.62
469.365	1077.62
469.585	1067.62
469.804	1055.62
470.023	1082.62
470.243	1115.62
470.462	1141.62
470.681	1147.62
470.901	1252.62
471.12	1374.62
471.339	1366.62
471.558	1200.62
471.777	1114.62
471.997	1090.62
472.216	1040.62
472.435	1024.62
472.654	1057.62
472.873	1025.62
473.092	1019.62
473.311	1042.62
473.53	1050.62
473.749	1092.62
473.968	1111.62
474.187	1048.62
474.406	1038.62
474.625	1059.62
474.844	1070.62
475.063	1072.62
475.282	1037.62
475.501	1046.62
475.72	1076.62
475.939	1095.62
476.158	1092.62
476.377	1102.62
476.596	1092.62
476.814	1107.62
477.033	1119.62
477.252	1075.62
477.471	1154.62
477.69	1184.62
477.908	1136.62
478.127	1202.62
478.346	1184.62
478.564	1220.62
478.783	1228.62
479.002	1280.62
479.22	1255.62
479.439	1270.62
479.658	1232.62
479.876	1247.62
480.095	1232.62
480.313	1282.62
480.532	1294.62
480.751	1268.62
480.969	1258.62
481.188	1230.62
481.406	1209.62
481.624	1224.62
481.843	1207.62
482.061	1234.62
482.28	1232.62
482.498	1201.62
482.717	1214.62
482.935	1236.62
483.153	1259.62
483.372	1283.62
483.59	1283.62
483.808	1317.62
484.027	1338.62
484.245	1353.62
484.463	1488.62
484.681	1616.62
484.9	1506.62
485.118	1441.62
485.336	1410.62
485.554	1432.62
485.772	1480.62
485.99	1635.62
486.209	1703.62
486.427	1483.62
486.645	1378.62
486.863	1392.62
487.081	1337.62
487.299	1348.62
487.517	1314.62
487.735	1364.62
487.953	1386.62
488.171	1376.62
488.389	1334.62
488.607	1327.62
488.825	1305.62
489.043	1295.62
489.261	1283.62
489.479	1296.62
489.696	1304.62
489.914	1323.62
490.132	1305.62
490.35	1320.62
490.568	1315.62
490.786	1326.62
491.003	1352.62
491.221	1374.62
491.439	1432.62
491.657	1401.62
491.874	1426.62
492.092	1424.62
492.31	1459.62
492.527	1402.62
492.745	1397.62
492.963	1379.62
493.18	1376.62
493.398	1394.62
493.615	1410.62
493.833	1397.62
494.05	1371.62
494.268	1387.62
494.485	1403.62
494.703	1390.62
494.92	1359.62
495.138	1409.62
495.355	1410.62
495.573	1391.62
495.79	1414.62
496.008	1411.62
496.225	1407.62
496.442	1428.62
496.66	1459.62
496.877	1499.62
497.094	1497.62
497.312	1464.62
497.529	1478.62
497.746	1513.62
497.963	1515.62
498.181	1506.62
498.398	1577.62
498.615	1644.62
498.832	1643.62
499.049	1748.62
499.267	1818.62
499.484	1938.62
499.701	2003.62
499.918	2069.62
500.135	2216.62
500.352	2314.62
500.569	2342.62
500.786	2339.62
501.003	2218.62
501.22	2142.62
501.437	2035.62
501.654	1963.62
501.871	1826.62
502.088	1748.62
502.305	1726.62
502.522	1611.62
502.739	1644.62
502.956	1526.62
503.172	1538.62
503.389	1457.62
503.606	1444.62
503.823	1412.62
504.04	1426.62
504.256	1451.62
504.473	1454.62
504.69	1458.62
504.907	1398.62
505.123	1343.62
505.34	1349.62
505.557	1288.62
505.773	1294.62
505.99	1251.62
506.207	1251.62
506.423	1238.62
506.64	1256.62
506.856	1228.62
507.073	1219.62
507.289	1249.62
507.506	1194.62
507.722	1215.62
507.939	1214.62
508.155	1165.62
508.372	1181.62
508.588	1168.62
508.805	1171.62
509.021	1175.62
509.238	1187.62
509.454	1180.62
509.67	1291.62
509.887	1194.62
510.103	1194.62
510.319	1154.62
510.536	1172.62
510.752	1147.62
510.968	1144.62
511.184	1089.62
511.401	1170.62
511.617	1130.62
511.833	1136.62
512.049	1130.62
512.265	1140.62
512.481	1148.62
512.698	1112.62
512.914	1126.62
513.13	1113.62
513.346	1136.62
513.562	1115.62
513.778	1142.62
513.994	1146.62
514.21	1144.62
514.426	1190.62
514.642	1251.62
514.858	1144.62
515.074	1156.62
515.29	1152.62
515.506	1128.62
515.721	1132.62
515.937	1154.62
516.153	1158.62
516.369	1165.62
516.585	1196.62
516.801	1193.62
517.016	1227.62
517.232	1229.62
517.448	1244.62
517.664	1282.62
517.879	1259.62
518.095	1274.62
518.311	1255.62
518.527	1228.62
518.742	1220.62
518.958	1259.62
519.173	1248.62
519.389	1226.62
519.605	1174.62
519.82	1161.62
520.036	1158.62
520.251	1140.62
520.467	1150.62
520.682	1125.62
520.898	1104.62
521.113	1084.62
521.329	1118.62
521.544	1134.62
521.76	1115.62
521.975	1112.62
522.19	1115.62
522.406	1107.62
522.621	1096.62
522.836	1105.62
523.052	1077.62
523.267	1110.62
523.482	1073.62
523.698	1089.62
523.913	1101.62
524.128	1084.62
524.343	1092.62
524.559	1085.62
524.774	1105.62
524.989	1122.62
525.204	1120.62
525.419	1067.62
525.634	1080.62
525.849	1084.62
526.064	1106.62
526.28	1082.62
526.495	1105.62
526.71	1073.62
526.925	1080.62
527.14	1080.62
527.355	1088.62
527.57	1066.62
527.785	1108.62
527.999	1077.62
528.214	1112.62
528.429	1137.62
528.644	1120.62
528.859	1148.62
529.074	1137.62
529.289	1164.62
529.503	1176.62
529.718	1156.62
529.933	1180.62
530.148	1140.62
530.363	1109.62
530.577	1113.62
530.792	1163.62
531.007	1163.62
531.221	1162.62
531.436	1163.62
531.651	1162.62
531.865	1204.62
532.08	1180.62
532.295	1207.62
532.509	1280.62
532.724	1255.62
532.938	1250.62
533.153	1264.62
533.367	1337.62
533.582	1365.62
533.796	1350.62
534.011	1354.62
534.225	1314.62
534.44	1303.62
534.654	1290.62
534.868	1265.62
535.083	1273.62
535.297	1238.62
535.511	1237.62
535.726	1231.62
535.94	1187.62
536.154	1152.62
536.369	1152.62
536.583	1121.62
536.797	1144.62
537.011	1110.62
537.225	1099.62
537.44	1100.62
537.654	1091.62
537.868	1100.62
538.082	1080.62
538.296	1080.62
538.51	1074.62
538.724	1099.62
538.938	1096.62
539.153	1070.62
539.367	1092.62
539.581	1051.62
539.795	1026.62
540.009	1013.62
540.222	1054.62
540.436	1032.62
540.65	1050.62
540.864	1052.62
541.078	1107.62
541.292	1135.62
541.506	1302.62
541.72	1336.62
541.934	1199.62
542.147	1174.62
542.361	1136.62
542.575	1113.62
542.789	1072.62
543.002	1049.62
543.216	1032.62
543.43	1010.62
543.644	1038.62
543.857	1043.62
544.071	1045.62
544.285	1043.62
544.498	1042.62
544.712	1045.62
544.925	1056.62
545.139	1052.62
545.352	1066.62
545.566	1063.62
545.779	1082.62
545.993	1063.62
546.206	1062.62
546.42	1062.62
546.633	1077.62
546.847	1055.62
547.06	1065.62
547.274	1081.62
547.487	1038.62
547.7	1082.62
547.914	1111.62
548.127	1082.62
548.34	1050.62
548.554	1067.62
548.767	1040.62
548.98	1088.62
549.193	1054.62
549.407	1062.62
549.62	1080.62
549.833	1061.62
550.046	1046.62
550.259	1040.62
550.473	1031.62
550.686	1072.62
550.899	1063.62
551.112	1058.62
551.325	1067.62
551.538	1066.62
551.751	1037.62
551.964	1041.62
552.177	1033.62
552.39	1059.62
552.603	1079.62
552.816	1128.62
553.029	1138.62
553.242	1144.62
553.455	1146.62
553.667	1144.62
553.88	1168.62
554.093	1175.62
554.306	1157.62
554.519	1174.62
554.732	1191.62
554.944	1191.62
555.157	1186.62
555.37	1198.62
555.583	1240.62
555.795	1284.62
556.008	1338.62
556.221	1409.62
556.433	1474.62
556.646	1476.62
556.859	1448.62
557.071	1428.62
557.284	1392.62
557.496	1366.62
557.709	1364.62
557.921	1396.62
558.134	1382.62
558.346	1416.62
558.559	1400.62
558.771	1443.62
558.984	1490.62
559.196	1558.62
559.409	1564.62
559.621	1479.62
559.833	1393.62
560.046	1377.62
560.258	1323.62
560.47	1279.62
560.683	1252.62
560.895	1214.62
561.107	1195.62
561.32	1152.62
561.532	1155.62
561.744	1131.62
561.956	1108.62
562.168	1072.62
562.381	1064.62
562.593	1071.62
562.805	1071.62
563.017	1060.62
563.229	1078.62
563.441	1170.62
563.653	1034.62
563.865	998.62
564.077	1010.62
564.289	997.62
564.501	993.62
564.713	987.62
564.925	987.62
565.137	943.62
565.349	964.62
565.561	974.62
565.773	972.62
565.985	992.62
566.197	1001.62
566.408	1012.62
566.62	1074.62
566.832	1063.62
567.044	1094.62
567.255	1080.62
567.467	1089.62
567.679	1125.62
567.891	1153.62
568.102	1255.62
568.314	1370.62
568.526	1216.62
568.737	1088.62
568.949	991.62
569.161	926.62
569.372	914.62
569.584	897.62
569.795	872.62
570.007	854.62
570.218	868.62
570.43	908.62
570.641	845.62
570.853	828.62
571.064	821.62
571.276	821.62
571.487	782.62
571.698	782.62
571.91	790.62
572.121	765.62
572.333	754.62
572.544	779.62
572.755	800.62
572.966	896.62
573.178	832.62
573.389	748.62
573.6	736.62
573.811	735.62
574.023	716.62
574.234	726.62
574.445	732.62
574.656	702.62
574.867	705.62
575.078	705.62
575.289	697.62
575.501	706.62
575.712	716.62
575.923	687.62
576.134	696.62
576.345	715.62
576.556	720.62
576.767	715.62
576.978	726.62
577.188	713.62
577.399	704.62
577.61	710.62
577.821	712.62
578.032	718.62
578.243	728.62
578.454	752.62
578.665	770.62
578.875	757.62
579.086	785.62
579.297	810.62
579.508	841.62
579.718	899.62
579.929	957.62
580.14	1042.62
580.35	1048.62
580.561	1014.62
580.772	965.62
580.982	914.62
581.193	889.62
581.403	875.62
581.614	841.62
581.825	812.62
582.035	775.62
582.246	747.62
582.456	735.62
582.667	719.62
582.877	724.62
583.087	707.62
583.298	682.62
583.508	676.62
583.719	649.62
583.929	662.62
584.139	652.62
584.35	607.62
584.56	624.62
584.77	617.62
584.981	595.62
585.191	616.62
585.401	589.62
585.611	582.62
585.821	585.62
586.032	568.62
586.242	580.62
586.452	560.62
586.662	555.62
586.872	564.62
587.082	548.62
587.292	548.62
587.502	546.62
587.713	530.62
587.923	542.62
588.133	524.62
588.343	529.62
588.553	526.62
588.762	525.62
588.972	525.62
589.182	527.62
589.392	498.62
589.602	516.62
589.812	518.62
590.022	518.62
590.232	507.62
590.441	494.62
590.651	512.62
590.861	498.62
591.071	514.62
591.281	520.62
591.49	521.62
591.7	514.62
591.91	531.62
592.119	501.62
592.329	507.62
592.539	496.62
592.748	538.62
592.958	526.62
593.167	543.62
593.377	531.62
593.587	530.62
593.796	524.62
594.006	534.62
594.215	542.62
594.424	531.62
594.634	506.62
594.843	519.62
595.053	518.62
595.262	503.62
595.472	490.62
595.681	486.62
595.89	487.62
596.1	481.62
596.309	485.62
596.518	478.62
596.727	489.62
596.937	450.62
597.146	463.62
597.355	458.62
597.564	439.62
597.774	434.62
597.983	458.62
598.192	436.62
598.401	442.62
598.61	438.62
598.819	428.62
599.028	433.62
599.237	431.62
599.446	423.62
599.655	418.62
599.864	445.62
600.073	447.62
600.282	422.62
600.491	427.62
600.7	412.62
600.909	410.62
601.118	415.62
601.327	424.62
601.536	438.62
601.745	439.62
601.953	475.62
602.162	475.62
602.371	449.62
602.58	436.62
602.789	434.62
602.997	434.62
603.206	417.62
603.415	410.62
603.623	424.62
603.832	406.62
604.041	421.62
604.249	421.62
604.458	415.62
604.666	406.62
604.875	386.62
605.084	384.62
605.292	401.62
605.501	412.62
605.709	407.62
605.918	415.62
606.126	442.62
606.334	406.62
606.543	402.62
606.751	420.62
606.96	462.62
607.168	499.62
607.376	421.62
607.585	423.62
607.793	409.62
608.001	417.62
608.21	411.62
608.418	400.62
608.626	400.62
608.834	414.62
609.043	402.62
609.251	392.62
609.459	390.62
609.667	398.62
609.875	391.62
610.083	394.62
610.291	384.62
610.499	376.62
610.707	374.62
610.916	373.62
611.124	380.62
611.332	384.62
611.54	382.62
611.748	398.62
611.955	400.62
612.163	381.62
612.371	386.62
612.579	381.62
612.787	372.62
612.995	378.62
613.203	359.62
613.411	370.62
613.618	355.62
613.826	353.62
614.034	374.62
614.242	382.62
614.449	378.62
614.657	378.62
614.865	364.62
615.072	384.62
615.28	388.62
615.488	371.62
615.695	377.62
615.903	365.62
616.111	375.62
616.318	368.62
616.526	375.62
616.733	379.62
616.941	385.62
617.148	364.62
617.356	360.62
617.563	354.62
617.771	376.62
617.978	358.62
618.185	346.62
618.393	352.62
618.6	367.62
618.807	366.62
619.015	352.62
619.222	360.62
619.429	366.62
619.637	356.62
619.844	318.62
620.051	357.62
620.258	349.62
620.466	345.62
620.673	342.62
620.88	319.62
621.087	338.62
621.294	339.62
621.501	341.62
621.708	358.62
621.915	351.62
622.122	345.62
622.329	326.62
622.536	332.62
622.743	327.62
622.95	334.62
623.157	350.62
623.364	326.62
623.571	330.62
623.778	333.62
623.985	322.62
624.192	349.62
624.399	315.62
624.606	310.62
624.812	311.62
625.019	326.62
625.226	339.62
625.433	302.62
625.639	329.62
625.846	319.62
626.053	308.62
626.259	296.62
626.466	308.62
626.673	310.62
626.879	277.62
627.086	311.62
627.293	299.62
627.499	316.62
627.706	323.62
627.912	302.62
628.119	324.62
628.325	324.62
628.532	321.62
628.738	282.62
628.945	295.62
629.151	301.62
629.357	303.62
629.564	297.62
629.77	308.62
629.976	298.62
630.183	293.62
630.389	304.62
630.595	286.62
630.802	299.62
631.008	295.62
631.214	279.62
631.42	296.62
631.627	296.62
631.833	288.62
632.039	284.62
632.245	294.62
632.451	315.62
632.657	289.62
632.863	302.62
633.069	291.62
633.275	284.62
633.481	279.62
633.688	280.62
633.893	290.62
634.099	284.62
634.305	300.62
634.511	297.62
634.717	318.62
634.923	289.62
635.129	313.62
635.335	336.62
635.541	318.62
635.747	297.62
635.952	300.62
636.158	290.62
636.364	297.62
636.57	291.62
636.775	265.62
636.981	274.62
637.187	288.62
637.392	291.62
637.598	289.62
637.804	311.62
638.009	297.62
638.215	292.62
638.421	271.62
638.626	281.62
638.832	297.62
639.037	281.62
639.243	274.62
639.448	286.62
639.654	295.62
639.859	291.62
640.065	282.62
640.27	308.62
640.475	286.62
640.681	291.62
640.886	308.62
641.091	320.62
641.297	320.62
641.502	303.62
641.707	312.62
641.913	319.62
642.118	299.62
642.323	320.62
642.528	312.62
642.733	308.62
642.939	319.62
643.144	345.62
643.349	351.62
643.554	357.62
643.759	374.62
643.964	376.62
644.169	393.62
644.374	405.62
644.579	434.62
644.784	453.62
644.989	480.62
645.194	537.62
645.399	592.62
645.604	586.62
645.809	534.62
646.014	433.62
646.219	413.62
646.423	361.62
646.628	346.62
646.833	326.62
647.038	308.62
647.243	303.62
647.447	300.62
647.652	318.62
647.857	291.62
648.062	286.62
648.266	277.62
648.471	285.62
648.676	276.62
648.88	268.62
649.085	274.62
649.289	267.62
649.494	279.62
649.698	280.62
649.903	262.62
650.107	249.62
650.312	243.62
650.516	232.62
650.721	233.62
650.925	238.62
651.13	238.62
651.334	234.62
651.539	208.62
651.743	219.62
651.947	218.62
652.152	219.62
652.356	210.62
652.56	217.62
652.764	231.62
652.969	227.62
653.173	232.62
653.377	220.62
653.581	200.62
653.785	200.62
653.99	201.62
654.194	214.62
654.398	186.62
654.602	181.62
654.806	194.62
655.01	193.62
655.214	195.62
655.418	186.62
655.622	204.62
655.826	195.62
656.03	203.62
656.234	197.62
656.438	226.62
656.642	218.62
656.846	192.62
657.049	187.62
657.253	196.62
657.457	162.62
657.661	174.62
657.865	168.62
658.068	149.62
658.272	140.62
658.476	154.62
658.68	136.62
658.883	135.62
659.087	141.62
659.291	124.62
659.494	114.62
659.698	134.62
659.901	107.62
660.105	116.62
660.309	123.62
660.512	124.62
660.716	95.62
660.919	118.62
661.123	103.62
661.326	102.62
661.53	103.62
661.733	99.62
661.936	105.62
662.14	90.62
662.343	99.62
662.546	96.62
662.75	91.62
662.953	91.62
663.156	83.62
663.36	88.62
663.563	83.62
663.766	72.62
663.969	101.62
664.173	92.62
664.376	85.62
664.579	75.62
664.782	68.62
664.985	79.62
665.188	100.62
665.391	76.62
665.594	84.62
665.797	76.62
666	74.62
666.203	69.62
666.406	81.62
666.609	78.62
666.812	85.62
667.015	87.62
667.218	79.62
667.421	76.62
667.624	89.62
667.827	77.62
668.03	61.62
668.232	90.62
668.435	85.62
668.638	80.62
668.841	86.62
669.043	78.62
669.246	84.62
669.449	89.62
669.651	74.62
669.854	80.62
670.057	87.62
670.259	72.62
670.462	84.62
670.665	88.62
670.867	84.62
671.07	81.62
671.272	90.62
671.475	86.62
671.677	85.62
671.88	83.62
672.082	81.62
672.284	67.62
672.487	86.62
672.689	85.62
672.892	86.62
