Data from SnStandardFlinnAPT0064_LampEnergy10_LIBS07252019.E.O._I.C._HRD10591_15-20-45-494.txt Node
Date: Thu Jul 25 15:20:45 EDT 2019
User: cochatt
Spectrometer: HR+D1059
Trigger mode: 1
Integration Time (sec): 1.000000E-1
Scans to average: 1
Electric dark correction enabled: true
Nonlinearity correction enabled: false
Boxcar width: 0
XAxis mode: Wavelengths
Number of Pixels in Spectrum: 2048
>>>>>Begin Spectral Data<<<<<
223.165	-7.31
223.4	-7.31
223.635	-7.31
223.869	-15.31
224.104	-14.31
224.338	-16.31
224.573	-14.31
224.808	-22.31
225.042	4.69
225.277	-1.31
225.511	0.69
225.746	4.69
225.98	-1.31
226.215	-0.31
226.449	18.69
226.683	16.69
226.918	22.69
227.152	24.69
227.387	31.69
227.621	28.69
227.856	42.69
228.09	39.69
228.324	47.69
228.559	59.69
228.793	122.69
229.027	316.69
229.262	338.69
229.496	316.69
229.73	294.69
229.964	293.69
230.199	304.69
230.433	321.69
230.667	319.69
230.901	344.69
231.136	321.69
231.37	374.69
231.604	396.69
231.838	449.69
232.072	560.69
232.306	576.69
232.541	472.69
232.775	418.69
233.009	428.69
233.243	430.69
233.477	465.69
233.711	547.69
233.945	594.69
234.179	534.69
234.413	463.69
234.647	448.69
234.881	460.69
235.115	521.69
235.349	622.69
235.583	787.69
235.817	1064.69
236.051	1036.69
236.285	690.69
236.519	516.69
236.753	501.69
236.987	496.69
237.221	544.69
237.455	522.69
237.689	471.69
237.922	464.69
238.156	479.69
238.39	485.69
238.624	506.69
238.858	505.69
239.091	519.69
239.325	498.69
239.559	488.69
239.793	508.69
240.027	500.69
240.26	525.69
240.494	552.69
240.728	578.69
240.961	622.69
241.195	648.69
241.429	704.69
241.662	702.69
241.896	793.69
242.13	953.69
242.363	1322.69
242.597	1684.69
242.83	1599.69
243.064	1630.69
243.298	1885.69
243.531	1512.69
243.765	984.69
243.998	784.69
244.232	708.69
244.465	668.69
244.699	662.69
244.932	672.69
245.166	682.69
245.399	686.69
245.633	711.69
245.866	687.69
246.099	683.69
246.333	655.69
246.566	660.69
246.8	648.69
247.033	656.69
247.266	664.69
247.5	657.69
247.733	680.69
247.966	701.69
248.2	772.69
248.433	872.69
248.666	1049.69
248.899	980.69
249.133	870.69
249.366	877.69
249.599	1012.69
249.832	1097.69
250.066	1102.69
250.299	867.69
250.532	822.69
250.765	769.69
250.998	757.69
251.231	744.69
251.465	730.69
251.698	753.69
251.931	740.69
252.164	779.69
252.397	764.69
252.63	782.69
252.863	790.69
253.096	797.69
253.329	812.69
253.562	817.69
253.795	806.69
254.028	808.69
254.261	822.69
254.494	873.69
254.727	1046.69
254.96	1278.69
255.193	1256.69
255.426	991.69
255.659	887.69
255.892	859.69
256.124	875.69
256.357	877.69
256.59	913.69
256.823	990.69
257.056	1148.69
257.289	1392.69
257.521	1552.69
257.754	1250.69
257.987	993.69
258.22	929.69
258.452	927.69
258.685	918.69
258.918	958.69
259.151	1024.69
259.383	1093.69
259.616	1252.69
259.849	1322.69
260.081	1098.69
260.314	998.69
260.547	956.69
260.779	926.69
261.012	974.69
261.244	982.69
261.477	970.69
261.71	1004.69
261.942	1010.69
262.175	1025.69
262.407	1057.69
262.64	1058.69
262.872	1075.69
263.105	1148.69
263.337	1224.69
263.57	1278.69
263.802	1283.69
264.035	1322.69
264.267	1354.69
264.499	1401.69
264.732	1416.69
264.964	1470.69
265.197	1456.69
265.429	1463.69
265.661	1467.69
265.894	1540.69
266.126	1808.69
266.358	2009.69
266.591	1947.69
266.823	1630.69
267.055	1470.69
267.287	1424.69
267.52	1336.69
267.752	1331.69
267.984	1274.69
268.216	1303.69
268.448	1248.69
268.681	1246.69
268.913	1256.69
269.145	1265.69
269.377	1244.69
269.609	1269.69
269.841	1331.69
270.073	1389.69
270.306	1637.69
270.538	2263.69
270.77	3342.69
271.002	4091.69
271.234	2825.69
271.466	1921.69
271.698	1560.69
271.93	1440.69
272.162	1378.69
272.394	1294.69
272.626	1260.69
272.858	1275.69
273.09	1220.69
273.322	1238.69
273.553	1252.69
273.785	1216.69
274.017	1224.69
274.249	1230.69
274.481	1229.69
274.713	1198.69
274.945	1225.69
275.176	1226.69
275.408	1207.69
275.64	1230.69
275.872	1271.69
276.104	1280.69
276.335	1263.69
276.567	1249.69
276.799	1284.69
277.031	1359.69
277.262	1360.69
277.494	1408.69
277.726	1602.69
277.957	1909.69
278.189	2166.69
278.421	2017.69
278.652	1840.69
278.884	1715.69
279.115	1480.69
279.347	1471.69
279.579	1405.69
279.81	1412.69
280.042	1413.69
280.273	1444.69
280.505	1452.69
280.736	1513.69
280.968	1632.69
281.199	1818.69
281.431	2077.69
281.662	2163.69
281.894	1828.69
282.125	1648.69
282.356	1650.69
282.588	1705.69
282.819	1702.69
283.051	1850.69
283.282	2050.69
283.513	2564.69
283.745	3742.69
283.976	5955.69
284.207	8484.69
284.439	7526.69
284.67	4648.69
284.901	3863.69
285.132	3861.69
285.364	3686.69
285.595	2820.69
285.826	2458.69
286.057	2918.69
286.288	4052.69
286.52	5433.69
286.751	5042.69
286.982	3092.69
287.213	2330.69
287.444	2035.69
287.675	1855.69
287.906	1792.69
288.138	1715.69
288.369	1736.69
288.6	1736.69
288.831	1695.69
289.062	1675.69
289.293	1725.69
289.524	1694.69
289.755	1668.69
289.986	1740.69
290.217	1713.69
290.448	1718.69
290.679	1721.69
290.91	1784.69
291.141	1887.69
291.371	2072.69
291.602	2147.69
291.833	1981.69
292.064	1806.69
292.295	1686.69
292.526	1673.69
292.757	1631.69
292.987	1591.69
293.218	1597.69
293.449	1607.69
293.68	1608.69
293.91	1633.69
294.141	1574.69
294.372	1568.69
294.603	1568.69
294.833	1599.69
295.064	1600.69
295.295	1590.69
295.525	1571.69
295.756	1592.69
295.987	1570.69
296.217	1599.69
296.448	1593.69
296.679	1559.69
296.909	1594.69
297.14	1617.69
297.37	1608.69
297.601	1615.69
297.831	1632.69
298.062	1652.69
298.292	1668.69
298.523	1692.69
298.753	1739.69
298.984	1753.69
299.214	1757.69
299.445	1769.69
299.675	1812.69
299.905	1852.69
300.136	1955.69
300.366	2204.69
300.597	2840.69
300.827	4047.69
301.057	5514.69
301.288	5488.69
301.518	3434.69
301.748	2624.69
301.979	2341.69
302.209	2314.69
302.439	2357.69
302.669	2482.69
302.9	3039.69
303.13	4321.69
303.36	6387.69
303.59	8630.69
303.82	7540.69
304.051	4326.69
304.281	3122.69
304.511	2604.69
304.741	2352.69
304.971	2205.69
305.201	2100.69
305.431	2030.69
305.661	1986.69
305.891	1925.69
306.121	1865.69
306.352	1922.69
306.582	1823.69
306.812	1817.69
307.042	1861.69
307.272	1836.69
307.502	1809.69
307.731	1792.69
307.961	1813.69
308.191	1800.69
308.421	1836.69
308.651	1821.69
308.881	1765.69
309.111	1780.69
309.341	1848.69
309.571	1854.69
309.8	1849.69
310.03	1847.69
310.26	1857.69
310.49	1893.69
310.72	1889.69
310.949	1884.69
311.179	1928.69
311.409	1924.69
311.639	1914.69
311.868	1909.69
312.098	1970.69
312.328	1944.69
312.557	1978.69
312.787	1993.69
313.017	2012.69
313.246	2056.69
313.476	2025.69
313.706	2104.69
313.935	2248.69
314.165	2428.69
314.394	2545.69
314.624	2378.69
314.853	2198.69
315.083	2162.69
315.312	2212.69
315.542	2224.69
315.771	2249.69
316.001	2275.69
316.23	2318.69
316.46	2460.69
316.689	2722.69
316.919	3285.69
317.148	4744.69
317.377	7456.69
317.607	10905.69
317.836	11370.69
318.065	6847.69
318.295	4302.69
318.524	3492.69
318.753	2997.69
318.983	2757.69
319.212	2597.69
319.441	2542.69
319.67	2557.69
319.9	2453.69
320.129	2394.69
320.358	2351.69
320.587	2355.69
320.816	2332.69
321.046	2358.69
321.275	2410.69
321.504	2418.69
321.733	2446.69
321.962	2552.69
322.191	2548.69
322.42	2556.69
322.649	2523.69
322.878	2521.69
323.108	2529.69
323.337	2530.69
323.566	2598.69
323.795	2655.69
324.024	2693.69
324.253	2711.69
324.482	2882.69
324.71	3068.69
324.939	3292.69
325.168	3284.69
325.397	3441.69
325.626	4158.69
325.855	5827.69
326.084	9065.69
326.313	13118.69
326.542	13911.69
326.77	9311.69
326.999	6180.69
327.228	5031.69
327.457	4848.69
327.686	4922.69
327.914	5213.69
328.143	6158.69
328.372	7414.69
328.6	8015.69
328.829	7182.69
329.058	5972.69
329.287	5264.69
329.515	4696.69
329.744	4366.69
329.972	4145.69
330.201	3886.69
330.43	3750.69
330.658	3703.69
330.887	3608.69
331.115	3550.69
331.344	3562.69
331.572	3529.69
331.801	3503.69
332.03	3550.69
332.258	3624.69
332.486	3806.69
332.715	4357.69
332.943	5459.69
333.172	6871.69
333.4	6810.69
333.629	5084.69
333.857	4592.69
334.085	4592.69
334.314	4830.69
334.542	5222.69
334.771	6226.69
334.999	7761.69
335.227	9674.69
335.455	10821.69
335.684	9719.69
335.912	7858.69
336.14	6621.69
336.369	5804.69
336.597	5347.69
336.825	4852.69
337.053	4588.69
337.281	4336.69
337.51	4112.69
337.738	3878.69
337.966	3700.69
338.194	3598.69
338.422	3481.69
338.65	3409.69
338.878	3372.69
339.106	3320.69
339.334	3266.69
339.562	3172.69
339.79	3083.69
340.018	3082.69
340.246	3116.69
340.474	3080.69
340.702	2994.69
340.93	3009.69
341.158	3063.69
341.386	3037.69
341.614	3015.69
341.842	2933.69
342.07	2846.69
342.298	2852.69
342.526	2802.69
342.754	2764.69
342.981	2742.69
343.209	2680.69
343.437	2755.69
343.665	2802.69
343.893	2853.69
344.12	2850.69
344.348	2803.69
344.576	2775.69
344.804	2755.69
345.031	2637.69
345.259	2624.69
345.487	2640.69
345.714	2560.69
345.942	2534.69
346.17	2607.69
346.397	2548.69
346.625	2528.69
346.853	2511.69
347.08	2538.69
347.308	2501.69
347.535	2545.69
347.763	2545.69
347.99	2546.69
348.218	2481.69
348.445	2514.69
348.673	2473.69
348.9	2472.69
349.128	2456.69
349.355	2461.69
349.583	2453.69
349.81	2481.69
350.037	2408.69
350.265	2454.69
350.492	2435.69
350.72	2390.69
350.947	2388.69
351.174	2442.69
351.402	2419.69
351.629	2413.69
351.856	2414.69
352.083	2389.69
352.311	2400.69
352.538	2406.69
352.765	2385.69
352.992	2393.69
353.22	2378.69
353.447	2372.69
353.674	2384.69
353.901	2423.69
354.128	2388.69
354.355	2401.69
354.583	2391.69
354.81	2446.69
355.037	2432.69
355.264	2438.69
355.491	2447.69
355.718	2430.69
355.945	2462.69
356.172	2494.69
356.399	2454.69
356.626	2524.69
356.853	2534.69
357.08	2545.69
357.307	2583.69
357.534	2585.69
357.761	2619.69
357.988	2636.69
358.215	2597.69
358.441	2541.69
358.668	2561.69
358.895	2549.69
359.122	2537.69
359.349	2564.69
359.576	2565.69
359.802	2524.69
360.029	2536.69
360.256	2570.69
360.483	2608.69
360.709	2590.69
360.936	2576.69
361.163	2601.69
361.39	2610.69
361.616	2600.69
361.843	2612.69
362.07	2596.69
362.296	2606.69
362.523	2585.69
362.749	2597.69
362.976	2558.69
363.203	2577.69
363.429	2544.69
363.656	2580.69
363.882	2581.69
364.109	2513.69
364.335	2539.69
364.562	2534.69
364.788	2562.69
365.015	2648.69
365.241	2616.69
365.468	2881.69
365.694	2980.69
365.92	2897.69
366.147	2634.69
366.373	2592.69
366.599	2670.69
366.826	2598.69
367.052	2577.69
367.278	2643.69
367.505	2670.69
367.731	2672.69
367.957	2596.69
368.184	2672.69
368.41	2674.69
368.636	2698.69
368.862	2709.69
369.089	2695.69
369.315	2629.69
369.541	2618.69
369.767	2641.69
369.993	2654.69
370.219	2679.69
370.445	2688.69
370.672	2680.69
370.898	2681.69
371.124	2729.69
371.35	2743.69
371.576	2753.69
371.802	2733.69
372.028	2791.69
372.254	2778.69
372.48	2780.69
372.706	2802.69
372.932	2793.69
373.158	2820.69
373.384	2806.69
373.61	2833.69
373.835	2780.69
374.061	2820.69
374.287	2870.69
374.513	2868.69
374.739	2908.69
374.965	2932.69
375.191	2910.69
375.416	2913.69
375.642	2898.69
375.868	2847.69
376.094	2837.69
376.319	2838.69
376.545	2759.69
376.771	2762.69
376.997	2765.69
377.222	2782.69
377.448	2711.69
377.674	2766.69
377.899	2749.69
378.125	2703.69
378.35	2772.69
378.576	2730.69
378.802	2743.69
379.027	2811.69
379.253	2857.69
379.478	3105.69
379.704	3646.69
379.929	5248.69
380.155	8212.69
380.38	8998.69
380.606	5437.69
380.831	3792.69
381.057	3280.69
381.282	3016.69
381.507	2926.69
381.733	2811.69
381.958	2750.69
382.184	2750.69
382.409	2740.69
382.634	2717.69
382.86	2732.69
383.085	2716.69
383.31	2718.69
383.535	2709.69
383.761	2721.69
383.986	2739.69
384.211	2748.69
384.436	2798.69
384.662	2745.69
384.887	2806.69
385.112	2759.69
385.337	2806.69
385.562	2862.69
385.787	2803.69
386.013	2825.69
386.238	2771.69
386.463	2878.69
386.688	2796.69
386.913	2775.69
387.138	2814.69
387.363	2797.69
387.588	2759.69
387.813	2782.69
388.038	2769.69
388.263	2774.69
388.488	2746.69
388.713	2762.69
388.938	2758.69
389.163	2759.69
389.387	2790.69
389.612	2771.69
389.837	2771.69
390.062	2765.69
390.287	2768.69
390.512	2872.69
390.736	2898.69
390.961	2942.69
391.186	2857.69
391.411	2877.69
391.636	2943.69
391.86	2935.69
392.085	2915.69
392.31	2913.69
392.534	2858.69
392.759	2849.69
392.984	2796.69
393.208	2871.69
393.433	2844.69
393.658	2803.69
393.882	2798.69
394.107	2806.69
394.331	2879.69
394.556	2812.69
394.78	2855.69
395.005	2872.69
395.229	2848.69
395.454	2892.69
395.678	2934.69
395.903	2824.69
396.127	2916.69
396.352	2852.69
396.576	2894.69
396.801	2864.69
397.025	2902.69
397.249	2980.69
397.474	2959.69
397.698	2941.69
397.922	2994.69
398.147	2920.69
398.371	2982.69
398.595	3055.69
398.82	3040.69
399.044	3191.69
399.268	3369.69
399.492	3575.69
399.717	3695.69
399.941	3705.69
400.165	3543.69
400.389	3458.69
400.613	3294.69
400.837	3140.69
401.062	3126.69
401.286	3114.69
401.51	3090.69
401.734	3017.69
401.958	3087.69
402.182	3092.69
402.406	3074.69
402.63	3047.69
402.854	3152.69
403.078	3084.69
403.302	3163.69
403.526	3182.69
403.75	3191.69
403.974	3185.69
404.198	3207.69
404.422	3191.69
404.645	3225.69
404.869	3136.69
405.093	3208.69
405.317	3160.69
405.541	3265.69
405.765	3241.69
405.988	3342.69
406.212	3271.69
406.436	3244.69
406.66	3323.69
406.883	3290.69
407.107	3412.69
407.331	3464.69
407.555	3525.69
407.778	3472.69
408.002	3456.69
408.226	3407.69
408.449	3405.69
408.673	3312.69
408.896	3235.69
409.12	3205.69
409.344	3228.69
409.567	3223.69
409.791	3230.69
410.014	3210.69
410.238	3220.69
410.461	3118.69
410.685	3164.69
410.908	3116.69
411.132	3107.69
411.355	3057.69
411.578	3113.69
411.802	3051.69
412.025	3066.69
412.249	3061.69
412.472	3074.69
412.695	3054.69
412.919	3023.69
413.142	3008.69
413.365	2991.69
413.589	3064.69
413.812	3006.69
414.035	3063.69
414.258	3024.69
414.482	2986.69
414.705	3012.69
414.928	3023.69
415.151	3057.69
415.374	2970.69
415.597	2984.69
415.821	2931.69
416.044	2879.69
416.267	2878.69
416.49	2904.69
416.713	2864.69
416.936	2878.69
417.159	2838.69
417.382	2849.69
417.605	2809.69
417.828	2908.69
418.051	2941.69
418.274	2937.69
418.497	2940.69
418.72	2998.69
418.943	2934.69
419.166	3078.69
419.389	3221.69
419.611	3171.69
419.834	3072.69
420.057	2989.69
420.28	2898.69
420.503	2889.69
420.726	2831.69
420.948	2874.69
421.171	2878.69
421.394	2944.69
421.617	2848.69
421.839	2924.69
422.062	2921.69
422.285	2856.69
422.507	3005.69
422.73	2948.69
422.953	2956.69
423.175	3044.69
423.398	2949.69
423.621	2887.69
423.843	2911.69
424.066	2960.69
424.288	2910.69
424.511	2872.69
424.733	2899.69
424.956	2860.69
425.178	2883.69
425.401	2873.69
425.623	2889.69
425.846	2768.69
426.068	2781.69
426.291	2774.69
426.513	2780.69
426.735	2718.69
426.958	2753.69
427.18	2716.69
427.402	2714.69
427.625	2748.69
427.847	2697.69
428.069	2710.69
428.292	2688.69
428.514	2680.69
428.736	2616.69
428.958	2719.69
429.181	2676.69
429.403	2608.69
429.625	2685.69
429.847	2671.69
430.069	2761.69
430.292	2815.69
430.514	2876.69
430.736	2863.69
430.958	2702.69
431.18	2672.69
431.402	2676.69
431.624	2596.69
431.846	2661.69
432.068	2613.69
432.29	2692.69
432.512	2584.69
432.734	2662.69
432.956	2645.69
433.178	2650.69
433.4	2691.69
433.622	2694.69
433.844	2648.69
434.066	2627.69
434.287	2676.69
434.509	2709.69
434.731	2773.69
434.953	2770.69
435.175	2816.69
435.397	2757.69
435.618	2717.69
435.84	2672.69
436.062	2655.69
436.284	2672.69
436.505	2633.69
436.727	2657.69
436.949	2588.69
437.17	2612.69
437.392	2576.69
437.614	2577.69
437.835	2523.69
438.057	2555.69
438.278	2494.69
438.5	2566.69
438.721	2640.69
438.943	2700.69
439.165	2752.69
439.386	2801.69
439.608	2724.69
439.829	2800.69
440.05	2860.69
440.272	2900.69
440.493	2747.69
440.715	2748.69
440.936	2760.69
441.158	2749.69
441.379	2804.69
441.6	2909.69
441.822	2933.69
442.043	3154.69
442.264	3259.69
442.486	3017.69
442.707	2925.69
442.928	2832.69
443.149	2848.69
443.371	2814.69
443.592	2817.69
443.813	2876.69
444.034	2858.69
444.255	2918.69
444.476	2906.69
444.698	2975.69
444.919	3034.69
445.14	3111.69
445.361	2962.69
445.582	2907.69
445.803	2857.69
446.024	2817.69
446.245	2775.69
446.466	2799.69
446.687	2746.69
446.908	2768.69
447.129	2719.69
447.35	2675.69
447.571	2663.69
447.792	2629.69
448.013	2584.69
448.234	2568.69
448.455	2605.69
448.675	2634.69
448.896	2737.69
449.117	2803.69
449.338	3096.69
449.559	3184.69
449.779	2831.69
450	2650.69
450.221	2585.69
450.442	2616.69
450.662	2572.69
450.883	2590.69
451.104	2517.69
451.324	2533.69
451.545	2571.69
451.766	2558.69
451.986	2649.69
452.207	2870.69
452.428	3663.69
452.648	5612.69
452.869	4758.69
453.089	3242.69
453.31	3042.69
453.53	3009.69
453.751	3070.69
453.971	3226.69
454.192	3158.69
454.412	2732.69
454.633	2554.69
454.853	2532.69
455.073	2484.69
455.294	2471.69
455.514	2440.69
455.734	2467.69
455.955	2401.69
456.175	2420.69
456.395	2462.69
456.616	2443.69
456.836	2458.69
457.056	2529.69
457.276	2520.69
457.497	2610.69
457.717	2723.69
457.937	2630.69
458.157	2580.69
458.377	2567.69
458.598	2624.69
458.818	2590.69
459.038	2609.69
459.258	2618.69
459.478	2673.69
459.698	2644.69
459.918	2694.69
460.138	2776.69
460.358	2840.69
460.578	2814.69
460.798	2878.69
461.018	2930.69
461.238	2888.69
461.458	2934.69
461.678	2956.69
461.898	2969.69
462.118	2976.69
462.338	3072.69
462.558	3107.69
462.777	3114.69
462.997	3301.69
463.217	3420.69
463.437	3476.69
463.657	3652.69
463.876	3580.69
464.096	3365.69
464.316	3276.69
464.536	3184.69
464.755	3109.69
464.975	3054.69
465.195	2928.69
465.414	2879.69
465.634	2752.69
465.854	2722.69
466.073	2686.69
466.293	2682.69
466.512	2626.69
466.732	2740.69
466.951	2824.69
467.171	3047.69
467.391	3006.69
467.61	2702.69
467.829	2668.69
468.049	2634.69
468.268	2581.69
468.488	2555.69
468.707	2614.69
468.927	2608.69
469.146	2575.69
469.365	2602.69
469.585	2614.69
469.804	2718.69
470.023	2742.69
470.243	2815.69
470.462	2907.69
470.681	3008.69
470.901	3376.69
471.12	3886.69
471.339	3873.69
471.558	3240.69
471.777	2941.69
471.997	2802.69
472.216	2752.69
472.435	2697.69
472.654	2592.69
472.873	2609.69
473.092	2635.69
473.311	2668.69
473.53	2660.69
473.749	2709.69
473.968	2818.69
474.187	2671.69
474.406	2592.69
474.625	2638.69
474.844	2661.69
475.063	2639.69
475.282	2649.69
475.501	2635.69
475.72	2709.69
475.939	2737.69
476.158	2688.69
476.377	2789.69
476.596	2782.69
476.814	2754.69
477.033	2758.69
477.252	2829.69
477.471	2860.69
477.69	2885.69
477.908	2930.69
478.127	2970.69
478.346	3017.69
478.564	3036.69
478.783	3012.69
479.002	3090.69
479.22	3104.69
479.439	3159.69
479.658	3171.69
479.876	3088.69
480.095	3173.69
480.313	3251.69
480.532	3260.69
480.751	3233.69
480.969	3221.69
481.188	3196.69
481.406	3127.69
481.624	3144.69
481.843	3208.69
482.061	3267.69
482.28	3154.69
482.498	3137.69
482.717	3192.69
482.935	3272.69
483.153	3244.69
483.372	3287.69
483.59	3301.69
483.808	3344.69
484.027	3497.69
484.245	3718.69
484.463	4139.69
484.681	4610.69
484.9	4136.69
485.118	3912.69
485.336	3764.69
485.554	3816.69
485.772	4082.69
485.99	4678.69
486.209	5044.69
486.427	4244.69
486.645	3722.69
486.863	3590.69
487.081	3460.69
487.299	3429.69
487.517	3352.69
487.735	3388.69
487.953	3425.69
488.171	3307.69
488.389	3363.69
488.607	3286.69
488.825	3285.69
489.043	3241.69
489.261	3242.69
489.479	3268.69
489.696	3302.69
489.914	3266.69
490.132	3320.69
490.35	3331.69
490.568	3308.69
490.786	3405.69
491.003	3374.69
491.221	3442.69
491.439	3409.69
491.657	3399.69
491.874	3448.69
492.092	3438.69
492.31	3457.69
492.527	3435.69
492.745	3442.69
492.963	3372.69
493.18	3400.69
493.398	3444.69
493.615	3416.69
493.833	3399.69
494.05	3472.69
494.268	3490.69
494.485	3460.69
494.703	3472.69
494.92	3482.69
495.138	3441.69
495.355	3404.69
495.573	3469.69
495.79	3480.69
496.008	3440.69
496.225	3536.69
496.442	3620.69
496.66	3718.69
496.877	3956.69
497.094	3927.69
497.312	3786.69
497.529	3693.69
497.746	3781.69
497.963	3823.69
498.181	3889.69
498.398	4021.69
498.615	4116.69
498.832	4316.69
499.049	4480.69
499.267	4772.69
499.484	5168.69
499.701	5079.69
499.918	5235.69
500.135	5492.69
500.352	5726.69
500.569	5867.69
500.786	5847.69
501.003	5668.69
501.22	5327.69
501.437	5052.69
501.654	4727.69
501.871	4543.69
502.088	4360.69
502.305	4238.69
502.522	4073.69
502.739	4036.69
502.956	3911.69
503.172	3790.69
503.389	3740.69
503.606	3682.69
503.823	3667.69
504.04	3586.69
504.256	3596.69
504.473	3589.69
504.69	3586.69
504.907	3546.69
505.123	3453.69
505.34	3357.69
505.557	3313.69
505.773	3281.69
505.99	3312.69
506.207	3212.69
506.423	3168.69
506.64	3090.69
506.856	3094.69
507.073	3050.69
507.289	3065.69
507.506	3027.69
507.722	3032.69
507.939	3081.69
508.155	3022.69
508.372	2966.69
508.588	2912.69
508.805	2983.69
509.021	2943.69
509.238	3013.69
509.454	3166.69
509.67	3415.69
509.887	3174.69
510.103	3055.69
510.319	3013.69
510.536	2966.69
510.752	2932.69
510.968	2929.69
511.184	2899.69
511.401	2857.69
511.617	2904.69
511.833	2889.69
512.049	2832.69
512.265	2856.69
512.481	2902.69
512.698	2814.69
512.914	2858.69
513.13	2860.69
513.346	2807.69
513.562	2873.69
513.778	2896.69
513.994	2892.69
514.21	3001.69
514.426	3195.69
514.642	3378.69
514.858	2996.69
515.074	2956.69
515.29	2944.69
515.506	2942.69
515.721	2960.69
515.937	2980.69
516.153	2928.69
516.369	3031.69
516.585	2988.69
516.801	3104.69
517.016	3106.69
517.232	3147.69
517.448	3219.69
517.664	3259.69
517.879	3224.69
518.095	3239.69
518.311	3189.69
518.527	3177.69
518.742	3180.69
518.958	3216.69
519.173	3279.69
519.389	3104.69
519.605	2997.69
519.82	2981.69
520.036	2925.69
520.251	2868.69
520.467	2900.69
520.682	2829.69
520.898	2836.69
521.113	2828.69
521.329	2786.69
521.544	2863.69
521.76	2780.69
521.975	2834.69
522.19	2786.69
522.406	2776.69
522.621	2805.69
522.836	2744.69
523.052	2746.69
523.267	2713.69
523.482	2733.69
523.698	2755.69
523.913	2740.69
524.128	2729.69
524.343	2761.69
524.559	2742.69
524.774	2673.69
524.989	2725.69
525.204	2741.69
525.419	2720.69
525.634	2706.69
525.849	2706.69
526.064	2742.69
526.28	2715.69
526.495	2704.69
526.71	2703.69
526.925	2741.69
527.14	2752.69
527.355	2738.69
527.57	2760.69
527.785	2793.69
527.999	2823.69
528.214	2841.69
528.429	2836.69
528.644	2861.69
528.859	2896.69
529.074	2947.69
529.289	2917.69
529.503	2962.69
529.718	2994.69
529.933	2915.69
530.148	2920.69
530.363	2942.69
530.577	2920.69
530.792	2884.69
531.007	2990.69
531.221	2976.69
531.436	2999.69
531.651	2990.69
531.865	3064.69
532.08	3151.69
532.295	3209.69
532.509	3415.69
532.724	3421.69
532.938	3488.69
533.153	3662.69
533.367	3906.69
533.582	4159.69
533.796	4031.69
534.011	3872.69
534.225	3699.69
534.44	3542.69
534.654	3489.69
534.868	3368.69
535.083	3332.69
535.297	3251.69
535.511	3134.69
535.726	3143.69
535.94	3172.69
536.154	2996.69
536.369	3021.69
536.583	2960.69
536.797	2890.69
537.011	2909.69
537.225	2862.69
537.44	2938.69
537.654	2871.69
537.868	2797.69
538.082	2768.69
538.296	2688.69
538.51	2734.69
538.724	2712.69
538.938	2738.69
539.153	2729.69
539.367	2699.69
539.581	2668.69
539.795	2622.69
540.009	2594.69
540.222	2634.69
540.436	2692.69
540.65	2591.69
540.864	2632.69
541.078	2724.69
541.292	2862.69
541.506	3404.69
541.72	3590.69
541.934	3058.69
542.147	2874.69
542.361	2796.69
542.575	2657.69
542.789	2631.69
543.002	2549.69
543.216	2568.69
543.43	2556.69
543.644	2536.69
543.857	2561.69
544.071	2565.69
544.285	2547.69
544.498	2540.69
544.712	2500.69
544.925	2566.69
545.139	2604.69
545.352	2558.69
545.566	2568.69
545.779	2554.69
545.993	2551.69
546.206	2579.69
546.42	2557.69
546.633	2581.69
546.847	2551.69
547.06	2517.69
547.274	2547.69
547.487	2576.69
547.7	2577.69
547.914	2568.69
548.127	2573.69
548.34	2531.69
548.554	2579.69
548.767	2542.69
548.98	2595.69
549.193	2588.69
549.407	2579.69
549.62	2567.69
549.833	2574.69
550.046	2574.69
550.259	2549.69
550.473	2577.69
550.686	2561.69
550.899	2621.69
551.112	2569.69
551.325	2557.69
551.538	2614.69
551.751	2545.69
551.964	2589.69
552.177	2624.69
552.39	2721.69
552.603	2737.69
552.816	2708.69
553.029	2753.69
553.242	2756.69
553.455	2803.69
553.667	2892.69
553.88	2921.69
554.093	2913.69
554.306	2928.69
554.519	2949.69
554.732	2937.69
554.944	3042.69
555.157	3092.69
555.37	3196.69
555.583	3369.69
555.795	3550.69
556.008	3795.69
556.221	4281.69
556.433	4655.69
556.646	4669.69
556.859	4400.69
557.071	4170.69
557.284	4124.69
557.496	3894.69
557.709	3843.69
557.921	3770.69
558.134	3775.69
558.346	3805.69
558.559	4049.69
558.771	4241.69
558.984	4629.69
559.196	5031.69
559.409	4798.69
559.621	4370.69
559.833	4092.69
560.046	3829.69
560.258	3609.69
560.47	3489.69
560.683	3305.69
560.895	3216.69
561.107	3094.69
561.32	2948.69
561.532	2882.69
561.744	2849.69
561.956	2776.69
562.168	2760.69
562.381	2669.69
562.593	2676.69
562.805	2718.69
563.017	2724.69
563.229	2787.69
563.441	3266.69
563.653	2682.69
563.865	2490.69
564.077	2460.69
564.289	2440.69
564.501	2406.69
564.713	2405.69
564.925	2385.69
565.137	2388.69
565.349	2364.69
565.561	2402.69
565.773	2396.69
565.985	2425.69
566.197	2476.69
566.408	2533.69
566.62	2559.69
566.832	2606.69
567.044	2631.69
567.255	2614.69
567.467	2700.69
567.679	2704.69
567.891	2911.69
568.102	3130.69
568.314	3672.69
568.526	3204.69
568.737	2778.69
568.949	2515.69
569.161	2397.69
569.372	2313.69
569.584	2213.69
569.795	2151.69
570.007	2178.69
570.218	2224.69
570.43	2277.69
570.641	2056.69
570.853	2033.69
571.064	1991.69
571.276	2000.69
571.487	1926.69
571.698	1924.69
571.91	1870.69
572.121	1860.69
572.333	1866.69
572.544	1905.69
572.755	1980.69
572.966	2405.69
573.178	2161.69
573.389	1924.69
573.6	1840.69
573.811	1810.69
574.023	1802.69
574.234	1742.69
574.445	1738.69
574.656	1766.69
574.867	1720.69
575.078	1718.69
575.289	1723.69
575.501	1739.69
575.712	1711.69
575.923	1716.69
576.134	1725.69
576.345	1725.69
576.556	1767.69
576.767	1734.69
576.978	1752.69
577.188	1711.69
577.399	1766.69
577.61	1748.69
577.821	1796.69
578.032	1804.69
578.243	1847.69
578.454	1866.69
578.665	1934.69
578.875	1954.69
579.086	2054.69
579.297	2135.69
579.508	2272.69
579.718	2538.69
579.929	2864.69
580.14	3426.69
580.35	3502.69
580.561	3144.69
580.772	2797.69
580.982	2558.69
581.193	2396.69
581.403	2289.69
581.614	2165.69
581.825	2022.69
582.035	1991.69
582.246	1910.69
582.456	1855.69
582.667	1846.69
582.877	1826.69
583.087	1754.69
583.298	1661.69
583.508	1636.69
583.719	1593.69
583.929	1593.69
584.139	1544.69
584.35	1538.69
584.56	1490.69
584.77	1460.69
584.981	1461.69
585.191	1419.69
585.401	1400.69
585.611	1405.69
585.821	1412.69
586.032	1375.69
586.242	1347.69
586.452	1328.69
586.662	1294.69
586.872	1316.69
587.082	1312.69
587.292	1303.69
587.502	1287.69
587.713	1293.69
587.923	1278.69
588.133	1255.69
588.343	1216.69
588.553	1223.69
588.762	1228.69
588.972	1219.69
589.182	1231.69
589.392	1234.69
589.602	1232.69
589.812	1217.69
590.022	1207.69
590.232	1168.69
590.441	1205.69
590.651	1198.69
590.861	1195.69
591.071	1191.69
591.281	1186.69
591.49	1182.69
591.7	1186.69
591.91	1202.69
592.119	1168.69
592.329	1199.69
592.539	1155.69
592.748	1221.69
592.958	1225.69
593.167	1244.69
593.377	1278.69
593.587	1242.69
593.796	1208.69
594.006	1264.69
594.215	1212.69
594.424	1208.69
594.634	1235.69
594.843	1192.69
595.053	1161.69
595.262	1165.69
595.472	1141.69
595.681	1114.69
595.89	1102.69
596.1	1092.69
596.309	1101.69
596.518	1063.69
596.727	1052.69
596.937	1060.69
597.146	1061.69
597.355	1049.69
597.564	988.69
597.774	1004.69
597.983	973.69
598.192	996.69
598.401	1001.69
598.61	963.69
598.819	987.69
599.028	959.69
599.237	968.69
599.446	958.69
599.655	932.69
599.864	959.69
600.073	942.69
600.282	910.69
600.491	952.69
600.7	940.69
600.909	963.69
601.118	952.69
601.327	909.69
601.536	965.69
601.745	988.69
601.953	1088.69
602.162	1263.69
602.371	1075.69
602.58	989.69
602.789	964.69
602.997	946.69
603.206	944.69
603.415	957.69
603.623	942.69
603.832	912.69
604.041	920.69
604.249	896.69
604.458	909.69
604.666	884.69
604.875	897.69
605.084	890.69
605.292	888.69
605.501	917.69
605.709	913.69
605.918	907.69
606.126	904.69
606.334	894.69
606.543	928.69
606.751	1005.69
606.96	1118.69
607.168	1250.69
607.376	1092.69
607.585	990.69
607.793	927.69
608.001	926.69
608.21	905.69
608.418	871.69
608.626	860.69
608.834	870.69
609.043	847.69
609.251	838.69
609.459	860.69
609.667	853.69
609.875	858.69
610.083	845.69
610.291	856.69
610.499	829.69
610.707	847.69
610.916	817.69
611.124	839.69
611.332	822.69
611.54	825.69
611.748	834.69
611.955	822.69
612.163	810.69
612.371	821.69
612.579	814.69
612.787	799.69
612.995	801.69
613.203	805.69
613.411	789.69
613.618	785.69
613.826	780.69
614.034	805.69
614.242	770.69
614.449	797.69
614.657	821.69
614.865	796.69
615.072	800.69
615.28	824.69
615.488	798.69
615.695	814.69
615.903	790.69
616.111	783.69
616.318	774.69
616.526	814.69
616.733	778.69
616.941	788.69
617.148	770.69
617.356	760.69
617.563	757.69
617.771	796.69
617.978	736.69
618.185	745.69
618.393	731.69
618.6	765.69
618.807	744.69
619.015	766.69
619.222	743.69
619.429	743.69
619.637	739.69
619.844	749.69
620.051	728.69
620.258	730.69
620.466	721.69
620.673	684.69
620.88	692.69
621.087	672.69
621.294	718.69
621.501	710.69
621.708	720.69
621.915	712.69
622.122	710.69
622.329	708.69
622.536	693.69
622.743	692.69
622.95	698.69
623.157	671.69
623.364	689.69
623.571	704.69
623.778	681.69
623.985	675.69
624.192	679.69
624.399	674.69
624.606	654.69
624.812	671.69
625.019	670.69
625.226	657.69
625.433	654.69
625.639	633.69
625.846	630.69
626.053	644.69
626.259	648.69
626.466	611.69
626.673	620.69
626.879	612.69
627.086	634.69
627.293	626.69
627.499	643.69
627.706	652.69
627.912	653.69
628.119	644.69
628.325	634.69
628.532	660.69
628.738	627.69
628.945	593.69
629.151	610.69
629.357	617.69
629.564	604.69
629.77	611.69
629.976	612.69
630.183	589.69
630.389	605.69
630.595	618.69
630.802	604.69
631.008	602.69
631.214	576.69
631.42	580.69
631.627	606.69
631.833	571.69
632.039	613.69
632.245	579.69
632.451	588.69
632.657	575.69
632.863	591.69
633.069	581.69
633.275	599.69
633.481	580.69
633.688	584.69
633.893	572.69
634.099	608.69
634.305	596.69
634.511	581.69
634.717	592.69
634.923	627.69
635.129	692.69
635.335	763.69
635.541	704.69
635.747	644.69
635.952	616.69
636.158	601.69
636.364	591.69
636.57	601.69
636.775	600.69
636.981	595.69
637.187	598.69
637.392	565.69
637.598	597.69
637.804	573.69
638.009	590.69
638.215	586.69
638.421	596.69
638.626	591.69
638.832	604.69
639.037	597.69
639.243	583.69
639.448	592.69
639.654	602.69
639.859	610.69
640.065	596.69
640.27	638.69
640.475	614.69
640.681	633.69
640.886	634.69
641.091	628.69
641.297	628.69
641.502	650.69
641.707	655.69
641.913	646.69
642.118	660.69
642.323	663.69
642.528	689.69
642.733	692.69
642.939	712.69
643.144	719.69
643.349	744.69
643.554	790.69
643.759	835.69
643.964	868.69
644.169	927.69
644.374	1005.69
644.579	1081.69
644.784	1218.69
644.989	1369.69
645.194	1610.69
645.399	2038.69
645.604	2186.69
645.809	1593.69
646.014	1182.69
646.219	985.69
646.423	871.69
646.628	786.69
646.833	721.69
647.038	684.69
647.243	640.69
647.447	653.69
647.652	610.69
647.857	592.69
648.062	592.69
648.266	600.69
648.471	570.69
648.676	556.69
648.88	547.69
649.085	529.69
649.289	554.69
649.494	512.69
649.698	527.69
649.903	493.69
650.107	489.69
650.312	490.69
650.516	481.69
650.721	463.69
650.925	445.69
651.13	424.69
651.334	434.69
651.539	450.69
651.743	419.69
651.947	421.69
652.152	434.69
652.356	445.69
652.56	445.69
652.764	517.69
652.969	477.69
653.173	434.69
653.377	414.69
653.581	386.69
653.785	383.69
653.99	378.69
654.194	373.69
654.398	360.69
654.602	358.69
654.806	337.69
655.01	345.69
655.214	348.69
655.418	356.69
655.622	344.69
655.826	338.69
656.03	358.69
656.234	388.69
656.438	376.69
656.642	400.69
656.846	359.69
657.049	366.69
657.253	338.69
657.457	289.69
657.661	293.69
657.865	277.69
658.068	273.69
658.272	262.69
658.476	252.69
658.68	218.69
658.883	217.69
659.087	210.69
659.291	194.69
659.494	180.69
659.698	195.69
659.901	193.69
660.105	167.69
660.309	181.69
660.512	151.69
660.716	141.69
660.919	150.69
661.123	141.69
661.326	137.69
661.53	137.69
661.733	138.69
661.936	108.69
662.14	122.69
662.343	125.69
662.546	112.69
662.75	115.69
662.953	98.69
663.156	86.69
663.36	92.69
663.563	93.69
663.766	88.69
663.969	93.69
664.173	80.69
664.376	93.69
664.579	86.69
664.782	88.69
664.985	86.69
665.188	82.69
665.391	89.69
665.594	82.69
665.797	72.69
666	80.69
666.203	85.69
666.406	72.69
666.609	77.69
666.812	83.69
667.015	61.69
667.218	93.69
667.421	74.69
667.624	79.69
667.827	75.69
668.03	79.69
668.232	79.69
668.435	79.69
668.638	80.69
668.841	80.69
669.043	82.69
669.246	73.69
669.449	81.69
669.651	88.69
669.854	79.69
670.057	80.69
670.259	75.69
670.462	74.69
670.665	80.69
670.867	82.69
671.07	80.69
671.272	93.69
671.475	83.69
671.677	76.69
671.88	68.69
672.082	81.69
672.284	71.69
672.487	76.69
672.689	88.69
672.892	87.69
