Data from SnStandardFlinnAPT0064_LampEnergy10_LIBS07252019.E.O._I.C._HRD10591_15-22-14-494.txt Node
Date: Thu Jul 25 15:22:14 EDT 2019
User: cochatt
Spectrometer: HR+D1059
Trigger mode: 1
Integration Time (sec): 1.000000E-1
Scans to average: 1
Electric dark correction enabled: true
Nonlinearity correction enabled: false
Boxcar width: 0
XAxis mode: Wavelengths
Number of Pixels in Spectrum: 2048
>>>>>Begin Spectral Data<<<<<
223.165	-32.25
223.4	-32.25
223.635	-32.25
223.869	-24.25
224.104	-13.25
224.338	-13.25
224.573	-21.25
224.808	-2.25
225.042	-9.25
225.277	7.75
225.511	-0.25
225.746	-7.25
225.98	10.75
226.215	10.75
226.449	6.75
226.683	33.75
226.918	26.75
227.152	26.75
227.387	37.75
227.621	38.75
227.856	47.75
228.09	30.75
228.324	50.75
228.559	52.75
228.793	129.75
229.027	305.75
229.262	325.75
229.496	291.75
229.73	294.75
229.964	302.75
230.199	288.75
230.433	299.75
230.667	297.75
230.901	318.75
231.136	332.75
231.37	344.75
231.604	386.75
231.838	440.75
232.072	531.75
232.306	559.75
232.541	478.75
232.775	407.75
233.009	402.75
233.243	418.75
233.477	417.75
233.711	491.75
233.945	567.75
234.179	513.75
234.413	458.75
234.647	458.75
234.881	466.75
235.115	508.75
235.349	585.75
235.583	761.75
235.817	942.75
236.051	975.75
236.285	635.75
236.519	521.75
236.753	491.75
236.987	513.75
237.221	534.75
237.455	498.75
237.689	472.75
237.922	455.75
238.156	461.75
238.39	467.75
238.624	485.75
238.858	490.75
239.091	487.75
239.325	484.75
239.559	490.75
239.793	510.75
240.027	520.75
240.26	535.75
240.494	545.75
240.728	600.75
240.961	617.75
241.195	637.75
241.429	666.75
241.662	674.75
241.896	799.75
242.13	934.75
242.363	1231.75
242.597	1547.75
242.83	1523.75
243.064	1444.75
243.298	1768.75
243.531	1461.75
243.765	931.75
243.998	773.75
244.232	691.75
244.465	631.75
244.699	639.75
244.932	649.75
245.166	634.75
245.399	679.75
245.633	641.75
245.866	667.75
246.099	653.75
246.333	637.75
246.566	634.75
246.8	635.75
247.033	632.75
247.266	636.75
247.5	655.75
247.733	662.75
247.966	707.75
248.2	738.75
248.433	858.75
248.666	977.75
248.899	938.75
249.133	815.75
249.366	820.75
249.599	942.75
249.832	1091.75
250.066	1031.75
250.299	860.75
250.532	786.75
250.765	733.75
250.998	734.75
251.231	730.75
251.465	714.75
251.698	736.75
251.931	727.75
252.164	707.75
252.397	741.75
252.63	770.75
252.863	797.75
253.096	773.75
253.329	786.75
253.562	780.75
253.795	765.75
254.028	780.75
254.261	805.75
254.494	889.75
254.727	1017.75
254.96	1225.75
255.193	1230.75
255.426	954.75
255.659	864.75
255.892	842.75
256.124	832.75
256.357	861.75
256.59	905.75
256.823	967.75
257.056	1110.75
257.289	1333.75
257.521	1454.75
257.754	1207.75
257.987	947.75
258.22	894.75
258.452	906.75
258.685	890.75
258.918	929.75
259.151	1000.75
259.383	1074.75
259.616	1179.75
259.849	1225.75
260.081	1081.75
260.314	992.75
260.547	948.75
260.779	923.75
261.012	938.75
261.244	972.75
261.477	978.75
261.71	975.75
261.942	972.75
262.175	1014.75
262.407	1069.75
262.64	1056.75
262.872	1096.75
263.105	1137.75
263.337	1192.75
263.57	1278.75
263.802	1273.75
264.035	1304.75
264.267	1359.75
264.499	1350.75
264.732	1406.75
264.964	1431.75
265.197	1433.75
265.429	1420.75
265.661	1473.75
265.894	1530.75
266.126	1777.75
266.358	1969.75
266.591	1908.75
266.823	1605.75
267.055	1438.75
267.287	1351.75
267.52	1309.75
267.752	1309.75
267.984	1269.75
268.216	1261.75
268.448	1255.75
268.681	1259.75
268.913	1222.75
269.145	1238.75
269.377	1233.75
269.609	1220.75
269.841	1285.75
270.073	1352.75
270.306	1574.75
270.538	2110.75
270.77	3133.75
271.002	3808.75
271.234	2671.75
271.466	1855.75
271.698	1488.75
271.93	1392.75
272.162	1320.75
272.394	1279.75
272.626	1239.75
272.858	1202.75
273.09	1218.75
273.322	1208.75
273.553	1184.75
273.785	1191.75
274.017	1192.75
274.249	1181.75
274.481	1209.75
274.713	1195.75
274.945	1209.75
275.176	1221.75
275.408	1219.75
275.64	1210.75
275.872	1226.75
276.104	1246.75
276.335	1232.75
276.567	1223.75
276.799	1263.75
277.031	1310.75
277.262	1297.75
277.494	1374.75
277.726	1523.75
277.957	1829.75
278.189	2051.75
278.421	1953.75
278.652	1715.75
278.884	1674.75
279.115	1491.75
279.347	1380.75
279.579	1380.75
279.81	1383.75
280.042	1350.75
280.273	1401.75
280.505	1427.75
280.736	1491.75
280.968	1582.75
281.199	1763.75
281.431	2033.75
281.662	2069.75
281.894	1759.75
282.125	1576.75
282.356	1636.75
282.588	1655.75
282.819	1657.75
283.051	1798.75
283.282	1914.75
283.513	2405.75
283.745	3513.75
283.976	5503.75
284.207	7819.75
284.439	7062.75
284.67	4393.75
284.901	3680.75
285.132	3655.75
285.364	3447.75
285.595	2624.75
285.826	2353.75
286.057	2791.75
286.288	3789.75
286.52	5168.75
286.751	4741.75
286.982	2967.75
287.213	2249.75
287.444	1958.75
287.675	1828.75
287.906	1759.75
288.138	1690.75
288.369	1688.75
288.6	1692.75
288.831	1631.75
289.062	1680.75
289.293	1652.75
289.524	1662.75
289.755	1681.75
289.986	1709.75
290.217	1730.75
290.448	1701.75
290.679	1754.75
290.91	1768.75
291.141	1879.75
291.371	1995.75
291.602	2081.75
291.833	1879.75
292.064	1729.75
292.295	1666.75
292.526	1602.75
292.757	1618.75
292.987	1596.75
293.218	1609.75
293.449	1614.75
293.68	1553.75
293.91	1563.75
294.141	1552.75
294.372	1489.75
294.603	1527.75
294.833	1556.75
295.064	1566.75
295.295	1530.75
295.525	1563.75
295.756	1536.75
295.987	1537.75
296.217	1548.75
296.448	1578.75
296.679	1589.75
296.909	1590.75
297.14	1590.75
297.37	1621.75
297.601	1643.75
297.831	1605.75
298.062	1593.75
298.292	1616.75
298.523	1626.75
298.753	1666.75
298.984	1738.75
299.214	1727.75
299.445	1726.75
299.675	1747.75
299.905	1804.75
300.136	1878.75
300.366	2096.75
300.597	2703.75
300.827	3790.75
301.057	5139.75
301.288	5078.75
301.518	3204.75
301.748	2545.75
301.979	2306.75
302.209	2249.75
302.439	2260.75
302.669	2405.75
302.9	2930.75
303.13	4089.75
303.36	5977.75
303.59	8034.75
303.82	6929.75
304.051	4069.75
304.281	2980.75
304.511	2481.75
304.741	2275.75
304.971	2168.75
305.201	2075.75
305.431	1960.75
305.661	1953.75
305.891	1878.75
306.121	1849.75
306.352	1853.75
306.582	1834.75
306.812	1834.75
307.042	1839.75
307.272	1815.75
307.502	1779.75
307.731	1801.75
307.961	1817.75
308.191	1783.75
308.421	1817.75
308.651	1787.75
308.881	1759.75
309.111	1778.75
309.341	1770.75
309.571	1829.75
309.8	1822.75
310.03	1822.75
310.26	1868.75
310.49	1861.75
310.72	1846.75
310.949	1809.75
311.179	1911.75
311.409	1914.75
311.639	1891.75
311.868	1925.75
312.098	1943.75
312.328	1928.75
312.557	1980.75
312.787	1927.75
313.017	1988.75
313.246	1969.75
313.476	2001.75
313.706	2073.75
313.935	2215.75
314.165	2315.75
314.394	2445.75
314.624	2349.75
314.853	2162.75
315.083	2135.75
315.312	2150.75
315.542	2170.75
315.771	2201.75
316.001	2203.75
316.23	2324.75
316.46	2399.75
316.689	2667.75
316.919	3158.75
317.148	4581.75
317.377	6947.75
317.607	10195.75
317.836	10603.75
318.065	6413.75
318.295	4143.75
318.524	3389.75
318.753	2952.75
318.983	2710.75
319.212	2530.75
319.441	2501.75
319.67	2389.75
319.9	2359.75
320.129	2326.75
320.358	2323.75
320.587	2279.75
320.816	2264.75
321.046	2320.75
321.275	2335.75
321.504	2380.75
321.733	2433.75
321.962	2429.75
322.191	2478.75
322.42	2497.75
322.649	2467.75
322.878	2458.75
323.108	2443.75
323.337	2483.75
323.566	2511.75
323.795	2593.75
324.024	2653.75
324.253	2703.75
324.482	2780.75
324.71	2942.75
324.939	3146.75
325.168	3161.75
325.397	3355.75
325.626	3961.75
325.855	5509.75
326.084	8575.75
326.313	12493.75
326.542	13180.75
326.77	8721.75
326.999	5769.75
327.228	4819.75
327.457	4629.75
327.686	4651.75
327.914	5066.75
328.143	5798.75
328.372	6958.75
328.6	7611.75
328.829	6735.75
329.058	5679.75
329.287	4946.75
329.515	4541.75
329.744	4209.75
329.972	3989.75
330.201	3814.75
330.43	3684.75
330.658	3543.75
330.887	3553.75
331.115	3477.75
331.344	3464.75
331.572	3454.75
331.801	3493.75
332.03	3487.75
332.258	3526.75
332.486	3710.75
332.715	4293.75
332.943	5221.75
333.172	6504.75
333.4	6421.75
333.629	4880.75
333.857	4393.75
334.085	4401.75
334.314	4640.75
334.542	4989.75
334.771	5889.75
334.999	7231.75
335.227	9177.75
335.455	10224.75
335.684	9154.75
335.912	7455.75
336.14	6306.75
336.369	5537.75
336.597	5070.75
336.825	4743.75
337.053	4426.75
337.281	4147.75
337.51	3954.75
337.738	3817.75
337.966	3680.75
338.194	3536.75
338.422	3462.75
338.65	3334.75
338.878	3330.75
339.106	3274.75
339.334	3225.75
339.562	3137.75
339.79	3065.75
340.018	3049.75
340.246	3019.75
340.474	3041.75
340.702	3018.75
340.93	3001.75
341.158	2970.75
341.386	2989.75
341.614	2967.75
341.842	2918.75
342.07	2856.75
342.298	2769.75
342.526	2754.75
342.754	2745.75
342.981	2685.75
343.209	2702.75
343.437	2745.75
343.665	2813.75
343.893	2769.75
344.12	2834.75
344.348	2781.75
344.576	2717.75
344.804	2676.75
345.031	2637.75
345.259	2604.75
345.487	2581.75
345.714	2549.75
345.942	2500.75
346.17	2544.75
346.397	2470.75
346.625	2523.75
346.853	2511.75
347.08	2517.75
347.308	2511.75
347.535	2495.75
347.763	2522.75
347.99	2470.75
348.218	2471.75
348.445	2447.75
348.673	2400.75
348.9	2453.75
349.128	2432.75
349.355	2417.75
349.583	2442.75
349.81	2418.75
350.037	2436.75
350.265	2376.75
350.492	2385.75
350.72	2409.75
350.947	2387.75
351.174	2413.75
351.402	2363.75
351.629	2359.75
351.856	2410.75
352.083	2327.75
352.311	2370.75
352.538	2395.75
352.765	2434.75
352.992	2389.75
353.22	2387.75
353.447	2380.75
353.674	2355.75
353.901	2353.75
354.128	2397.75
354.355	2381.75
354.583	2355.75
354.81	2369.75
355.037	2421.75
355.264	2418.75
355.491	2374.75
355.718	2421.75
355.945	2435.75
356.172	2466.75
356.399	2435.75
356.626	2463.75
356.853	2523.75
357.08	2463.75
357.307	2473.75
357.534	2527.75
357.761	2563.75
357.988	2557.75
358.215	2544.75
358.441	2524.75
358.668	2502.75
358.895	2522.75
359.122	2523.75
359.349	2505.75
359.576	2485.75
359.802	2516.75
360.029	2507.75
360.256	2544.75
360.483	2541.75
360.709	2557.75
360.936	2542.75
361.163	2547.75
361.39	2520.75
361.616	2558.75
361.843	2531.75
362.07	2523.75
362.296	2544.75
362.523	2561.75
362.749	2590.75
362.976	2568.75
363.203	2518.75
363.429	2495.75
363.656	2513.75
363.882	2546.75
364.109	2527.75
364.335	2547.75
364.562	2531.75
364.788	2554.75
365.015	2572.75
365.241	2605.75
365.468	2803.75
365.694	2926.75
365.92	2821.75
366.147	2651.75
366.373	2589.75
366.599	2621.75
366.826	2573.75
367.052	2585.75
367.278	2565.75
367.505	2665.75
367.731	2593.75
367.957	2645.75
368.184	2625.75
368.41	2698.75
368.636	2648.75
368.862	2629.75
369.089	2625.75
369.315	2666.75
369.541	2600.75
369.767	2645.75
369.993	2642.75
370.219	2598.75
370.445	2622.75
370.672	2655.75
370.898	2625.75
371.124	2683.75
371.35	2688.75
371.576	2711.75
371.802	2760.75
372.028	2757.75
372.254	2731.75
372.48	2722.75
372.706	2789.75
372.932	2770.75
373.158	2788.75
373.384	2788.75
373.61	2753.75
373.835	2766.75
374.061	2804.75
374.287	2823.75
374.513	2869.75
374.739	2895.75
374.965	2896.75
375.191	2904.75
375.416	2889.75
375.642	2868.75
375.868	2858.75
376.094	2821.75
376.319	2751.75
376.545	2817.75
376.771	2707.75
376.997	2712.75
377.222	2738.75
377.448	2705.75
377.674	2726.75
377.899	2718.75
378.125	2705.75
378.35	2679.75
378.576	2753.75
378.802	2760.75
379.027	2825.75
379.253	2838.75
379.478	3021.75
379.704	3545.75
379.929	5142.75
380.155	7763.75
380.38	8473.75
380.606	5151.75
380.831	3699.75
381.057	3205.75
381.282	2964.75
381.507	2820.75
381.733	2755.75
381.958	2783.75
382.184	2739.75
382.409	2690.75
382.634	2679.75
382.86	2703.75
383.085	2679.75
383.31	2661.75
383.535	2661.75
383.761	2628.75
383.986	2705.75
384.211	2714.75
384.436	2696.75
384.662	2711.75
384.887	2729.75
385.112	2719.75
385.337	2777.75
385.562	2740.75
385.787	2785.75
386.013	2800.75
386.238	2783.75
386.463	2801.75
386.688	2769.75
386.913	2707.75
387.138	2770.75
387.363	2776.75
387.588	2697.75
387.813	2746.75
388.038	2742.75
388.263	2790.75
388.488	2753.75
388.713	2728.75
388.938	2726.75
389.163	2697.75
389.387	2747.75
389.612	2737.75
389.837	2788.75
390.062	2769.75
390.287	2805.75
390.512	2817.75
390.736	2834.75
390.961	2885.75
391.186	2872.75
391.411	2909.75
391.636	2975.75
391.86	2889.75
392.085	2877.75
392.31	2857.75
392.534	2871.75
392.759	2853.75
392.984	2830.75
393.208	2849.75
393.433	2891.75
393.658	2837.75
393.882	2793.75
394.107	2799.75
394.331	2840.75
394.556	2822.75
394.78	2813.75
395.005	2874.75
395.229	2793.75
395.454	2869.75
395.678	2833.75
395.903	2831.75
396.127	2845.75
396.352	2851.75
396.576	2826.75
396.801	2861.75
397.025	2890.75
397.249	2886.75
397.474	2906.75
397.698	2903.75
397.922	2947.75
398.147	2929.75
398.371	2951.75
398.595	2952.75
398.82	3035.75
399.044	3195.75
399.268	3302.75
399.492	3486.75
399.717	3656.75
399.941	3649.75
400.165	3454.75
400.389	3380.75
400.613	3229.75
400.837	3168.75
401.062	3088.75
401.286	3077.75
401.51	3070.75
401.734	3015.75
401.958	3072.75
402.182	3064.75
402.406	3046.75
402.63	3124.75
402.854	3142.75
403.078	3115.75
403.302	3119.75
403.526	3157.75
403.75	3171.75
403.974	3106.75
404.198	3167.75
404.422	3175.75
404.645	3156.75
404.869	3118.75
405.093	3224.75
405.317	3211.75
405.541	3197.75
405.765	3238.75
405.988	3258.75
406.212	3209.75
406.436	3188.75
406.66	3320.75
406.883	3222.75
407.107	3417.75
407.331	3394.75
407.555	3466.75
407.778	3405.75
408.002	3345.75
408.226	3346.75
408.449	3440.75
408.673	3353.75
408.896	3287.75
409.12	3215.75
409.344	3221.75
409.567	3187.75
409.791	3208.75
410.014	3156.75
410.238	3153.75
410.461	3159.75
410.685	3159.75
410.908	3076.75
411.132	3107.75
411.355	2987.75
411.578	3071.75
411.802	3041.75
412.025	3040.75
412.249	3037.75
412.472	3032.75
412.695	3023.75
412.919	2932.75
413.142	3005.75
413.365	3017.75
413.589	2993.75
413.812	2982.75
414.035	2963.75
414.258	2974.75
414.482	2937.75
414.705	2934.75
414.928	2954.75
415.151	2982.75
415.374	2980.75
415.597	2920.75
415.821	2819.75
416.044	2853.75
416.267	2871.75
416.49	2837.75
416.713	2840.75
416.936	2860.75
417.159	2827.75
417.382	2879.75
417.605	2826.75
417.828	2863.75
418.051	2855.75
418.274	2916.75
418.497	2883.75
418.72	3004.75
418.943	2889.75
419.166	3055.75
419.389	3213.75
419.611	3159.75
419.834	3005.75
420.057	2989.75
420.28	2922.75
420.503	2861.75
420.726	2848.75
420.948	2903.75
421.171	2876.75
421.394	2834.75
421.617	2853.75
421.839	2874.75
422.062	2833.75
422.285	2904.75
422.507	2897.75
422.73	2970.75
422.953	2969.75
423.175	2959.75
423.398	2955.75
423.621	2902.75
423.843	2882.75
424.066	2889.75
424.288	2838.75
424.511	2856.75
424.733	2838.75
424.956	2754.75
425.178	2829.75
425.401	2821.75
425.623	2832.75
425.846	2785.75
426.068	2745.75
426.291	2780.75
426.513	2778.75
426.735	2714.75
426.958	2721.75
427.18	2696.75
427.402	2678.75
427.625	2676.75
427.847	2666.75
428.069	2673.75
428.292	2697.75
428.514	2631.75
428.736	2641.75
428.958	2657.75
429.181	2613.75
429.403	2657.75
429.625	2629.75
429.847	2678.75
430.069	2717.75
430.292	2735.75
430.514	2807.75
430.736	2832.75
430.958	2677.75
431.18	2669.75
431.402	2631.75
431.624	2593.75
431.846	2595.75
432.068	2556.75
432.29	2639.75
432.512	2596.75
432.734	2607.75
432.956	2619.75
433.178	2562.75
433.4	2646.75
433.622	2687.75
433.844	2685.75
434.066	2635.75
434.287	2598.75
434.509	2677.75
434.731	2656.75
434.953	2698.75
435.175	2714.75
435.397	2742.75
435.618	2714.75
435.84	2636.75
436.062	2600.75
436.284	2558.75
436.505	2622.75
436.727	2614.75
436.949	2599.75
437.17	2587.75
437.392	2552.75
437.614	2561.75
437.835	2472.75
438.057	2555.75
438.278	2528.75
438.5	2544.75
438.721	2601.75
438.943	2680.75
439.165	2735.75
439.386	2743.75
439.608	2696.75
439.829	2709.75
440.05	2788.75
440.272	2832.75
440.493	2727.75
440.715	2667.75
440.936	2678.75
441.158	2796.75
441.379	2733.75
441.6	2888.75
441.822	2888.75
442.043	3024.75
442.264	3155.75
442.486	2943.75
442.707	2905.75
442.928	2822.75
443.149	2801.75
443.371	2750.75
443.592	2807.75
443.813	2809.75
444.034	2856.75
444.255	2874.75
444.476	2908.75
444.698	2951.75
444.919	3023.75
445.14	3081.75
445.361	2937.75
445.582	2896.75
445.803	2790.75
446.024	2803.75
446.245	2809.75
446.466	2759.75
446.687	2745.75
446.908	2713.75
447.129	2654.75
447.35	2618.75
447.571	2634.75
447.792	2593.75
448.013	2590.75
448.234	2560.75
448.455	2582.75
448.675	2595.75
448.896	2650.75
449.117	2759.75
449.338	2977.75
449.559	3091.75
449.779	2793.75
450	2577.75
450.221	2544.75
450.442	2560.75
450.662	2553.75
450.883	2506.75
451.104	2511.75
451.324	2536.75
451.545	2545.75
451.766	2554.75
451.986	2623.75
452.207	2784.75
452.428	3580.75
452.648	5430.75
452.869	4487.75
453.089	3091.75
453.31	2882.75
453.53	2943.75
453.751	2988.75
453.971	3144.75
454.192	3038.75
454.412	2676.75
454.633	2441.75
454.853	2489.75
455.073	2420.75
455.294	2445.75
455.514	2443.75
455.734	2401.75
455.955	2357.75
456.175	2425.75
456.395	2413.75
456.616	2423.75
456.836	2490.75
457.056	2489.75
457.276	2502.75
457.497	2622.75
457.717	2624.75
457.937	2555.75
458.157	2503.75
458.377	2544.75
458.598	2625.75
458.818	2591.75
459.038	2612.75
459.258	2605.75
459.478	2640.75
459.698	2660.75
459.918	2693.75
460.138	2721.75
460.358	2782.75
460.578	2857.75
460.798	2854.75
461.018	2817.75
461.238	2885.75
461.458	2890.75
461.678	2897.75
461.898	2917.75
462.118	2971.75
462.338	3093.75
462.558	3037.75
462.777	3083.75
462.997	3256.75
463.217	3363.75
463.437	3505.75
463.657	3575.75
463.876	3562.75
464.096	3299.75
464.316	3211.75
464.536	3102.75
464.755	3048.75
464.975	2991.75
465.195	2923.75
465.414	2842.75
465.634	2735.75
465.854	2725.75
466.073	2716.75
466.293	2691.75
466.512	2632.75
466.732	2667.75
466.951	2818.75
467.171	2985.75
467.391	2910.75
467.61	2695.75
467.829	2573.75
468.049	2624.75
468.268	2527.75
468.488	2521.75
468.707	2559.75
468.927	2611.75
469.146	2533.75
469.365	2561.75
469.585	2615.75
469.804	2665.75
470.023	2705.75
470.243	2714.75
470.462	2831.75
470.681	2949.75
470.901	3237.75
471.12	3738.75
471.339	3649.75
471.558	3134.75
471.777	2806.75
471.997	2744.75
472.216	2689.75
472.435	2666.75
472.654	2621.75
472.873	2597.75
473.092	2587.75
473.311	2602.75
473.53	2642.75
473.749	2696.75
473.968	2760.75
474.187	2638.75
474.406	2500.75
474.625	2571.75
474.844	2566.75
475.063	2625.75
475.282	2569.75
475.501	2590.75
475.72	2645.75
475.939	2654.75
476.158	2737.75
476.377	2789.75
476.596	2727.75
476.814	2738.75
477.033	2705.75
477.252	2749.75
477.471	2817.75
477.69	2864.75
477.908	2882.75
478.127	2922.75
478.346	2878.75
478.564	3014.75
478.783	3008.75
479.002	3093.75
479.22	3095.75
479.439	3094.75
479.658	3106.75
479.876	3148.75
480.095	3128.75
480.313	3177.75
480.532	3283.75
480.751	3245.75
480.969	3159.75
481.188	3091.75
481.406	3133.75
481.624	3150.75
481.843	3168.75
482.061	3201.75
482.28	3158.75
482.498	3145.75
482.717	3091.75
482.935	3155.75
483.153	3195.75
483.372	3225.75
483.59	3269.75
483.808	3313.75
484.027	3394.75
484.245	3611.75
484.463	3965.75
484.681	4446.75
484.9	4033.75
485.118	3742.75
485.336	3723.75
485.554	3736.75
485.772	3974.75
485.99	4427.75
486.209	4800.75
486.427	4095.75
486.645	3609.75
486.863	3492.75
487.081	3386.75
487.299	3403.75
487.517	3362.75
487.735	3360.75
487.953	3307.75
488.171	3310.75
488.389	3279.75
488.607	3286.75
488.825	3223.75
489.043	3176.75
489.261	3211.75
489.479	3268.75
489.696	3266.75
489.914	3186.75
490.132	3193.75
490.35	3299.75
490.568	3249.75
490.786	3284.75
491.003	3325.75
491.221	3351.75
491.439	3403.75
491.657	3351.75
491.874	3349.75
492.092	3413.75
492.31	3354.75
492.527	3383.75
492.745	3368.75
492.963	3392.75
493.18	3378.75
493.398	3378.75
493.615	3310.75
493.833	3369.75
494.05	3394.75
494.268	3443.75
494.485	3473.75
494.703	3419.75
494.92	3405.75
495.138	3400.75
495.355	3373.75
495.573	3396.75
495.79	3437.75
496.008	3411.75
496.225	3445.75
496.442	3518.75
496.66	3613.75
496.877	3865.75
497.094	3790.75
497.312	3665.75
497.529	3687.75
497.746	3734.75
497.963	3792.75
498.181	3844.75
498.398	3866.75
498.615	4048.75
498.832	4259.75
499.049	4430.75
499.267	4732.75
499.484	5026.75
499.701	5000.75
499.918	5146.75
500.135	5434.75
500.352	5725.75
500.569	5803.75
500.786	5674.75
501.003	5581.75
501.22	5237.75
501.437	5011.75
501.654	4737.75
501.871	4501.75
502.088	4385.75
502.305	4209.75
502.522	4114.75
502.739	4029.75
502.956	3847.75
503.172	3775.75
503.389	3696.75
503.606	3709.75
503.823	3568.75
504.04	3582.75
504.256	3572.75
504.473	3511.75
504.69	3507.75
504.907	3502.75
505.123	3403.75
505.34	3349.75
505.557	3281.75
505.773	3207.75
505.99	3161.75
506.207	3129.75
506.423	3169.75
506.64	3061.75
506.856	3067.75
507.073	3101.75
507.289	3046.75
507.506	3032.75
507.722	2958.75
507.939	2951.75
508.155	2936.75
508.372	2942.75
508.588	2931.75
508.805	2919.75
509.021	2997.75
509.238	2991.75
509.454	3160.75
509.67	3309.75
509.887	3160.75
510.103	2995.75
510.319	2940.75
510.536	2874.75
510.752	2879.75
510.968	2901.75
511.184	2815.75
511.401	2843.75
511.617	2813.75
511.833	2833.75
512.049	2805.75
512.265	2823.75
512.481	2832.75
512.698	2813.75
512.914	2862.75
513.13	2813.75
513.346	2785.75
513.562	2864.75
513.778	2807.75
513.994	2881.75
514.21	2967.75
514.426	3094.75
514.642	3266.75
514.858	2973.75
515.074	2903.75
515.29	2874.75
515.506	2901.75
515.721	2951.75
515.937	2907.75
516.153	2897.75
516.369	2939.75
516.585	2979.75
516.801	3005.75
517.016	3045.75
517.232	3125.75
517.448	3104.75
517.664	3245.75
517.879	3189.75
518.095	3198.75
518.311	3222.75
518.527	3150.75
518.742	3141.75
518.958	3173.75
519.173	3232.75
519.389	3119.75
519.605	2993.75
519.82	2951.75
520.036	2932.75
520.251	2858.75
520.467	2794.75
520.682	2801.75
520.898	2781.75
521.113	2746.75
521.329	2779.75
521.544	2775.75
521.76	2780.75
521.975	2792.75
522.19	2791.75
522.406	2820.75
522.621	2718.75
522.836	2739.75
523.052	2759.75
523.267	2687.75
523.482	2659.75
523.698	2697.75
523.913	2672.75
524.128	2719.75
524.343	2676.75
524.559	2660.75
524.774	2663.75
524.989	2677.75
525.204	2656.75
525.419	2683.75
525.634	2668.75
525.849	2678.75
526.064	2709.75
526.28	2683.75
526.495	2695.75
526.71	2748.75
526.925	2694.75
527.14	2709.75
527.355	2734.75
527.57	2710.75
527.785	2728.75
527.999	2749.75
528.214	2759.75
528.429	2753.75
528.644	2792.75
528.859	2785.75
529.074	2826.75
529.289	2909.75
529.503	2882.75
529.718	2882.75
529.933	2859.75
530.148	2849.75
530.363	2836.75
530.577	2820.75
530.792	2898.75
531.007	2936.75
531.221	2927.75
531.436	2910.75
531.651	2949.75
531.865	3021.75
532.08	3029.75
532.295	3150.75
532.509	3344.75
532.724	3341.75
532.938	3389.75
533.153	3519.75
533.367	3779.75
533.582	4008.75
533.796	3894.75
534.011	3727.75
534.225	3527.75
534.44	3450.75
534.654	3336.75
534.868	3283.75
535.083	3241.75
535.297	3158.75
535.511	3099.75
535.726	3071.75
535.94	3063.75
536.154	2932.75
536.369	2937.75
536.583	2887.75
536.797	2855.75
537.011	2845.75
537.225	2782.75
537.44	2820.75
537.654	2773.75
537.868	2769.75
538.082	2707.75
538.296	2735.75
538.51	2692.75
538.724	2710.75
538.938	2663.75
539.153	2646.75
539.367	2658.75
539.581	2622.75
539.795	2596.75
540.009	2607.75
540.222	2636.75
540.436	2569.75
540.65	2575.75
540.864	2592.75
541.078	2689.75
541.292	2816.75
541.506	3269.75
541.72	3410.75
541.934	3018.75
542.147	2815.75
542.361	2693.75
542.575	2666.75
542.789	2599.75
543.002	2495.75
543.216	2499.75
543.43	2487.75
543.644	2479.75
543.857	2485.75
544.071	2513.75
544.285	2534.75
544.498	2483.75
544.712	2499.75
544.925	2486.75
545.139	2496.75
545.352	2552.75
545.566	2506.75
545.779	2485.75
545.993	2540.75
546.206	2503.75
546.42	2537.75
546.633	2547.75
546.847	2480.75
547.06	2521.75
547.274	2523.75
547.487	2487.75
547.7	2517.75
547.914	2480.75
548.127	2579.75
548.34	2543.75
548.554	2485.75
548.767	2536.75
548.98	2478.75
549.193	2526.75
549.407	2568.75
549.62	2564.75
549.833	2527.75
550.046	2519.75
550.259	2530.75
550.473	2548.75
550.686	2494.75
550.899	2542.75
551.112	2536.75
551.325	2514.75
551.538	2543.75
551.751	2567.75
551.964	2521.75
552.177	2552.75
552.39	2589.75
552.603	2621.75
552.816	2682.75
553.029	2659.75
553.242	2722.75
553.455	2783.75
553.667	2780.75
553.88	2834.75
554.093	2788.75
554.306	2790.75
554.519	2833.75
554.732	2895.75
554.944	2931.75
555.157	2974.75
555.37	3064.75
555.583	3162.75
555.795	3359.75
556.008	3669.75
556.221	4062.75
556.433	4417.75
556.646	4401.75
556.859	4154.75
557.071	4025.75
557.284	3901.75
557.496	3721.75
557.709	3626.75
557.921	3644.75
558.134	3570.75
558.346	3595.75
558.559	3812.75
558.771	4012.75
558.984	4374.75
559.196	4794.75
559.409	4561.75
559.621	4160.75
559.833	3861.75
560.046	3668.75
560.258	3383.75
560.47	3268.75
560.683	3173.75
560.895	3060.75
561.107	2946.75
561.32	2853.75
561.532	2781.75
561.744	2672.75
561.956	2679.75
562.168	2643.75
562.381	2679.75
562.593	2633.75
562.805	2669.75
563.017	2644.75
563.229	2675.75
563.441	3121.75
563.653	2644.75
563.865	2449.75
564.077	2393.75
564.289	2382.75
564.501	2341.75
564.713	2376.75
564.925	2307.75
565.137	2315.75
565.349	2357.75
565.561	2333.75
565.773	2369.75
565.985	2361.75
566.197	2403.75
566.408	2417.75
566.62	2536.75
566.832	2578.75
567.044	2569.75
567.255	2547.75
567.467	2627.75
567.679	2705.75
567.891	2789.75
568.102	3062.75
568.314	3595.75
568.526	3038.75
568.737	2689.75
568.949	2442.75
569.161	2332.75
569.372	2249.75
569.584	2155.75
569.795	2114.75
570.007	2054.75
570.218	2147.75
570.43	2235.75
570.641	2025.75
570.853	2020.75
571.064	1935.75
571.276	1927.75
571.487	1925.75
571.698	1904.75
571.91	1881.75
572.121	1826.75
572.333	1844.75
572.544	1838.75
572.755	1972.75
572.966	2322.75
573.178	2090.75
573.389	1884.75
573.6	1799.75
573.811	1768.75
574.023	1706.75
574.234	1714.75
574.445	1739.75
574.656	1700.75
574.867	1670.75
575.078	1659.75
575.289	1666.75
575.501	1699.75
575.712	1693.75
575.923	1662.75
576.134	1655.75
576.345	1711.75
576.556	1715.75
576.767	1673.75
576.978	1715.75
577.188	1671.75
577.399	1702.75
577.61	1710.75
577.821	1742.75
578.032	1732.75
578.243	1754.75
578.454	1851.75
578.665	1854.75
578.875	1914.75
579.086	1974.75
579.297	2047.75
579.508	2136.75
579.718	2389.75
579.929	2755.75
580.14	3273.75
580.35	3265.75
580.561	2931.75
580.772	2655.75
580.982	2470.75
581.193	2327.75
581.403	2167.75
581.614	2058.75
581.825	1973.75
582.035	1906.75
582.246	1850.75
582.456	1795.75
582.667	1760.75
582.877	1757.75
583.087	1696.75
583.298	1611.75
583.508	1569.75
583.719	1557.75
583.929	1517.75
584.139	1515.75
584.35	1449.75
584.56	1424.75
584.77	1434.75
584.981	1416.75
585.191	1397.75
585.401	1364.75
585.611	1347.75
585.821	1378.75
586.032	1344.75
586.242	1358.75
586.452	1338.75
586.662	1293.75
586.872	1283.75
587.082	1281.75
587.292	1245.75
587.502	1235.75
587.713	1215.75
587.923	1256.75
588.133	1199.75
588.343	1210.75
588.553	1219.75
588.762	1226.75
588.972	1159.75
589.182	1210.75
589.392	1226.75
589.602	1187.75
589.812	1145.75
590.022	1178.75
590.232	1173.75
590.441	1171.75
590.651	1163.75
590.861	1180.75
591.071	1154.75
591.281	1164.75
591.49	1165.75
591.7	1178.75
591.91	1207.75
592.119	1189.75
592.329	1201.75
592.539	1197.75
592.748	1218.75
592.958	1189.75
593.167	1205.75
593.377	1225.75
593.587	1257.75
593.796	1176.75
594.006	1203.75
594.215	1226.75
594.424	1213.75
594.634	1194.75
594.843	1139.75
595.053	1153.75
595.262	1131.75
595.472	1140.75
595.681	1089.75
595.89	1107.75
596.1	1077.75
596.309	1046.75
596.518	1045.75
596.727	1039.75
596.937	1038.75
597.146	1037.75
597.355	1037.75
597.564	997.75
597.774	1002.75
597.983	964.75
598.192	951.75
598.401	963.75
598.61	951.75
598.819	946.75
599.028	960.75
599.237	953.75
599.446	958.75
599.655	959.75
599.864	964.75
600.073	934.75
600.282	937.75
600.491	941.75
600.7	914.75
600.909	902.75
601.118	922.75
601.327	943.75
601.536	928.75
601.745	964.75
601.953	1069.75
602.162	1190.75
602.371	1058.75
602.58	1003.75
602.789	951.75
602.997	918.75
603.206	912.75
603.415	921.75
603.623	907.75
603.832	910.75
604.041	921.75
604.249	900.75
604.458	891.75
604.666	889.75
604.875	874.75
605.084	866.75
605.292	891.75
605.501	897.75
605.709	913.75
605.918	883.75
606.126	897.75
606.334	906.75
606.543	894.75
606.751	991.75
606.96	1101.75
607.168	1205.75
607.376	1060.75
607.585	951.75
607.793	923.75
608.001	908.75
608.21	892.75
608.418	897.75
608.626	861.75
608.834	894.75
609.043	871.75
609.251	856.75
609.459	863.75
609.667	850.75
609.875	833.75
610.083	814.75
610.291	794.75
610.499	829.75
610.707	827.75
610.916	816.75
611.124	822.75
611.332	813.75
611.54	823.75
611.748	798.75
611.955	829.75
612.163	790.75
612.371	778.75
612.579	782.75
612.787	809.75
612.995	779.75
613.203	814.75
613.411	799.75
613.618	777.75
613.826	804.75
614.034	794.75
614.242	775.75
614.449	790.75
614.657	789.75
614.865	791.75
615.072	822.75
615.28	819.75
615.488	784.75
615.695	798.75
615.903	793.75
616.111	808.75
616.318	777.75
616.526	778.75
616.733	779.75
616.941	765.75
617.148	773.75
617.356	756.75
617.563	759.75
617.771	765.75
617.978	755.75
618.185	766.75
618.393	751.75
618.6	742.75
618.807	740.75
619.015	741.75
619.222	743.75
619.429	723.75
619.637	723.75
619.844	727.75
620.051	730.75
620.258	709.75
620.466	706.75
620.673	675.75
620.88	693.75
621.087	723.75
621.294	687.75
621.501	690.75
621.708	669.75
621.915	681.75
622.122	691.75
622.329	689.75
622.536	721.75
622.743	703.75
622.95	688.75
623.157	690.75
623.364	673.75
623.571	682.75
623.778	688.75
623.985	677.75
624.192	676.75
624.399	677.75
624.606	680.75
624.812	658.75
625.019	661.75
625.226	661.75
625.433	633.75
625.639	650.75
625.846	643.75
626.053	642.75
626.259	601.75
626.466	623.75
626.673	630.75
626.879	628.75
627.086	640.75
627.293	635.75
627.499	631.75
627.706	629.75
627.912	605.75
628.119	621.75
628.325	631.75
628.532	638.75
628.738	633.75
628.945	618.75
629.151	617.75
629.357	638.75
629.564	599.75
629.77	579.75
629.976	589.75
630.183	594.75
630.389	610.75
630.595	595.75
630.802	594.75
631.008	599.75
631.214	587.75
631.42	586.75
631.627	605.75
631.833	601.75
632.039	585.75
632.245	593.75
632.451	580.75
632.657	575.75
632.863	575.75
633.069	575.75
633.275	584.75
633.481	584.75
633.688	582.75
633.893	560.75
634.099	571.75
634.305	597.75
634.511	586.75
634.717	574.75
634.923	592.75
635.129	667.75
635.335	747.75
635.541	679.75
635.747	612.75
635.952	596.75
636.158	595.75
636.364	569.75
636.57	579.75
636.775	581.75
636.981	585.75
637.187	559.75
637.392	572.75
637.598	578.75
637.804	599.75
638.009	586.75
638.215	584.75
638.421	562.75
638.626	585.75
638.832	564.75
639.037	599.75
639.243	573.75
639.448	574.75
639.654	583.75
639.859	598.75
640.065	593.75
640.27	605.75
640.475	606.75
640.681	613.75
640.886	622.75
641.091	628.75
641.297	624.75
641.502	623.75
641.707	629.75
641.913	628.75
642.118	626.75
642.323	652.75
642.528	667.75
642.733	663.75
642.939	705.75
643.144	701.75
643.349	730.75
643.554	745.75
643.759	780.75
643.964	821.75
644.169	884.75
644.374	937.75
644.579	1035.75
644.784	1133.75
644.989	1270.75
645.194	1541.75
645.399	1883.75
645.604	2004.75
645.809	1491.75
646.014	1150.75
646.219	932.75
646.423	850.75
646.628	760.75
646.833	707.75
647.038	661.75
647.243	645.75
647.447	613.75
647.652	606.75
647.857	564.75
648.062	579.75
648.266	591.75
648.471	549.75
648.676	529.75
648.88	517.75
649.085	540.75
649.289	523.75
649.494	511.75
649.698	498.75
649.903	489.75
650.107	479.75
650.312	491.75
650.516	460.75
650.721	452.75
650.925	442.75
651.13	420.75
651.334	437.75
651.539	423.75
651.743	427.75
651.947	413.75
652.152	427.75
652.356	422.75
652.56	443.75
652.764	493.75
652.969	459.75
653.173	422.75
653.377	398.75
653.581	367.75
653.785	365.75
653.99	353.75
654.194	354.75
654.398	361.75
654.602	352.75
654.806	354.75
655.01	344.75
655.214	356.75
655.418	339.75
655.622	338.75
655.826	339.75
656.03	346.75
656.234	370.75
656.438	354.75
656.642	382.75
656.846	379.75
657.049	333.75
657.253	326.75
657.457	316.75
657.661	277.75
657.865	277.75
658.068	253.75
658.272	228.75
658.476	225.75
658.68	236.75
658.883	228.75
659.087	215.75
659.291	197.75
659.494	201.75
659.698	185.75
659.901	171.75
660.105	166.75
660.309	156.75
660.512	166.75
660.716	162.75
660.919	130.75
661.123	140.75
661.326	141.75
661.53	126.75
661.733	128.75
661.936	116.75
662.14	126.75
662.343	114.75
662.546	120.75
662.75	111.75
662.953	114.75
663.156	111.75
663.36	83.75
663.563	86.75
663.766	92.75
663.969	83.75
664.173	98.75
664.376	95.75
664.579	73.75
664.782	87.75
664.985	79.75
665.188	96.75
665.391	87.75
665.594	98.75
665.797	80.75
666	92.75
666.203	86.75
666.406	82.75
666.609	82.75
666.812	80.75
667.015	78.75
667.218	71.75
667.421	93.75
667.624	79.75
667.827	78.75
668.03	92.75
668.232	82.75
668.435	83.75
668.638	98.75
668.841	98.75
669.043	87.75
669.246	67.75
669.449	85.75
669.651	98.75
669.854	81.75
670.057	86.75
670.259	79.75
670.462	82.75
670.665	75.75
670.867	72.75
671.07	81.75
671.272	91.75
671.475	89.75
671.677	86.75
671.88	87.75
672.082	81.75
672.284	74.75
672.487	76.75
672.689	91.75
672.892	78.75
