Data from SnStandardFlinnAPT0064_LampEnergy5.5_LIBS07252019.E.O._I.C._HRD10591_15-16-20-491.txt Node
Date: Thu Jul 25 15:16:20 EDT 2019
User: cochatt
Spectrometer: HR+D1059
Trigger mode: 1
Integration Time (sec): 1.000000E-1
Scans to average: 1
Electric dark correction enabled: true
Nonlinearity correction enabled: false
Boxcar width: 0
XAxis mode: Wavelengths
Number of Pixels in Spectrum: 2048
>>>>>Begin Spectral Data<<<<<
223.165	-0.31
223.4	-0.31
223.635	-0.31
223.869	-24.31
224.104	-14.31
224.338	-23.31
224.573	-10.31
224.808	-20.31
225.042	4.69
225.277	-7.31
225.511	1.69
225.746	8.69
225.98	-4.31
226.215	-8.31
226.449	4.69
226.683	39.69
226.918	20.69
227.152	32.69
227.387	36.69
227.621	42.69
227.856	41.69
228.09	40.69
228.324	50.69
228.559	50.69
228.793	88.69
229.027	150.69
229.262	163.69
229.496	136.69
229.73	150.69
229.964	158.69
230.199	167.69
230.433	141.69
230.667	173.69
230.901	167.69
231.136	183.69
231.37	164.69
231.604	170.69
231.838	203.69
232.072	230.69
232.306	228.69
232.541	221.69
232.775	206.69
233.009	205.69
233.243	196.69
233.477	210.69
233.711	242.69
233.945	265.69
234.179	256.69
234.413	212.69
234.647	217.69
234.881	218.69
235.115	229.69
235.349	280.69
235.583	330.69
235.817	419.69
236.051	398.69
236.285	287.69
236.519	235.69
236.753	241.69
236.987	241.69
237.221	251.69
237.455	259.69
237.689	222.69
237.922	228.69
238.156	206.69
238.39	228.69
238.624	240.69
238.858	232.69
239.091	240.69
239.325	213.69
239.559	222.69
239.793	235.69
240.027	247.69
240.26	242.69
240.494	255.69
240.728	261.69
240.961	281.69
241.195	299.69
241.429	276.69
241.662	308.69
241.896	323.69
242.13	375.69
242.363	493.69
242.597	622.69
242.83	608.69
243.064	605.69
243.298	704.69
243.531	592.69
243.765	395.69
243.998	334.69
244.232	304.69
244.465	293.69
244.699	284.69
244.932	304.69
245.166	309.69
245.399	289.69
245.633	311.69
245.866	292.69
246.099	286.69
246.333	298.69
246.566	280.69
246.8	300.69
247.033	283.69
247.266	287.69
247.5	299.69
247.733	316.69
247.966	341.69
248.2	340.69
248.433	339.69
248.666	384.69
248.899	392.69
249.133	372.69
249.366	380.69
249.599	404.69
249.832	436.69
250.066	439.69
250.299	362.69
250.532	345.69
250.765	342.69
250.998	339.69
251.231	331.69
251.465	327.69
251.698	334.69
251.931	350.69
252.164	333.69
252.397	334.69
252.63	349.69
252.863	348.69
253.096	341.69
253.329	347.69
253.562	322.69
253.795	347.69
254.028	370.69
254.261	360.69
254.494	352.69
254.727	429.69
254.96	503.69
255.193	502.69
255.426	419.69
255.659	388.69
255.892	376.69
256.124	366.69
256.357	387.69
256.59	376.69
256.823	420.69
257.056	468.69
257.289	509.69
257.521	570.69
257.754	473.69
257.987	408.69
258.22	393.69
258.452	399.69
258.685	397.69
258.918	412.69
259.151	424.69
259.383	457.69
259.616	488.69
259.849	502.69
260.081	461.69
260.314	434.69
260.547	416.69
260.779	422.69
261.012	402.69
261.244	433.69
261.477	451.69
261.71	416.69
261.942	430.69
262.175	455.69
262.407	473.69
262.64	490.69
262.872	479.69
263.105	515.69
263.337	532.69
263.57	537.69
263.802	574.69
264.035	576.69
264.267	570.69
264.499	624.69
264.732	592.69
264.964	606.69
265.197	631.69
265.429	640.69
265.661	640.69
265.894	689.69
266.126	747.69
266.358	798.69
266.591	816.69
266.823	681.69
267.055	602.69
267.287	593.69
267.52	573.69
267.752	566.69
267.984	561.69
268.216	553.69
268.448	550.69
268.681	560.69
268.913	547.69
269.145	550.69
269.377	545.69
269.609	564.69
269.841	568.69
270.073	582.69
270.306	658.69
270.538	858.69
270.77	1274.69
271.002	1508.69
271.234	1047.69
271.466	740.69
271.698	617.69
271.93	586.69
272.162	545.69
272.394	552.69
272.626	542.69
272.858	522.69
273.09	530.69
273.322	537.69
273.553	530.69
273.785	515.69
274.017	503.69
274.249	525.69
274.481	516.69
274.713	532.69
274.945	519.69
275.176	530.69
275.408	518.69
275.64	519.69
275.872	538.69
276.104	553.69
276.335	556.69
276.567	558.69
276.799	552.69
277.031	568.69
277.262	587.69
277.494	597.69
277.726	627.69
277.957	717.69
278.189	787.69
278.421	748.69
278.652	675.69
278.884	670.69
279.115	612.69
279.347	614.69
279.579	590.69
279.81	588.69
280.042	607.69
280.273	605.69
280.505	615.69
280.736	624.69
280.968	640.69
281.199	699.69
281.431	792.69
281.662	782.69
281.894	708.69
282.125	674.69
282.356	686.69
282.588	676.69
282.819	714.69
283.051	735.69
283.282	775.69
283.513	987.69
283.745	1415.69
283.976	2172.69
284.207	3087.69
284.439	2744.69
284.67	1645.69
284.901	1338.69
285.132	1344.69
285.364	1232.69
285.595	1000.69
285.826	945.69
286.057	1090.69
286.288	1440.69
286.52	1977.69
286.751	1770.69
286.982	1142.69
287.213	872.69
287.444	790.69
287.675	764.69
287.906	727.69
288.138	692.69
288.369	721.69
288.6	708.69
288.831	701.69
289.062	708.69
289.293	696.69
289.524	706.69
289.755	713.69
289.986	692.69
290.217	712.69
290.448	696.69
290.679	703.69
290.91	726.69
291.141	738.69
291.371	773.69
291.602	788.69
291.833	763.69
292.064	717.69
292.295	674.69
292.526	678.69
292.757	702.69
292.987	661.69
293.218	644.69
293.449	665.69
293.68	674.69
293.91	653.69
294.141	641.69
294.372	652.69
294.603	648.69
294.833	647.69
295.064	669.69
295.295	668.69
295.525	657.69
295.756	638.69
295.987	648.69
296.217	690.69
296.448	656.69
296.679	670.69
296.909	675.69
297.14	665.69
297.37	670.69
297.601	676.69
297.831	676.69
298.062	666.69
298.292	671.69
298.523	701.69
298.753	701.69
298.984	717.69
299.214	721.69
299.445	724.69
299.675	743.69
299.905	728.69
300.136	753.69
300.366	873.69
300.597	1084.69
300.827	1439.69
301.057	1895.69
301.288	1916.69
301.518	1243.69
301.748	979.69
301.979	915.69
302.209	877.69
302.439	904.69
302.669	960.69
302.9	1124.69
303.13	1556.69
303.36	2248.69
303.59	2987.69
303.82	2528.69
304.051	1522.69
304.281	1136.69
304.511	971.69
304.741	916.69
304.971	864.69
305.201	832.69
305.431	809.69
305.661	812.69
305.891	758.69
306.121	779.69
306.352	766.69
306.582	766.69
306.812	757.69
307.042	788.69
307.272	755.69
307.502	747.69
307.731	750.69
307.961	763.69
308.191	729.69
308.421	758.69
308.651	761.69
308.881	741.69
309.111	786.69
309.341	777.69
309.571	796.69
309.8	776.69
310.03	772.69
310.26	786.69
310.49	794.69
310.72	785.69
310.949	785.69
311.179	802.69
311.409	810.69
311.639	792.69
311.868	812.69
312.098	801.69
312.328	811.69
312.557	807.69
312.787	813.69
313.017	840.69
313.246	820.69
313.476	804.69
313.706	864.69
313.935	861.69
314.165	919.69
314.394	928.69
314.624	929.69
314.853	871.69
315.083	900.69
315.312	904.69
315.542	880.69
315.771	893.69
316.001	918.69
316.23	936.69
316.46	963.69
316.689	1052.69
316.919	1255.69
317.148	1768.69
317.377	2676.69
317.607	3946.69
317.836	4009.69
318.065	2333.69
318.295	1538.69
318.524	1257.69
318.753	1136.69
318.983	1072.69
319.212	1033.69
319.441	998.69
319.67	955.69
319.9	980.69
320.129	947.69
320.358	951.69
320.587	952.69
320.816	966.69
321.046	962.69
321.275	976.69
321.504	960.69
321.733	965.69
321.962	1020.69
322.191	1013.69
322.42	1006.69
322.649	989.69
322.878	989.69
323.108	1027.69
323.337	1025.69
323.566	1035.69
323.795	1058.69
324.024	1066.69
324.253	1079.69
324.482	1107.69
324.71	1181.69
324.939	1261.69
325.168	1263.69
325.397	1317.69
325.626	1509.69
325.855	2097.69
326.084	3277.69
326.313	4800.69
326.542	5109.69
326.77	3213.69
326.999	2144.69
327.228	1816.69
327.457	1721.69
327.686	1803.69
327.914	1856.69
328.143	2179.69
328.372	2455.69
328.6	2652.69
328.829	2474.69
329.058	2181.69
329.287	1912.69
329.515	1778.69
329.744	1618.69
329.972	1570.69
330.201	1503.69
330.43	1458.69
330.658	1428.69
330.887	1397.69
331.115	1397.69
331.344	1370.69
331.572	1376.69
331.801	1370.69
332.03	1364.69
332.258	1401.69
332.486	1482.69
332.715	1649.69
332.943	1962.69
333.172	2374.69
333.4	2394.69
333.629	1876.69
333.857	1713.69
334.085	1719.69
334.314	1795.69
334.542	1936.69
334.771	2264.69
334.999	2631.69
335.227	3222.69
335.455	3563.69
335.684	3304.69
335.912	2885.69
336.14	2418.69
336.369	2206.69
336.597	2044.69
336.825	1905.69
337.053	1777.69
337.281	1647.69
337.51	1604.69
337.738	1523.69
337.966	1447.69
338.194	1436.69
338.422	1373.69
338.65	1332.69
338.878	1334.69
339.106	1311.69
339.334	1331.69
339.562	1287.69
339.79	1250.69
340.018	1234.69
340.246	1218.69
340.474	1259.69
340.702	1242.69
340.93	1230.69
341.158	1233.69
341.386	1208.69
341.614	1207.69
341.842	1201.69
342.07	1176.69
342.298	1132.69
342.526	1165.69
342.754	1167.69
342.981	1118.69
343.209	1117.69
343.437	1135.69
343.665	1142.69
343.893	1144.69
344.12	1163.69
344.348	1140.69
344.576	1143.69
344.804	1113.69
345.031	1093.69
345.259	1079.69
345.487	1060.69
345.714	1050.69
345.942	1086.69
346.17	1058.69
346.397	1058.69
346.625	1050.69
346.853	1070.69
347.08	1034.69
347.308	1048.69
347.535	1007.69
347.763	1014.69
347.99	1030.69
348.218	1039.69
348.445	1001.69
348.673	1005.69
348.9	1020.69
349.128	1022.69
349.355	1016.69
349.583	1000.69
349.81	1006.69
350.037	986.69
350.265	1016.69
350.492	970.69
350.72	1016.69
350.947	1037.69
351.174	1002.69
351.402	1009.69
351.629	1006.69
351.856	999.69
352.083	995.69
352.311	994.69
352.538	988.69
352.765	1005.69
352.992	1002.69
353.22	984.69
353.447	999.69
353.674	999.69
353.901	1013.69
354.128	998.69
354.355	1002.69
354.583	989.69
354.81	1031.69
355.037	1013.69
355.264	1040.69
355.491	985.69
355.718	1012.69
355.945	1024.69
356.172	1038.69
356.399	1015.69
356.626	1044.69
356.853	1054.69
357.08	1022.69
357.307	1047.69
357.534	1059.69
357.761	1076.69
357.988	1060.69
358.215	1058.69
358.441	1082.69
358.668	1062.69
358.895	1057.69
359.122	1049.69
359.349	1074.69
359.576	1072.69
359.802	1057.69
360.029	1091.69
360.256	1052.69
360.483	1051.69
360.709	1048.69
360.936	1081.69
361.163	1060.69
361.39	1098.69
361.616	1044.69
361.843	1069.69
362.07	1045.69
362.296	1050.69
362.523	1092.69
362.749	1073.69
362.976	1062.69
363.203	1067.69
363.429	1072.69
363.656	1093.69
363.882	1078.69
364.109	1057.69
364.335	1076.69
364.562	1042.69
364.788	1075.69
365.015	1039.69
365.241	1082.69
365.468	1119.69
365.694	1158.69
365.92	1150.69
366.147	1080.69
366.373	1084.69
366.599	1097.69
366.826	1067.69
367.052	1059.69
367.278	1090.69
367.505	1060.69
367.731	1080.69
367.957	1114.69
368.184	1117.69
368.41	1120.69
368.636	1104.69
368.862	1081.69
369.089	1124.69
369.315	1083.69
369.541	1091.69
369.767	1088.69
369.993	1098.69
370.219	1121.69
370.445	1097.69
370.672	1133.69
370.898	1118.69
371.124	1123.69
371.35	1125.69
371.576	1124.69
371.802	1124.69
372.028	1139.69
372.254	1162.69
372.48	1136.69
372.706	1158.69
372.932	1147.69
373.158	1157.69
373.384	1168.69
373.61	1154.69
373.835	1175.69
374.061	1164.69
374.287	1184.69
374.513	1178.69
374.739	1198.69
374.965	1210.69
375.191	1189.69
375.416	1199.69
375.642	1184.69
375.868	1180.69
376.094	1154.69
376.319	1176.69
376.545	1152.69
376.771	1156.69
376.997	1150.69
377.222	1154.69
377.448	1133.69
377.674	1137.69
377.899	1144.69
378.125	1136.69
378.35	1169.69
378.576	1154.69
378.802	1151.69
379.027	1164.69
379.253	1173.69
379.478	1268.69
379.704	1423.69
379.929	1968.69
380.155	2887.69
380.38	3066.69
380.606	1940.69
380.831	1452.69
381.057	1307.69
381.282	1225.69
381.507	1160.69
381.733	1150.69
381.958	1146.69
382.184	1147.69
382.409	1149.69
382.634	1115.69
382.86	1129.69
383.085	1101.69
383.31	1129.69
383.535	1142.69
383.761	1146.69
383.986	1166.69
384.211	1140.69
384.436	1127.69
384.662	1170.69
384.887	1150.69
385.112	1156.69
385.337	1181.69
385.562	1180.69
385.787	1196.69
386.013	1178.69
386.238	1156.69
386.463	1168.69
386.688	1161.69
386.913	1147.69
387.138	1202.69
387.363	1169.69
387.588	1146.69
387.813	1180.69
388.038	1152.69
388.263	1174.69
388.488	1151.69
388.713	1160.69
388.938	1167.69
389.163	1178.69
389.387	1178.69
389.612	1181.69
389.837	1176.69
390.062	1185.69
390.287	1200.69
390.512	1190.69
390.736	1200.69
390.961	1222.69
391.186	1205.69
391.411	1231.69
391.636	1238.69
391.86	1231.69
392.085	1216.69
392.31	1224.69
392.534	1204.69
392.759	1204.69
392.984	1176.69
393.208	1219.69
393.433	1233.69
393.658	1200.69
393.882	1182.69
394.107	1166.69
394.331	1188.69
394.556	1192.69
394.78	1178.69
395.005	1204.69
395.229	1202.69
395.454	1205.69
395.678	1209.69
395.903	1220.69
396.127	1218.69
396.352	1236.69
396.576	1204.69
396.801	1218.69
397.025	1233.69
397.249	1228.69
397.474	1240.69
397.698	1217.69
397.922	1288.69
398.147	1229.69
398.371	1248.69
398.595	1287.69
398.82	1314.69
399.044	1346.69
399.268	1418.69
399.492	1467.69
399.717	1538.69
399.941	1522.69
400.165	1513.69
400.389	1414.69
400.613	1400.69
400.837	1332.69
401.062	1336.69
401.286	1296.69
401.51	1296.69
401.734	1295.69
401.958	1307.69
402.182	1309.69
402.406	1315.69
402.63	1289.69
402.854	1329.69
403.078	1316.69
403.302	1314.69
403.526	1334.69
403.75	1328.69
403.974	1342.69
404.198	1348.69
404.422	1342.69
404.645	1362.69
404.869	1357.69
405.093	1353.69
405.317	1301.69
405.541	1318.69
405.765	1348.69
405.988	1384.69
406.212	1380.69
406.436	1351.69
406.66	1379.69
406.883	1392.69
407.107	1424.69
407.331	1455.69
407.555	1472.69
407.778	1489.69
408.002	1428.69
408.226	1423.69
408.449	1401.69
408.673	1394.69
408.896	1402.69
409.12	1345.69
409.344	1354.69
409.567	1358.69
409.791	1352.69
410.014	1325.69
410.238	1277.69
410.461	1302.69
410.685	1332.69
410.908	1332.69
411.132	1328.69
411.355	1290.69
411.578	1246.69
411.802	1288.69
412.025	1299.69
412.249	1317.69
412.472	1286.69
412.695	1278.69
412.919	1263.69
413.142	1292.69
413.365	1274.69
413.589	1261.69
413.812	1250.69
414.035	1261.69
414.258	1266.69
414.482	1269.69
414.705	1294.69
414.928	1256.69
415.151	1249.69
415.374	1214.69
415.597	1255.69
415.821	1219.69
416.044	1226.69
416.267	1231.69
416.49	1226.69
416.713	1197.69
416.936	1220.69
417.159	1212.69
417.382	1224.69
417.605	1219.69
417.828	1187.69
418.051	1218.69
418.274	1202.69
418.497	1187.69
418.72	1245.69
418.943	1220.69
419.166	1300.69
419.389	1345.69
419.611	1342.69
419.834	1325.69
420.057	1309.69
420.28	1228.69
420.503	1241.69
420.726	1190.69
420.948	1212.69
421.171	1236.69
421.394	1234.69
421.617	1245.69
421.839	1269.69
422.062	1264.69
422.285	1217.69
422.507	1225.69
422.73	1226.69
422.953	1224.69
423.175	1269.69
423.398	1257.69
423.621	1234.69
423.843	1228.69
424.066	1243.69
424.288	1221.69
424.511	1217.69
424.733	1202.69
424.956	1236.69
425.178	1218.69
425.401	1215.69
425.623	1232.69
425.846	1191.69
426.068	1192.69
426.291	1198.69
426.513	1188.69
426.735	1164.69
426.958	1164.69
427.18	1158.69
427.402	1156.69
427.625	1163.69
427.847	1150.69
428.069	1137.69
428.292	1161.69
428.514	1132.69
428.736	1127.69
428.958	1143.69
429.181	1108.69
429.403	1134.69
429.625	1133.69
429.847	1105.69
430.069	1159.69
430.292	1166.69
430.514	1183.69
430.736	1208.69
430.958	1166.69
431.18	1153.69
431.402	1170.69
431.624	1126.69
431.846	1113.69
432.068	1126.69
432.29	1113.69
432.512	1082.69
432.734	1153.69
432.956	1142.69
433.178	1135.69
433.4	1136.69
433.622	1149.69
433.844	1157.69
434.066	1117.69
434.287	1130.69
434.509	1125.69
434.731	1167.69
434.953	1174.69
435.175	1161.69
435.397	1205.69
435.618	1144.69
435.84	1130.69
436.062	1140.69
436.284	1129.69
436.505	1130.69
436.727	1139.69
436.949	1133.69
437.17	1131.69
437.392	1148.69
437.614	1130.69
437.835	1044.69
438.057	1067.69
438.278	1123.69
438.5	1113.69
438.721	1131.69
438.943	1145.69
439.165	1176.69
439.386	1172.69
439.608	1160.69
439.829	1160.69
440.05	1180.69
440.272	1238.69
440.493	1162.69
440.715	1146.69
440.936	1166.69
441.158	1169.69
441.379	1209.69
441.6	1247.69
441.822	1228.69
442.043	1284.69
442.264	1336.69
442.486	1236.69
442.707	1217.69
442.928	1200.69
443.149	1197.69
443.371	1192.69
443.592	1230.69
443.813	1196.69
444.034	1216.69
444.255	1231.69
444.476	1235.69
444.698	1300.69
444.919	1316.69
445.14	1374.69
445.361	1288.69
445.582	1252.69
445.803	1254.69
446.024	1216.69
446.245	1202.69
446.466	1209.69
446.687	1193.69
446.908	1187.69
447.129	1172.69
447.35	1160.69
447.571	1109.69
447.792	1108.69
448.013	1116.69
448.234	1115.69
448.455	1106.69
448.675	1123.69
448.896	1151.69
449.117	1178.69
449.338	1274.69
449.559	1267.69
449.779	1196.69
450	1138.69
450.221	1114.69
450.442	1112.69
450.662	1082.69
450.883	1067.69
451.104	1095.69
451.324	1094.69
451.545	1091.69
451.766	1057.69
451.986	1082.69
452.207	1158.69
452.428	1379.69
452.648	1844.69
452.869	1629.69
453.089	1221.69
453.31	1177.69
453.53	1210.69
453.751	1210.69
453.971	1289.69
454.192	1254.69
454.412	1127.69
454.633	1072.69
454.853	1057.69
455.073	1033.69
455.294	1054.69
455.514	1029.69
455.734	1013.69
455.955	986.69
456.175	1013.69
456.395	1006.69
456.616	1001.69
456.836	1085.69
457.056	1064.69
457.276	1029.69
457.497	1098.69
457.717	1111.69
457.937	1112.69
458.157	1092.69
458.377	1063.69
458.598	1106.69
458.818	1088.69
459.038	1091.69
459.258	1057.69
459.478	1142.69
459.698	1158.69
459.918	1136.69
460.138	1184.69
460.358	1189.69
460.578	1241.69
460.798	1240.69
461.018	1236.69
461.238	1220.69
461.458	1247.69
461.678	1194.69
461.898	1240.69
462.118	1270.69
462.338	1276.69
462.558	1299.69
462.777	1338.69
462.997	1380.69
463.217	1420.69
463.437	1488.69
463.657	1467.69
463.876	1422.69
464.096	1404.69
464.316	1372.69
464.536	1305.69
464.755	1274.69
464.975	1297.69
465.195	1240.69
465.414	1202.69
465.634	1167.69
465.854	1172.69
466.073	1131.69
466.293	1128.69
466.512	1123.69
466.732	1165.69
466.951	1188.69
467.171	1257.69
467.391	1230.69
467.61	1138.69
467.829	1117.69
468.049	1122.69
468.268	1138.69
468.488	1099.69
468.707	1099.69
468.927	1123.69
469.146	1097.69
469.365	1126.69
469.585	1138.69
469.804	1141.69
470.023	1162.69
470.243	1194.69
470.462	1249.69
470.681	1229.69
470.901	1386.69
471.12	1546.69
471.339	1596.69
471.558	1281.69
471.777	1192.69
471.997	1174.69
472.216	1144.69
472.435	1124.69
472.654	1106.69
472.873	1094.69
473.092	1112.69
473.311	1098.69
473.53	1124.69
473.749	1149.69
473.968	1180.69
474.187	1101.69
474.406	1122.69
474.625	1129.69
474.844	1143.69
475.063	1120.69
475.282	1140.69
475.501	1112.69
475.72	1126.69
475.939	1148.69
476.158	1160.69
476.377	1181.69
476.596	1183.69
476.814	1184.69
477.033	1132.69
477.252	1206.69
477.471	1220.69
477.69	1216.69
477.908	1269.69
478.127	1288.69
478.346	1264.69
478.564	1286.69
478.783	1262.69
479.002	1336.69
479.22	1333.69
479.439	1340.69
479.658	1304.69
479.876	1294.69
480.095	1325.69
480.313	1357.69
480.532	1356.69
480.751	1345.69
480.969	1323.69
481.188	1314.69
481.406	1315.69
481.624	1275.69
481.843	1314.69
482.061	1344.69
482.28	1352.69
482.498	1284.69
482.717	1295.69
482.935	1322.69
483.153	1351.69
483.372	1360.69
483.59	1373.69
483.808	1414.69
484.027	1415.69
484.245	1500.69
484.463	1666.69
484.681	1824.69
484.9	1662.69
485.118	1515.69
485.336	1535.69
485.554	1559.69
485.772	1582.69
485.99	1828.69
486.209	1976.69
486.427	1682.69
486.645	1528.69
486.863	1469.69
487.081	1428.69
487.299	1396.69
487.517	1416.69
487.735	1423.69
487.953	1464.69
488.171	1466.69
488.389	1451.69
488.607	1426.69
488.825	1393.69
489.043	1381.69
489.261	1362.69
489.479	1400.69
489.696	1349.69
489.914	1378.69
490.132	1378.69
490.35	1405.69
490.568	1393.69
490.786	1424.69
491.003	1446.69
491.221	1469.69
491.439	1483.69
491.657	1453.69
491.874	1443.69
492.092	1498.69
492.31	1548.69
492.527	1489.69
492.745	1487.69
492.963	1483.69
493.18	1502.69
493.398	1451.69
493.615	1468.69
493.833	1504.69
494.05	1506.69
494.268	1509.69
494.485	1493.69
494.703	1467.69
494.92	1450.69
495.138	1476.69
495.355	1492.69
495.573	1492.69
495.79	1483.69
496.008	1472.69
496.225	1500.69
496.442	1514.69
496.66	1582.69
496.877	1590.69
497.094	1613.69
497.312	1566.69
497.529	1582.69
497.746	1593.69
497.963	1576.69
498.181	1652.69
498.398	1658.69
498.615	1728.69
498.832	1776.69
499.049	1829.69
499.267	1969.69
499.484	2102.69
499.701	2124.69
499.918	2219.69
500.135	2336.69
500.352	2434.69
500.569	2502.69
500.786	2440.69
501.003	2341.69
501.22	2282.69
501.437	2126.69
501.654	2036.69
501.871	1893.69
502.088	1838.69
502.305	1812.69
502.522	1742.69
502.739	1695.69
502.956	1646.69
503.172	1601.69
503.389	1545.69
503.606	1534.69
503.823	1513.69
504.04	1506.69
504.256	1511.69
504.473	1499.69
504.69	1477.69
504.907	1506.69
505.123	1422.69
505.34	1442.69
505.557	1397.69
505.773	1367.69
505.99	1385.69
506.207	1337.69
506.423	1325.69
506.64	1316.69
506.856	1286.69
507.073	1285.69
507.289	1290.69
507.506	1270.69
507.722	1278.69
507.939	1265.69
508.155	1232.69
508.372	1241.69
508.588	1249.69
508.805	1230.69
509.021	1227.69
509.238	1252.69
509.454	1290.69
509.67	1372.69
509.887	1312.69
510.103	1257.69
510.319	1245.69
510.536	1245.69
510.752	1233.69
510.968	1232.69
511.184	1198.69
511.401	1212.69
511.617	1178.69
511.833	1206.69
512.049	1175.69
512.265	1172.69
512.481	1177.69
512.698	1172.69
512.914	1188.69
513.13	1177.69
513.346	1192.69
513.562	1208.69
513.778	1212.69
513.994	1202.69
514.21	1254.69
514.426	1318.69
514.642	1324.69
514.858	1262.69
515.074	1225.69
515.29	1208.69
515.506	1211.69
515.721	1228.69
515.937	1256.69
516.153	1235.69
516.369	1257.69
516.585	1269.69
516.801	1280.69
517.016	1299.69
517.232	1317.69
517.448	1317.69
517.664	1362.69
517.879	1351.69
518.095	1383.69
518.311	1344.69
518.527	1294.69
518.742	1345.69
518.958	1310.69
519.173	1319.69
519.389	1330.69
519.605	1256.69
519.82	1234.69
520.036	1219.69
520.251	1220.69
520.467	1193.69
520.682	1206.69
520.898	1196.69
521.113	1189.69
521.329	1189.69
521.544	1177.69
521.76	1186.69
521.975	1181.69
522.19	1161.69
522.406	1178.69
522.621	1162.69
522.836	1173.69
523.052	1158.69
523.267	1158.69
523.482	1181.69
523.698	1156.69
523.913	1143.69
524.128	1150.69
524.343	1164.69
524.559	1156.69
524.774	1142.69
524.989	1192.69
525.204	1159.69
525.419	1160.69
525.634	1148.69
525.849	1156.69
526.064	1152.69
526.28	1138.69
526.495	1181.69
526.71	1171.69
526.925	1143.69
527.14	1191.69
527.355	1148.69
527.57	1127.69
527.785	1149.69
527.999	1132.69
528.214	1190.69
528.429	1192.69
528.644	1227.69
528.859	1244.69
529.074	1214.69
529.289	1261.69
529.503	1226.69
529.718	1241.69
529.933	1182.69
530.148	1220.69
530.363	1240.69
530.577	1194.69
530.792	1195.69
531.007	1234.69
531.221	1234.69
531.436	1225.69
531.651	1261.69
531.865	1251.69
532.08	1290.69
532.295	1281.69
532.509	1387.69
532.724	1357.69
532.938	1346.69
533.153	1400.69
533.367	1485.69
533.582	1535.69
533.796	1514.69
534.011	1487.69
534.225	1436.69
534.44	1383.69
534.654	1417.69
534.868	1364.69
535.083	1348.69
535.297	1304.69
535.511	1308.69
535.726	1321.69
535.94	1291.69
536.154	1268.69
536.369	1238.69
536.583	1228.69
536.797	1209.69
537.011	1190.69
537.225	1169.69
537.44	1160.69
537.654	1158.69
537.868	1191.69
538.082	1121.69
538.296	1134.69
538.51	1161.69
538.724	1174.69
538.938	1172.69
539.153	1139.69
539.367	1152.69
539.581	1132.69
539.795	1097.69
540.009	1141.69
540.222	1109.69
540.436	1107.69
540.65	1104.69
540.864	1120.69
541.078	1139.69
541.292	1227.69
541.506	1446.69
541.72	1506.69
541.934	1318.69
542.147	1265.69
542.361	1197.69
542.575	1166.69
542.789	1137.69
543.002	1078.69
543.216	1086.69
543.43	1057.69
543.644	1062.69
543.857	1113.69
544.071	1118.69
544.285	1106.69
544.498	1125.69
544.712	1129.69
544.925	1141.69
545.139	1134.69
545.352	1136.69
545.566	1101.69
545.779	1144.69
545.993	1146.69
546.206	1157.69
546.42	1101.69
546.633	1153.69
546.847	1106.69
547.06	1105.69
547.274	1141.69
547.487	1138.69
547.7	1133.69
547.914	1100.69
548.127	1076.69
548.34	1139.69
548.554	1149.69
548.767	1127.69
548.98	1139.69
549.193	1112.69
549.407	1108.69
549.62	1140.69
549.833	1123.69
550.046	1117.69
550.259	1119.69
550.473	1111.69
550.686	1117.69
550.899	1123.69
551.112	1137.69
551.325	1086.69
551.538	1115.69
551.751	1110.69
551.964	1088.69
552.177	1101.69
552.39	1160.69
552.603	1166.69
552.816	1155.69
553.029	1182.69
553.242	1205.69
553.455	1227.69
553.667	1228.69
553.88	1239.69
554.093	1239.69
554.306	1234.69
554.519	1220.69
554.732	1239.69
554.944	1249.69
555.157	1273.69
555.37	1287.69
555.583	1354.69
555.795	1381.69
556.008	1430.69
556.221	1612.69
556.433	1637.69
556.646	1657.69
556.859	1583.69
557.071	1529.69
557.284	1538.69
557.496	1524.69
557.709	1506.69
557.921	1500.69
558.134	1494.69
558.346	1508.69
558.559	1567.69
558.771	1600.69
558.984	1704.69
559.196	1799.69
559.409	1771.69
559.621	1660.69
559.833	1577.69
560.046	1476.69
560.258	1452.69
560.47	1376.69
560.683	1353.69
560.895	1295.69
561.107	1264.69
561.32	1217.69
561.532	1203.69
561.744	1180.69
561.956	1154.69
562.168	1155.69
562.381	1145.69
562.593	1139.69
562.805	1140.69
563.017	1110.69
563.229	1123.69
563.441	1264.69
563.653	1136.69
563.865	1074.69
564.077	1057.69
564.289	1027.69
564.501	1056.69
564.713	1018.69
564.925	1012.69
565.137	1025.69
565.349	1041.69
565.561	1033.69
565.773	1024.69
565.985	1039.69
566.197	1065.69
566.408	1081.69
566.62	1127.69
566.832	1130.69
567.044	1119.69
567.255	1146.69
567.467	1162.69
567.679	1172.69
567.891	1189.69
568.102	1356.69
568.314	1528.69
568.526	1330.69
568.737	1162.69
568.949	1062.69
569.161	989.69
569.372	965.69
569.584	968.69
569.795	920.69
570.007	934.69
570.218	902.69
570.43	988.69
570.641	880.69
570.853	870.69
571.064	865.69
571.276	884.69
571.487	853.69
571.698	852.69
571.91	829.69
572.121	841.69
572.333	814.69
572.544	802.69
572.755	867.69
572.966	1004.69
573.178	914.69
573.389	832.69
573.6	734.69
573.811	756.69
574.023	769.69
574.234	757.69
574.445	741.69
574.656	748.69
574.867	769.69
575.078	741.69
575.289	763.69
575.501	750.69
575.712	754.69
575.923	756.69
576.134	745.69
576.345	754.69
576.556	757.69
576.767	755.69
576.978	743.69
577.188	743.69
577.399	763.69
577.61	759.69
577.821	768.69
578.032	780.69
578.243	758.69
578.454	808.69
578.665	813.69
578.875	792.69
579.086	823.69
579.297	870.69
579.508	912.69
579.718	965.69
579.929	1069.69
580.14	1193.69
580.35	1240.69
580.561	1155.69
580.772	1078.69
580.982	1014.69
581.193	974.69
581.403	913.69
581.614	894.69
581.825	853.69
582.035	840.69
582.246	806.69
582.456	786.69
582.667	782.69
582.877	765.69
583.087	770.69
583.298	703.69
583.508	683.69
583.719	664.69
583.929	678.69
584.139	682.69
584.35	675.69
584.56	636.69
584.77	649.69
584.981	640.69
585.191	626.69
585.401	620.69
585.611	609.69
585.821	593.69
586.032	604.69
586.242	613.69
586.452	608.69
586.662	594.69
586.872	616.69
587.082	596.69
587.292	584.69
587.502	555.69
587.713	553.69
587.923	549.69
588.133	577.69
588.343	551.69
588.553	564.69
588.762	570.69
588.972	561.69
589.182	572.69
589.392	577.69
589.602	544.69
589.812	536.69
590.022	562.69
590.232	535.69
590.441	532.69
590.651	537.69
590.861	544.69
591.071	556.69
591.281	556.69
591.49	534.69
591.7	530.69
591.91	512.69
592.119	536.69
592.329	535.69
592.539	536.69
592.748	559.69
592.958	566.69
593.167	584.69
593.377	574.69
593.587	586.69
593.796	543.69
594.006	564.69
594.215	570.69
594.424	568.69
594.634	553.69
594.843	552.69
595.053	521.69
595.262	516.69
595.472	515.69
595.681	508.69
595.89	510.69
596.1	503.69
596.309	519.69
596.518	500.69
596.727	478.69
596.937	482.69
597.146	484.69
597.355	461.69
597.564	463.69
597.774	456.69
597.983	458.69
598.192	448.69
598.401	457.69
598.61	464.69
598.819	448.69
599.028	449.69
599.237	469.69
599.446	441.69
599.655	439.69
599.864	481.69
600.073	437.69
600.282	457.69
600.491	451.69
600.7	452.69
600.909	442.69
601.118	453.69
601.327	450.69
601.536	448.69
601.745	468.69
601.953	493.69
602.162	571.69
602.371	479.69
602.58	438.69
602.789	457.69
602.997	461.69
603.206	435.69
603.415	471.69
603.623	458.69
603.832	448.69
604.041	436.69
604.249	418.69
604.458	420.69
604.666	418.69
604.875	426.69
605.084	414.69
605.292	411.69
605.501	437.69
605.709	448.69
605.918	441.69
606.126	429.69
606.334	438.69
606.543	439.69
606.751	470.69
606.96	518.69
607.168	553.69
607.376	474.69
607.585	444.69
607.793	449.69
608.001	442.69
608.21	430.69
608.418	408.69
608.626	407.69
608.834	409.69
609.043	419.69
609.251	405.69
609.459	419.69
609.667	414.69
609.875	415.69
610.083	406.69
610.291	413.69
610.499	426.69
610.707	402.69
610.916	400.69
611.124	412.69
611.332	406.69
611.54	415.69
611.748	400.69
611.955	400.69
612.163	398.69
612.371	413.69
612.579	389.69
612.787	404.69
612.995	396.69
613.203	399.69
613.411	389.69
613.618	388.69
613.826	382.69
614.034	389.69
614.242	388.69
614.449	418.69
614.657	403.69
614.865	395.69
615.072	416.69
615.28	396.69
615.488	386.69
615.695	394.69
615.903	397.69
616.111	380.69
616.318	401.69
616.526	404.69
616.733	369.69
616.941	378.69
617.148	401.69
617.356	375.69
617.563	387.69
617.771	371.69
617.978	379.69
618.185	368.69
618.393	390.69
618.6	379.69
618.807	388.69
619.015	372.69
619.222	369.69
619.429	361.69
619.637	376.69
619.844	365.69
620.051	379.69
620.258	354.69
620.466	370.69
620.673	350.69
620.88	342.69
621.087	342.69
621.294	354.69
621.501	348.69
621.708	359.69
621.915	359.69
622.122	342.69
622.329	374.69
622.536	355.69
622.743	361.69
622.95	359.69
623.157	330.69
623.364	342.69
623.571	347.69
623.778	349.69
623.985	354.69
624.192	372.69
624.399	338.69
624.606	353.69
624.812	334.69
625.019	322.69
625.226	332.69
625.433	331.69
625.639	324.69
625.846	328.69
626.053	302.69
626.259	307.69
626.466	321.69
626.673	298.69
626.879	318.69
627.086	324.69
627.293	322.69
627.499	307.69
627.706	323.69
627.912	320.69
628.119	316.69
628.325	338.69
628.532	321.69
628.738	338.69
628.945	339.69
629.151	304.69
629.357	286.69
629.564	292.69
629.77	298.69
629.976	300.69
630.183	316.69
630.389	300.69
630.595	291.69
630.802	333.69
631.008	307.69
631.214	324.69
631.42	309.69
631.627	281.69
631.833	294.69
632.039	309.69
632.245	302.69
632.451	316.69
632.657	282.69
632.863	284.69
633.069	304.69
633.275	311.69
633.481	298.69
633.688	292.69
633.893	308.69
634.099	305.69
634.305	280.69
634.511	312.69
634.717	314.69
634.923	313.69
635.129	351.69
635.335	381.69
635.541	326.69
635.747	312.69
635.952	308.69
636.158	295.69
636.364	310.69
636.57	301.69
636.775	313.69
636.981	299.69
637.187	303.69
637.392	299.69
637.598	290.69
637.804	299.69
638.009	298.69
638.215	302.69
638.421	302.69
638.626	312.69
638.832	307.69
639.037	298.69
639.243	290.69
639.448	308.69
639.654	312.69
639.859	309.69
640.065	291.69
640.27	308.69
640.475	312.69
640.681	296.69
640.886	303.69
641.091	301.69
641.297	321.69
641.502	309.69
641.707	328.69
641.913	321.69
642.118	333.69
642.323	336.69
642.528	332.69
642.733	342.69
642.939	357.69
643.144	351.69
643.349	366.69
643.554	370.69
643.759	402.69
643.964	391.69
644.169	412.69
644.374	421.69
644.579	480.69
644.784	500.69
644.989	542.69
645.194	589.69
645.399	728.69
645.604	749.69
645.809	607.69
646.014	484.69
646.219	429.69
646.423	398.69
646.628	364.69
646.833	332.69
647.038	340.69
647.243	334.69
647.447	312.69
647.652	298.69
647.857	298.69
648.062	298.69
648.266	298.69
648.471	285.69
648.676	280.69
648.88	279.69
649.085	283.69
649.289	272.69
649.494	271.69
649.698	277.69
649.903	262.69
650.107	267.69
650.312	242.69
650.516	236.69
650.721	244.69
650.925	235.69
651.13	233.69
651.334	241.69
651.539	258.69
651.743	256.69
651.947	232.69
652.152	225.69
652.356	229.69
652.56	234.69
652.764	265.69
652.969	240.69
653.173	240.69
653.377	220.69
653.581	226.69
653.785	212.69
653.99	216.69
654.194	208.69
654.398	210.69
654.602	194.69
654.806	206.69
655.01	203.69
655.214	219.69
655.418	200.69
655.622	219.69
655.826	194.69
656.03	201.69
656.234	212.69
656.438	229.69
656.642	219.69
656.846	223.69
657.049	222.69
657.253	214.69
657.457	182.69
657.661	165.69
657.865	171.69
658.068	178.69
658.272	140.69
658.476	148.69
658.68	145.69
658.883	134.69
659.087	140.69
659.291	120.69
659.494	141.69
659.698	134.69
659.901	136.69
660.105	135.69
660.309	119.69
660.512	124.69
660.716	125.69
660.919	115.69
661.123	100.69
661.326	108.69
661.53	109.69
661.733	105.69
661.936	112.69
662.14	94.69
662.343	80.69
662.546	96.69
662.75	97.69
662.953	85.69
663.156	97.69
663.36	96.69
663.563	77.69
663.766	95.69
663.969	85.69
664.173	89.69
664.376	86.69
664.579	82.69
664.782	76.69
664.985	71.69
665.188	84.69
665.391	83.69
665.594	76.69
665.797	94.69
666	74.69
666.203	87.69
666.406	84.69
666.609	76.69
666.812	84.69
667.015	87.69
667.218	86.69
667.421	77.69
667.624	86.69
667.827	90.69
668.03	80.69
668.232	69.69
668.435	80.69
668.638	74.69
668.841	83.69
669.043	92.69
669.246	92.69
669.449	96.69
669.651	80.69
669.854	83.69
670.057	77.69
670.259	76.69
670.462	66.69
670.665	74.69
670.867	91.69
671.07	81.69
671.272	89.69
671.475	84.69
671.677	80.69
671.88	92.69
672.082	85.69
672.284	89.69
672.487	71.69
672.689	88.69
672.892	82.69
