Data from SnStandardFlinnAPT0064_QswitchEnergy10_LIBS07252019.E.O._I.C._HRD10591_15-25-52-972.txt Node
Date: Thu Jul 25 15:25:52 EDT 2019
User: cochatt
Spectrometer: HR+D1059
Trigger mode: 1
Integration Time (sec): 1.000000E-1
Scans to average: 1
Electric dark correction enabled: true
Nonlinearity correction enabled: false
Boxcar width: 0
XAxis mode: Wavelengths
Number of Pixels in Spectrum: 2048
>>>>>Begin Spectral Data<<<<<
223.165	-14.12
223.4	-14.12
223.635	-14.12
223.869	-14.12
224.104	-15.12
224.338	-8.12
224.573	-24.12
224.808	-11.12
225.042	-3.12
225.277	-8.12
225.511	3.88
225.746	2.88
225.98	10.88
226.215	4.88
226.449	9.88
226.683	19.88
226.918	20.88
227.152	24.88
227.387	46.88
227.621	40.88
227.856	59.88
228.09	43.88
228.324	46.88
228.559	46.88
228.793	61.88
229.027	80.88
229.262	69.88
229.496	49.88
229.73	67.88
229.964	56.88
230.199	73.88
230.433	77.88
230.667	85.88
230.901	73.88
231.136	72.88
231.37	65.88
231.604	76.88
231.838	88.88
232.072	109.88
232.306	116.88
232.541	112.88
232.775	72.88
233.009	92.88
233.243	85.88
233.477	80.88
233.711	92.88
233.945	88.88
234.179	70.88
234.413	82.88
234.647	78.88
234.881	86.88
235.115	75.88
235.349	78.88
235.583	108.88
235.817	120.88
236.051	118.88
236.285	92.88
236.519	82.88
236.753	80.88
236.987	79.88
237.221	76.88
237.455	86.88
237.689	71.88
237.922	73.88
238.156	73.88
238.39	80.88
238.624	80.88
238.858	79.88
239.091	79.88
239.325	73.88
239.559	77.88
239.793	80.88
240.027	79.88
240.26	68.88
240.494	70.88
240.728	86.88
240.961	76.88
241.195	82.88
241.429	84.88
241.662	96.88
241.896	95.88
242.13	85.88
242.363	130.88
242.597	154.88
242.83	106.88
243.064	129.88
243.298	140.88
243.531	143.88
243.765	85.88
243.998	74.88
244.232	67.88
244.465	76.88
244.699	65.88
244.932	72.88
245.166	85.88
245.399	74.88
245.633	73.88
245.866	87.88
246.099	83.88
246.333	77.88
246.566	89.88
246.8	72.88
247.033	78.88
247.266	77.88
247.5	58.88
247.733	80.88
247.966	71.88
248.2	84.88
248.433	98.88
248.666	114.88
248.899	100.88
249.133	91.88
249.366	100.88
249.599	104.88
249.832	102.88
250.066	116.88
250.299	78.88
250.532	73.88
250.765	75.88
250.998	91.88
251.231	62.88
251.465	73.88
251.698	78.88
251.931	68.88
252.164	86.88
252.397	81.88
252.63	75.88
252.863	81.88
253.096	91.88
253.329	91.88
253.562	87.88
253.795	72.88
254.028	80.88
254.261	95.88
254.494	102.88
254.727	110.88
254.96	132.88
255.193	121.88
255.426	76.88
255.659	76.88
255.892	91.88
256.124	90.88
256.357	101.88
256.59	88.88
256.823	82.88
257.056	107.88
257.289	127.88
257.521	152.88
257.754	112.88
257.987	87.88
258.22	66.88
258.452	74.88
258.685	87.88
258.918	80.88
259.151	91.88
259.383	105.88
259.616	122.88
259.849	138.88
260.081	84.88
260.314	86.88
260.547	86.88
260.779	93.88
261.012	78.88
261.244	69.88
261.477	78.88
261.71	75.88
261.942	85.88
262.175	69.88
262.407	88.88
262.64	79.88
262.872	83.88
263.105	82.88
263.337	73.88
263.57	83.88
263.802	80.88
264.035	73.88
264.267	84.88
264.499	76.88
264.732	93.88
264.964	74.88
265.197	72.88
265.429	73.88
265.661	94.88
265.894	100.88
266.126	115.88
266.358	152.88
266.591	127.88
266.823	81.88
267.055	93.88
267.287	96.88
267.52	85.88
267.752	91.88
267.984	79.88
268.216	78.88
268.448	99.88
268.681	93.88
268.913	91.88
269.145	78.88
269.377	80.88
269.609	87.88
269.841	92.88
270.073	98.88
270.306	120.88
270.538	160.88
270.77	264.88
271.002	328.88
271.234	175.88
271.466	107.88
271.698	96.88
271.93	80.88
272.162	87.88
272.394	92.88
272.626	90.88
272.858	85.88
273.09	81.88
273.322	92.88
273.553	87.88
273.785	83.88
274.017	99.88
274.249	87.88
274.481	99.88
274.713	92.88
274.945	93.88
275.176	65.88
275.408	91.88
275.64	84.88
275.872	80.88
276.104	91.88
276.335	89.88
276.567	97.88
276.799	82.88
277.031	92.88
277.262	79.88
277.494	104.88
277.726	125.88
277.957	162.88
278.189	211.88
278.421	213.88
278.652	180.88
278.884	166.88
279.115	114.88
279.347	110.88
279.579	100.88
279.81	80.88
280.042	86.88
280.273	96.88
280.505	94.88
280.736	107.88
280.968	108.88
281.199	136.88
281.431	213.88
281.662	222.88
281.894	135.88
282.125	103.88
282.356	96.88
282.588	104.88
282.819	115.88
283.051	110.88
283.282	121.88
283.513	154.88
283.745	267.88
283.976	466.88
284.207	679.88
284.439	502.88
284.67	233.88
284.901	222.88
285.132	300.88
285.364	337.88
285.595	187.88
285.826	136.88
286.057	218.88
286.288	351.88
286.52	534.88
286.751	400.88
286.982	165.88
287.213	123.88
287.444	100.88
287.675	84.88
287.906	81.88
288.138	92.88
288.369	94.88
288.6	81.88
288.831	76.88
289.062	95.88
289.293	80.88
289.524	93.88
289.755	88.88
289.986	79.88
290.217	81.88
290.448	79.88
290.679	95.88
290.91	122.88
291.141	134.88
291.371	195.88
291.602	256.88
291.833	165.88
292.064	104.88
292.295	94.88
292.526	93.88
292.757	86.88
292.987	87.88
293.218	79.88
293.449	99.88
293.68	80.88
293.91	95.88
294.141	81.88
294.372	85.88
294.603	92.88
294.833	97.88
295.064	93.88
295.295	87.88
295.525	70.88
295.756	98.88
295.987	78.88
296.217	95.88
296.448	83.88
296.679	93.88
296.909	98.88
297.14	85.88
297.37	87.88
297.601	69.88
297.831	105.88
298.062	86.88
298.292	84.88
298.523	102.88
298.753	96.88
298.984	95.88
299.214	104.88
299.445	110.88
299.675	121.88
299.905	101.88
300.136	100.88
300.366	149.88
300.597	224.88
300.827	387.88
301.057	585.88
301.288	522.88
301.518	208.88
301.748	140.88
301.979	115.88
302.209	128.88
302.439	120.88
302.669	157.88
302.9	220.88
303.13	430.88
303.36	749.88
303.59	1004.88
303.82	711.88
304.051	253.88
304.281	131.88
304.511	119.88
304.741	116.88
304.971	88.88
305.201	78.88
305.431	90.88
305.661	105.88
305.891	88.88
306.121	89.88
306.352	92.88
306.582	103.88
306.812	101.88
307.042	111.88
307.272	103.88
307.502	87.88
307.731	101.88
307.961	100.88
308.191	89.88
308.421	113.88
308.651	101.88
308.881	88.88
309.111	95.88
309.341	105.88
309.571	114.88
309.8	92.88
310.03	103.88
310.26	94.88
310.49	103.88
310.72	112.88
310.949	100.88
311.179	102.88
311.409	95.88
311.639	101.88
311.868	110.88
312.098	97.88
312.328	104.88
312.557	109.88
312.787	108.88
313.017	121.88
313.246	106.88
313.476	105.88
313.706	125.88
313.935	137.88
314.165	173.88
314.394	191.88
314.624	153.88
314.853	118.88
315.083	122.88
315.312	103.88
315.542	115.88
315.771	128.88
316.001	131.88
316.23	130.88
316.46	126.88
316.689	152.88
316.919	220.88
317.148	416.88
317.377	757.88
317.607	1243.88
317.836	1174.88
318.065	434.88
318.295	185.88
318.524	144.88
318.753	124.88
318.983	128.88
319.212	120.88
319.441	122.88
319.67	124.88
319.9	104.88
320.129	121.88
320.358	98.88
320.587	116.88
320.816	127.88
321.046	114.88
321.275	113.88
321.504	129.88
321.733	128.88
321.962	137.88
322.191	158.88
322.42	110.88
322.649	104.88
322.878	105.88
323.108	107.88
323.337	122.88
323.566	118.88
323.795	114.88
324.024	117.88
324.253	129.88
324.482	146.88
324.71	188.88
324.939	228.88
325.168	198.88
325.397	174.88
325.626	221.88
325.855	417.88
326.084	800.88
326.313	1363.88
326.542	1331.88
326.77	519.88
326.999	229.88
327.228	189.88
327.457	183.88
327.686	196.88
327.914	148.88
328.143	129.88
328.372	124.88
328.6	115.88
328.829	100.88
329.058	120.88
329.287	95.88
329.515	120.88
329.744	101.88
329.972	111.88
330.201	110.88
330.43	109.88
330.658	98.88
330.887	95.88
331.115	106.88
331.344	109.88
331.572	113.88
331.801	116.88
332.03	113.88
332.258	126.88
332.486	160.88
332.715	244.88
332.943	426.88
333.172	656.88
333.4	592.88
333.629	218.88
333.857	132.88
334.085	133.88
334.314	113.88
334.542	114.88
334.771	104.88
334.999	120.88
335.227	120.88
335.455	124.88
335.684	123.88
335.912	111.88
336.14	113.88
336.369	99.88
336.597	102.88
336.825	103.88
337.053	100.88
337.281	103.88
337.51	115.88
337.738	105.88
337.966	104.88
338.194	119.88
338.422	105.88
338.65	103.88
338.878	104.88
339.106	111.88
339.334	90.88
339.562	116.88
339.79	99.88
340.018	90.88
340.246	113.88
340.474	112.88
340.702	109.88
340.93	102.88
341.158	114.88
341.386	116.88
341.614	120.88
341.842	96.88
342.07	106.88
342.298	108.88
342.526	112.88
342.754	114.88
342.981	103.88
343.209	96.88
343.437	108.88
343.665	99.88
343.893	114.88
344.12	114.88
344.348	100.88
344.576	97.88
344.804	104.88
345.031	104.88
345.259	97.88
345.487	89.88
345.714	104.88
345.942	113.88
346.17	102.88
346.397	106.88
346.625	110.88
346.853	88.88
347.08	89.88
347.308	101.88
347.535	114.88
347.763	95.88
347.99	98.88
348.218	109.88
348.445	96.88
348.673	103.88
348.9	117.88
349.128	119.88
349.355	106.88
349.583	102.88
349.81	111.88
350.037	114.88
350.265	121.88
350.492	105.88
350.72	100.88
350.947	98.88
351.174	106.88
351.402	109.88
351.629	118.88
351.856	97.88
352.083	105.88
352.311	106.88
352.538	114.88
352.765	96.88
352.992	94.88
353.22	93.88
353.447	96.88
353.674	105.88
353.901	99.88
354.128	94.88
354.355	93.88
354.583	98.88
354.81	108.88
355.037	94.88
355.264	101.88
355.491	116.88
355.718	107.88
355.945	98.88
356.172	108.88
356.399	99.88
356.626	99.88
356.853	90.88
357.08	100.88
357.307	96.88
357.534	84.88
357.761	111.88
357.988	98.88
358.215	105.88
358.441	93.88
358.668	87.88
358.895	108.88
359.122	100.88
359.349	98.88
359.576	116.88
359.802	121.88
360.029	115.88
360.256	110.88
360.483	95.88
360.709	107.88
360.936	83.88
361.163	99.88
361.39	80.88
361.616	97.88
361.843	109.88
362.07	102.88
362.296	100.88
362.523	110.88
362.749	98.88
362.976	94.88
363.203	101.88
363.429	89.88
363.656	101.88
363.882	101.88
364.109	121.88
364.335	106.88
364.562	99.88
364.788	94.88
365.015	104.88
365.241	118.88
365.468	157.88
365.694	209.88
365.92	182.88
366.147	115.88
366.373	102.88
366.599	100.88
366.826	104.88
367.052	102.88
367.278	98.88
367.505	87.88
367.731	103.88
367.957	115.88
368.184	98.88
368.41	102.88
368.636	99.88
368.862	99.88
369.089	91.88
369.315	112.88
369.541	101.88
369.767	105.88
369.993	104.88
370.219	115.88
370.445	97.88
370.672	115.88
370.898	89.88
371.124	99.88
371.35	106.88
371.576	98.88
371.802	116.88
372.028	106.88
372.254	103.88
372.48	117.88
372.706	89.88
372.932	113.88
373.158	104.88
373.384	102.88
373.61	118.88
373.835	126.88
374.061	129.88
374.287	101.88
374.513	100.88
374.739	111.88
374.965	106.88
375.191	110.88
375.416	104.88
375.642	108.88
375.868	107.88
376.094	111.88
376.319	107.88
376.545	108.88
376.771	103.88
376.997	97.88
377.222	105.88
377.448	93.88
377.674	92.88
377.899	110.88
378.125	103.88
378.35	110.88
378.576	92.88
378.802	101.88
379.027	118.88
379.253	128.88
379.478	168.88
379.704	272.88
379.929	645.88
380.155	1299.88
380.38	1373.88
380.606	428.88
380.831	176.88
381.057	132.88
381.282	104.88
381.507	97.88
381.733	88.88
381.958	88.88
382.184	113.88
382.409	103.88
382.634	108.88
382.86	99.88
383.085	102.88
383.31	105.88
383.535	104.88
383.761	109.88
383.986	97.88
384.211	105.88
384.436	99.88
384.662	94.88
384.887	93.88
385.112	103.88
385.337	98.88
385.562	116.88
385.787	100.88
386.013	102.88
386.238	101.88
386.463	99.88
386.688	118.88
386.913	93.88
387.138	96.88
387.363	111.88
387.588	100.88
387.813	84.88
388.038	108.88
388.263	100.88
388.488	105.88
388.713	104.88
388.938	103.88
389.163	98.88
389.387	92.88
389.612	98.88
389.837	110.88
390.062	101.88
390.287	96.88
390.512	112.88
390.736	85.88
390.961	85.88
391.186	93.88
391.411	102.88
391.636	99.88
391.86	107.88
392.085	100.88
392.31	117.88
392.534	101.88
392.759	111.88
392.984	104.88
393.208	104.88
393.433	116.88
393.658	125.88
393.882	89.88
394.107	110.88
394.331	96.88
394.556	97.88
394.78	93.88
395.005	83.88
395.229	94.88
395.454	92.88
395.678	95.88
395.903	102.88
396.127	96.88
396.352	84.88
396.576	112.88
396.801	105.88
397.025	109.88
397.249	98.88
397.474	100.88
397.698	85.88
397.922	95.88
398.147	95.88
398.371	98.88
398.595	100.88
398.82	88.88
399.044	73.88
399.268	94.88
399.492	96.88
399.717	85.88
399.941	98.88
400.165	100.88
400.389	107.88
400.613	97.88
400.837	94.88
401.062	85.88
401.286	91.88
401.51	84.88
401.734	96.88
401.958	92.88
402.182	99.88
402.406	88.88
402.63	101.88
402.854	102.88
403.078	85.88
403.302	101.88
403.526	101.88
403.75	83.88
403.974	88.88
404.198	69.88
404.422	95.88
404.645	98.88
404.869	88.88
405.093	87.88
405.317	89.88
405.541	99.88
405.765	112.88
405.988	122.88
406.212	132.88
406.436	117.88
406.66	88.88
406.883	93.88
407.107	75.88
407.331	83.88
407.555	100.88
407.778	108.88
408.002	86.88
408.226	97.88
408.449	91.88
408.673	94.88
408.896	94.88
409.12	100.88
409.344	92.88
409.567	106.88
409.791	97.88
410.014	104.88
410.238	114.88
410.461	108.88
410.685	93.88
410.908	110.88
411.132	89.88
411.355	97.88
411.578	96.88
411.802	95.88
412.025	105.88
412.249	100.88
412.472	102.88
412.695	93.88
412.919	95.88
413.142	89.88
413.365	93.88
413.589	89.88
413.812	92.88
414.035	101.88
414.258	104.88
414.482	92.88
414.705	84.88
414.928	108.88
415.151	113.88
415.374	89.88
415.597	88.88
415.821	99.88
416.044	101.88
416.267	90.88
416.49	98.88
416.713	88.88
416.936	81.88
417.159	93.88
417.382	92.88
417.605	103.88
417.828	81.88
418.051	88.88
418.274	92.88
418.497	80.88
418.72	79.88
418.943	92.88
419.166	99.88
419.389	97.88
419.611	99.88
419.834	95.88
420.057	93.88
420.28	86.88
420.503	86.88
420.726	92.88
420.948	85.88
421.171	92.88
421.394	87.88
421.617	90.88
421.839	95.88
422.062	92.88
422.285	90.88
422.507	87.88
422.73	116.88
422.953	114.88
423.175	113.88
423.398	94.88
423.621	95.88
423.843	100.88
424.066	84.88
424.288	98.88
424.511	98.88
424.733	90.88
424.956	91.88
425.178	86.88
425.401	85.88
425.623	79.88
425.846	81.88
426.068	80.88
426.291	95.88
426.513	80.88
426.735	81.88
426.958	95.88
427.18	92.88
427.402	87.88
427.625	98.88
427.847	92.88
428.069	96.88
428.292	81.88
428.514	93.88
428.736	80.88
428.958	83.88
429.181	101.88
429.403	93.88
429.625	92.88
429.847	84.88
430.069	92.88
430.292	101.88
430.514	109.88
430.736	96.88
430.958	96.88
431.18	89.88
431.402	88.88
431.624	84.88
431.846	95.88
432.068	92.88
432.29	85.88
432.512	86.88
432.734	80.88
432.956	79.88
433.178	88.88
433.4	95.88
433.622	94.88
433.844	90.88
434.066	95.88
434.287	72.88
434.509	92.88
434.731	90.88
434.953	79.88
435.175	92.88
435.397	82.88
435.618	96.88
435.84	93.88
436.062	95.88
436.284	92.88
436.505	95.88
436.727	89.88
436.949	75.88
437.17	85.88
437.392	88.88
437.614	94.88
437.835	89.88
438.057	81.88
438.278	86.88
438.5	76.88
438.721	91.88
438.943	98.88
439.165	104.88
439.386	97.88
439.608	95.88
439.829	101.88
440.05	124.88
440.272	119.88
440.493	119.88
440.715	105.88
440.936	94.88
441.158	89.88
441.379	84.88
441.6	107.88
441.822	99.88
442.043	104.88
442.264	114.88
442.486	115.88
442.707	88.88
442.928	106.88
443.149	103.88
443.371	97.88
443.592	93.88
443.813	103.88
444.034	91.88
444.255	94.88
444.476	90.88
444.698	83.88
444.919	96.88
445.14	225.88
445.361	153.88
445.582	109.88
445.803	96.88
446.024	96.88
446.245	101.88
446.466	104.88
446.687	98.88
446.908	97.88
447.129	92.88
447.35	92.88
447.571	98.88
447.792	114.88
448.013	101.88
448.234	76.88
448.455	94.88
448.675	83.88
448.896	100.88
449.117	111.88
449.338	126.88
449.559	138.88
449.779	132.88
450	103.88
450.221	98.88
450.442	89.88
450.662	106.88
450.883	105.88
451.104	106.88
451.324	118.88
451.545	111.88
451.766	119.88
451.986	114.88
452.207	183.88
452.428	426.88
452.648	1101.88
452.869	668.88
453.089	182.88
453.31	122.88
453.53	118.88
453.751	128.88
453.971	153.88
454.192	146.88
454.412	109.88
454.633	88.88
454.853	99.88
455.073	85.88
455.294	92.88
455.514	77.88
455.734	91.88
455.955	87.88
456.175	92.88
456.395	112.88
456.616	94.88
456.836	82.88
457.056	102.88
457.276	100.88
457.497	112.88
457.717	114.88
457.937	85.88
458.157	96.88
458.377	96.88
458.598	88.88
458.818	98.88
459.038	98.88
459.258	101.88
459.478	94.88
459.698	82.88
459.918	90.88
460.138	96.88
460.358	89.88
460.578	81.88
460.798	85.88
461.018	84.88
461.238	96.88
461.458	96.88
461.678	91.88
461.898	94.88
462.118	89.88
462.338	92.88
462.558	95.88
462.777	84.88
462.997	102.88
463.217	105.88
463.437	112.88
463.657	172.88
463.876	173.88
464.096	109.88
464.316	107.88
464.536	92.88
464.755	98.88
464.975	92.88
465.195	96.88
465.414	93.88
465.634	94.88
465.854	71.88
466.073	90.88
466.293	103.88
466.512	103.88
466.732	92.88
466.951	101.88
467.171	133.88
467.391	122.88
467.61	117.88
467.829	92.88
468.049	94.88
468.268	106.88
468.488	109.88
468.707	84.88
468.927	86.88
469.146	90.88
469.365	96.88
469.585	98.88
469.804	96.88
470.023	94.88
470.243	96.88
470.462	78.88
470.681	89.88
470.901	133.88
471.12	179.88
471.339	189.88
471.558	104.88
471.777	114.88
471.997	104.88
472.216	95.88
472.435	97.88
472.654	75.88
472.873	92.88
473.092	83.88
473.311	104.88
473.53	92.88
473.749	89.88
473.968	100.88
474.187	91.88
474.406	84.88
474.625	93.88
474.844	93.88
475.063	89.88
475.282	81.88
475.501	97.88
475.72	89.88
475.939	85.88
476.158	81.88
476.377	102.88
476.596	100.88
476.814	93.88
477.033	81.88
477.252	93.88
477.471	96.88
477.69	95.88
477.908	73.88
478.127	82.88
478.346	95.88
478.564	99.88
478.783	83.88
479.002	93.88
479.22	103.88
479.439	90.88
479.658	85.88
479.876	89.88
480.095	112.88
480.313	85.88
480.532	98.88
480.751	89.88
480.969	94.88
481.188	84.88
481.406	90.88
481.624	98.88
481.843	87.88
482.061	91.88
482.28	99.88
482.498	85.88
482.717	97.88
482.935	105.88
483.153	107.88
483.372	97.88
483.59	104.88
483.808	86.88
484.027	99.88
484.245	117.88
484.463	145.88
484.681	202.88
484.9	134.88
485.118	116.88
485.336	105.88
485.554	104.88
485.772	116.88
485.99	163.88
486.209	213.88
486.427	153.88
486.645	111.88
486.863	99.88
487.081	110.88
487.299	88.88
487.517	103.88
487.735	78.88
487.953	98.88
488.171	87.88
488.389	87.88
488.607	91.88
488.825	95.88
489.043	85.88
489.261	106.88
489.479	102.88
489.696	95.88
489.914	85.88
490.132	98.88
490.35	118.88
490.568	99.88
490.786	107.88
491.003	116.88
491.221	112.88
491.439	112.88
491.657	112.88
491.874	98.88
492.092	103.88
492.31	116.88
492.527	90.88
492.745	96.88
492.963	90.88
493.18	97.88
493.398	105.88
493.615	85.88
493.833	108.88
494.05	101.88
494.268	108.88
494.485	115.88
494.703	100.88
494.92	100.88
495.138	100.88
495.355	96.88
495.573	109.88
495.79	102.88
496.008	94.88
496.225	101.88
496.442	98.88
496.66	107.88
496.877	136.88
497.094	153.88
497.312	90.88
497.529	108.88
497.746	71.88
497.963	88.88
498.181	94.88
498.398	104.88
498.615	84.88
498.832	95.88
499.049	106.88
499.267	124.88
499.484	154.88
499.701	111.88
499.918	106.88
500.135	106.88
500.352	98.88
500.569	92.88
500.786	97.88
501.003	93.88
501.22	98.88
501.437	85.88
501.654	93.88
501.871	93.88
502.088	100.88
502.305	110.88
502.522	108.88
502.739	96.88
502.956	97.88
503.172	90.88
503.389	79.88
503.606	98.88
503.823	100.88
504.04	101.88
504.256	92.88
504.473	95.88
504.69	96.88
504.907	103.88
505.123	119.88
505.34	106.88
505.557	98.88
505.773	100.88
505.99	103.88
506.207	84.88
506.423	104.88
506.64	101.88
506.856	98.88
507.073	108.88
507.289	103.88
507.506	96.88
507.722	99.88
507.939	91.88
508.155	92.88
508.372	97.88
508.588	86.88
508.805	96.88
509.021	100.88
509.238	101.88
509.454	120.88
509.67	158.88
509.887	106.88
510.103	93.88
510.319	81.88
510.536	109.88
510.752	101.88
510.968	100.88
511.184	102.88
511.401	92.88
511.617	94.88
511.833	93.88
512.049	94.88
512.265	79.88
512.481	97.88
512.698	87.88
512.914	93.88
513.13	100.88
513.346	83.88
513.562	93.88
513.778	98.88
513.994	103.88
514.21	103.88
514.426	143.88
514.642	160.88
514.858	121.88
515.074	108.88
515.29	89.88
515.506	122.88
515.721	102.88
515.937	111.88
516.153	72.88
516.369	89.88
516.585	82.88
516.801	74.88
517.016	84.88
517.232	89.88
517.448	99.88
517.664	109.88
517.879	110.88
518.095	92.88
518.311	88.88
518.527	103.88
518.742	93.88
518.958	105.88
519.173	133.88
519.389	101.88
519.605	96.88
519.82	92.88
520.036	87.88
520.251	81.88
520.467	96.88
520.682	81.88
520.898	89.88
521.113	103.88
521.329	95.88
521.544	85.88
521.76	98.88
521.975	101.88
522.19	109.88
522.406	104.88
522.621	93.88
522.836	94.88
523.052	101.88
523.267	92.88
523.482	94.88
523.698	104.88
523.913	97.88
524.128	87.88
524.343	83.88
524.559	94.88
524.774	98.88
524.989	88.88
525.204	92.88
525.419	95.88
525.634	98.88
525.849	77.88
526.064	83.88
526.28	94.88
526.495	88.88
526.71	88.88
526.925	80.88
527.14	87.88
527.355	94.88
527.57	98.88
527.785	91.88
527.999	100.88
528.214	99.88
528.429	97.88
528.644	79.88
528.859	101.88
529.074	84.88
529.289	84.88
529.503	94.88
529.718	106.88
529.933	93.88
530.148	87.88
530.363	96.88
530.577	99.88
530.792	81.88
531.007	89.88
531.221	84.88
531.436	100.88
531.651	82.88
531.865	89.88
532.08	83.88
532.295	105.88
532.509	142.88
532.724	116.88
532.938	89.88
533.153	102.88
533.367	110.88
533.582	86.88
533.796	96.88
534.011	104.88
534.225	95.88
534.44	96.88
534.654	104.88
534.868	85.88
535.083	100.88
535.297	91.88
535.511	88.88
535.726	86.88
535.94	86.88
536.154	88.88
536.369	85.88
536.583	96.88
536.797	98.88
537.011	78.88
537.225	102.88
537.44	93.88
537.654	84.88
537.868	81.88
538.082	84.88
538.296	88.88
538.51	97.88
538.724	111.88
538.938	103.88
539.153	90.88
539.367	101.88
539.581	89.88
539.795	95.88
540.009	94.88
540.222	95.88
540.436	104.88
540.65	89.88
540.864	92.88
541.078	112.88
541.292	108.88
541.506	189.88
541.72	180.88
541.934	106.88
542.147	109.88
542.361	103.88
542.575	91.88
542.789	94.88
543.002	101.88
543.216	91.88
543.43	98.88
543.644	101.88
543.857	88.88
544.071	88.88
544.285	87.88
544.498	92.88
544.712	95.88
544.925	87.88
545.139	93.88
545.352	105.88
545.566	90.88
545.779	105.88
545.993	88.88
546.206	113.88
546.42	95.88
546.633	95.88
546.847	96.88
547.06	98.88
547.274	108.88
547.487	86.88
547.7	105.88
547.914	97.88
548.127	91.88
548.34	94.88
548.554	81.88
548.767	99.88
548.98	81.88
549.193	100.88
549.407	97.88
549.62	100.88
549.833	96.88
550.046	97.88
550.259	95.88
550.473	87.88
550.686	86.88
550.899	102.88
551.112	88.88
551.325	96.88
551.538	89.88
551.751	88.88
551.964	98.88
552.177	92.88
552.39	105.88
552.603	96.88
552.816	99.88
553.029	87.88
553.242	102.88
553.455	91.88
553.667	90.88
553.88	103.88
554.093	84.88
554.306	96.88
554.519	83.88
554.732	108.88
554.944	97.88
555.157	93.88
555.37	92.88
555.583	108.88
555.795	93.88
556.008	116.88
556.221	147.88
556.433	120.88
556.646	100.88
556.859	82.88
557.071	99.88
557.284	121.88
557.496	98.88
557.709	105.88
557.921	97.88
558.134	90.88
558.346	96.88
558.559	84.88
558.771	92.88
558.984	84.88
559.196	98.88
559.409	84.88
559.621	83.88
559.833	94.88
560.046	90.88
560.258	95.88
560.47	92.88
560.683	102.88
560.895	94.88
561.107	83.88
561.32	98.88
561.532	100.88
561.744	95.88
561.956	82.88
562.168	90.88
562.381	92.88
562.593	112.88
562.805	116.88
563.017	158.88
563.229	215.88
563.441	485.88
563.653	176.88
563.865	101.88
564.077	96.88
564.289	110.88
564.501	98.88
564.713	92.88
564.925	92.88
565.137	100.88
565.349	90.88
565.561	80.88
565.773	99.88
565.985	105.88
566.197	93.88
566.408	91.88
566.62	78.88
566.832	95.88
567.044	92.88
567.255	85.88
567.467	92.88
567.679	96.88
567.891	118.88
568.102	156.88
568.314	230.88
568.526	149.88
568.737	103.88
568.949	100.88
569.161	83.88
569.372	98.88
569.584	99.88
569.795	94.88
570.007	95.88
570.218	123.88
570.43	154.88
570.641	114.88
570.853	89.88
571.064	92.88
571.276	96.88
571.487	104.88
571.698	102.88
571.91	108.88
572.121	85.88
572.333	97.88
572.544	99.88
572.755	124.88
572.966	164.88
573.178	113.88
573.389	97.88
573.6	78.88
573.811	99.88
574.023	98.88
574.234	89.88
574.445	86.88
574.656	99.88
574.867	94.88
575.078	87.88
575.289	86.88
575.501	88.88
575.712	92.88
575.923	89.88
576.134	83.88
576.345	72.88
576.556	93.88
576.767	86.88
576.978	92.88
577.188	107.88
577.399	92.88
577.61	86.88
577.821	82.88
578.032	76.88
578.243	95.88
578.454	98.88
578.665	102.88
578.875	88.88
579.086	86.88
579.297	91.88
579.508	96.88
579.718	87.88
579.929	103.88
580.14	85.88
580.35	82.88
580.561	98.88
580.772	84.88
580.982	86.88
581.193	91.88
581.403	90.88
581.614	89.88
581.825	95.88
582.035	82.88
582.246	98.88
582.456	78.88
582.667	101.88
582.877	112.88
583.087	109.88
583.298	90.88
583.508	97.88
583.719	84.88
583.929	97.88
584.139	92.88
584.35	79.88
584.56	86.88
584.77	92.88
584.981	87.88
585.191	98.88
585.401	80.88
585.611	106.88
585.821	88.88
586.032	78.88
586.242	82.88
586.452	88.88
586.662	98.88
586.872	77.88
587.082	72.88
587.292	95.88
587.502	115.88
587.713	88.88
587.923	80.88
588.133	89.88
588.343	88.88
588.553	89.88
588.762	67.88
588.972	103.88
589.182	121.88
589.392	108.88
589.602	93.88
589.812	92.88
590.022	96.88
590.232	77.88
590.441	90.88
590.651	83.88
590.861	88.88
591.071	76.88
591.281	88.88
591.49	84.88
591.7	97.88
591.91	90.88
592.119	80.88
592.329	101.88
592.539	85.88
592.748	90.88
592.958	93.88
593.167	74.88
593.377	72.88
593.587	108.88
593.796	85.88
594.006	74.88
594.215	79.88
594.424	82.88
594.634	83.88
594.843	85.88
595.053	80.88
595.262	86.88
595.472	98.88
595.681	81.88
595.89	90.88
596.1	89.88
596.309	93.88
596.518	84.88
596.727	98.88
596.937	81.88
597.146	102.88
597.355	104.88
597.564	88.88
597.774	88.88
597.983	93.88
598.192	90.88
598.401	87.88
598.61	83.88
598.819	85.88
599.028	90.88
599.237	84.88
599.446	89.88
599.655	89.88
599.864	105.88
600.073	79.88
600.282	80.88
600.491	94.88
600.7	97.88
600.909	79.88
601.118	77.88
601.327	90.88
601.536	94.88
601.745	109.88
601.953	112.88
602.162	136.88
602.371	98.88
602.58	90.88
602.789	81.88
602.997	98.88
603.206	100.88
603.415	93.88
603.623	94.88
603.832	101.88
604.041	99.88
604.249	99.88
604.458	97.88
604.666	74.88
604.875	85.88
605.084	79.88
605.292	88.88
605.501	92.88
605.709	91.88
605.918	80.88
606.126	81.88
606.334	98.88
606.543	102.88
606.751	118.88
606.96	143.88
607.168	152.88
607.376	122.88
607.585	92.88
607.793	93.88
608.001	92.88
608.21	84.88
608.418	91.88
608.626	89.88
608.834	92.88
609.043	87.88
609.251	90.88
609.459	94.88
609.667	86.88
609.875	80.88
610.083	94.88
610.291	96.88
610.499	84.88
610.707	79.88
610.916	95.88
611.124	95.88
611.332	109.88
611.54	86.88
611.748	87.88
611.955	104.88
612.163	87.88
612.371	94.88
612.579	90.88
612.787	86.88
612.995	97.88
613.203	96.88
613.411	83.88
613.618	76.88
613.826	80.88
614.034	80.88
614.242	100.88
614.449	98.88
614.657	88.88
614.865	98.88
615.072	93.88
615.28	109.88
615.488	101.88
615.695	93.88
615.903	89.88
616.111	106.88
616.318	98.88
616.526	101.88
616.733	89.88
616.941	81.88
617.148	98.88
617.356	94.88
617.563	87.88
617.771	82.88
617.978	80.88
618.185	93.88
618.393	92.88
618.6	83.88
618.807	87.88
619.015	84.88
619.222	105.88
619.429	88.88
619.637	92.88
619.844	92.88
620.051	92.88
620.258	98.88
620.466	95.88
620.673	94.88
620.88	92.88
621.087	89.88
621.294	87.88
621.501	94.88
621.708	86.88
621.915	86.88
622.122	87.88
622.329	92.88
622.536	85.88
622.743	92.88
622.95	91.88
623.157	93.88
623.364	81.88
623.571	90.88
623.778	87.88
623.985	96.88
624.192	92.88
624.399	94.88
624.606	92.88
624.812	85.88
625.019	87.88
625.226	87.88
625.433	79.88
625.639	87.88
625.846	84.88
626.053	88.88
626.259	100.88
626.466	91.88
626.673	80.88
626.879	81.88
627.086	88.88
627.293	84.88
627.499	102.88
627.706	88.88
627.912	82.88
628.119	73.88
628.325	81.88
628.532	77.88
628.738	91.88
628.945	69.88
629.151	86.88
629.357	86.88
629.564	85.88
629.77	81.88
629.976	84.88
630.183	83.88
630.389	80.88
630.595	96.88
630.802	98.88
631.008	92.88
631.214	99.88
631.42	88.88
631.627	90.88
631.833	86.88
632.039	86.88
632.245	78.88
632.451	94.88
632.657	81.88
632.863	93.88
633.069	85.88
633.275	89.88
633.481	89.88
633.688	75.88
633.893	80.88
634.099	96.88
634.305	81.88
634.511	84.88
634.717	83.88
634.923	86.88
635.129	112.88
635.335	118.88
635.541	82.88
635.747	84.88
635.952	78.88
636.158	79.88
636.364	92.88
636.57	86.88
636.775	78.88
636.981	84.88
637.187	79.88
637.392	85.88
637.598	91.88
637.804	89.88
638.009	81.88
638.215	81.88
638.421	85.88
638.626	100.88
638.832	88.88
639.037	77.88
639.243	87.88
639.448	90.88
639.654	81.88
639.859	82.88
640.065	81.88
640.27	84.88
640.475	86.88
640.681	94.88
640.886	75.88
641.091	84.88
641.297	86.88
641.502	79.88
641.707	104.88
641.913	83.88
642.118	81.88
642.323	70.88
642.528	83.88
642.733	84.88
642.939	81.88
643.144	86.88
643.349	74.88
643.554	91.88
643.759	82.88
643.964	76.88
644.169	85.88
644.374	79.88
644.579	78.88
644.784	88.88
644.989	84.88
645.194	86.88
645.399	89.88
645.604	97.88
645.809	92.88
646.014	73.88
646.219	83.88
646.423	82.88
646.628	77.88
646.833	98.88
647.038	83.88
647.243	85.88
647.447	78.88
647.652	68.88
647.857	84.88
648.062	83.88
648.266	77.88
648.471	90.88
648.676	91.88
648.88	87.88
649.085	83.88
649.289	79.88
649.494	85.88
649.698	100.88
649.903	98.88
650.107	76.88
650.312	91.88
650.516	88.88
650.721	87.88
650.925	85.88
651.13	84.88
651.334	83.88
651.539	79.88
651.743	93.88
651.947	89.88
652.152	90.88
652.356	90.88
652.56	101.88
652.764	106.88
652.969	86.88
653.173	85.88
653.377	79.88
653.581	77.88
653.785	93.88
653.99	74.88
654.194	74.88
654.398	82.88
654.602	89.88
654.806	97.88
655.01	89.88
655.214	91.88
655.418	89.88
655.622	84.88
655.826	74.88
656.03	80.88
656.234	80.88
656.438	67.88
656.642	86.88
656.846	68.88
657.049	73.88
657.253	85.88
657.457	78.88
657.661	63.88
657.865	72.88
658.068	88.88
658.272	73.88
658.476	75.88
658.68	94.88
658.883	87.88
659.087	78.88
659.291	79.88
659.494	74.88
659.698	82.88
659.901	73.88
660.105	91.88
660.309	80.88
660.512	70.88
660.716	68.88
660.919	75.88
661.123	72.88
661.326	76.88
661.53	93.88
661.733	79.88
661.936	66.88
662.14	72.88
662.343	83.88
662.546	89.88
662.75	75.88
662.953	85.88
663.156	76.88
663.36	75.88
663.563	84.88
663.766	80.88
663.969	78.88
664.173	92.88
664.376	77.88
664.579	81.88
664.782	88.88
664.985	84.88
665.188	74.88
665.391	74.88
665.594	79.88
665.797	77.88
666	74.88
666.203	98.88
666.406	83.88
666.609	82.88
666.812	80.88
667.015	76.88
667.218	80.88
667.421	78.88
667.624	88.88
667.827	88.88
668.03	69.88
668.232	80.88
668.435	90.88
668.638	93.88
668.841	74.88
669.043	86.88
669.246	80.88
669.449	96.88
669.651	75.88
669.854	80.88
670.057	84.88
670.259	70.88
670.462	69.88
670.665	68.88
670.867	71.88
671.07	62.88
671.272	87.88
671.475	92.88
671.677	80.88
671.88	69.88
672.082	81.88
672.284	66.88
672.487	84.88
672.689	79.88
672.892	79.88
