Data from SnStandardFlinnAPT0064_LampEnergy10_LIBS07252019.E.O._I.C._HRD10591_15-20-01-493.txt Node
Date: Thu Jul 25 15:20:01 EDT 2019
User: cochatt
Spectrometer: HR+D1059
Trigger mode: 1
Integration Time (sec): 1.000000E-1
Scans to average: 1
Electric dark correction enabled: true
Nonlinearity correction enabled: false
Boxcar width: 0
XAxis mode: Wavelengths
Number of Pixels in Spectrum: 2048
>>>>>Begin Spectral Data<<<<<
223.165	-24.06
223.4	-24.06
223.635	-24.06
223.869	-15.06
224.104	-32.06
224.338	-9.06
224.573	-13.06
224.808	-12.06
225.042	-18.06
225.277	-2.06
225.511	0.94
225.746	2.94
225.98	6.94
226.215	9.94
226.449	16.94
226.683	14.94
226.918	24.94
227.152	47.94
227.387	28.94
227.621	38.94
227.856	34.94
228.09	27.94
228.324	50.94
228.559	54.94
228.793	132.94
229.027	308.94
229.262	336.94
229.496	306.94
229.73	286.94
229.964	299.94
230.199	317.94
230.433	298.94
230.667	294.94
230.901	311.94
231.136	312.94
231.37	358.94
231.604	392.94
231.838	432.94
232.072	526.94
232.306	552.94
232.541	466.94
232.775	424.94
233.009	418.94
233.243	412.94
233.477	463.94
233.711	517.94
233.945	587.94
234.179	548.94
234.413	458.94
234.647	448.94
234.881	492.94
235.115	501.94
235.349	614.94
235.583	786.94
235.817	1020.94
236.051	1015.94
236.285	674.94
236.519	538.94
236.753	493.94
236.987	500.94
237.221	534.94
237.455	518.94
237.689	476.94
237.922	464.94
238.156	474.94
238.39	494.94
238.624	532.94
238.858	485.94
239.091	483.94
239.325	510.94
239.559	494.94
239.793	512.94
240.027	504.94
240.26	537.94
240.494	564.94
240.728	602.94
240.961	619.94
241.195	659.94
241.429	685.94
241.662	722.94
241.896	820.94
242.13	968.94
242.363	1267.94
242.597	1634.94
242.83	1558.94
243.064	1580.94
243.298	1814.94
243.531	1532.94
243.765	975.94
243.998	797.94
244.232	702.94
244.465	672.94
244.699	664.94
244.932	658.94
245.166	638.94
245.399	705.94
245.633	679.94
245.866	702.94
246.099	689.94
246.333	636.94
246.566	625.94
246.8	611.94
247.033	666.94
247.266	656.94
247.5	659.94
247.733	707.94
247.966	699.94
248.2	766.94
248.433	888.94
248.666	1007.94
248.899	943.94
249.133	854.94
249.366	890.94
249.599	966.94
249.832	1140.94
250.066	1143.94
250.299	881.94
250.532	797.94
250.765	774.94
250.998	767.94
251.231	765.94
251.465	734.94
251.698	772.94
251.931	755.94
252.164	759.94
252.397	775.94
252.63	801.94
252.863	792.94
253.096	796.94
253.329	804.94
253.562	791.94
253.795	785.94
254.028	800.94
254.261	813.94
254.494	916.94
254.727	1020.94
254.96	1272.94
255.193	1239.94
255.426	974.94
255.659	899.94
255.892	870.94
256.124	858.94
256.357	855.94
256.59	891.94
256.823	991.94
257.056	1112.94
257.289	1363.94
257.521	1528.94
257.754	1223.94
257.987	1009.94
258.22	920.94
258.452	924.94
258.685	938.94
258.918	955.94
259.151	990.94
259.383	1088.94
259.616	1225.94
259.849	1280.94
260.081	1095.94
260.314	978.94
260.547	968.94
260.779	952.94
261.012	978.94
261.244	966.94
261.477	999.94
261.71	1000.94
261.942	1010.94
262.175	1016.94
262.407	1009.94
262.64	1050.94
262.872	1078.94
263.105	1137.94
263.337	1187.94
263.57	1269.94
263.802	1285.94
264.035	1288.94
264.267	1332.94
264.499	1402.94
264.732	1441.94
264.964	1448.94
265.197	1385.94
265.429	1430.94
265.661	1444.94
265.894	1528.94
266.126	1754.94
266.358	1968.94
266.591	1874.94
266.823	1606.94
267.055	1452.94
267.287	1381.94
267.52	1344.94
267.752	1296.94
267.984	1243.94
268.216	1246.94
268.448	1230.94
268.681	1198.94
268.913	1239.94
269.145	1292.94
269.377	1248.94
269.609	1230.94
269.841	1304.94
270.073	1359.94
270.306	1605.94
270.538	2166.94
270.77	3272.94
271.002	4062.94
271.234	2857.94
271.466	1908.94
271.698	1582.94
271.93	1428.94
272.162	1340.94
272.394	1277.94
272.626	1282.94
272.858	1212.94
273.09	1230.94
273.322	1206.94
273.553	1186.94
273.785	1192.94
274.017	1203.94
274.249	1218.94
274.481	1189.94
274.713	1215.94
274.945	1190.94
275.176	1216.94
275.408	1246.94
275.64	1223.94
275.872	1223.94
276.104	1278.94
276.335	1298.94
276.567	1286.94
276.799	1274.94
277.031	1311.94
277.262	1344.94
277.494	1391.94
277.726	1549.94
277.957	1861.94
278.189	2130.94
278.421	1989.94
278.652	1788.94
278.884	1666.94
279.115	1487.94
279.347	1436.94
279.579	1408.94
279.81	1403.94
280.042	1362.94
280.273	1429.94
280.505	1462.94
280.736	1498.94
280.968	1635.94
281.199	1788.94
281.431	2044.94
281.662	2115.94
281.894	1771.94
282.125	1687.94
282.356	1669.94
282.588	1650.94
282.819	1748.94
283.051	1811.94
283.282	2001.94
283.513	2564.94
283.745	3667.94
283.976	5825.94
284.207	8158.94
284.439	7520.94
284.67	4717.94
284.901	3807.94
285.132	3875.94
285.364	3631.94
285.595	2786.94
285.826	2500.94
286.057	2917.94
286.288	3916.94
286.52	5324.94
286.751	4997.94
286.982	3154.94
287.213	2339.94
287.444	2035.94
287.675	1890.94
287.906	1816.94
288.138	1704.94
288.369	1707.94
288.6	1682.94
288.831	1680.94
289.062	1694.94
289.293	1711.94
289.524	1706.94
289.755	1687.94
289.986	1703.94
290.217	1700.94
290.448	1710.94
290.679	1732.94
290.91	1800.94
291.141	1921.94
291.371	2027.94
291.602	2116.94
291.833	1951.94
292.064	1758.94
292.295	1686.94
292.526	1664.94
292.757	1631.94
292.987	1616.94
293.218	1590.94
293.449	1601.94
293.68	1579.94
293.91	1566.94
294.141	1566.94
294.372	1581.94
294.603	1566.94
294.833	1583.94
295.064	1545.94
295.295	1584.94
295.525	1562.94
295.756	1558.94
295.987	1544.94
296.217	1579.94
296.448	1650.94
296.679	1587.94
296.909	1614.94
297.14	1577.94
297.37	1653.94
297.601	1651.94
297.831	1604.94
298.062	1655.94
298.292	1657.94
298.523	1682.94
298.753	1733.94
298.984	1710.94
299.214	1747.94
299.445	1767.94
299.675	1746.94
299.905	1855.94
300.136	1946.94
300.366	2141.94
300.597	2775.94
300.827	3890.94
301.057	5327.94
301.288	5286.94
301.518	3467.94
301.748	2626.94
301.979	2431.94
302.209	2335.94
302.439	2338.94
302.669	2495.94
302.9	3031.94
303.13	4182.94
303.36	6221.94
303.59	8362.94
303.82	7346.94
304.051	4387.94
304.281	3103.94
304.511	2597.94
304.741	2332.94
304.971	2208.94
305.201	2109.94
305.431	2044.94
305.661	1956.94
305.891	1905.94
306.121	1916.94
306.352	1877.94
306.582	1838.94
306.812	1828.94
307.042	1866.94
307.272	1851.94
307.502	1779.94
307.731	1819.94
307.961	1834.94
308.191	1795.94
308.421	1802.94
308.651	1795.94
308.881	1757.94
309.111	1842.94
309.341	1807.94
309.571	1810.94
309.8	1885.94
310.03	1843.94
310.26	1868.94
310.49	1873.94
310.72	1856.94
310.949	1884.94
311.179	1885.94
311.409	1878.94
311.639	1934.94
311.868	1928.94
312.098	1981.94
312.328	1965.94
312.557	1958.94
312.787	1960.94
313.017	1990.94
313.246	2012.94
313.476	1998.94
313.706	2093.94
313.935	2197.94
314.165	2364.94
314.394	2483.94
314.624	2349.94
314.853	2210.94
315.083	2206.94
315.312	2179.94
315.542	2174.94
315.771	2190.94
316.001	2284.94
316.23	2322.94
316.46	2471.94
316.689	2682.94
316.919	3263.94
317.148	4642.94
317.377	7237.94
317.607	10609.94
317.836	11055.94
318.065	6784.94
318.295	4451.94
318.524	3539.94
318.753	3048.94
318.983	2807.94
319.212	2613.94
319.441	2518.94
319.67	2424.94
319.9	2405.94
320.129	2386.94
320.358	2390.94
320.587	2323.94
320.816	2386.94
321.046	2351.94
321.275	2354.94
321.504	2403.94
321.733	2419.94
321.962	2510.94
322.191	2575.94
322.42	2540.94
322.649	2499.94
322.878	2474.94
323.108	2476.94
323.337	2528.94
323.566	2556.94
323.795	2626.94
324.024	2660.94
324.253	2726.94
324.482	2828.94
324.71	3027.94
324.939	3246.94
325.168	3376.94
325.397	3451.94
325.626	4106.94
325.855	5740.94
326.084	8880.94
326.313	12886.94
326.542	13604.94
326.77	9335.94
326.999	6079.94
327.228	5174.94
327.457	4890.94
327.686	4862.94
327.914	5253.94
328.143	6173.94
328.372	7191.94
328.6	7958.94
328.829	7149.94
329.058	5907.94
329.287	5167.94
329.515	4735.94
329.744	4351.94
329.972	4090.94
330.201	3896.94
330.43	3746.94
330.658	3645.94
330.887	3616.94
331.115	3498.94
331.344	3445.94
331.572	3464.94
331.801	3536.94
332.03	3521.94
332.258	3575.94
332.486	3742.94
332.715	4287.94
332.943	5343.94
333.172	6694.94
333.4	6629.94
333.629	5076.94
333.857	4583.94
334.085	4504.94
334.314	4759.94
334.542	5230.94
334.771	6055.94
334.999	7511.94
335.227	9357.94
335.455	10504.94
335.684	9552.94
335.912	7783.94
336.14	6648.94
336.369	5841.94
336.597	5276.94
336.825	4903.94
337.053	4628.94
337.281	4309.94
337.51	4052.94
337.738	3890.94
337.966	3723.94
338.194	3576.94
338.422	3516.94
338.65	3398.94
338.878	3309.94
339.106	3228.94
339.334	3244.94
339.562	3181.94
339.79	3120.94
340.018	3070.94
340.246	2990.94
340.474	3020.94
340.702	3025.94
340.93	2998.94
341.158	3000.94
341.386	2975.94
341.614	2981.94
341.842	2919.94
342.07	2846.94
342.298	2811.94
342.526	2803.94
342.754	2742.94
342.981	2731.94
343.209	2676.94
343.437	2708.94
343.665	2755.94
343.893	2791.94
344.12	2771.94
344.348	2767.94
344.576	2748.94
344.804	2720.94
345.031	2625.94
345.259	2598.94
345.487	2611.94
345.714	2583.94
345.942	2538.94
346.17	2558.94
346.397	2528.94
346.625	2526.94
346.853	2524.94
347.08	2538.94
347.308	2486.94
347.535	2501.94
347.763	2483.94
347.99	2490.94
348.218	2479.94
348.445	2471.94
348.673	2508.94
348.9	2476.94
349.128	2452.94
349.355	2445.94
349.583	2474.94
349.81	2445.94
350.037	2386.94
350.265	2393.94
350.492	2451.94
350.72	2418.94
350.947	2375.94
351.174	2387.94
351.402	2413.94
351.629	2360.94
351.856	2397.94
352.083	2404.94
352.311	2390.94
352.538	2356.94
352.765	2394.94
352.992	2358.94
353.22	2354.94
353.447	2374.94
353.674	2387.94
353.901	2372.94
354.128	2432.94
354.355	2406.94
354.583	2428.94
354.81	2402.94
355.037	2396.94
355.264	2412.94
355.491	2400.94
355.718	2415.94
355.945	2436.94
356.172	2478.94
356.399	2473.94
356.626	2463.94
356.853	2533.94
357.08	2463.94
357.307	2557.94
357.534	2532.94
357.761	2577.94
357.988	2598.94
358.215	2585.94
358.441	2533.94
358.668	2551.94
358.895	2593.94
359.122	2515.94
359.349	2533.94
359.576	2513.94
359.802	2571.94
360.029	2529.94
360.256	2533.94
360.483	2554.94
360.709	2502.94
360.936	2535.94
361.163	2543.94
361.39	2567.94
361.616	2548.94
361.843	2506.94
362.07	2526.94
362.296	2535.94
362.523	2545.94
362.749	2558.94
362.976	2524.94
363.203	2542.94
363.429	2500.94
363.656	2503.94
363.882	2529.94
364.109	2587.94
364.335	2505.94
364.562	2529.94
364.788	2586.94
365.015	2588.94
365.241	2647.94
365.468	2803.94
365.694	2909.94
365.92	2834.94
366.147	2642.94
366.373	2591.94
366.599	2612.94
366.826	2578.94
367.052	2579.94
367.278	2616.94
367.505	2592.94
367.731	2606.94
367.957	2650.94
368.184	2606.94
368.41	2616.94
368.636	2624.94
368.862	2657.94
369.089	2615.94
369.315	2604.94
369.541	2614.94
369.767	2630.94
369.993	2625.94
370.219	2627.94
370.445	2672.94
370.672	2691.94
370.898	2634.94
371.124	2647.94
371.35	2702.94
371.576	2672.94
371.802	2746.94
372.028	2742.94
372.254	2717.94
372.48	2734.94
372.706	2744.94
372.932	2765.94
373.158	2697.94
373.384	2804.94
373.61	2754.94
373.835	2741.94
374.061	2785.94
374.287	2799.94
374.513	2804.94
374.739	2926.94
374.965	2897.94
375.191	2882.94
375.416	2880.94
375.642	2833.94
375.868	2818.94
376.094	2828.94
376.319	2747.94
376.545	2759.94
376.771	2704.94
376.997	2746.94
377.222	2755.94
377.448	2702.94
377.674	2754.94
377.899	2684.94
378.125	2712.94
378.35	2670.94
378.576	2738.94
378.802	2759.94
379.027	2829.94
379.253	2886.94
379.478	3040.94
379.704	3658.94
379.929	5166.94
380.155	7956.94
380.38	8696.94
380.606	5345.94
380.831	3700.94
381.057	3208.94
381.282	3014.94
381.507	2853.94
381.733	2781.94
381.958	2731.94
382.184	2690.94
382.409	2685.94
382.634	2657.94
382.86	2678.94
383.085	2648.94
383.31	2675.94
383.535	2711.94
383.761	2664.94
383.986	2712.94
384.211	2710.94
384.436	2757.94
384.662	2705.94
384.887	2773.94
385.112	2759.94
385.337	2776.94
385.562	2734.94
385.787	2738.94
386.013	2767.94
386.238	2773.94
386.463	2774.94
386.688	2758.94
386.913	2720.94
387.138	2732.94
387.363	2758.94
387.588	2709.94
387.813	2726.94
388.038	2750.94
388.263	2746.94
388.488	2773.94
388.713	2706.94
388.938	2754.94
389.163	2694.94
389.387	2723.94
389.612	2712.94
389.837	2768.94
390.062	2768.94
390.287	2794.94
390.512	2817.94
390.736	2754.94
390.961	2852.94
391.186	2832.94
391.411	2832.94
391.636	2869.94
391.86	2927.94
392.085	2891.94
392.31	2836.94
392.534	2821.94
392.759	2857.94
392.984	2816.94
393.208	2818.94
393.433	2857.94
393.658	2768.94
393.882	2770.94
394.107	2774.94
394.331	2773.94
394.556	2816.94
394.78	2860.94
395.005	2844.94
395.229	2842.94
395.454	2892.94
395.678	2875.94
395.903	2897.94
396.127	2853.94
396.352	2860.94
396.576	2783.94
396.801	2816.94
397.025	2930.94
397.249	2882.94
397.474	2868.94
397.698	2890.94
397.922	2915.94
398.147	2928.94
398.371	2969.94
398.595	3018.94
398.82	3068.94
399.044	3147.94
399.268	3311.94
399.492	3508.94
399.717	3566.94
399.941	3654.94
400.165	3459.94
400.389	3331.94
400.613	3228.94
400.837	3095.94
401.062	3066.94
401.286	2996.94
401.51	3019.94
401.734	3011.94
401.958	3075.94
402.182	3071.94
402.406	3030.94
402.63	3008.94
402.854	3151.94
403.078	3039.94
403.302	3157.94
403.526	3084.94
403.75	3091.94
403.974	3174.94
404.198	3136.94
404.422	3174.94
404.645	3146.94
404.869	3122.94
405.093	3104.94
405.317	3095.94
405.541	3147.94
405.765	3199.94
405.988	3312.94
406.212	3312.94
406.436	3195.94
406.66	3239.94
406.883	3219.94
407.107	3318.94
407.331	3367.94
407.555	3441.94
407.778	3419.94
408.002	3406.94
408.226	3396.94
408.449	3334.94
408.673	3299.94
408.896	3153.94
409.12	3187.94
409.344	3207.94
409.567	3123.94
409.791	3151.94
410.014	3202.94
410.238	3122.94
410.461	3122.94
410.685	3132.94
410.908	3102.94
411.132	3087.94
411.355	3038.94
411.578	3038.94
411.802	2987.94
412.025	3003.94
412.249	3028.94
412.472	3027.94
412.695	2971.94
412.919	2958.94
413.142	2974.94
413.365	2936.94
413.589	3008.94
413.812	2940.94
414.035	2927.94
414.258	2959.94
414.482	2911.94
414.705	2980.94
414.928	2987.94
415.151	2939.94
415.374	2957.94
415.597	2943.94
415.821	2834.94
416.044	2846.94
416.267	2885.94
416.49	2830.94
416.713	2816.94
416.936	2816.94
417.159	2775.94
417.382	2798.94
417.605	2806.94
417.828	2834.94
418.051	2918.94
418.274	2850.94
418.497	2919.94
418.72	2943.94
418.943	2865.94
419.166	3060.94
419.389	3223.94
419.611	3081.94
419.834	3061.94
420.057	2974.94
420.28	2875.94
420.503	2787.94
420.726	2842.94
420.948	2840.94
421.171	2802.94
421.394	2839.94
421.617	2841.94
421.839	2849.94
422.062	2878.94
422.285	2838.94
422.507	2894.94
422.73	2894.94
422.953	2935.94
423.175	2992.94
423.398	2975.94
423.621	2852.94
423.843	2916.94
424.066	2898.94
424.288	2890.94
424.511	2862.94
424.733	2828.94
424.956	2824.94
425.178	2824.94
425.401	2820.94
425.623	2831.94
425.846	2760.94
426.068	2740.94
426.291	2765.94
426.513	2727.94
426.735	2709.94
426.958	2735.94
427.18	2668.94
427.402	2674.94
427.625	2698.94
427.847	2615.94
428.069	2628.94
428.292	2682.94
428.514	2671.94
428.736	2639.94
428.958	2640.94
429.181	2624.94
429.403	2670.94
429.625	2640.94
429.847	2610.94
430.069	2714.94
430.292	2766.94
430.514	2852.94
430.736	2814.94
430.958	2720.94
431.18	2610.94
431.402	2614.94
431.624	2602.94
431.846	2658.94
432.068	2585.94
432.29	2616.94
432.512	2559.94
432.734	2640.94
432.956	2573.94
433.178	2634.94
433.4	2621.94
433.622	2651.94
433.844	2645.94
434.066	2624.94
434.287	2616.94
434.509	2671.94
434.731	2705.94
434.953	2716.94
435.175	2697.94
435.397	2732.94
435.618	2686.94
435.84	2675.94
436.062	2619.94
436.284	2613.94
436.505	2576.94
436.727	2638.94
436.949	2581.94
437.17	2641.94
437.392	2554.94
437.614	2555.94
437.835	2537.94
438.057	2530.94
438.278	2514.94
438.5	2540.94
438.721	2623.94
438.943	2695.94
439.165	2680.94
439.386	2727.94
439.608	2691.94
439.829	2746.94
440.05	2840.94
440.272	2919.94
440.493	2670.94
440.715	2678.94
440.936	2699.94
441.158	2716.94
441.379	2716.94
441.6	2858.94
441.822	2925.94
442.043	3084.94
442.264	3191.94
442.486	3008.94
442.707	2848.94
442.928	2776.94
443.149	2783.94
443.371	2787.94
443.592	2816.94
443.813	2802.94
444.034	2846.94
444.255	2840.94
444.476	2862.94
444.698	2968.94
444.919	3027.94
445.14	3112.94
445.361	2935.94
445.582	2845.94
445.803	2830.94
446.024	2752.94
446.245	2791.94
446.466	2775.94
446.687	2777.94
446.908	2728.94
447.129	2685.94
447.35	2630.94
447.571	2645.94
447.792	2574.94
448.013	2590.94
448.234	2548.94
448.455	2561.94
448.675	2599.94
448.896	2678.94
449.117	2743.94
449.338	2994.94
449.559	3127.94
449.779	2845.94
450	2606.94
450.221	2598.94
450.442	2542.94
450.662	2529.94
450.883	2520.94
451.104	2532.94
451.324	2507.94
451.545	2525.94
451.766	2550.94
451.986	2543.94
452.207	2830.94
452.428	3633.94
452.648	5465.94
452.869	4571.94
453.089	3218.94
453.31	2962.94
453.53	2959.94
453.751	3058.94
453.971	3163.94
454.192	3155.94
454.412	2681.94
454.633	2519.94
454.853	2508.94
455.073	2480.94
455.294	2424.94
455.514	2406.94
455.734	2417.94
455.955	2413.94
456.175	2386.94
456.395	2418.94
456.616	2416.94
456.836	2459.94
457.056	2445.94
457.276	2443.94
457.497	2617.94
457.717	2627.94
457.937	2538.94
458.157	2523.94
458.377	2516.94
458.598	2587.94
458.818	2591.94
459.038	2625.94
459.258	2618.94
459.478	2631.94
459.698	2673.94
459.918	2684.94
460.138	2677.94
460.358	2765.94
460.578	2807.94
460.798	2854.94
461.018	2816.94
461.238	2887.94
461.458	2898.94
461.678	2842.94
461.898	2940.94
462.118	2957.94
462.338	3044.94
462.558	3126.94
462.777	3097.94
462.997	3313.94
463.217	3359.94
463.437	3590.94
463.657	3597.94
463.876	3532.94
464.096	3375.94
464.316	3196.94
464.536	3120.94
464.755	3094.94
464.975	2959.94
465.195	2896.94
465.414	2805.94
465.634	2750.94
465.854	2740.94
466.073	2676.94
466.293	2654.94
466.512	2647.94
466.732	2657.94
466.951	2797.94
467.171	3004.94
467.391	2965.94
467.61	2688.94
467.829	2645.94
468.049	2599.94
468.268	2583.94
468.488	2541.94
468.707	2579.94
468.927	2548.94
469.146	2579.94
469.365	2602.94
469.585	2626.94
469.804	2681.94
470.023	2712.94
470.243	2740.94
470.462	2862.94
470.681	3011.94
470.901	3331.94
471.12	3779.94
471.339	3812.94
471.558	3181.94
471.777	2874.94
471.997	2743.94
472.216	2718.94
472.435	2655.94
472.654	2604.94
472.873	2601.94
473.092	2598.94
473.311	2568.94
473.53	2663.94
473.749	2664.94
473.968	2774.94
474.187	2610.94
474.406	2588.94
474.625	2562.94
474.844	2574.94
475.063	2604.94
475.282	2651.94
475.501	2603.94
475.72	2624.94
475.939	2668.94
476.158	2727.94
476.377	2747.94
476.596	2738.94
476.814	2726.94
477.033	2739.94
477.252	2766.94
477.471	2852.94
477.69	2874.94
477.908	2872.94
478.127	2934.94
478.346	2959.94
478.564	2985.94
478.783	3047.94
479.002	3115.94
479.22	3073.94
479.439	3108.94
479.658	3076.94
479.876	3088.94
480.095	3080.94
480.313	3175.94
480.532	3199.94
480.751	3262.94
480.969	3160.94
481.188	3158.94
481.406	3164.94
481.624	3138.94
481.843	3125.94
482.061	3185.94
482.28	3125.94
482.498	3129.94
482.717	3131.94
482.935	3198.94
483.153	3185.94
483.372	3240.94
483.59	3304.94
483.808	3364.94
484.027	3436.94
484.245	3662.94
484.463	4090.94
484.681	4563.94
484.9	4166.94
485.118	3858.94
485.336	3682.94
485.554	3781.94
485.772	4016.94
485.99	4607.94
486.209	4900.94
486.427	4132.94
486.645	3680.94
486.863	3557.94
487.081	3452.94
487.299	3400.94
487.517	3361.94
487.735	3372.94
487.953	3358.94
488.171	3358.94
488.389	3310.94
488.607	3278.94
488.825	3235.94
489.043	3284.94
489.261	3223.94
489.479	3265.94
489.696	3252.94
489.914	3210.94
490.132	3282.94
490.35	3258.94
490.568	3270.94
490.786	3340.94
491.003	3395.94
491.221	3395.94
491.439	3365.94
491.657	3351.94
491.874	3362.94
492.092	3420.94
492.31	3444.94
492.527	3386.94
492.745	3402.94
492.963	3374.94
493.18	3389.94
493.398	3399.94
493.615	3396.94
493.833	3467.94
494.05	3391.94
494.268	3402.94
494.485	3415.94
494.703	3417.94
494.92	3441.94
495.138	3394.94
495.355	3430.94
495.573	3488.94
495.79	3421.94
496.008	3493.94
496.225	3495.94
496.442	3504.94
496.66	3649.94
496.877	3850.94
497.094	3815.94
497.312	3724.94
497.529	3660.94
497.746	3735.94
497.963	3831.94
498.181	3822.94
498.398	3958.94
498.615	3993.94
498.832	4230.94
499.049	4453.94
499.267	4739.94
499.484	5006.94
499.701	5023.94
499.918	5079.94
500.135	5426.94
500.352	5694.94
500.569	5762.94
500.786	5741.94
501.003	5506.94
501.22	5254.94
501.437	5001.94
501.654	4691.94
501.871	4546.94
502.088	4367.94
502.305	4186.94
502.522	4066.94
502.739	3964.94
502.956	3813.94
503.172	3762.94
503.389	3685.94
503.606	3640.94
503.823	3568.94
504.04	3522.94
504.256	3525.94
504.473	3549.94
504.69	3562.94
504.907	3474.94
505.123	3458.94
505.34	3334.94
505.557	3285.94
505.773	3250.94
505.99	3233.94
506.207	3124.94
506.423	3108.94
506.64	3110.94
506.856	3068.94
507.073	3066.94
507.289	3044.94
507.506	2947.94
507.722	2959.94
507.939	2916.94
508.155	2960.94
508.372	2951.94
508.588	2970.94
508.805	2931.94
509.021	2966.94
509.238	3046.94
509.454	3187.94
509.67	3413.94
509.887	3078.94
510.103	3034.94
510.319	2958.94
510.536	2962.94
510.752	2955.94
510.968	2913.94
511.184	2821.94
511.401	2850.94
511.617	2788.94
511.833	2823.94
512.049	2826.94
512.265	2778.94
512.481	2834.94
512.698	2752.94
512.914	2805.94
513.13	2798.94
513.346	2832.94
513.562	2775.94
513.778	2879.94
513.994	2805.94
514.21	2931.94
514.426	3166.94
514.642	3246.94
514.858	3011.94
515.074	2871.94
515.29	2890.94
515.506	2855.94
515.721	2923.94
515.937	2963.94
516.153	2946.94
516.369	2918.94
516.585	2936.94
516.801	3056.94
517.016	3040.94
517.232	3143.94
517.448	3150.94
517.664	3110.94
517.879	3201.94
518.095	3254.94
518.311	3199.94
518.527	3110.94
518.742	3157.94
518.958	3185.94
519.173	3248.94
519.389	3052.94
519.605	2950.94
519.82	2950.94
520.036	2936.94
520.251	2830.94
520.467	2828.94
520.682	2794.94
520.898	2811.94
521.113	2791.94
521.329	2766.94
521.544	2760.94
521.76	2766.94
521.975	2751.94
522.19	2783.94
522.406	2707.94
522.621	2749.94
522.836	2682.94
523.052	2768.94
523.267	2710.94
523.482	2680.94
523.698	2706.94
523.913	2667.94
524.128	2686.94
524.343	2674.94
524.559	2702.94
524.774	2692.94
524.989	2704.94
525.204	2751.94
525.419	2732.94
525.634	2652.94
525.849	2675.94
526.064	2692.94
526.28	2691.94
526.495	2703.94
526.71	2733.94
526.925	2709.94
527.14	2717.94
527.355	2723.94
527.57	2746.94
527.785	2750.94
527.999	2701.94
528.214	2768.94
528.429	2802.94
528.644	2776.94
528.859	2815.94
529.074	2897.94
529.289	2879.94
529.503	2909.94
529.718	2833.94
529.933	2890.94
530.148	2882.94
530.363	2899.94
530.577	2875.94
530.792	2879.94
531.007	2902.94
531.221	2962.94
531.436	2952.94
531.651	2970.94
531.865	3059.94
532.08	3090.94
532.295	3182.94
532.509	3359.94
532.724	3420.94
532.938	3448.94
533.153	3526.94
533.367	3854.94
533.582	4043.94
533.796	3940.94
534.011	3818.94
534.225	3614.94
534.44	3519.94
534.654	3406.94
534.868	3363.94
535.083	3340.94
535.297	3261.94
535.511	3183.94
535.726	3152.94
535.94	3091.94
536.154	3038.94
536.369	2943.94
536.583	2902.94
536.797	2902.94
537.011	2849.94
537.225	2830.94
537.44	2811.94
537.654	2828.94
537.868	2768.94
538.082	2737.94
538.296	2744.94
538.51	2758.94
538.724	2703.94
538.938	2699.94
539.153	2672.94
539.367	2717.94
539.581	2600.94
539.795	2632.94
540.009	2583.94
540.222	2620.94
540.436	2588.94
540.65	2621.94
540.864	2592.94
541.078	2702.94
541.292	2932.94
541.506	3332.94
541.72	3520.94
541.934	3028.94
542.147	2887.94
542.361	2778.94
542.575	2638.94
542.789	2635.94
543.002	2566.94
543.216	2544.94
543.43	2511.94
543.644	2542.94
543.857	2533.94
544.071	2515.94
544.285	2545.94
544.498	2562.94
544.712	2565.94
544.925	2560.94
545.139	2545.94
545.352	2532.94
545.566	2542.94
545.779	2513.94
545.993	2572.94
546.206	2592.94
546.42	2581.94
546.633	2532.94
546.847	2501.94
547.06	2541.94
547.274	2578.94
547.487	2526.94
547.7	2520.94
547.914	2538.94
548.127	2532.94
548.34	2528.94
548.554	2528.94
548.767	2566.94
548.98	2540.94
549.193	2535.94
549.407	2570.94
549.62	2563.94
549.833	2558.94
550.046	2523.94
550.259	2538.94
550.473	2548.94
550.686	2575.94
550.899	2578.94
551.112	2532.94
551.325	2547.94
551.538	2552.94
551.751	2594.94
551.964	2569.94
552.177	2593.94
552.39	2643.94
552.603	2709.94
552.816	2730.94
553.029	2787.94
553.242	2773.94
553.455	2841.94
553.667	2831.94
553.88	2845.94
554.093	2880.94
554.306	2850.94
554.519	2917.94
554.732	2975.94
554.944	3021.94
555.157	3083.94
555.37	3159.94
555.583	3315.94
555.795	3522.94
556.008	3760.94
556.221	4231.94
556.433	4448.94
556.646	4468.94
556.859	4318.94
557.071	4101.94
557.284	4042.94
557.496	3884.94
557.709	3810.94
557.921	3749.94
558.134	3754.94
558.346	3773.94
558.559	3967.94
558.771	4155.94
558.984	4505.94
559.196	4965.94
559.409	4727.94
559.621	4367.94
559.833	4035.94
560.046	3786.94
560.258	3584.94
560.47	3451.94
560.683	3250.94
560.895	3169.94
561.107	3111.94
561.32	2943.94
561.532	2874.94
561.744	2838.94
561.956	2809.94
562.168	2703.94
562.381	2679.94
562.593	2680.94
562.805	2701.94
563.017	2710.94
563.229	2798.94
563.441	3212.94
563.653	2692.94
563.865	2505.94
564.077	2468.94
564.289	2403.94
564.501	2415.94
564.713	2407.94
564.925	2373.94
565.137	2350.94
565.349	2354.94
565.561	2350.94
565.773	2399.94
565.985	2401.94
566.197	2432.94
566.408	2478.94
566.62	2574.94
566.832	2525.94
567.044	2566.94
567.255	2645.94
567.467	2671.94
567.679	2674.94
567.891	2862.94
568.102	3171.94
568.314	3615.94
568.526	3152.94
568.737	2702.94
568.949	2514.94
569.161	2372.94
569.372	2240.94
569.584	2204.94
569.795	2139.94
570.007	2149.94
570.218	2174.94
570.43	2297.94
570.641	2102.94
570.853	2027.94
571.064	1969.94
571.276	2007.94
571.487	1937.94
571.698	1910.94
571.91	1907.94
572.121	1868.94
572.333	1876.94
572.544	1856.94
572.755	1999.94
572.966	2316.94
573.178	2170.94
573.389	1886.94
573.6	1822.94
573.811	1796.94
574.023	1730.94
574.234	1736.94
574.445	1729.94
574.656	1750.94
574.867	1691.94
575.078	1753.94
575.289	1741.94
575.501	1715.94
575.712	1738.94
575.923	1694.94
576.134	1694.94
576.345	1707.94
576.556	1714.94
576.767	1700.94
576.978	1740.94
577.188	1783.94
577.399	1773.94
577.61	1759.94
577.821	1790.94
578.032	1829.94
578.243	1835.94
578.454	1867.94
578.665	1908.94
578.875	1948.94
579.086	1998.94
579.297	2133.94
579.508	2267.94
579.718	2449.94
579.929	2837.94
580.14	3259.94
580.35	3350.94
580.561	3096.94
580.772	2756.94
580.982	2547.94
581.193	2384.94
581.403	2308.94
581.614	2160.94
581.825	2092.94
582.035	1991.94
582.246	1876.94
582.456	1821.94
582.667	1792.94
582.877	1800.94
583.087	1720.94
583.298	1639.94
583.508	1617.94
583.719	1607.94
583.929	1559.94
584.139	1502.94
584.35	1507.94
584.56	1530.94
584.77	1451.94
584.981	1373.94
585.191	1397.94
585.401	1430.94
585.611	1386.94
585.821	1385.94
586.032	1366.94
586.242	1340.94
586.452	1320.94
586.662	1330.94
586.872	1302.94
587.082	1303.94
587.292	1255.94
587.502	1251.94
587.713	1253.94
587.923	1206.94
588.133	1248.94
588.343	1219.94
588.553	1232.94
588.762	1213.94
588.972	1214.94
589.182	1210.94
589.392	1202.94
589.602	1207.94
589.812	1228.94
590.022	1184.94
590.232	1176.94
590.441	1176.94
590.651	1165.94
590.861	1183.94
591.071	1198.94
591.281	1158.94
591.49	1147.94
591.7	1164.94
591.91	1184.94
592.119	1173.94
592.329	1189.94
592.539	1194.94
592.748	1228.94
592.958	1184.94
593.167	1212.94
593.377	1198.94
593.587	1224.94
593.796	1224.94
594.006	1203.94
594.215	1231.94
594.424	1213.94
594.634	1196.94
594.843	1187.94
595.053	1144.94
595.262	1129.94
595.472	1141.94
595.681	1102.94
595.89	1096.94
596.1	1084.94
596.309	1062.94
596.518	1040.94
596.727	1044.94
596.937	1038.94
597.146	1031.94
597.355	1022.94
597.564	998.94
597.774	978.94
597.983	998.94
598.192	1000.94
598.401	1022.94
598.61	984.94
598.819	976.94
599.028	967.94
599.237	950.94
599.446	971.94
599.655	954.94
599.864	913.94
600.073	934.94
600.282	963.94
600.491	954.94
600.7	939.94
600.909	946.94
601.118	933.94
601.327	933.94
601.536	947.94
601.745	972.94
601.953	1084.94
602.162	1204.94
602.371	1080.94
602.58	988.94
602.789	937.94
602.997	932.94
603.206	942.94
603.415	943.94
603.623	926.94
603.832	914.94
604.041	920.94
604.249	889.94
604.458	899.94
604.666	880.94
604.875	894.94
605.084	876.94
605.292	884.94
605.501	886.94
605.709	895.94
605.918	918.94
606.126	908.94
606.334	913.94
606.543	937.94
606.751	978.94
606.96	1100.94
607.168	1208.94
607.376	1065.94
607.585	961.94
607.793	931.94
608.001	927.94
608.21	900.94
608.418	886.94
608.626	864.94
608.834	883.94
609.043	860.94
609.251	874.94
609.459	850.94
609.667	843.94
609.875	835.94
610.083	837.94
610.291	818.94
610.499	814.94
610.707	805.94
610.916	830.94
611.124	828.94
611.332	797.94
611.54	828.94
611.748	843.94
611.955	808.94
612.163	810.94
612.371	789.94
612.579	817.94
612.787	798.94
612.995	800.94
613.203	800.94
613.411	778.94
613.618	765.94
613.826	791.94
614.034	795.94
614.242	807.94
614.449	794.94
614.657	770.94
614.865	792.94
615.072	792.94
615.28	755.94
615.488	798.94
615.695	799.94
615.903	775.94
616.111	784.94
616.318	785.94
616.526	766.94
616.733	780.94
616.941	774.94
617.148	771.94
617.356	755.94
617.563	752.94
617.771	757.94
617.978	758.94
618.185	762.94
618.393	759.94
618.6	768.94
618.807	748.94
619.015	749.94
619.222	726.94
619.429	749.94
619.637	733.94
619.844	718.94
620.051	704.94
620.258	711.94
620.466	710.94
620.673	671.94
620.88	683.94
621.087	692.94
621.294	702.94
621.501	704.94
621.708	699.94
621.915	672.94
622.122	694.94
622.329	704.94
622.536	704.94
622.743	666.94
622.95	684.94
623.157	658.94
623.364	684.94
623.571	676.94
623.778	692.94
623.985	703.94
624.192	695.94
624.399	663.94
624.606	666.94
624.812	658.94
625.019	651.94
625.226	654.94
625.433	660.94
625.639	646.94
625.846	626.94
626.053	626.94
626.259	637.94
626.466	627.94
626.673	627.94
626.879	617.94
627.086	618.94
627.293	639.94
627.499	617.94
627.706	629.94
627.912	622.94
628.119	645.94
628.325	626.94
628.532	630.94
628.738	612.94
628.945	604.94
629.151	632.94
629.357	611.94
629.564	626.94
629.77	595.94
629.976	622.94
630.183	586.94
630.389	602.94
630.595	599.94
630.802	589.94
631.008	599.94
631.214	572.94
631.42	581.94
631.627	586.94
631.833	577.94
632.039	571.94
632.245	563.94
632.451	567.94
632.657	577.94
632.863	576.94
633.069	590.94
633.275	581.94
633.481	569.94
633.688	572.94
633.893	584.94
634.099	576.94
634.305	592.94
634.511	580.94
634.717	570.94
634.923	614.94
635.129	656.94
635.335	780.94
635.541	701.94
635.747	625.94
635.952	600.94
636.158	599.94
636.364	610.94
636.57	576.94
636.775	577.94
636.981	595.94
637.187	584.94
637.392	573.94
637.598	580.94
637.804	570.94
638.009	596.94
638.215	598.94
638.421	579.94
638.626	581.94
638.832	591.94
639.037	581.94
639.243	580.94
639.448	599.94
639.654	580.94
639.859	611.94
640.065	621.94
640.27	639.94
640.475	605.94
640.681	630.94
640.886	624.94
641.091	596.94
641.297	652.94
641.502	627.94
641.707	632.94
641.913	643.94
642.118	657.94
642.323	689.94
642.528	704.94
642.733	691.94
642.939	732.94
643.144	734.94
643.349	769.94
643.554	807.94
643.759	837.94
643.964	885.94
644.169	878.94
644.374	967.94
644.579	1082.94
644.784	1159.94
644.989	1288.94
645.194	1530.94
645.399	1885.94
645.604	2021.94
645.809	1527.94
646.014	1157.94
646.219	967.94
646.423	869.94
646.628	772.94
646.833	728.94
647.038	683.94
647.243	639.94
647.447	632.94
647.652	619.94
647.857	591.94
648.062	581.94
648.266	550.94
648.471	563.94
648.676	593.94
648.88	569.94
649.085	537.94
649.289	499.94
649.494	509.94
649.698	489.94
649.903	502.94
650.107	508.94
650.312	492.94
650.516	486.94
650.721	470.94
650.925	449.94
651.13	437.94
651.334	424.94
651.539	438.94
651.743	406.94
651.947	394.94
652.152	410.94
652.356	421.94
652.56	441.94
652.764	488.94
652.969	461.94
653.173	427.94
653.377	402.94
653.581	392.94
653.785	400.94
653.99	374.94
654.194	355.94
654.398	340.94
654.602	359.94
654.806	374.94
655.01	369.94
655.214	335.94
655.418	347.94
655.622	312.94
655.826	356.94
656.03	358.94
656.234	360.94
656.438	366.94
656.642	367.94
656.846	354.94
657.049	342.94
657.253	324.94
657.457	308.94
657.661	294.94
657.865	287.94
658.068	265.94
658.272	262.94
658.476	235.94
658.68	228.94
658.883	225.94
659.087	205.94
659.291	198.94
659.494	189.94
659.698	167.94
659.901	160.94
660.105	167.94
660.309	188.94
660.512	158.94
660.716	146.94
660.919	154.94
661.123	140.94
661.326	120.94
661.53	119.94
661.733	109.94
661.936	117.94
662.14	111.94
662.343	106.94
662.546	95.94
662.75	108.94
662.953	109.94
663.156	94.94
663.36	100.94
663.563	109.94
663.766	83.94
663.969	84.94
664.173	102.94
664.376	80.94
664.579	76.94
664.782	80.94
664.985	77.94
665.188	93.94
665.391	84.94
665.594	86.94
665.797	95.94
666	78.94
666.203	77.94
666.406	82.94
666.609	75.94
666.812	70.94
667.015	82.94
667.218	77.94
667.421	81.94
667.624	87.94
667.827	66.94
668.03	78.94
668.232	82.94
668.435	71.94
668.638	89.94
668.841	89.94
669.043	87.94
669.246	96.94
669.449	65.94
669.651	86.94
669.854	81.94
670.057	78.94
670.259	89.94
670.462	92.94
670.665	82.94
670.867	80.94
671.07	90.94
671.272	78.94
671.475	85.94
671.677	83.94
671.88	73.94
672.082	78.94
672.284	85.94
672.487	65.94
672.689	80.94
672.892	69.94
