Data from SnStandardFlinnAPT0064_LampEnergy10_LIBS07252019.E.O._I.C._HRD10591_15-20-10-494.txt Node
Date: Thu Jul 25 15:20:10 EDT 2019
User: cochatt
Spectrometer: HR+D1059
Trigger mode: 1
Integration Time (sec): 1.000000E-1
Scans to average: 1
Electric dark correction enabled: true
Nonlinearity correction enabled: false
Boxcar width: 0
XAxis mode: Wavelengths
Number of Pixels in Spectrum: 2048
>>>>>Begin Spectral Data<<<<<
223.165	-7.25
223.4	-7.25
223.635	-7.25
223.869	-25.25
224.104	-12.25
224.338	-13.25
224.573	-8.25
224.808	-23.25
225.042	-2.25
225.277	-1.25
225.511	-14.25
225.746	7.75
225.98	7.75
226.215	5.75
226.449	8.75
226.683	10.75
226.918	33.75
227.152	32.75
227.387	28.75
227.621	44.75
227.856	51.75
228.09	40.75
228.324	43.75
228.559	46.75
228.793	129.75
229.027	310.75
229.262	330.75
229.496	299.75
229.73	281.75
229.964	291.75
230.199	291.75
230.433	293.75
230.667	298.75
230.901	307.75
231.136	324.75
231.37	354.75
231.604	378.75
231.838	442.75
232.072	539.75
232.306	588.75
232.541	488.75
232.775	423.75
233.009	438.75
233.243	442.75
233.477	461.75
233.711	532.75
233.945	588.75
234.179	533.75
234.413	448.75
234.647	466.75
234.881	442.75
235.115	531.75
235.349	625.75
235.583	803.75
235.817	1013.75
236.051	1003.75
236.285	666.75
236.519	524.75
236.753	499.75
236.987	492.75
237.221	547.75
237.455	529.75
237.689	485.75
237.922	464.75
238.156	479.75
238.39	487.75
238.624	494.75
238.858	484.75
239.091	491.75
239.325	473.75
239.559	481.75
239.793	515.75
240.027	485.75
240.26	524.75
240.494	550.75
240.728	586.75
240.961	635.75
241.195	680.75
241.429	667.75
241.662	711.75
241.896	789.75
242.13	953.75
242.363	1278.75
242.597	1626.75
242.83	1558.75
243.064	1591.75
243.298	1856.75
243.531	1526.75
243.765	977.75
243.998	782.75
244.232	709.75
244.465	692.75
244.699	672.75
244.932	652.75
245.166	680.75
245.399	667.75
245.633	677.75
245.866	688.75
246.099	658.75
246.333	635.75
246.566	648.75
246.8	618.75
247.033	640.75
247.266	628.75
247.5	662.75
247.733	668.75
247.966	683.75
248.2	779.75
248.433	866.75
248.666	991.75
248.899	967.75
249.133	864.75
249.366	882.75
249.599	957.75
249.832	1087.75
250.066	1086.75
250.299	860.75
250.532	766.75
250.765	745.75
250.998	721.75
251.231	703.75
251.465	727.75
251.698	733.75
251.931	737.75
252.164	740.75
252.397	776.75
252.63	794.75
252.863	789.75
253.096	784.75
253.329	774.75
253.562	785.75
253.795	781.75
254.028	812.75
254.261	835.75
254.494	880.75
254.727	1022.75
254.96	1243.75
255.193	1256.75
255.426	955.75
255.659	869.75
255.892	870.75
256.124	868.75
256.357	868.75
256.59	927.75
256.823	967.75
257.056	1114.75
257.289	1402.75
257.521	1513.75
257.754	1203.75
257.987	941.75
258.22	913.75
258.452	922.75
258.685	935.75
258.918	937.75
259.151	978.75
259.383	1082.75
259.616	1206.75
259.849	1303.75
260.081	1072.75
260.314	992.75
260.547	930.75
260.779	954.75
261.012	949.75
261.244	935.75
261.477	964.75
261.71	978.75
261.942	972.75
262.175	1011.75
262.407	1012.75
262.64	1030.75
262.872	1058.75
263.105	1106.75
263.337	1152.75
263.57	1224.75
263.802	1306.75
264.035	1328.75
264.267	1304.75
264.499	1338.75
264.732	1400.75
264.964	1394.75
265.197	1414.75
265.429	1418.75
265.661	1408.75
265.894	1570.75
266.126	1698.75
266.358	1963.75
266.591	1897.75
266.823	1575.75
267.055	1434.75
267.287	1356.75
267.52	1300.75
267.752	1256.75
267.984	1224.75
268.216	1243.75
268.448	1227.75
268.681	1211.75
268.913	1207.75
269.145	1208.75
269.377	1202.75
269.609	1228.75
269.841	1265.75
270.073	1364.75
270.306	1603.75
270.538	2150.75
270.77	3264.75
271.002	4027.75
271.234	2864.75
271.466	1889.75
271.698	1534.75
271.93	1398.75
272.162	1312.75
272.394	1289.75
272.626	1259.75
272.858	1254.75
273.09	1232.75
273.322	1225.75
273.553	1188.75
273.785	1182.75
274.017	1166.75
274.249	1186.75
274.481	1177.75
274.713	1191.75
274.945	1196.75
275.176	1192.75
275.408	1191.75
275.64	1198.75
275.872	1211.75
276.104	1228.75
276.335	1257.75
276.567	1230.75
276.799	1247.75
277.031	1305.75
277.262	1284.75
277.494	1377.75
277.726	1533.75
277.957	1825.75
278.189	2147.75
278.421	1962.75
278.652	1758.75
278.884	1660.75
279.115	1496.75
279.347	1426.75
279.579	1390.75
279.81	1387.75
280.042	1396.75
280.273	1425.75
280.505	1472.75
280.736	1489.75
280.968	1592.75
281.199	1755.75
281.431	2075.75
281.662	2139.75
281.894	1755.75
282.125	1596.75
282.356	1618.75
282.588	1655.75
282.819	1642.75
283.051	1800.75
283.282	2022.75
283.513	2482.75
283.745	3633.75
283.976	5806.75
284.207	8179.75
284.439	7465.75
284.67	4620.75
284.901	3811.75
285.132	3807.75
285.364	3653.75
285.595	2723.75
285.826	2452.75
286.057	2908.75
286.288	3958.75
286.52	5273.75
286.751	4964.75
286.982	3124.75
287.213	2316.75
287.444	2023.75
287.675	1858.75
287.906	1779.75
288.138	1717.75
288.369	1690.75
288.6	1672.75
288.831	1656.75
289.062	1646.75
289.293	1670.75
289.524	1670.75
289.755	1684.75
289.986	1680.75
290.217	1684.75
290.448	1723.75
290.679	1689.75
290.91	1778.75
291.141	1829.75
291.371	2016.75
291.602	2149.75
291.833	1911.75
292.064	1774.75
292.295	1669.75
292.526	1607.75
292.757	1616.75
292.987	1552.75
293.218	1575.75
293.449	1606.75
293.68	1593.75
293.91	1574.75
294.141	1541.75
294.372	1543.75
294.603	1561.75
294.833	1537.75
295.064	1537.75
295.295	1553.75
295.525	1546.75
295.756	1532.75
295.987	1533.75
296.217	1563.75
296.448	1557.75
296.679	1537.75
296.909	1565.75
297.14	1554.75
297.37	1601.75
297.601	1623.75
297.831	1588.75
298.062	1623.75
298.292	1618.75
298.523	1695.75
298.753	1690.75
298.984	1698.75
299.214	1730.75
299.445	1699.75
299.675	1776.75
299.905	1841.75
300.136	1929.75
300.366	2131.75
300.597	2793.75
300.827	3922.75
301.057	5376.75
301.288	5352.75
301.518	3424.75
301.748	2638.75
301.979	2363.75
302.209	2254.75
302.439	2273.75
302.669	2442.75
302.9	3014.75
303.13	4171.75
303.36	6275.75
303.59	8438.75
303.82	7391.75
304.051	4284.75
304.281	3076.75
304.511	2523.75
304.741	2320.75
304.971	2202.75
305.201	2081.75
305.431	2012.75
305.661	1948.75
305.891	1909.75
306.121	1867.75
306.352	1830.75
306.582	1849.75
306.812	1792.75
307.042	1821.75
307.272	1782.75
307.502	1783.75
307.731	1809.75
307.961	1780.75
308.191	1791.75
308.421	1787.75
308.651	1770.75
308.881	1800.75
309.111	1769.75
309.341	1771.75
309.571	1799.75
309.8	1796.75
310.03	1806.75
310.26	1822.75
310.49	1811.75
310.72	1812.75
310.949	1871.75
311.179	1822.75
311.409	1870.75
311.639	1934.75
311.868	1899.75
312.098	1897.75
312.328	1929.75
312.557	1929.75
312.787	1932.75
313.017	1923.75
313.246	1985.75
313.476	1987.75
313.706	2050.75
313.935	2222.75
314.165	2306.75
314.394	2407.75
314.624	2340.75
314.853	2130.75
315.083	2150.75
315.312	2150.75
315.542	2164.75
315.771	2175.75
316.001	2239.75
316.23	2325.75
316.46	2411.75
316.689	2665.75
316.919	3281.75
317.148	4692.75
317.377	7244.75
317.607	10599.75
317.836	11139.75
318.065	6738.75
318.295	4366.75
318.524	3463.75
318.753	2992.75
318.983	2708.75
319.212	2587.75
319.441	2511.75
319.67	2379.75
319.9	2379.75
320.129	2370.75
320.358	2350.75
320.587	2321.75
320.816	2307.75
321.046	2324.75
321.275	2322.75
321.504	2346.75
321.733	2366.75
321.962	2492.75
322.191	2493.75
322.42	2501.75
322.649	2443.75
322.878	2478.75
323.108	2430.75
323.337	2491.75
323.566	2540.75
323.795	2608.75
324.024	2629.75
324.253	2656.75
324.482	2767.75
324.71	3004.75
324.939	3193.75
325.168	3315.75
325.397	3425.75
325.626	4042.75
325.855	5622.75
326.084	8822.75
326.313	12842.75
326.542	13577.75
326.77	9430.75
326.999	6089.75
327.228	5044.75
327.457	4806.75
327.686	4798.75
327.914	5107.75
328.143	5918.75
328.372	7132.75
328.6	7792.75
328.829	6914.75
329.058	5786.75
329.287	5066.75
329.515	4566.75
329.744	4219.75
329.972	4006.75
330.201	3764.75
330.43	3621.75
330.658	3557.75
330.887	3489.75
331.115	3423.75
331.344	3378.75
331.572	3394.75
331.801	3449.75
332.03	3429.75
332.258	3488.75
332.486	3704.75
332.715	4248.75
332.943	5340.75
333.172	6645.75
333.4	6602.75
333.629	4986.75
333.857	4454.75
334.085	4494.75
334.314	4660.75
334.542	5095.75
334.771	5951.75
334.999	7385.75
335.227	9234.75
335.455	10358.75
335.684	9288.75
335.912	7635.75
336.14	6448.75
336.369	5650.75
336.597	5186.75
336.825	4696.75
337.053	4419.75
337.281	4235.75
337.51	3947.75
337.738	3803.75
337.966	3660.75
338.194	3499.75
338.422	3419.75
338.65	3270.75
338.878	3249.75
339.106	3191.75
339.334	3161.75
339.562	3106.75
339.79	3023.75
340.018	3000.75
340.246	2970.75
340.474	2975.75
340.702	2955.75
340.93	3009.75
341.158	2959.75
341.386	2988.75
341.614	2982.75
341.842	2803.75
342.07	2761.75
342.298	2776.75
342.526	2735.75
342.754	2722.75
342.981	2642.75
343.209	2644.75
343.437	2672.75
343.665	2691.75
343.893	2741.75
344.12	2709.75
344.348	2714.75
344.576	2712.75
344.804	2619.75
345.031	2562.75
345.259	2539.75
345.487	2528.75
345.714	2508.75
345.942	2518.75
346.17	2495.75
346.397	2454.75
346.625	2464.75
346.853	2483.75
347.08	2453.75
347.308	2468.75
347.535	2482.75
347.763	2454.75
347.99	2420.75
348.218	2431.75
348.445	2433.75
348.673	2408.75
348.9	2408.75
349.128	2397.75
349.355	2387.75
349.583	2362.75
349.81	2394.75
350.037	2394.75
350.265	2348.75
350.492	2387.75
350.72	2384.75
350.947	2333.75
351.174	2345.75
351.402	2357.75
351.629	2329.75
351.856	2350.75
352.083	2315.75
352.311	2313.75
352.538	2331.75
352.765	2365.75
352.992	2321.75
353.22	2312.75
353.447	2364.75
353.674	2309.75
353.901	2336.75
354.128	2331.75
354.355	2371.75
354.583	2372.75
354.81	2404.75
355.037	2380.75
355.264	2379.75
355.491	2374.75
355.718	2354.75
355.945	2393.75
356.172	2420.75
356.399	2484.75
356.626	2421.75
356.853	2452.75
357.08	2458.75
357.307	2509.75
357.534	2523.75
357.761	2498.75
357.988	2551.75
358.215	2481.75
358.441	2528.75
358.668	2483.75
358.895	2474.75
359.122	2474.75
359.349	2454.75
359.576	2441.75
359.802	2515.75
360.029	2496.75
360.256	2493.75
360.483	2499.75
360.709	2490.75
360.936	2494.75
361.163	2524.75
361.39	2466.75
361.616	2483.75
361.843	2527.75
362.07	2491.75
362.296	2511.75
362.523	2498.75
362.749	2514.75
362.976	2480.75
363.203	2454.75
363.429	2514.75
363.656	2520.75
363.882	2481.75
364.109	2487.75
364.335	2470.75
364.562	2480.75
364.788	2460.75
365.015	2540.75
365.241	2622.75
365.468	2747.75
365.694	2926.75
365.92	2816.75
366.147	2568.75
366.373	2565.75
366.599	2533.75
366.826	2539.75
367.052	2539.75
367.278	2538.75
367.505	2571.75
367.731	2614.75
367.957	2515.75
368.184	2568.75
368.41	2614.75
368.636	2569.75
368.862	2615.75
369.089	2619.75
369.315	2589.75
369.541	2555.75
369.767	2580.75
369.993	2566.75
370.219	2528.75
370.445	2570.75
370.672	2606.75
370.898	2618.75
371.124	2654.75
371.35	2639.75
371.576	2673.75
371.802	2668.75
372.028	2651.75
372.254	2622.75
372.48	2688.75
372.706	2684.75
372.932	2705.75
373.158	2768.75
373.384	2730.75
373.61	2683.75
373.835	2737.75
374.061	2751.75
374.287	2761.75
374.513	2760.75
374.739	2782.75
374.965	2832.75
375.191	2837.75
375.416	2794.75
375.642	2713.75
375.868	2768.75
376.094	2755.75
376.319	2709.75
376.545	2663.75
376.771	2706.75
376.997	2651.75
377.222	2689.75
377.448	2626.75
377.674	2682.75
377.899	2696.75
378.125	2724.75
378.35	2657.75
378.576	2678.75
378.802	2663.75
379.027	2768.75
379.253	2814.75
379.478	3020.75
379.704	3501.75
379.929	5180.75
380.155	8027.75
380.38	8753.75
380.606	5358.75
380.831	3688.75
381.057	3204.75
381.282	2910.75
381.507	2796.75
381.733	2768.75
381.958	2700.75
382.184	2667.75
382.409	2636.75
382.634	2664.75
382.86	2595.75
383.085	2665.75
383.31	2630.75
383.535	2621.75
383.761	2634.75
383.986	2645.75
384.211	2656.75
384.436	2677.75
384.662	2716.75
384.887	2721.75
385.112	2672.75
385.337	2761.75
385.562	2723.75
385.787	2718.75
386.013	2751.75
386.238	2711.75
386.463	2743.75
386.688	2713.75
386.913	2737.75
387.138	2698.75
387.363	2725.75
387.588	2675.75
387.813	2691.75
388.038	2695.75
388.263	2674.75
388.488	2748.75
388.713	2704.75
388.938	2700.75
389.163	2676.75
389.387	2725.75
389.612	2693.75
389.837	2712.75
390.062	2710.75
390.287	2716.75
390.512	2792.75
390.736	2769.75
390.961	2791.75
391.186	2801.75
391.411	2836.75
391.636	2841.75
391.86	2802.75
392.085	2832.75
392.31	2836.75
392.534	2823.75
392.759	2844.75
392.984	2790.75
393.208	2709.75
393.433	2760.75
393.658	2706.75
393.882	2749.75
394.107	2776.75
394.331	2725.75
394.556	2746.75
394.78	2776.75
395.005	2777.75
395.229	2731.75
395.454	2802.75
395.678	2818.75
395.903	2824.75
396.127	2793.75
396.352	2793.75
396.576	2774.75
396.801	2776.75
397.025	2894.75
397.249	2857.75
397.474	2846.75
397.698	2820.75
397.922	2871.75
398.147	2862.75
398.371	2898.75
398.595	2956.75
398.82	2990.75
399.044	3191.75
399.268	3275.75
399.492	3486.75
399.717	3616.75
399.941	3507.75
400.165	3454.75
400.389	3295.75
400.613	3222.75
400.837	3094.75
401.062	3022.75
401.286	3061.75
401.51	3020.75
401.734	2951.75
401.958	2986.75
402.182	2969.75
402.406	2981.75
402.63	3007.75
402.854	3056.75
403.078	3034.75
403.302	3037.75
403.526	3141.75
403.75	3063.75
403.974	3113.75
404.198	3070.75
404.422	3107.75
404.645	3060.75
404.869	3122.75
405.093	3131.75
405.317	3035.75
405.541	3122.75
405.765	3167.75
405.988	3239.75
406.212	3235.75
406.436	3192.75
406.66	3203.75
406.883	3209.75
407.107	3290.75
407.331	3339.75
407.555	3399.75
407.778	3369.75
408.002	3300.75
408.226	3323.75
408.449	3338.75
408.673	3199.75
408.896	3185.75
409.12	3122.75
409.344	3183.75
409.567	3108.75
409.791	3131.75
410.014	3092.75
410.238	3087.75
410.461	3058.75
410.685	3074.75
410.908	3051.75
411.132	2980.75
411.355	3001.75
411.578	3022.75
411.802	2952.75
412.025	2974.75
412.249	3045.75
412.472	2974.75
412.695	2939.75
412.919	3006.75
413.142	2951.75
413.365	2936.75
413.589	2937.75
413.812	2889.75
414.035	2984.75
414.258	2929.75
414.482	2937.75
414.705	2947.75
414.928	2940.75
415.151	2937.75
415.374	2890.75
415.597	2866.75
415.821	2850.75
416.044	2833.75
416.267	2841.75
416.49	2826.75
416.713	2816.75
416.936	2800.75
417.159	2762.75
417.382	2766.75
417.605	2789.75
417.828	2802.75
418.051	2842.75
418.274	2810.75
418.497	2896.75
418.72	2912.75
418.943	2840.75
419.166	3011.75
419.389	3106.75
419.611	3093.75
419.834	2971.75
420.057	2918.75
420.28	2874.75
420.503	2812.75
420.726	2807.75
420.948	2855.75
421.171	2839.75
421.394	2810.75
421.617	2810.75
421.839	2804.75
422.062	2844.75
422.285	2770.75
422.507	2836.75
422.73	2802.75
422.953	2876.75
423.175	2943.75
423.398	2882.75
423.621	2814.75
423.843	2827.75
424.066	2844.75
424.288	2807.75
424.511	2826.75
424.733	2782.75
424.956	2802.75
425.178	2755.75
425.401	2811.75
425.623	2795.75
425.846	2686.75
426.068	2716.75
426.291	2677.75
426.513	2723.75
426.735	2706.75
426.958	2691.75
427.18	2605.75
427.402	2712.75
427.625	2686.75
427.847	2633.75
428.069	2600.75
428.292	2694.75
428.514	2594.75
428.736	2601.75
428.958	2640.75
429.181	2571.75
429.403	2591.75
429.625	2607.75
429.847	2645.75
430.069	2644.75
430.292	2733.75
430.514	2794.75
430.736	2754.75
430.958	2636.75
431.18	2594.75
431.402	2592.75
431.624	2557.75
431.846	2517.75
432.068	2537.75
432.29	2586.75
432.512	2531.75
432.734	2612.75
432.956	2549.75
433.178	2593.75
433.4	2554.75
433.622	2604.75
433.844	2598.75
434.066	2582.75
434.287	2648.75
434.509	2671.75
434.731	2621.75
434.953	2668.75
435.175	2654.75
435.397	2690.75
435.618	2614.75
435.84	2586.75
436.062	2590.75
436.284	2586.75
436.505	2567.75
436.727	2551.75
436.949	2602.75
437.17	2560.75
437.392	2550.75
437.614	2496.75
437.835	2458.75
438.057	2486.75
438.278	2486.75
438.5	2558.75
438.721	2553.75
438.943	2598.75
439.165	2693.75
439.386	2672.75
439.608	2649.75
439.829	2684.75
440.05	2784.75
440.272	2841.75
440.493	2728.75
440.715	2656.75
440.936	2667.75
441.158	2638.75
441.379	2683.75
441.6	2790.75
441.822	2886.75
442.043	3037.75
442.264	3122.75
442.486	2956.75
442.707	2828.75
442.928	2719.75
443.149	2716.75
443.371	2740.75
443.592	2738.75
443.813	2801.75
444.034	2795.75
444.255	2796.75
444.476	2844.75
444.698	2936.75
444.919	2974.75
445.14	2981.75
445.361	2867.75
445.582	2830.75
445.803	2774.75
446.024	2731.75
446.245	2759.75
446.466	2771.75
446.687	2731.75
446.908	2692.75
447.129	2668.75
447.35	2618.75
447.571	2624.75
447.792	2518.75
448.013	2560.75
448.234	2495.75
448.455	2570.75
448.675	2576.75
448.896	2678.75
449.117	2686.75
449.338	2993.75
449.559	3150.75
449.779	2790.75
450	2632.75
450.221	2528.75
450.442	2521.75
450.662	2532.75
450.883	2553.75
451.104	2506.75
451.324	2486.75
451.545	2482.75
451.766	2519.75
451.986	2586.75
452.207	2775.75
452.428	3570.75
452.648	5571.75
452.869	4579.75
453.089	3183.75
453.31	2939.75
453.53	2973.75
453.751	3000.75
453.971	3200.75
454.192	3100.75
454.412	2680.75
454.633	2531.75
454.853	2454.75
455.073	2412.75
455.294	2440.75
455.514	2386.75
455.734	2385.75
455.955	2336.75
456.175	2390.75
456.395	2391.75
456.616	2415.75
456.836	2427.75
457.056	2425.75
457.276	2459.75
457.497	2570.75
457.717	2527.75
457.937	2542.75
458.157	2486.75
458.377	2514.75
458.598	2550.75
458.818	2517.75
459.038	2566.75
459.258	2517.75
459.478	2610.75
459.698	2591.75
459.918	2614.75
460.138	2682.75
460.358	2750.75
460.578	2783.75
460.798	2791.75
461.018	2819.75
461.238	2842.75
461.458	2879.75
461.678	2862.75
461.898	2931.75
462.118	2939.75
462.338	2966.75
462.558	2996.75
462.777	3092.75
462.997	3167.75
463.217	3360.75
463.437	3463.75
463.657	3510.75
463.876	3513.75
464.096	3316.75
464.316	3162.75
464.536	3108.75
464.755	3037.75
464.975	2960.75
465.195	2855.75
465.414	2800.75
465.634	2633.75
465.854	2654.75
466.073	2663.75
466.293	2601.75
466.512	2602.75
466.732	2674.75
466.951	2717.75
467.171	3028.75
467.391	2922.75
467.61	2666.75
467.829	2585.75
468.049	2520.75
468.268	2531.75
468.488	2518.75
468.707	2514.75
468.927	2533.75
469.146	2551.75
469.365	2639.75
469.585	2577.75
469.804	2655.75
470.023	2711.75
470.243	2725.75
470.462	2836.75
470.681	2971.75
470.901	3299.75
471.12	3771.75
471.339	3818.75
471.558	3173.75
471.777	2867.75
471.997	2756.75
472.216	2689.75
472.435	2627.75
472.654	2561.75
472.873	2549.75
473.092	2574.75
473.311	2584.75
473.53	2552.75
473.749	2651.75
473.968	2786.75
474.187	2568.75
474.406	2518.75
474.625	2596.75
474.844	2576.75
475.063	2594.75
475.282	2567.75
475.501	2598.75
475.72	2636.75
475.939	2618.75
476.158	2681.75
476.377	2726.75
476.596	2700.75
476.814	2706.75
477.033	2696.75
477.252	2722.75
477.471	2768.75
477.69	2827.75
477.908	2841.75
478.127	2942.75
478.346	2924.75
478.564	2942.75
478.783	2936.75
479.002	3045.75
479.22	3055.75
479.439	3003.75
479.658	3061.75
479.876	3074.75
480.095	3101.75
480.313	3126.75
480.532	3190.75
480.751	3189.75
480.969	3116.75
481.188	3091.75
481.406	3061.75
481.624	3080.75
481.843	3120.75
482.061	3177.75
482.28	3114.75
482.498	3084.75
482.717	3058.75
482.935	3126.75
483.153	3187.75
483.372	3153.75
483.59	3210.75
483.808	3312.75
484.027	3320.75
484.245	3592.75
484.463	4016.75
484.681	4490.75
484.9	4106.75
485.118	3776.75
485.336	3751.75
485.554	3764.75
485.772	4062.75
485.99	4489.75
486.209	4790.75
486.427	4111.75
486.645	3660.75
486.863	3506.75
487.081	3370.75
487.299	3362.75
487.517	3320.75
487.735	3306.75
487.953	3322.75
488.171	3329.75
488.389	3301.75
488.607	3212.75
488.825	3232.75
489.043	3198.75
489.261	3155.75
489.479	3175.75
489.696	3208.75
489.914	3176.75
490.132	3193.75
490.35	3268.75
490.568	3227.75
490.786	3262.75
491.003	3323.75
491.221	3336.75
491.439	3343.75
491.657	3322.75
491.874	3382.75
492.092	3398.75
492.31	3334.75
492.527	3338.75
492.745	3313.75
492.963	3341.75
493.18	3362.75
493.398	3318.75
493.615	3353.75
493.833	3336.75
494.05	3350.75
494.268	3306.75
494.485	3389.75
494.703	3401.75
494.92	3357.75
495.138	3340.75
495.355	3376.75
495.573	3389.75
495.79	3316.75
496.008	3409.75
496.225	3431.75
496.442	3508.75
496.66	3644.75
496.877	3849.75
497.094	3810.75
497.312	3622.75
497.529	3617.75
497.746	3744.75
497.963	3747.75
498.181	3793.75
498.398	3947.75
498.615	4025.75
498.832	4232.75
499.049	4328.75
499.267	4758.75
499.484	4944.75
499.701	5003.75
499.918	5065.75
500.135	5342.75
500.352	5579.75
500.569	5628.75
500.786	5599.75
501.003	5491.75
501.22	5102.75
501.437	4910.75
501.654	4677.75
501.871	4468.75
502.088	4318.75
502.305	4147.75
502.522	3973.75
502.739	3898.75
502.956	3758.75
503.172	3755.75
503.389	3647.75
503.606	3561.75
503.823	3493.75
504.04	3509.75
504.256	3519.75
504.473	3513.75
504.69	3529.75
504.907	3460.75
505.123	3377.75
505.34	3277.75
505.557	3209.75
505.773	3216.75
505.99	3176.75
506.207	3075.75
506.423	3108.75
506.64	3075.75
506.856	3009.75
507.073	2987.75
507.289	2949.75
507.506	2954.75
507.722	2986.75
507.939	2934.75
508.155	2886.75
508.372	2928.75
508.588	2931.75
508.805	2904.75
509.021	2886.75
509.238	2976.75
509.454	3113.75
509.67	3339.75
509.887	3102.75
510.103	2937.75
510.319	2905.75
510.536	2917.75
510.752	2849.75
510.968	2876.75
511.184	2852.75
511.401	2815.75
511.617	2792.75
511.833	2837.75
512.049	2804.75
512.265	2764.75
512.481	2752.75
512.698	2712.75
512.914	2770.75
513.13	2771.75
513.346	2786.75
513.562	2776.75
513.778	2806.75
513.994	2814.75
514.21	2915.75
514.426	3124.75
514.642	3219.75
514.858	2965.75
515.074	2799.75
515.29	2818.75
515.506	2837.75
515.721	2848.75
515.937	2915.75
516.153	2886.75
516.369	2922.75
516.585	2955.75
516.801	2968.75
517.016	3020.75
517.232	3098.75
517.448	3110.75
517.664	3142.75
517.879	3156.75
518.095	3169.75
518.311	3174.75
518.527	3064.75
518.742	3140.75
518.958	3146.75
519.173	3204.75
519.389	3014.75
519.605	2980.75
519.82	2830.75
520.036	2844.75
520.251	2782.75
520.467	2784.75
520.682	2778.75
520.898	2738.75
521.113	2704.75
521.329	2676.75
521.544	2755.75
521.76	2749.75
521.975	2716.75
522.19	2761.75
522.406	2760.75
522.621	2691.75
522.836	2679.75
523.052	2672.75
523.267	2660.75
523.482	2680.75
523.698	2633.75
523.913	2630.75
524.128	2695.75
524.343	2650.75
524.559	2683.75
524.774	2671.75
524.989	2615.75
525.204	2690.75
525.419	2661.75
525.634	2650.75
525.849	2635.75
526.064	2674.75
526.28	2645.75
526.495	2630.75
526.71	2671.75
526.925	2658.75
527.14	2643.75
527.355	2686.75
527.57	2688.75
527.785	2688.75
527.999	2706.75
528.214	2736.75
528.429	2731.75
528.644	2787.75
528.859	2792.75
529.074	2852.75
529.289	2842.75
529.503	2802.75
529.718	2846.75
529.933	2843.75
530.148	2804.75
530.363	2894.75
530.577	2843.75
530.792	2866.75
531.007	2877.75
531.221	2933.75
531.436	2932.75
531.651	2936.75
531.865	2987.75
532.08	3052.75
532.295	3107.75
532.509	3364.75
532.724	3386.75
532.938	3404.75
533.153	3478.75
533.367	3767.75
533.582	4030.75
533.796	3909.75
534.011	3722.75
534.225	3627.75
534.44	3468.75
534.654	3366.75
534.868	3278.75
535.083	3224.75
535.297	3147.75
535.511	3115.75
535.726	3062.75
535.94	2996.75
536.154	2928.75
536.369	2972.75
536.583	2904.75
536.797	2860.75
537.011	2809.75
537.225	2748.75
537.44	2778.75
537.654	2772.75
537.868	2710.75
538.082	2722.75
538.296	2690.75
538.51	2634.75
538.724	2684.75
538.938	2689.75
539.153	2662.75
539.367	2640.75
539.581	2600.75
539.795	2575.75
540.009	2519.75
540.222	2506.75
540.436	2589.75
540.65	2553.75
540.864	2570.75
541.078	2683.75
541.292	2838.75
541.506	3288.75
541.72	3478.75
541.934	2998.75
542.147	2819.75
542.361	2711.75
542.575	2622.75
542.789	2576.75
543.002	2513.75
543.216	2505.75
543.43	2496.75
543.644	2468.75
543.857	2497.75
544.071	2447.75
544.285	2458.75
544.498	2490.75
544.712	2521.75
544.925	2498.75
545.139	2472.75
545.352	2504.75
545.566	2499.75
545.779	2497.75
545.993	2522.75
546.206	2554.75
546.42	2505.75
546.633	2527.75
546.847	2470.75
547.06	2549.75
547.274	2497.75
547.487	2469.75
547.7	2477.75
547.914	2476.75
548.127	2566.75
548.34	2488.75
548.554	2505.75
548.767	2542.75
548.98	2520.75
549.193	2516.75
549.407	2518.75
549.62	2519.75
549.833	2482.75
550.046	2508.75
550.259	2512.75
550.473	2482.75
550.686	2512.75
550.899	2512.75
551.112	2532.75
551.325	2509.75
551.538	2479.75
551.751	2458.75
551.964	2535.75
552.177	2539.75
552.39	2595.75
552.603	2659.75
552.816	2739.75
553.029	2726.75
553.242	2753.75
553.455	2756.75
553.667	2791.75
553.88	2778.75
554.093	2752.75
554.306	2800.75
554.519	2870.75
554.732	2910.75
554.944	2995.75
555.157	3050.75
555.37	3061.75
555.583	3260.75
555.795	3482.75
556.008	3644.75
556.221	4176.75
556.433	4458.75
556.646	4405.75
556.859	4204.75
557.071	4068.75
557.284	3970.75
557.496	3760.75
557.709	3742.75
557.921	3718.75
558.134	3635.75
558.346	3763.75
558.559	3839.75
558.771	4082.75
558.984	4464.75
559.196	4807.75
559.409	4624.75
559.621	4220.75
559.833	3946.75
560.046	3745.75
560.258	3513.75
560.47	3365.75
560.683	3162.75
560.895	3092.75
561.107	3010.75
561.32	2874.75
561.532	2823.75
561.744	2736.75
561.956	2718.75
562.168	2657.75
562.381	2641.75
562.593	2640.75
562.805	2674.75
563.017	2688.75
563.229	2755.75
563.441	3200.75
563.653	2650.75
563.865	2450.75
564.077	2435.75
564.289	2364.75
564.501	2288.75
564.713	2342.75
564.925	2357.75
565.137	2308.75
565.349	2321.75
565.561	2369.75
565.773	2350.75
565.985	2389.75
566.197	2369.75
566.408	2451.75
566.62	2498.75
566.832	2517.75
567.044	2550.75
567.255	2552.75
567.467	2627.75
567.679	2712.75
567.891	2779.75
568.102	3099.75
568.314	3590.75
568.526	3118.75
568.737	2702.75
568.949	2496.75
569.161	2325.75
569.372	2206.75
569.584	2173.75
569.795	2110.75
570.007	2098.75
570.218	2145.75
570.43	2252.75
570.641	2056.75
570.853	1948.75
571.064	1952.75
571.276	1969.75
571.487	1922.75
571.698	1883.75
571.91	1862.75
572.121	1814.75
572.333	1803.75
572.544	1817.75
572.755	1942.75
572.966	2279.75
573.178	2105.75
573.389	1874.75
573.6	1796.75
573.811	1738.75
574.023	1727.75
574.234	1744.75
574.445	1726.75
574.656	1703.75
574.867	1670.75
575.078	1693.75
575.289	1698.75
575.501	1692.75
575.712	1667.75
575.923	1667.75
576.134	1677.75
576.345	1691.75
576.556	1681.75
576.767	1670.75
576.978	1660.75
577.188	1679.75
577.399	1714.75
577.61	1731.75
577.821	1782.75
578.032	1760.75
578.243	1804.75
578.454	1791.75
578.665	1844.75
578.875	1914.75
579.086	1987.75
579.297	2083.75
579.508	2195.75
579.718	2422.75
579.929	2722.75
580.14	3270.75
580.35	3302.75
580.561	3024.75
580.772	2730.75
580.982	2501.75
581.193	2329.75
581.403	2210.75
581.614	2104.75
581.825	2016.75
582.035	1927.75
582.246	1886.75
582.456	1804.75
582.667	1762.75
582.877	1694.75
583.087	1705.75
583.298	1627.75
583.508	1594.75
583.719	1593.75
583.929	1526.75
584.139	1532.75
584.35	1463.75
584.56	1455.75
584.77	1438.75
584.981	1432.75
585.191	1412.75
585.401	1364.75
585.611	1372.75
585.821	1346.75
586.032	1322.75
586.242	1325.75
586.452	1298.75
586.662	1284.75
586.872	1259.75
587.082	1270.75
587.292	1249.75
587.502	1291.75
587.713	1232.75
587.923	1262.75
588.133	1232.75
588.343	1222.75
588.553	1203.75
588.762	1192.75
588.972	1195.75
589.182	1222.75
589.392	1217.75
589.602	1157.75
589.812	1179.75
590.022	1183.75
590.232	1177.75
590.441	1168.75
590.651	1173.75
590.861	1158.75
591.071	1137.75
591.281	1144.75
591.49	1165.75
591.7	1168.75
591.91	1165.75
592.119	1149.75
592.329	1147.75
592.539	1171.75
592.748	1196.75
592.958	1204.75
593.167	1191.75
593.377	1214.75
593.587	1187.75
593.796	1198.75
594.006	1216.75
594.215	1211.75
594.424	1209.75
594.634	1194.75
594.843	1152.75
595.053	1142.75
595.262	1148.75
595.472	1103.75
595.681	1099.75
595.89	1110.75
596.1	1062.75
596.309	1050.75
596.518	1050.75
596.727	1035.75
596.937	1046.75
597.146	1016.75
597.355	1012.75
597.564	1020.75
597.774	1002.75
597.983	974.75
598.192	962.75
598.401	961.75
598.61	979.75
598.819	968.75
599.028	956.75
599.237	952.75
599.446	944.75
599.655	945.75
599.864	948.75
600.073	932.75
600.282	916.75
600.491	935.75
600.7	906.75
600.909	914.75
601.118	919.75
601.327	911.75
601.536	943.75
601.745	939.75
601.953	1080.75
602.162	1204.75
602.371	1072.75
602.58	975.75
602.789	930.75
602.997	954.75
603.206	917.75
603.415	924.75
603.623	920.75
603.832	924.75
604.041	896.75
604.249	867.75
604.458	889.75
604.666	884.75
604.875	852.75
605.084	855.75
605.292	878.75
605.501	894.75
605.709	910.75
605.918	906.75
606.126	902.75
606.334	890.75
606.543	892.75
606.751	995.75
606.96	1121.75
607.168	1232.75
607.376	1049.75
607.585	973.75
607.793	926.75
608.001	908.75
608.21	875.75
608.418	870.75
608.626	858.75
608.834	872.75
609.043	850.75
609.251	856.75
609.459	807.75
609.667	853.75
609.875	812.75
610.083	852.75
610.291	848.75
610.499	819.75
610.707	842.75
610.916	832.75
611.124	844.75
611.332	792.75
611.54	814.75
611.748	795.75
611.955	816.75
612.163	788.75
612.371	791.75
612.579	798.75
612.787	823.75
612.995	788.75
613.203	781.75
613.411	774.75
613.618	774.75
613.826	763.75
614.034	758.75
614.242	781.75
614.449	790.75
614.657	773.75
614.865	787.75
615.072	799.75
615.28	811.75
615.488	800.75
615.695	777.75
615.903	786.75
616.111	769.75
616.318	769.75
616.526	774.75
616.733	790.75
616.941	769.75
617.148	759.75
617.356	748.75
617.563	772.75
617.771	761.75
617.978	745.75
618.185	727.75
618.393	753.75
618.6	755.75
618.807	727.75
619.015	748.75
619.222	738.75
619.429	732.75
619.637	742.75
619.844	719.75
620.051	722.75
620.258	705.75
620.466	688.75
620.673	684.75
620.88	689.75
621.087	697.75
621.294	665.75
621.501	682.75
621.708	681.75
621.915	698.75
622.122	659.75
622.329	701.75
622.536	709.75
622.743	686.75
622.95	684.75
623.157	650.75
623.364	675.75
623.571	662.75
623.778	680.75
623.985	690.75
624.192	677.75
624.399	688.75
624.606	678.75
624.812	660.75
625.019	660.75
625.226	656.75
625.433	662.75
625.639	642.75
625.846	632.75
626.053	626.75
626.259	617.75
626.466	649.75
626.673	606.75
626.879	614.75
627.086	612.75
627.293	617.75
627.499	611.75
627.706	626.75
627.912	640.75
628.119	632.75
628.325	610.75
628.532	634.75
628.738	633.75
628.945	606.75
629.151	606.75
629.357	634.75
629.564	606.75
629.77	610.75
629.976	627.75
630.183	579.75
630.389	591.75
630.595	596.75
630.802	594.75
631.008	584.75
631.214	610.75
631.42	563.75
631.627	583.75
631.833	584.75
632.039	586.75
632.245	570.75
632.451	580.75
632.657	580.75
632.863	577.75
633.069	572.75
633.275	574.75
633.481	563.75
633.688	553.75
633.893	574.75
634.099	583.75
634.305	596.75
634.511	568.75
634.717	601.75
634.923	616.75
635.129	684.75
635.335	791.75
635.541	692.75
635.747	622.75
635.952	602.75
636.158	598.75
636.364	603.75
636.57	571.75
636.775	591.75
636.981	564.75
637.187	601.75
637.392	592.75
637.598	563.75
637.804	596.75
638.009	582.75
638.215	585.75
638.421	598.75
638.626	555.75
638.832	558.75
639.037	564.75
639.243	585.75
639.448	596.75
639.654	587.75
639.859	614.75
640.065	613.75
640.27	587.75
640.475	588.75
640.681	600.75
640.886	607.75
641.091	602.75
641.297	629.75
641.502	630.75
641.707	635.75
641.913	622.75
642.118	672.75
642.323	672.75
642.528	658.75
642.733	690.75
642.939	710.75
643.144	735.75
643.349	764.75
643.554	755.75
643.759	812.75
643.964	849.75
644.169	878.75
644.374	953.75
644.579	1049.75
644.784	1146.75
644.989	1298.75
645.194	1531.75
645.399	1936.75
645.604	2053.75
645.809	1521.75
646.014	1164.75
646.219	954.75
646.423	842.75
646.628	786.75
646.833	704.75
647.038	673.75
647.243	632.75
647.447	626.75
647.652	595.75
647.857	574.75
648.062	584.75
648.266	564.75
648.471	543.75
648.676	566.75
648.88	530.75
649.085	548.75
649.289	519.75
649.494	515.75
649.698	513.75
649.903	492.75
650.107	479.75
650.312	500.75
650.516	469.75
650.721	468.75
650.925	441.75
651.13	448.75
651.334	447.75
651.539	432.75
651.743	436.75
651.947	434.75
652.152	432.75
652.356	410.75
652.56	454.75
652.764	502.75
652.969	458.75
653.173	412.75
653.377	396.75
653.581	383.75
653.785	374.75
653.99	372.75
654.194	355.75
654.398	362.75
654.602	326.75
654.806	329.75
655.01	356.75
655.214	347.75
655.418	348.75
655.622	337.75
655.826	346.75
656.03	356.75
656.234	380.75
656.438	360.75
656.642	373.75
656.846	364.75
657.049	353.75
657.253	316.75
657.457	288.75
657.661	294.75
657.865	283.75
658.068	267.75
658.272	272.75
658.476	244.75
658.68	225.75
658.883	226.75
659.087	226.75
659.291	208.75
659.494	196.75
659.698	174.75
659.901	179.75
660.105	175.75
660.309	158.75
660.512	154.75
660.716	169.75
660.919	169.75
661.123	155.75
661.326	139.75
661.53	123.75
661.733	123.75
661.936	131.75
662.14	128.75
662.343	116.75
662.546	98.75
662.75	109.75
662.953	111.75
663.156	99.75
663.36	112.75
663.563	91.75
663.766	94.75
663.969	95.75
664.173	96.75
664.376	90.75
664.579	93.75
664.782	78.75
664.985	79.75
665.188	88.75
665.391	96.75
665.594	88.75
665.797	86.75
666	82.75
666.203	76.75
666.406	82.75
666.609	82.75
666.812	75.75
667.015	80.75
667.218	88.75
667.421	77.75
667.624	86.75
667.827	88.75
668.03	104.75
668.232	83.75
668.435	74.75
668.638	76.75
668.841	81.75
669.043	88.75
669.246	106.75
669.449	59.75
669.651	96.75
669.854	81.75
670.057	89.75
670.259	93.75
670.462	94.75
670.665	86.75
670.867	88.75
671.07	94.75
671.272	91.75
671.475	84.75
671.677	89.75
671.88	91.75
672.082	73.75
672.284	85.75
672.487	81.75
672.689	85.75
672.892	84.75
