Data from SnStandardFlinnAPT0064_LampEnergy5.5_LIBS07252019.E.O._I.C._HRD10591_15-15-39-491.txt Node
Date: Thu Jul 25 15:15:39 EDT 2019
User: cochatt
Spectrometer: HR+D1059
Trigger mode: 1
Integration Time (sec): 1.000000E-1
Scans to average: 1
Electric dark correction enabled: true
Nonlinearity correction enabled: false
Boxcar width: 0
XAxis mode: Wavelengths
Number of Pixels in Spectrum: 2048
>>>>>Begin Spectral Data<<<<<
223.165	-14.94
223.4	-14.94
223.635	-14.94
223.869	-8.94
224.104	-9.94
224.338	-4.94
224.573	-24.94
224.808	-17.94
225.042	-7.94
225.277	-3.94
225.511	-7.94
225.746	3.06
225.98	5.06
226.215	1.06
226.449	27.06
226.683	19.06
226.918	27.06
227.152	19.06
227.387	28.06
227.621	28.06
227.856	25.06
228.09	51.06
228.324	40.06
228.559	37.06
228.793	88.06
229.027	130.06
229.262	152.06
229.496	159.06
229.73	136.06
229.964	158.06
230.199	162.06
230.433	155.06
230.667	172.06
230.901	166.06
231.136	157.06
231.37	172.06
231.604	180.06
231.838	181.06
232.072	217.06
232.306	213.06
232.541	202.06
232.775	190.06
233.009	194.06
233.243	197.06
233.477	208.06
233.711	226.06
233.945	244.06
234.179	229.06
234.413	201.06
234.647	196.06
234.881	202.06
235.115	206.06
235.349	250.06
235.583	334.06
235.817	396.06
236.051	398.06
236.285	277.06
236.519	220.06
236.753	227.06
236.987	231.06
237.221	220.06
237.455	229.06
237.689	226.06
237.922	216.06
238.156	203.06
238.39	208.06
238.624	213.06
238.858	217.06
239.091	211.06
239.325	227.06
239.559	227.06
239.793	229.06
240.027	226.06
240.26	235.06
240.494	248.06
240.728	260.06
240.961	250.06
241.195	280.06
241.429	294.06
241.662	276.06
241.896	299.06
242.13	344.06
242.363	433.06
242.597	568.06
242.83	525.06
243.064	559.06
243.298	652.06
243.531	554.06
243.765	363.06
243.998	313.06
244.232	296.06
244.465	291.06
244.699	266.06
244.932	278.06
245.166	291.06
245.399	302.06
245.633	294.06
245.866	286.06
246.099	295.06
246.333	300.06
246.566	276.06
246.8	271.06
247.033	261.06
247.266	274.06
247.5	296.06
247.733	302.06
247.966	285.06
248.2	330.06
248.433	338.06
248.666	388.06
248.899	369.06
249.133	345.06
249.366	352.06
249.599	369.06
249.832	396.06
250.066	402.06
250.299	346.06
250.532	339.06
250.765	340.06
250.998	322.06
251.231	318.06
251.465	302.06
251.698	319.06
251.931	325.06
252.164	319.06
252.397	344.06
252.63	326.06
252.863	339.06
253.096	344.06
253.329	329.06
253.562	337.06
253.795	340.06
254.028	344.06
254.261	352.06
254.494	360.06
254.727	396.06
254.96	468.06
255.193	441.06
255.426	370.06
255.659	363.06
255.892	384.06
256.124	344.06
256.357	368.06
256.59	380.06
256.823	390.06
257.056	420.06
257.289	490.06
257.521	534.06
257.754	446.06
257.987	390.06
258.22	375.06
258.452	394.06
258.685	376.06
258.918	387.06
259.151	395.06
259.383	450.06
259.616	446.06
259.849	484.06
260.081	428.06
260.314	422.06
260.547	399.06
260.779	392.06
261.012	423.06
261.244	394.06
261.477	421.06
261.71	434.06
261.942	432.06
262.175	420.06
262.407	442.06
262.64	481.06
262.872	475.06
263.105	487.06
263.337	504.06
263.57	534.06
263.802	550.06
264.035	560.06
264.267	564.06
264.499	592.06
264.732	579.06
264.964	603.06
265.197	602.06
265.429	602.06
265.661	619.06
265.894	665.06
266.126	698.06
266.358	770.06
266.591	740.06
266.823	636.06
267.055	587.06
267.287	574.06
267.52	561.06
267.752	546.06
267.984	545.06
268.216	533.06
268.448	513.06
268.681	528.06
268.913	532.06
269.145	512.06
269.377	486.06
269.609	501.06
269.841	552.06
270.073	556.06
270.306	624.06
270.538	803.06
270.77	1126.06
271.002	1314.06
271.234	994.06
271.466	697.06
271.698	585.06
271.93	572.06
272.162	547.06
272.394	539.06
272.626	520.06
272.858	512.06
273.09	512.06
273.322	518.06
273.553	511.06
273.785	489.06
274.017	506.06
274.249	514.06
274.481	500.06
274.713	522.06
274.945	524.06
275.176	500.06
275.408	513.06
275.64	496.06
275.872	485.06
276.104	520.06
276.335	526.06
276.567	526.06
276.799	539.06
277.031	540.06
277.262	545.06
277.494	554.06
277.726	595.06
277.957	671.06
278.189	735.06
278.421	705.06
278.652	651.06
278.884	615.06
279.115	591.06
279.347	580.06
279.579	557.06
279.81	557.06
280.042	545.06
280.273	567.06
280.505	586.06
280.736	588.06
280.968	594.06
281.199	665.06
281.431	723.06
281.662	726.06
281.894	678.06
282.125	631.06
282.356	660.06
282.588	650.06
282.819	665.06
283.051	694.06
283.282	751.06
283.513	944.06
283.745	1253.06
283.976	1972.06
284.207	2714.06
284.439	2472.06
284.67	1553.06
284.901	1266.06
285.132	1205.06
285.364	1171.06
285.595	935.06
285.826	894.06
286.057	1006.06
286.288	1300.06
286.52	1735.06
286.751	1634.06
286.982	1070.06
287.213	869.06
287.444	752.06
287.675	711.06
287.906	711.06
288.138	696.06
288.369	680.06
288.6	683.06
288.831	661.06
289.062	682.06
289.293	688.06
289.524	689.06
289.755	668.06
289.986	652.06
290.217	683.06
290.448	687.06
290.679	672.06
290.91	698.06
291.141	708.06
291.371	728.06
291.602	757.06
291.833	713.06
292.064	706.06
292.295	652.06
292.526	664.06
292.757	663.06
292.987	639.06
293.218	668.06
293.449	637.06
293.68	622.06
293.91	643.06
294.141	619.06
294.372	626.06
294.603	636.06
294.833	624.06
295.064	640.06
295.295	632.06
295.525	647.06
295.756	640.06
295.987	636.06
296.217	638.06
296.448	622.06
296.679	663.06
296.909	650.06
297.14	662.06
297.37	663.06
297.601	636.06
297.831	658.06
298.062	653.06
298.292	660.06
298.523	673.06
298.753	673.06
298.984	688.06
299.214	687.06
299.445	697.06
299.675	686.06
299.905	730.06
300.136	755.06
300.366	823.06
300.597	999.06
300.827	1334.06
301.057	1744.06
301.288	1731.06
301.518	1181.06
301.748	957.06
301.979	870.06
302.209	826.06
302.439	863.06
302.669	887.06
302.9	1066.06
303.13	1402.06
303.36	2026.06
303.59	2625.06
303.82	2302.06
304.051	1423.06
304.281	1077.06
304.511	930.06
304.741	880.06
304.971	834.06
305.201	802.06
305.431	793.06
305.661	774.06
305.891	774.06
306.121	729.06
306.352	768.06
306.582	756.06
306.812	733.06
307.042	729.06
307.272	728.06
307.502	711.06
307.731	714.06
307.961	737.06
308.191	715.06
308.421	706.06
308.651	746.06
308.881	754.06
309.111	729.06
309.341	711.06
309.571	750.06
309.8	752.06
310.03	750.06
310.26	774.06
310.49	742.06
310.72	747.06
310.949	768.06
311.179	752.06
311.409	770.06
311.639	763.06
311.868	775.06
312.098	784.06
312.328	810.06
312.557	782.06
312.787	778.06
313.017	788.06
313.246	824.06
313.476	796.06
313.706	808.06
313.935	848.06
314.165	864.06
314.394	903.06
314.624	874.06
314.853	858.06
315.083	838.06
315.312	870.06
315.542	839.06
315.771	850.06
316.001	844.06
316.23	898.06
316.46	920.06
316.689	987.06
316.919	1170.06
317.148	1634.06
317.377	2432.06
317.607	3489.06
317.836	3576.06
318.065	2178.06
318.295	1485.06
318.524	1219.06
318.753	1080.06
318.983	1003.06
319.212	966.06
319.441	938.06
319.67	934.06
319.9	939.06
320.129	917.06
320.358	924.06
320.587	890.06
320.816	920.06
321.046	911.06
321.275	958.06
321.504	942.06
321.733	921.06
321.962	945.06
322.191	974.06
322.42	979.06
322.649	962.06
322.878	963.06
323.108	968.06
323.337	986.06
323.566	1010.06
323.795	1036.06
324.024	1000.06
324.253	1066.06
324.482	1065.06
324.71	1123.06
324.939	1186.06
325.168	1204.06
325.397	1251.06
325.626	1444.06
325.855	1945.06
326.084	2930.06
326.313	4290.06
326.542	4504.06
326.77	2994.06
326.999	2023.06
327.228	1689.06
327.457	1657.06
327.686	1666.06
327.914	1792.06
328.143	2011.06
328.372	2350.06
328.6	2483.06
328.829	2339.06
329.058	2097.06
329.287	1892.06
329.515	1719.06
329.744	1627.06
329.972	1538.06
330.201	1466.06
330.43	1440.06
330.658	1349.06
330.887	1348.06
331.115	1357.06
331.344	1326.06
331.572	1348.06
331.801	1332.06
332.03	1354.06
332.258	1360.06
332.486	1440.06
332.715	1544.06
332.943	1872.06
333.172	2182.06
333.4	2198.06
333.629	1752.06
333.857	1642.06
334.085	1663.06
334.314	1700.06
334.542	1921.06
334.771	2089.06
334.999	2503.06
335.227	3027.06
335.455	3356.06
335.684	3123.06
335.912	2720.06
336.14	2312.06
336.369	2083.06
336.597	1911.06
336.825	1814.06
337.053	1691.06
337.281	1644.06
337.51	1546.06
337.738	1467.06
337.966	1442.06
338.194	1383.06
338.422	1360.06
338.65	1310.06
338.878	1292.06
339.106	1280.06
339.334	1299.06
339.562	1231.06
339.79	1193.06
340.018	1172.06
340.246	1219.06
340.474	1198.06
340.702	1174.06
340.93	1194.06
341.158	1206.06
341.386	1176.06
341.614	1183.06
341.842	1135.06
342.07	1146.06
342.298	1134.06
342.526	1073.06
342.754	1076.06
342.981	1102.06
343.209	1118.06
343.437	1093.06
343.665	1124.06
343.893	1137.06
344.12	1114.06
344.348	1150.06
344.576	1106.06
344.804	1090.06
345.031	1055.06
345.259	1064.06
345.487	1060.06
345.714	1025.06
345.942	1031.06
346.17	996.06
346.397	1008.06
346.625	1054.06
346.853	1009.06
347.08	1036.06
347.308	1027.06
347.535	986.06
347.763	1020.06
347.99	986.06
348.218	996.06
348.445	996.06
348.673	1007.06
348.9	979.06
349.128	958.06
349.355	980.06
349.583	995.06
349.81	1006.06
350.037	996.06
350.265	948.06
350.492	948.06
350.72	963.06
350.947	952.06
351.174	977.06
351.402	988.06
351.629	976.06
351.856	993.06
352.083	974.06
352.311	985.06
352.538	956.06
352.765	946.06
352.992	983.06
353.22	962.06
353.447	963.06
353.674	959.06
353.901	963.06
354.128	969.06
354.355	962.06
354.583	972.06
354.81	940.06
355.037	990.06
355.264	971.06
355.491	980.06
355.718	996.06
355.945	986.06
356.172	986.06
356.399	978.06
356.626	1021.06
356.853	1010.06
357.08	1020.06
357.307	1029.06
357.534	1027.06
357.761	1032.06
357.988	1030.06
358.215	1008.06
358.441	1026.06
358.668	1028.06
358.895	1011.06
359.122	1023.06
359.349	1014.06
359.576	1030.06
359.802	1028.06
360.029	1019.06
360.256	1025.06
360.483	1043.06
360.709	1036.06
360.936	1035.06
361.163	1022.06
361.39	1056.06
361.616	1024.06
361.843	1040.06
362.07	1043.06
362.296	1035.06
362.523	1018.06
362.749	1031.06
362.976	1027.06
363.203	1009.06
363.429	1001.06
363.656	1039.06
363.882	1019.06
364.109	1029.06
364.335	993.06
364.562	1044.06
364.788	1050.06
365.015	1040.06
365.241	1091.06
365.468	1067.06
365.694	1098.06
365.92	1060.06
366.147	1047.06
366.373	1056.06
366.599	1078.06
366.826	1044.06
367.052	1046.06
367.278	1053.06
367.505	1035.06
367.731	1047.06
367.957	1057.06
368.184	1061.06
368.41	1103.06
368.636	1038.06
368.862	1064.06
369.089	1076.06
369.315	1059.06
369.541	1059.06
369.767	1071.06
369.993	1071.06
370.219	1098.06
370.445	1060.06
370.672	1074.06
370.898	1078.06
371.124	1072.06
371.35	1124.06
371.576	1123.06
371.802	1109.06
372.028	1089.06
372.254	1104.06
372.48	1090.06
372.706	1114.06
372.932	1132.06
373.158	1128.06
373.384	1138.06
373.61	1168.06
373.835	1114.06
374.061	1142.06
374.287	1150.06
374.513	1170.06
374.739	1179.06
374.965	1153.06
375.191	1184.06
375.416	1154.06
375.642	1141.06
375.868	1139.06
376.094	1152.06
376.319	1118.06
376.545	1135.06
376.771	1127.06
376.997	1112.06
377.222	1098.06
377.448	1091.06
377.674	1118.06
377.899	1092.06
378.125	1112.06
378.35	1079.06
378.576	1087.06
378.802	1116.06
379.027	1159.06
379.253	1142.06
379.478	1221.06
379.704	1366.06
379.929	1804.06
380.155	2603.06
380.38	2738.06
380.606	1782.06
380.831	1403.06
381.057	1230.06
381.282	1148.06
381.507	1137.06
381.733	1124.06
381.958	1121.06
382.184	1107.06
382.409	1119.06
382.634	1091.06
382.86	1084.06
383.085	1130.06
383.31	1073.06
383.535	1112.06
383.761	1103.06
383.986	1090.06
384.211	1110.06
384.436	1111.06
384.662	1109.06
384.887	1124.06
385.112	1124.06
385.337	1121.06
385.562	1159.06
385.787	1119.06
386.013	1149.06
386.238	1149.06
386.463	1139.06
386.688	1176.06
386.913	1164.06
387.138	1132.06
387.363	1141.06
387.588	1125.06
387.813	1138.06
388.038	1146.06
388.263	1152.06
388.488	1113.06
388.713	1146.06
388.938	1142.06
389.163	1128.06
389.387	1127.06
389.612	1154.06
389.837	1134.06
390.062	1139.06
390.287	1125.06
390.512	1148.06
390.736	1143.06
390.961	1170.06
391.186	1187.06
391.411	1169.06
391.636	1203.06
391.86	1212.06
392.085	1206.06
392.31	1175.06
392.534	1165.06
392.759	1175.06
392.984	1157.06
393.208	1154.06
393.433	1154.06
393.658	1152.06
393.882	1170.06
394.107	1142.06
394.331	1162.06
394.556	1168.06
394.78	1156.06
395.005	1180.06
395.229	1190.06
395.454	1174.06
395.678	1177.06
395.903	1188.06
396.127	1160.06
396.352	1154.06
396.576	1184.06
396.801	1165.06
397.025	1171.06
397.249	1170.06
397.474	1222.06
397.698	1182.06
397.922	1193.06
398.147	1180.06
398.371	1224.06
398.595	1280.06
398.82	1296.06
399.044	1330.06
399.268	1366.06
399.492	1456.06
399.717	1475.06
399.941	1503.06
400.165	1439.06
400.389	1388.06
400.613	1356.06
400.837	1312.06
401.062	1300.06
401.286	1306.06
401.51	1246.06
401.734	1254.06
401.958	1252.06
402.182	1272.06
402.406	1280.06
402.63	1263.06
402.854	1282.06
403.078	1274.06
403.302	1328.06
403.526	1327.06
403.75	1308.06
403.974	1314.06
404.198	1312.06
404.422	1313.06
404.645	1288.06
404.869	1300.06
405.093	1299.06
405.317	1295.06
405.541	1331.06
405.765	1340.06
405.988	1368.06
406.212	1331.06
406.436	1295.06
406.66	1382.06
406.883	1347.06
407.107	1355.06
407.331	1379.06
407.555	1423.06
407.778	1380.06
408.002	1393.06
408.226	1392.06
408.449	1391.06
408.673	1339.06
408.896	1331.06
409.12	1350.06
409.344	1345.06
409.567	1295.06
409.791	1329.06
410.014	1310.06
410.238	1313.06
410.461	1296.06
410.685	1291.06
410.908	1300.06
411.132	1312.06
411.355	1228.06
411.578	1262.06
411.802	1265.06
412.025	1241.06
412.249	1266.06
412.472	1266.06
412.695	1234.06
412.919	1243.06
413.142	1235.06
413.365	1232.06
413.589	1263.06
413.812	1227.06
414.035	1247.06
414.258	1236.06
414.482	1235.06
414.705	1250.06
414.928	1239.06
415.151	1226.06
415.374	1216.06
415.597	1194.06
415.821	1175.06
416.044	1192.06
416.267	1204.06
416.49	1188.06
416.713	1184.06
416.936	1187.06
417.159	1182.06
417.382	1182.06
417.605	1187.06
417.828	1179.06
418.051	1211.06
418.274	1195.06
418.497	1204.06
418.72	1223.06
418.943	1193.06
419.166	1268.06
419.389	1280.06
419.611	1313.06
419.834	1247.06
420.057	1264.06
420.28	1228.06
420.503	1198.06
420.726	1191.06
420.948	1176.06
421.171	1221.06
421.394	1205.06
421.617	1232.06
421.839	1215.06
422.062	1224.06
422.285	1181.06
422.507	1223.06
422.73	1244.06
422.953	1218.06
423.175	1223.06
423.398	1247.06
423.621	1207.06
423.843	1226.06
424.066	1201.06
424.288	1178.06
424.511	1185.06
424.733	1207.06
424.956	1178.06
425.178	1176.06
425.401	1214.06
425.623	1170.06
425.846	1174.06
426.068	1140.06
426.291	1154.06
426.513	1140.06
426.735	1120.06
426.958	1124.06
427.18	1129.06
427.402	1136.06
427.625	1142.06
427.847	1116.06
428.069	1140.06
428.292	1130.06
428.514	1113.06
428.736	1119.06
428.958	1119.06
429.181	1104.06
429.403	1097.06
429.625	1068.06
429.847	1076.06
430.069	1114.06
430.292	1165.06
430.514	1158.06
430.736	1172.06
430.958	1127.06
431.18	1098.06
431.402	1112.06
431.624	1128.06
431.846	1095.06
432.068	1087.06
432.29	1099.06
432.512	1077.06
432.734	1120.06
432.956	1104.06
433.178	1129.06
433.4	1135.06
433.622	1115.06
433.844	1089.06
434.066	1101.06
434.287	1081.06
434.509	1099.06
434.731	1114.06
434.953	1156.06
435.175	1170.06
435.397	1167.06
435.618	1120.06
435.84	1090.06
436.062	1106.06
436.284	1093.06
436.505	1110.06
436.727	1099.06
436.949	1113.06
437.17	1094.06
437.392	1067.06
437.614	1075.06
437.835	1036.06
438.057	1054.06
438.278	1064.06
438.5	1075.06
438.721	1105.06
438.943	1141.06
439.165	1116.06
439.386	1127.06
439.608	1127.06
439.829	1142.06
440.05	1163.06
440.272	1192.06
440.493	1170.06
440.715	1112.06
440.936	1143.06
441.158	1143.06
441.379	1155.06
441.6	1228.06
441.822	1219.06
442.043	1268.06
442.264	1286.06
442.486	1211.06
442.707	1185.06
442.928	1171.06
443.149	1198.06
443.371	1168.06
443.592	1186.06
443.813	1191.06
444.034	1201.06
444.255	1217.06
444.476	1284.06
444.698	1289.06
444.919	1280.06
445.14	1370.06
445.361	1306.06
445.582	1210.06
445.803	1215.06
446.024	1163.06
446.245	1170.06
446.466	1230.06
446.687	1173.06
446.908	1192.06
447.129	1134.06
447.35	1131.06
447.571	1127.06
447.792	1088.06
448.013	1128.06
448.234	1097.06
448.455	1100.06
448.675	1098.06
448.896	1123.06
449.117	1103.06
449.338	1228.06
449.559	1216.06
449.779	1134.06
450	1065.06
450.221	1094.06
450.442	1070.06
450.662	1050.06
450.883	1055.06
451.104	1055.06
451.324	1060.06
451.545	1035.06
451.766	1034.06
451.986	1068.06
452.207	1097.06
452.428	1301.06
452.648	1716.06
452.869	1554.06
453.089	1208.06
453.31	1122.06
453.53	1122.06
453.751	1151.06
453.971	1234.06
454.192	1247.06
454.412	1065.06
454.633	1059.06
454.853	1011.06
455.073	1024.06
455.294	1004.06
455.514	1006.06
455.734	992.06
455.955	1015.06
456.175	994.06
456.395	1006.06
456.616	1022.06
456.836	1019.06
457.056	1031.06
457.276	1002.06
457.497	1034.06
457.717	1065.06
457.937	1042.06
458.157	1057.06
458.377	1052.06
458.598	1076.06
458.818	1049.06
459.038	1075.06
459.258	1097.06
459.478	1100.06
459.698	1105.06
459.918	1104.06
460.138	1138.06
460.358	1154.06
460.578	1169.06
460.798	1188.06
461.018	1209.06
461.238	1189.06
461.458	1210.06
461.678	1210.06
461.898	1228.06
462.118	1215.06
462.338	1271.06
462.558	1267.06
462.777	1300.06
462.997	1345.06
463.217	1402.06
463.437	1410.06
463.657	1380.06
463.876	1358.06
464.096	1356.06
464.316	1275.06
464.536	1298.06
464.755	1237.06
464.975	1234.06
465.195	1184.06
465.414	1181.06
465.634	1120.06
465.854	1114.06
466.073	1146.06
466.293	1118.06
466.512	1110.06
466.732	1100.06
466.951	1147.06
467.171	1183.06
467.391	1211.06
467.61	1148.06
467.829	1099.06
468.049	1075.06
468.268	1092.06
468.488	1077.06
468.707	1059.06
468.927	1067.06
469.146	1071.06
469.365	1093.06
469.585	1098.06
469.804	1135.06
470.023	1126.06
470.243	1143.06
470.462	1198.06
470.681	1246.06
470.901	1312.06
471.12	1463.06
471.339	1438.06
471.558	1259.06
471.777	1200.06
471.997	1141.06
472.216	1137.06
472.435	1108.06
472.654	1097.06
472.873	1085.06
473.092	1070.06
473.311	1095.06
473.53	1078.06
473.749	1125.06
473.968	1140.06
474.187	1116.06
474.406	1077.06
474.625	1099.06
474.844	1063.06
475.063	1110.06
475.282	1091.06
475.501	1095.06
475.72	1127.06
475.939	1123.06
476.158	1158.06
476.377	1112.06
476.596	1106.06
476.814	1136.06
477.033	1144.06
477.252	1129.06
477.471	1165.06
477.69	1188.06
477.908	1212.06
478.127	1243.06
478.346	1254.06
478.564	1242.06
478.783	1254.06
479.002	1271.06
479.22	1286.06
479.439	1295.06
479.658	1300.06
479.876	1290.06
480.095	1324.06
480.313	1311.06
480.532	1327.06
480.751	1304.06
480.969	1303.06
481.188	1285.06
481.406	1264.06
481.624	1262.06
481.843	1265.06
482.061	1314.06
482.28	1314.06
482.498	1282.06
482.717	1270.06
482.935	1272.06
483.153	1351.06
483.372	1333.06
483.59	1363.06
483.808	1345.06
484.027	1407.06
484.245	1413.06
484.463	1579.06
484.681	1738.06
484.9	1584.06
485.118	1535.06
485.336	1476.06
485.554	1483.06
485.772	1569.06
485.99	1730.06
486.209	1853.06
486.427	1569.06
486.645	1464.06
486.863	1432.06
487.081	1428.06
487.299	1400.06
487.517	1399.06
487.735	1397.06
487.953	1406.06
488.171	1436.06
488.389	1384.06
488.607	1384.06
488.825	1331.06
489.043	1314.06
489.261	1340.06
489.479	1337.06
489.696	1311.06
489.914	1354.06
490.132	1354.06
490.35	1365.06
490.568	1412.06
490.786	1402.06
491.003	1373.06
491.221	1412.06
491.439	1433.06
491.657	1402.06
491.874	1438.06
492.092	1463.06
492.31	1486.06
492.527	1479.06
492.745	1456.06
492.963	1429.06
493.18	1436.06
493.398	1411.06
493.615	1441.06
493.833	1433.06
494.05	1481.06
494.268	1459.06
494.485	1433.06
494.703	1447.06
494.92	1429.06
495.138	1425.06
495.355	1437.06
495.573	1478.06
495.79	1497.06
496.008	1466.06
496.225	1460.06
496.442	1456.06
496.66	1505.06
496.877	1543.06
497.094	1549.06
497.312	1491.06
497.529	1546.06
497.746	1554.06
497.963	1556.06
498.181	1603.06
498.398	1631.06
498.615	1704.06
498.832	1751.06
499.049	1795.06
499.267	1923.06
499.484	2027.06
499.701	2060.06
499.918	2176.06
500.135	2290.06
500.352	2422.06
500.569	2436.06
500.786	2465.06
501.003	2374.06
501.22	2234.06
501.437	2097.06
501.654	1990.06
501.871	1947.06
502.088	1845.06
502.305	1764.06
502.522	1694.06
502.739	1670.06
502.956	1635.06
503.172	1561.06
503.389	1536.06
503.606	1492.06
503.823	1490.06
504.04	1493.06
504.256	1495.06
504.473	1476.06
504.69	1500.06
504.907	1421.06
505.123	1404.06
505.34	1417.06
505.557	1374.06
505.773	1359.06
505.99	1278.06
506.207	1314.06
506.423	1308.06
506.64	1314.06
506.856	1249.06
507.073	1292.06
507.289	1280.06
507.506	1244.06
507.722	1251.06
507.939	1256.06
508.155	1229.06
508.372	1234.06
508.588	1217.06
508.805	1236.06
509.021	1219.06
509.238	1204.06
509.454	1290.06
509.67	1315.06
509.887	1282.06
510.103	1245.06
510.319	1198.06
510.536	1198.06
510.752	1219.06
510.968	1187.06
511.184	1186.06
511.401	1161.06
511.617	1149.06
511.833	1155.06
512.049	1131.06
512.265	1196.06
512.481	1179.06
512.698	1160.06
512.914	1159.06
513.13	1152.06
513.346	1195.06
513.562	1134.06
513.778	1129.06
513.994	1163.06
514.21	1207.06
514.426	1283.06
514.642	1269.06
514.858	1204.06
515.074	1196.06
515.29	1220.06
515.506	1190.06
515.721	1208.06
515.937	1204.06
516.153	1191.06
516.369	1218.06
516.585	1186.06
516.801	1244.06
517.016	1279.06
517.232	1298.06
517.448	1309.06
517.664	1316.06
517.879	1339.06
518.095	1306.06
518.311	1321.06
518.527	1306.06
518.742	1280.06
518.958	1275.06
519.173	1283.06
519.389	1272.06
519.605	1228.06
519.82	1239.06
520.036	1218.06
520.251	1170.06
520.467	1175.06
520.682	1179.06
520.898	1123.06
521.113	1143.06
521.329	1172.06
521.544	1143.06
521.76	1156.06
521.975	1131.06
522.19	1136.06
522.406	1147.06
522.621	1123.06
522.836	1114.06
523.052	1137.06
523.267	1116.06
523.482	1147.06
523.698	1152.06
523.913	1128.06
524.128	1140.06
524.343	1135.06
524.559	1144.06
524.774	1144.06
524.989	1128.06
525.204	1142.06
525.419	1139.06
525.634	1090.06
525.849	1146.06
526.064	1132.06
526.28	1135.06
526.495	1112.06
526.71	1114.06
526.925	1114.06
527.14	1124.06
527.355	1108.06
527.57	1128.06
527.785	1128.06
527.999	1141.06
528.214	1142.06
528.429	1193.06
528.644	1180.06
528.859	1188.06
529.074	1234.06
529.289	1202.06
529.503	1230.06
529.718	1186.06
529.933	1175.06
530.148	1181.06
530.363	1194.06
530.577	1172.06
530.792	1159.06
531.007	1178.06
531.221	1210.06
531.436	1200.06
531.651	1208.06
531.865	1219.06
532.08	1243.06
532.295	1236.06
532.509	1284.06
532.724	1317.06
532.938	1330.06
533.153	1365.06
533.367	1394.06
533.582	1426.06
533.796	1458.06
534.011	1437.06
534.225	1394.06
534.44	1358.06
534.654	1336.06
534.868	1333.06
535.083	1330.06
535.297	1300.06
535.511	1269.06
535.726	1244.06
535.94	1227.06
536.154	1215.06
536.369	1201.06
536.583	1172.06
536.797	1190.06
537.011	1156.06
537.225	1125.06
537.44	1170.06
537.654	1178.06
537.868	1119.06
538.082	1080.06
538.296	1125.06
538.51	1144.06
538.724	1125.06
538.938	1120.06
539.153	1137.06
539.367	1138.06
539.581	1114.06
539.795	1080.06
540.009	1088.06
540.222	1081.06
540.436	1065.06
540.65	1085.06
540.864	1122.06
541.078	1123.06
541.292	1178.06
541.506	1324.06
541.72	1397.06
541.934	1291.06
542.147	1206.06
542.361	1148.06
542.575	1091.06
542.789	1094.06
543.002	1050.06
543.216	1051.06
543.43	1057.06
543.644	1068.06
543.857	1067.06
544.071	1099.06
544.285	1116.06
544.498	1107.06
544.712	1093.06
544.925	1139.06
545.139	1115.06
545.352	1104.06
545.566	1109.06
545.779	1097.06
545.993	1124.06
546.206	1111.06
546.42	1108.06
546.633	1139.06
546.847	1122.06
547.06	1102.06
547.274	1105.06
547.487	1128.06
547.7	1126.06
547.914	1134.06
548.127	1110.06
548.34	1089.06
548.554	1055.06
548.767	1090.06
548.98	1080.06
549.193	1092.06
549.407	1100.06
549.62	1125.06
549.833	1116.06
550.046	1104.06
550.259	1116.06
550.473	1081.06
550.686	1102.06
550.899	1115.06
551.112	1093.06
551.325	1082.06
551.538	1046.06
551.751	1095.06
551.964	1070.06
552.177	1083.06
552.39	1119.06
552.603	1136.06
552.816	1137.06
553.029	1152.06
553.242	1158.06
553.455	1199.06
553.667	1200.06
553.88	1179.06
554.093	1189.06
554.306	1203.06
554.519	1226.06
554.732	1218.06
554.944	1216.06
555.157	1231.06
555.37	1298.06
555.583	1301.06
555.795	1328.06
556.008	1382.06
556.221	1459.06
556.433	1540.06
556.646	1578.06
556.859	1561.06
557.071	1518.06
557.284	1488.06
557.496	1494.06
557.709	1434.06
557.921	1460.06
558.134	1469.06
558.346	1411.06
558.559	1489.06
558.771	1534.06
558.984	1607.06
559.196	1652.06
559.409	1652.06
559.621	1579.06
559.833	1507.06
560.046	1390.06
560.258	1350.06
560.47	1347.06
560.683	1322.06
560.895	1292.06
561.107	1256.06
561.32	1185.06
561.532	1186.06
561.744	1150.06
561.956	1163.06
562.168	1131.06
562.381	1113.06
562.593	1099.06
562.805	1104.06
563.017	1088.06
563.229	1097.06
563.441	1187.06
563.653	1082.06
563.865	1040.06
564.077	1012.06
564.289	1008.06
564.501	1015.06
564.713	1008.06
564.925	1013.06
565.137	976.06
565.349	1010.06
565.561	978.06
565.773	991.06
565.985	1027.06
566.197	1033.06
566.408	1086.06
566.62	1073.06
566.832	1083.06
567.044	1143.06
567.255	1146.06
567.467	1118.06
567.679	1129.06
567.891	1175.06
568.102	1302.06
568.314	1476.06
568.526	1243.06
568.737	1111.06
568.949	1033.06
569.161	990.06
569.372	943.06
569.584	915.06
569.795	913.06
570.007	899.06
570.218	900.06
570.43	923.06
570.641	891.06
570.853	864.06
571.064	862.06
571.276	827.06
571.487	816.06
571.698	818.06
571.91	796.06
572.121	811.06
572.333	810.06
572.544	818.06
572.755	848.06
572.966	933.06
573.178	873.06
573.389	789.06
573.6	786.06
573.811	736.06
574.023	768.06
574.234	739.06
574.445	746.06
574.656	722.06
574.867	738.06
575.078	722.06
575.289	723.06
575.501	741.06
575.712	726.06
575.923	737.06
576.134	715.06
576.345	750.06
576.556	752.06
576.767	723.06
576.978	721.06
577.188	716.06
577.399	752.06
577.61	730.06
577.821	751.06
578.032	738.06
578.243	761.06
578.454	784.06
578.665	779.06
578.875	793.06
579.086	814.06
579.297	829.06
579.508	848.06
579.718	914.06
579.929	1024.06
580.14	1107.06
580.35	1147.06
580.561	1106.06
580.772	1029.06
580.982	969.06
581.193	928.06
581.403	883.06
581.614	876.06
581.825	832.06
582.035	822.06
582.246	781.06
582.456	736.06
582.667	768.06
582.877	735.06
583.087	753.06
583.298	696.06
583.508	669.06
583.719	668.06
583.929	644.06
584.139	659.06
584.35	628.06
584.56	640.06
584.77	625.06
584.981	615.06
585.191	627.06
585.401	622.06
585.611	612.06
585.821	603.06
586.032	592.06
586.242	586.06
586.452	591.06
586.662	568.06
586.872	596.06
587.082	553.06
587.292	570.06
587.502	575.06
587.713	572.06
587.923	537.06
588.133	550.06
588.343	552.06
588.553	528.06
588.762	530.06
588.972	545.06
589.182	541.06
589.392	559.06
589.602	527.06
589.812	538.06
590.022	514.06
590.232	525.06
590.441	516.06
590.651	533.06
590.861	527.06
591.071	527.06
591.281	524.06
591.49	545.06
591.7	530.06
591.91	535.06
592.119	527.06
592.329	559.06
592.539	548.06
592.748	531.06
592.958	555.06
593.167	552.06
593.377	547.06
593.587	542.06
593.796	562.06
594.006	551.06
594.215	561.06
594.424	542.06
594.634	534.06
594.843	532.06
595.053	531.06
595.262	533.06
595.472	500.06
595.681	516.06
595.89	499.06
596.1	484.06
596.309	484.06
596.518	468.06
596.727	468.06
596.937	494.06
597.146	472.06
597.355	461.06
597.564	466.06
597.774	450.06
597.983	454.06
598.192	458.06
598.401	449.06
598.61	426.06
598.819	438.06
599.028	449.06
599.237	440.06
599.446	453.06
599.655	438.06
599.864	432.06
600.073	420.06
600.282	431.06
600.491	436.06
600.7	447.06
600.909	435.06
601.118	453.06
601.327	434.06
601.536	430.06
601.745	442.06
601.953	469.06
602.162	538.06
602.371	478.06
602.58	439.06
602.789	431.06
602.997	435.06
603.206	447.06
603.415	436.06
603.623	420.06
603.832	427.06
604.041	462.06
604.249	434.06
604.458	420.06
604.666	414.06
604.875	426.06
605.084	406.06
605.292	414.06
605.501	425.06
605.709	438.06
605.918	434.06
606.126	412.06
606.334	429.06
606.543	443.06
606.751	431.06
606.96	512.06
607.168	552.06
607.376	478.06
607.585	444.06
607.793	424.06
608.001	413.06
608.21	405.06
608.418	419.06
608.626	409.06
608.834	427.06
609.043	426.06
609.251	405.06
609.459	415.06
609.667	398.06
609.875	423.06
610.083	434.06
610.291	396.06
610.499	400.06
610.707	416.06
610.916	404.06
611.124	396.06
611.332	380.06
611.54	379.06
611.748	383.06
611.955	399.06
612.163	386.06
612.371	391.06
612.579	384.06
612.787	377.06
612.995	400.06
613.203	384.06
613.411	381.06
613.618	392.06
613.826	389.06
614.034	377.06
614.242	386.06
614.449	378.06
614.657	380.06
614.865	395.06
615.072	412.06
615.28	386.06
615.488	401.06
615.695	397.06
615.903	374.06
616.111	379.06
616.318	400.06
616.526	404.06
616.733	395.06
616.941	372.06
617.148	374.06
617.356	386.06
617.563	378.06
617.771	378.06
617.978	375.06
618.185	373.06
618.393	380.06
618.6	382.06
618.807	354.06
619.015	378.06
619.222	370.06
619.429	385.06
619.637	367.06
619.844	349.06
620.051	345.06
620.258	372.06
620.466	352.06
620.673	338.06
620.88	351.06
621.087	327.06
621.294	356.06
621.501	351.06
621.708	363.06
621.915	359.06
622.122	342.06
622.329	363.06
622.536	347.06
622.743	335.06
622.95	341.06
623.157	337.06
623.364	353.06
623.571	331.06
623.778	338.06
623.985	320.06
624.192	354.06
624.399	326.06
624.606	332.06
624.812	339.06
625.019	322.06
625.226	321.06
625.433	338.06
625.639	331.06
625.846	328.06
626.053	320.06
626.259	316.06
626.466	321.06
626.673	299.06
626.879	289.06
627.086	317.06
627.293	310.06
627.499	340.06
627.706	329.06
627.912	326.06
628.119	314.06
628.325	312.06
628.532	326.06
628.738	322.06
628.945	300.06
629.151	322.06
629.357	324.06
629.564	304.06
629.77	297.06
629.976	304.06
630.183	296.06
630.389	311.06
630.595	312.06
630.802	300.06
631.008	312.06
631.214	320.06
631.42	305.06
631.627	310.06
631.833	292.06
632.039	294.06
632.245	292.06
632.451	319.06
632.657	304.06
632.863	281.06
633.069	286.06
633.275	302.06
633.481	298.06
633.688	295.06
633.893	294.06
634.099	284.06
634.305	294.06
634.511	297.06
634.717	313.06
634.923	302.06
635.129	359.06
635.335	359.06
635.541	324.06
635.747	332.06
635.952	300.06
636.158	298.06
636.364	288.06
636.57	299.06
636.775	295.06
636.981	290.06
637.187	295.06
637.392	272.06
637.598	309.06
637.804	288.06
638.009	328.06
638.215	305.06
638.421	310.06
638.626	288.06
638.832	298.06
639.037	285.06
639.243	291.06
639.448	323.06
639.654	334.06
639.859	307.06
640.065	291.06
640.27	311.06
640.475	288.06
640.681	298.06
640.886	335.06
641.091	299.06
641.297	302.06
641.502	322.06
641.707	323.06
641.913	334.06
642.118	318.06
642.323	324.06
642.528	328.06
642.733	346.06
642.939	348.06
643.144	368.06
643.349	368.06
643.554	375.06
643.759	383.06
643.964	365.06
644.169	394.06
644.374	389.06
644.579	455.06
644.784	473.06
644.989	542.06
645.194	576.06
645.399	644.06
645.604	687.06
645.809	552.06
646.014	452.06
646.219	404.06
646.423	345.06
646.628	356.06
646.833	334.06
647.038	326.06
647.243	312.06
647.447	316.06
647.652	310.06
647.857	290.06
648.062	269.06
648.266	282.06
648.471	288.06
648.676	275.06
648.88	270.06
649.085	286.06
649.289	272.06
649.494	277.06
649.698	259.06
649.903	242.06
650.107	252.06
650.312	245.06
650.516	238.06
650.721	233.06
650.925	256.06
651.13	242.06
651.334	223.06
651.539	246.06
651.743	238.06
651.947	244.06
652.152	234.06
652.356	237.06
652.56	236.06
652.764	282.06
652.969	251.06
653.173	230.06
653.377	227.06
653.581	204.06
653.785	190.06
653.99	224.06
654.194	207.06
654.398	206.06
654.602	199.06
654.806	225.06
655.01	208.06
655.214	203.06
655.418	206.06
655.622	201.06
655.826	203.06
656.03	227.06
656.234	209.06
656.438	243.06
656.642	234.06
656.846	219.06
657.049	208.06
657.253	196.06
657.457	199.06
657.661	166.06
657.865	175.06
658.068	168.06
658.272	161.06
658.476	137.06
658.68	140.06
658.883	140.06
659.087	124.06
659.291	124.06
659.494	138.06
659.698	133.06
659.901	129.06
660.105	126.06
660.309	137.06
660.512	113.06
660.716	107.06
660.919	100.06
661.123	120.06
661.326	119.06
661.53	113.06
661.733	122.06
661.936	112.06
662.14	106.06
662.343	96.06
662.546	79.06
662.75	100.06
662.953	83.06
663.156	95.06
663.36	88.06
663.563	95.06
663.766	100.06
663.969	85.06
664.173	76.06
664.376	82.06
664.579	82.06
664.782	96.06
664.985	74.06
665.188	91.06
665.391	86.06
665.594	76.06
665.797	75.06
666	77.06
666.203	79.06
666.406	82.06
666.609	89.06
666.812	83.06
667.015	88.06
667.218	89.06
667.421	91.06
667.624	88.06
667.827	65.06
668.03	75.06
668.232	83.06
668.435	76.06
668.638	71.06
668.841	88.06
669.043	90.06
669.246	86.06
669.449	79.06
669.651	95.06
669.854	83.06
670.057	93.06
670.259	95.06
670.462	76.06
670.665	60.06
670.867	70.06
671.07	104.06
671.272	89.06
671.475	75.06
671.677	84.06
671.88	68.06
672.082	88.06
672.284	88.06
672.487	95.06
672.689	79.06
672.892	82.06
