Data from SnStandardFlinnAPT0064_LampEnergy5.5_LIBS07252019.E.O._I.C._HRD10591_15-16-39-492.txt Node
Date: Thu Jul 25 15:16:39 EDT 2019
User: cochatt
Spectrometer: HR+D1059
Trigger mode: 1
Integration Time (sec): 1.000000E-1
Scans to average: 1
Electric dark correction enabled: true
Nonlinearity correction enabled: false
Boxcar width: 0
XAxis mode: Wavelengths
Number of Pixels in Spectrum: 2048
>>>>>Begin Spectral Data<<<<<
223.165	-24.19
223.4	-24.19
223.635	-24.19
223.869	-14.19
224.104	-18.19
224.338	-16.19
224.573	-15.19
224.808	-2.19
225.042	-2.19
225.277	-0.19
225.511	-7.19
225.746	1.81
225.98	-0.19
226.215	13.81
226.449	9.81
226.683	14.81
226.918	19.81
227.152	39.81
227.387	31.81
227.621	30.81
227.856	40.81
228.09	45.81
228.324	59.81
228.559	49.81
228.793	80.81
229.027	156.81
229.262	169.81
229.496	144.81
229.73	139.81
229.964	159.81
230.199	156.81
230.433	149.81
230.667	166.81
230.901	162.81
231.136	170.81
231.37	167.81
231.604	179.81
231.838	218.81
232.072	246.81
232.306	267.81
232.541	205.81
232.775	196.81
233.009	199.81
233.243	213.81
233.477	205.81
233.711	223.81
233.945	290.81
234.179	245.81
234.413	216.81
234.647	210.81
234.881	233.81
235.115	240.81
235.349	291.81
235.583	338.81
235.817	430.81
236.051	421.81
236.285	289.81
236.519	234.81
236.753	230.81
236.987	246.81
237.221	249.81
237.455	228.81
237.689	218.81
237.922	209.81
238.156	215.81
238.39	234.81
238.624	237.81
238.858	227.81
239.091	228.81
239.325	235.81
239.559	225.81
239.793	242.81
240.027	253.81
240.26	235.81
240.494	259.81
240.728	259.81
240.961	261.81
241.195	290.81
241.429	265.81
241.662	311.81
241.896	360.81
242.13	408.81
242.363	518.81
242.597	657.81
242.83	632.81
243.064	621.81
243.298	756.81
243.531	632.81
243.765	390.81
243.998	337.81
244.232	301.81
244.465	303.81
244.699	297.81
244.932	293.81
245.166	294.81
245.399	310.81
245.633	313.81
245.866	318.81
246.099	329.81
246.333	297.81
246.566	288.81
246.8	305.81
247.033	311.81
247.266	300.81
247.5	293.81
247.733	293.81
247.966	311.81
248.2	331.81
248.433	383.81
248.666	410.81
248.899	377.81
249.133	349.81
249.366	349.81
249.599	387.81
249.832	445.81
250.066	448.81
250.299	361.81
250.532	341.81
250.765	332.81
250.998	338.81
251.231	324.81
251.465	313.81
251.698	321.81
251.931	318.81
252.164	328.81
252.397	342.81
252.63	349.81
252.863	354.81
253.096	342.81
253.329	342.81
253.562	340.81
253.795	349.81
254.028	346.81
254.261	368.81
254.494	385.81
254.727	424.81
254.96	535.81
255.193	521.81
255.426	419.81
255.659	393.81
255.892	378.81
256.124	365.81
256.357	399.81
256.59	410.81
256.823	409.81
257.056	459.81
257.289	554.81
257.521	603.81
257.754	490.81
257.987	423.81
258.22	399.81
258.452	411.81
258.685	403.81
258.918	425.81
259.151	439.81
259.383	457.81
259.616	495.81
259.849	519.81
260.081	451.81
260.314	446.81
260.547	403.81
260.779	410.81
261.012	425.81
261.244	419.81
261.477	423.81
261.71	433.81
261.942	444.81
262.175	453.81
262.407	463.81
262.64	454.81
262.872	494.81
263.105	494.81
263.337	498.81
263.57	565.81
263.802	573.81
264.035	569.81
264.267	592.81
264.499	593.81
264.732	637.81
264.964	624.81
265.197	639.81
265.429	611.81
265.661	650.81
265.894	676.81
266.126	728.81
266.358	801.81
266.591	787.81
266.823	679.81
267.055	637.81
267.287	570.81
267.52	589.81
267.752	560.81
267.984	571.81
268.216	564.81
268.448	563.81
268.681	549.81
268.913	537.81
269.145	530.81
269.377	543.81
269.609	531.81
269.841	583.81
270.073	583.81
270.306	687.81
270.538	882.81
270.77	1264.81
271.002	1571.81
271.234	1055.81
271.466	746.81
271.698	639.81
271.93	571.81
272.162	570.81
272.394	552.81
272.626	555.81
272.858	530.81
273.09	536.81
273.322	528.81
273.553	513.81
273.785	546.81
274.017	523.81
274.249	533.81
274.481	515.81
274.713	534.81
274.945	527.81
275.176	522.81
275.408	531.81
275.64	541.81
275.872	523.81
276.104	541.81
276.335	567.81
276.567	557.81
276.799	543.81
277.031	553.81
277.262	565.81
277.494	605.81
277.726	638.81
277.957	735.81
278.189	820.81
278.421	738.81
278.652	681.81
278.884	678.81
279.115	606.81
279.347	607.81
279.579	587.81
279.81	614.81
280.042	626.81
280.273	594.81
280.505	609.81
280.736	604.81
280.968	657.81
281.199	698.81
281.431	765.81
281.662	823.81
281.894	711.81
282.125	649.81
282.356	690.81
282.588	666.81
282.819	713.81
283.051	713.81
283.282	809.81
283.513	1007.81
283.745	1429.81
283.976	2228.81
284.207	3152.81
284.439	2800.81
284.67	1669.81
284.901	1341.81
285.132	1380.81
285.364	1297.81
285.595	1038.81
285.826	961.81
286.057	1103.81
286.288	1519.81
286.52	2049.81
286.751	1907.81
286.982	1154.81
287.213	906.81
287.444	800.81
287.675	735.81
287.906	735.81
288.138	736.81
288.369	712.81
288.6	699.81
288.831	683.81
289.062	691.81
289.293	683.81
289.524	701.81
289.755	699.81
289.986	713.81
290.217	710.81
290.448	693.81
290.679	699.81
290.91	718.81
291.141	742.81
291.371	787.81
291.602	829.81
291.833	789.81
292.064	696.81
292.295	688.81
292.526	697.81
292.757	692.81
292.987	663.81
293.218	683.81
293.449	701.81
293.68	670.81
293.91	669.81
294.141	664.81
294.372	668.81
294.603	673.81
294.833	682.81
295.064	665.81
295.295	673.81
295.525	629.81
295.756	682.81
295.987	655.81
296.217	665.81
296.448	663.81
296.679	697.81
296.909	675.81
297.14	670.81
297.37	664.81
297.601	686.81
297.831	691.81
298.062	697.81
298.292	695.81
298.523	692.81
298.753	702.81
298.984	704.81
299.214	726.81
299.445	730.81
299.675	724.81
299.905	758.81
300.136	785.81
300.366	850.81
300.597	1084.81
300.827	1520.81
301.057	2014.81
301.288	1970.81
301.518	1293.81
301.748	1005.81
301.979	919.81
302.209	904.81
302.439	917.81
302.669	977.81
302.9	1161.81
303.13	1595.81
303.36	2339.81
303.59	3114.81
303.82	2723.81
304.051	1576.81
304.281	1161.81
304.511	981.81
304.741	901.81
304.971	876.81
305.201	847.81
305.431	815.81
305.661	797.81
305.891	760.81
306.121	801.81
306.352	789.81
306.582	755.81
306.812	772.81
307.042	754.81
307.272	765.81
307.502	742.81
307.731	785.81
307.961	772.81
308.191	750.81
308.421	791.81
308.651	765.81
308.881	755.81
309.111	756.81
309.341	762.81
309.571	767.81
309.8	769.81
310.03	754.81
310.26	786.81
310.49	762.81
310.72	777.81
310.949	801.81
311.179	788.81
311.409	834.81
311.639	810.81
311.868	803.81
312.098	818.81
312.328	809.81
312.557	815.81
312.787	817.81
313.017	815.81
313.246	826.81
313.476	839.81
313.706	850.81
313.935	887.81
314.165	927.81
314.394	974.81
314.624	940.81
314.853	861.81
315.083	871.81
315.312	920.81
315.542	898.81
315.771	913.81
316.001	910.81
316.23	960.81
316.46	978.81
316.689	1091.81
316.919	1281.81
317.148	1825.81
317.377	2822.81
317.607	4131.81
317.836	4253.81
318.065	2454.81
318.295	1583.81
318.524	1288.81
318.753	1117.81
318.983	1062.81
319.212	989.81
319.441	982.81
319.67	984.81
319.9	977.81
320.129	960.81
320.358	967.81
320.587	959.81
320.816	955.81
321.046	951.81
321.275	957.81
321.504	982.81
321.733	991.81
321.962	1028.81
322.191	1036.81
322.42	1008.81
322.649	1006.81
322.878	1030.81
323.108	1013.81
323.337	1055.81
323.566	1050.81
323.795	1078.81
324.024	1089.81
324.253	1096.81
324.482	1122.81
324.71	1201.81
324.939	1241.81
325.168	1289.81
325.397	1335.81
325.626	1581.81
325.855	2186.81
326.084	3315.81
326.313	5020.81
326.542	5297.81
326.77	3295.81
326.999	2151.81
327.228	1812.81
327.457	1754.81
327.686	1766.81
327.914	1879.81
328.143	2175.81
328.372	2527.81
328.6	2712.81
328.829	2478.81
329.058	2163.81
329.287	1934.81
329.515	1827.81
329.744	1666.81
329.972	1589.81
330.201	1521.81
330.43	1487.81
330.658	1468.81
330.887	1405.81
331.115	1356.81
331.344	1380.81
331.572	1360.81
331.801	1383.81
332.03	1393.81
332.258	1429.81
332.486	1448.81
332.715	1661.81
332.943	2031.81
333.172	2509.81
333.4	2390.81
333.629	1907.81
333.857	1743.81
334.085	1729.81
334.314	1804.81
334.542	1988.81
334.771	2291.81
334.999	2708.81
335.227	3329.81
335.455	3711.81
335.684	3343.81
335.912	2814.81
336.14	2449.81
336.369	2181.81
336.597	2022.81
336.825	1870.81
337.053	1753.81
337.281	1693.81
337.51	1584.81
337.738	1543.81
337.966	1462.81
338.194	1428.81
338.422	1399.81
338.65	1347.81
338.878	1341.81
339.106	1331.81
339.334	1318.81
339.562	1267.81
339.79	1253.81
340.018	1237.81
340.246	1263.81
340.474	1212.81
340.702	1225.81
340.93	1227.81
341.158	1213.81
341.386	1220.81
341.614	1221.81
341.842	1191.81
342.07	1209.81
342.298	1156.81
342.526	1122.81
342.754	1153.81
342.981	1137.81
343.209	1156.81
343.437	1169.81
343.665	1173.81
343.893	1145.81
344.12	1171.81
344.348	1151.81
344.576	1138.81
344.804	1115.81
345.031	1119.81
345.259	1074.81
345.487	1059.81
345.714	1061.81
345.942	1043.81
346.17	1064.81
346.397	1049.81
346.625	1071.81
346.853	1064.81
347.08	1039.81
347.308	1055.81
347.535	1060.81
347.763	1047.81
347.99	1087.81
348.218	1034.81
348.445	1032.81
348.673	1008.81
348.9	1047.81
349.128	1048.81
349.355	1009.81
349.583	1028.81
349.81	1019.81
350.037	1010.81
350.265	1017.81
350.492	1006.81
350.72	990.81
350.947	999.81
351.174	1014.81
351.402	991.81
351.629	1015.81
351.856	988.81
352.083	983.81
352.311	984.81
352.538	999.81
352.765	1005.81
352.992	981.81
353.22	983.81
353.447	1022.81
353.674	989.81
353.901	1018.81
354.128	1000.81
354.355	1008.81
354.583	1005.81
354.81	1006.81
355.037	982.81
355.264	1022.81
355.491	1021.81
355.718	1026.81
355.945	1008.81
356.172	1035.81
356.399	1014.81
356.626	1019.81
356.853	1064.81
357.08	1047.81
357.307	1064.81
357.534	1062.81
357.761	1077.81
357.988	1070.81
358.215	1069.81
358.441	1054.81
358.668	1053.81
358.895	1063.81
359.122	1079.81
359.349	1055.81
359.576	1058.81
359.802	1055.81
360.029	1055.81
360.256	1053.81
360.483	1048.81
360.709	1077.81
360.936	1069.81
361.163	1059.81
361.39	1073.81
361.616	1079.81
361.843	1101.81
362.07	1091.81
362.296	1063.81
362.523	1060.81
362.749	1096.81
362.976	1088.81
363.203	1049.81
363.429	1055.81
363.656	1045.81
363.882	1067.81
364.109	1063.81
364.335	1077.81
364.562	1056.81
364.788	1080.81
365.015	1057.81
365.241	1097.81
365.468	1147.81
365.694	1178.81
365.92	1134.81
366.147	1081.81
366.373	1073.81
366.599	1114.81
366.826	1088.81
367.052	1082.81
367.278	1107.81
367.505	1087.81
367.731	1093.81
367.957	1095.81
368.184	1085.81
368.41	1082.81
368.636	1126.81
368.862	1109.81
369.089	1109.81
369.315	1099.81
369.541	1132.81
369.767	1089.81
369.993	1103.81
370.219	1116.81
370.445	1097.81
370.672	1114.81
370.898	1102.81
371.124	1122.81
371.35	1138.81
371.576	1134.81
371.802	1122.81
372.028	1146.81
372.254	1154.81
372.48	1150.81
372.706	1168.81
372.932	1167.81
373.158	1176.81
373.384	1183.81
373.61	1152.81
373.835	1159.81
374.061	1170.81
374.287	1198.81
374.513	1178.81
374.739	1204.81
374.965	1226.81
375.191	1197.81
375.416	1204.81
375.642	1200.81
375.868	1190.81
376.094	1168.81
376.319	1173.81
376.545	1184.81
376.771	1167.81
376.997	1133.81
377.222	1136.81
377.448	1121.81
377.674	1168.81
377.899	1165.81
378.125	1162.81
378.35	1144.81
378.576	1153.81
378.802	1151.81
379.027	1205.81
379.253	1202.81
379.478	1259.81
379.704	1488.81
379.929	2032.81
380.155	3013.81
380.38	3275.81
380.606	1999.81
380.831	1459.81
381.057	1294.81
381.282	1216.81
381.507	1197.81
381.733	1181.81
381.958	1128.81
382.184	1176.81
382.409	1149.81
382.634	1155.81
382.86	1139.81
383.085	1128.81
383.31	1169.81
383.535	1137.81
383.761	1154.81
383.986	1142.81
384.211	1143.81
384.436	1155.81
384.662	1141.81
384.887	1177.81
385.112	1167.81
385.337	1185.81
385.562	1168.81
385.787	1176.81
386.013	1182.81
386.238	1188.81
386.463	1191.81
386.688	1178.81
386.913	1166.81
387.138	1185.81
387.363	1164.81
387.588	1141.81
387.813	1174.81
388.038	1195.81
388.263	1167.81
388.488	1177.81
388.713	1173.81
388.938	1176.81
389.163	1167.81
389.387	1171.81
389.612	1164.81
389.837	1197.81
390.062	1197.81
390.287	1187.81
390.512	1190.81
390.736	1179.81
390.961	1227.81
391.186	1201.81
391.411	1212.81
391.636	1264.81
391.86	1229.81
392.085	1225.81
392.31	1250.81
392.534	1205.81
392.759	1251.81
392.984	1240.81
393.208	1209.81
393.433	1207.81
393.658	1232.81
393.882	1194.81
394.107	1171.81
394.331	1191.81
394.556	1202.81
394.78	1186.81
395.005	1213.81
395.229	1202.81
395.454	1207.81
395.678	1203.81
395.903	1232.81
396.127	1240.81
396.352	1184.81
396.576	1222.81
396.801	1230.81
397.025	1249.81
397.249	1250.81
397.474	1280.81
397.698	1251.81
397.922	1261.81
398.147	1241.81
398.371	1288.81
398.595	1312.81
398.82	1339.81
399.044	1361.81
399.268	1444.81
399.492	1510.81
399.717	1571.81
399.941	1551.81
400.165	1510.81
400.389	1459.81
400.613	1382.81
400.837	1383.81
401.062	1346.81
401.286	1320.81
401.51	1367.81
401.734	1311.81
401.958	1335.81
402.182	1363.81
402.406	1305.81
402.63	1316.81
402.854	1318.81
403.078	1315.81
403.302	1366.81
403.526	1337.81
403.75	1360.81
403.974	1391.81
404.198	1350.81
404.422	1370.81
404.645	1351.81
404.869	1357.81
405.093	1355.81
405.317	1365.81
405.541	1350.81
405.765	1382.81
405.988	1390.81
406.212	1405.81
406.436	1405.81
406.66	1391.81
406.883	1383.81
407.107	1450.81
407.331	1461.81
407.555	1451.81
407.778	1472.81
408.002	1442.81
408.226	1393.81
408.449	1393.81
408.673	1391.81
408.896	1373.81
409.12	1321.81
409.344	1370.81
409.567	1346.81
409.791	1371.81
410.014	1349.81
410.238	1349.81
410.461	1363.81
410.685	1341.81
410.908	1319.81
411.132	1334.81
411.355	1289.81
411.578	1303.81
411.802	1302.81
412.025	1295.81
412.249	1294.81
412.472	1289.81
412.695	1288.81
412.919	1227.81
413.142	1257.81
413.365	1284.81
413.589	1279.81
413.812	1293.81
414.035	1264.81
414.258	1283.81
414.482	1291.81
414.705	1317.81
414.928	1287.81
415.151	1271.81
415.374	1252.81
415.597	1254.81
415.821	1199.81
416.044	1259.81
416.267	1251.81
416.49	1257.81
416.713	1232.81
416.936	1253.81
417.159	1239.81
417.382	1216.81
417.605	1214.81
417.828	1205.81
418.051	1249.81
418.274	1228.81
418.497	1236.81
418.72	1272.81
418.943	1215.81
419.166	1289.81
419.389	1406.81
419.611	1344.81
419.834	1284.81
420.057	1267.81
420.28	1232.81
420.503	1228.81
420.726	1216.81
420.948	1231.81
421.171	1218.81
421.394	1235.81
421.617	1262.81
421.839	1233.81
422.062	1225.81
422.285	1226.81
422.507	1271.81
422.73	1253.81
422.953	1290.81
423.175	1283.81
423.398	1263.81
423.621	1234.81
423.843	1247.81
424.066	1240.81
424.288	1236.81
424.511	1258.81
424.733	1267.81
424.956	1242.81
425.178	1224.81
425.401	1207.81
425.623	1238.81
425.846	1223.81
426.068	1188.81
426.291	1202.81
426.513	1187.81
426.735	1175.81
426.958	1186.81
427.18	1169.81
427.402	1197.81
427.625	1201.81
427.847	1147.81
428.069	1140.81
428.292	1140.81
428.514	1163.81
428.736	1122.81
428.958	1175.81
429.181	1129.81
429.403	1108.81
429.625	1158.81
429.847	1165.81
430.069	1165.81
430.292	1203.81
430.514	1192.81
430.736	1248.81
430.958	1180.81
431.18	1173.81
431.402	1177.81
431.624	1111.81
431.846	1124.81
432.068	1121.81
432.29	1091.81
432.512	1081.81
432.734	1140.81
432.956	1167.81
433.178	1150.81
433.4	1146.81
433.622	1163.81
433.844	1116.81
434.066	1141.81
434.287	1123.81
434.509	1155.81
434.731	1169.81
434.953	1198.81
435.175	1180.81
435.397	1173.81
435.618	1159.81
435.84	1118.81
436.062	1140.81
436.284	1099.81
436.505	1137.81
436.727	1141.81
436.949	1126.81
437.17	1135.81
437.392	1123.81
437.614	1114.81
437.835	1085.81
438.057	1089.81
438.278	1094.81
438.5	1085.81
438.721	1156.81
438.943	1157.81
439.165	1155.81
439.386	1183.81
439.608	1199.81
439.829	1192.81
440.05	1210.81
440.272	1226.81
440.493	1161.81
440.715	1167.81
440.936	1203.81
441.158	1173.81
441.379	1231.81
441.6	1218.81
441.822	1253.81
442.043	1313.81
442.264	1319.81
442.486	1289.81
442.707	1225.81
442.928	1222.81
443.149	1229.81
443.371	1197.81
443.592	1194.81
443.813	1218.81
444.034	1222.81
444.255	1281.81
444.476	1248.81
444.698	1297.81
444.919	1340.81
445.14	1422.81
445.361	1309.81
445.582	1289.81
445.803	1247.81
446.024	1223.81
446.245	1239.81
446.466	1233.81
446.687	1205.81
446.908	1227.81
447.129	1172.81
447.35	1128.81
447.571	1153.81
447.792	1135.81
448.013	1133.81
448.234	1089.81
448.455	1122.81
448.675	1141.81
448.896	1177.81
449.117	1187.81
449.338	1253.81
449.559	1323.81
449.779	1190.81
450	1145.81
450.221	1105.81
450.442	1109.81
450.662	1133.81
450.883	1061.81
451.104	1091.81
451.324	1069.81
451.545	1115.81
451.766	1084.81
451.986	1090.81
452.207	1182.81
452.428	1457.81
452.648	1976.81
452.869	1663.81
453.089	1242.81
453.31	1182.81
453.53	1202.81
453.751	1240.81
453.971	1318.81
454.192	1301.81
454.412	1149.81
454.633	1090.81
454.853	1056.81
455.073	1033.81
455.294	1081.81
455.514	1029.81
455.734	1072.81
455.955	1060.81
456.175	1039.81
456.395	1015.81
456.616	1046.81
456.836	1052.81
457.056	1072.81
457.276	1073.81
457.497	1111.81
457.717	1086.81
457.937	1099.81
458.157	1124.81
458.377	1099.81
458.598	1083.81
458.818	1099.81
459.038	1125.81
459.258	1101.81
459.478	1109.81
459.698	1134.81
459.918	1179.81
460.138	1174.81
460.358	1214.81
460.578	1190.81
460.798	1219.81
461.018	1244.81
461.238	1218.81
461.458	1255.81
461.678	1259.81
461.898	1263.81
462.118	1276.81
462.338	1282.81
462.558	1328.81
462.777	1335.81
462.997	1414.81
463.217	1442.81
463.437	1453.81
463.657	1499.81
463.876	1501.81
464.096	1428.81
464.316	1352.81
464.536	1359.81
464.755	1322.81
464.975	1308.81
465.195	1238.81
465.414	1211.81
465.634	1193.81
465.854	1157.81
466.073	1167.81
466.293	1145.81
466.512	1145.81
466.732	1138.81
466.951	1201.81
467.171	1275.81
467.391	1250.81
467.61	1178.81
467.829	1143.81
468.049	1140.81
468.268	1115.81
468.488	1125.81
468.707	1089.81
468.927	1130.81
469.146	1137.81
469.365	1149.81
469.585	1120.81
469.804	1155.81
470.023	1161.81
470.243	1202.81
470.462	1238.81
470.681	1290.81
470.901	1379.81
471.12	1587.81
471.339	1624.81
471.558	1328.81
471.777	1216.81
471.997	1171.81
472.216	1162.81
472.435	1104.81
472.654	1097.81
472.873	1092.81
473.092	1107.81
473.311	1105.81
473.53	1128.81
473.749	1153.81
473.968	1193.81
474.187	1128.81
474.406	1117.81
474.625	1118.81
474.844	1147.81
475.063	1127.81
475.282	1131.81
475.501	1127.81
475.72	1147.81
475.939	1129.81
476.158	1147.81
476.377	1195.81
476.596	1189.81
476.814	1177.81
477.033	1206.81
477.252	1181.81
477.471	1177.81
477.69	1235.81
477.908	1289.81
478.127	1297.81
478.346	1272.81
478.564	1310.81
478.783	1321.81
479.002	1314.81
479.22	1356.81
479.439	1335.81
479.658	1313.81
479.876	1367.81
480.095	1359.81
480.313	1340.81
480.532	1371.81
480.751	1353.81
480.969	1339.81
481.188	1309.81
481.406	1309.81
481.624	1318.81
481.843	1312.81
482.061	1341.81
482.28	1351.81
482.498	1317.81
482.717	1341.81
482.935	1350.81
483.153	1373.81
483.372	1425.81
483.59	1422.81
483.808	1445.81
484.027	1443.81
484.245	1495.81
484.463	1705.81
484.681	1875.81
484.9	1661.81
485.118	1563.81
485.336	1561.81
485.554	1605.81
485.772	1704.81
485.99	1896.81
486.209	2022.81
486.427	1700.81
486.645	1529.81
486.863	1502.81
487.081	1480.81
487.299	1435.81
487.517	1409.81
487.735	1418.81
487.953	1435.81
488.171	1459.81
488.389	1465.81
488.607	1451.81
488.825	1400.81
489.043	1370.81
489.261	1386.81
489.479	1390.81
489.696	1401.81
489.914	1390.81
490.132	1429.81
490.35	1455.81
490.568	1425.81
490.786	1421.81
491.003	1463.81
491.221	1453.81
491.439	1497.81
491.657	1498.81
491.874	1497.81
492.092	1527.81
492.31	1568.81
492.527	1535.81
492.745	1509.81
492.963	1502.81
493.18	1493.81
493.398	1451.81
493.615	1499.81
493.833	1489.81
494.05	1489.81
494.268	1490.81
494.485	1477.81
494.703	1489.81
494.92	1503.81
495.138	1445.81
495.355	1478.81
495.573	1495.81
495.79	1491.81
496.008	1505.81
496.225	1499.81
496.442	1534.81
496.66	1587.81
496.877	1627.81
497.094	1647.81
497.312	1592.81
497.529	1598.81
497.746	1589.81
497.963	1635.81
498.181	1649.81
498.398	1673.81
498.615	1753.81
498.832	1772.81
499.049	1866.81
499.267	1982.81
499.484	2115.81
499.701	2135.81
499.918	2188.81
500.135	2313.81
500.352	2443.81
500.569	2495.81
500.786	2430.81
501.003	2389.81
501.22	2299.81
501.437	2169.81
501.654	2047.81
501.871	1948.81
502.088	1862.81
502.305	1744.81
502.522	1737.81
502.739	1707.81
502.956	1677.81
503.172	1612.81
503.389	1536.81
503.606	1560.81
503.823	1519.81
504.04	1514.81
504.256	1547.81
504.473	1521.81
504.69	1473.81
504.907	1510.81
505.123	1457.81
505.34	1407.81
505.557	1363.81
505.773	1386.81
505.99	1366.81
506.207	1359.81
506.423	1334.81
506.64	1353.81
506.856	1296.81
507.073	1313.81
507.289	1306.81
507.506	1305.81
507.722	1298.81
507.939	1325.81
508.155	1305.81
508.372	1254.81
508.588	1245.81
508.805	1238.81
509.021	1273.81
509.238	1308.81
509.454	1318.81
509.67	1398.81
509.887	1306.81
510.103	1267.81
510.319	1269.81
510.536	1230.81
510.752	1238.81
510.968	1220.81
511.184	1217.81
511.401	1173.81
511.617	1191.81
511.833	1190.81
512.049	1181.81
512.265	1190.81
512.481	1185.81
512.698	1219.81
512.914	1203.81
513.13	1203.81
513.346	1203.81
513.562	1240.81
513.778	1215.81
513.994	1224.81
514.21	1250.81
514.426	1328.81
514.642	1343.81
514.858	1294.81
515.074	1268.81
515.29	1214.81
515.506	1221.81
515.721	1223.81
515.937	1222.81
516.153	1257.81
516.369	1235.81
516.585	1254.81
516.801	1275.81
517.016	1284.81
517.232	1331.81
517.448	1337.81
517.664	1339.81
517.879	1332.81
518.095	1354.81
518.311	1373.81
518.527	1347.81
518.742	1330.81
518.958	1372.81
519.173	1377.81
519.389	1297.81
519.605	1250.81
519.82	1241.81
520.036	1226.81
520.251	1236.81
520.467	1227.81
520.682	1244.81
520.898	1184.81
521.113	1205.81
521.329	1184.81
521.544	1209.81
521.76	1175.81
521.975	1184.81
522.19	1177.81
522.406	1184.81
522.621	1170.81
522.836	1165.81
523.052	1181.81
523.267	1181.81
523.482	1157.81
523.698	1168.81
523.913	1152.81
524.128	1187.81
524.343	1185.81
524.559	1169.81
524.774	1158.81
524.989	1162.81
525.204	1218.81
525.419	1187.81
525.634	1151.81
525.849	1168.81
526.064	1189.81
526.28	1142.81
526.495	1138.81
526.71	1143.81
526.925	1161.81
527.14	1169.81
527.355	1144.81
527.57	1174.81
527.785	1150.81
527.999	1161.81
528.214	1196.81
528.429	1175.81
528.644	1170.81
528.859	1226.81
529.074	1219.81
529.289	1270.81
529.503	1264.81
529.718	1242.81
529.933	1233.81
530.148	1194.81
530.363	1223.81
530.577	1209.81
530.792	1228.81
531.007	1237.81
531.221	1253.81
531.436	1259.81
531.651	1242.81
531.865	1305.81
532.08	1269.81
532.295	1328.81
532.509	1347.81
532.724	1319.81
532.938	1376.81
533.153	1423.81
533.367	1495.81
533.582	1528.81
533.796	1483.81
534.011	1497.81
534.225	1418.81
534.44	1411.81
534.654	1424.81
534.868	1372.81
535.083	1340.81
535.297	1340.81
535.511	1295.81
535.726	1319.81
535.94	1285.81
536.154	1257.81
536.369	1251.81
536.583	1202.81
536.797	1217.81
537.011	1178.81
537.225	1201.81
537.44	1202.81
537.654	1173.81
537.868	1173.81
538.082	1160.81
538.296	1147.81
538.51	1161.81
538.724	1155.81
538.938	1151.81
539.153	1141.81
539.367	1155.81
539.581	1179.81
539.795	1130.81
540.009	1122.81
540.222	1099.81
540.436	1111.81
540.65	1113.81
540.864	1143.81
541.078	1164.81
541.292	1239.81
541.506	1447.81
541.72	1517.81
541.934	1316.81
542.147	1252.81
542.361	1204.81
542.575	1170.81
542.789	1123.81
543.002	1095.81
543.216	1091.81
543.43	1092.81
543.644	1088.81
543.857	1103.81
544.071	1152.81
544.285	1113.81
544.498	1119.81
544.712	1122.81
544.925	1162.81
545.139	1117.81
545.352	1134.81
545.566	1146.81
545.779	1160.81
545.993	1139.81
546.206	1153.81
546.42	1138.81
546.633	1177.81
546.847	1156.81
547.06	1125.81
547.274	1140.81
547.487	1161.81
547.7	1168.81
547.914	1129.81
548.127	1131.81
548.34	1137.81
548.554	1128.81
548.767	1110.81
548.98	1131.81
549.193	1126.81
549.407	1139.81
549.62	1117.81
549.833	1143.81
550.046	1146.81
550.259	1139.81
550.473	1112.81
550.686	1153.81
550.899	1143.81
551.112	1145.81
551.325	1108.81
551.538	1118.81
551.751	1106.81
551.964	1112.81
552.177	1125.81
552.39	1118.81
552.603	1171.81
552.816	1202.81
553.029	1219.81
553.242	1219.81
553.455	1238.81
553.667	1238.81
553.88	1230.81
554.093	1227.81
554.306	1270.81
554.519	1228.81
554.732	1249.81
554.944	1297.81
555.157	1310.81
555.37	1329.81
555.583	1347.81
555.795	1406.81
556.008	1517.81
556.221	1597.81
556.433	1692.81
556.646	1707.81
556.859	1655.81
557.071	1596.81
557.284	1558.81
557.496	1528.81
557.709	1533.81
557.921	1501.81
558.134	1530.81
558.346	1526.81
558.559	1572.81
558.771	1634.81
558.984	1745.81
559.196	1826.81
559.409	1805.81
559.621	1673.81
559.833	1568.81
560.046	1504.81
560.258	1422.81
560.47	1387.81
560.683	1348.81
560.895	1297.81
561.107	1279.81
561.32	1264.81
561.532	1210.81
561.744	1206.81
561.956	1206.81
562.168	1150.81
562.381	1112.81
562.593	1119.81
562.805	1123.81
563.017	1124.81
563.229	1144.81
563.441	1279.81
563.653	1121.81
563.865	1072.81
564.077	1034.81
564.289	1054.81
564.501	1054.81
564.713	1032.81
564.925	1026.81
565.137	1029.81
565.349	1042.81
565.561	1039.81
565.773	1059.81
565.985	1042.81
566.197	1063.81
566.408	1065.81
566.62	1128.81
566.832	1131.81
567.044	1144.81
567.255	1165.81
567.467	1162.81
567.679	1181.81
567.891	1253.81
568.102	1366.81
568.314	1596.81
568.526	1364.81
568.737	1166.81
568.949	1090.81
569.161	1015.81
569.372	970.81
569.584	945.81
569.795	921.81
570.007	927.81
570.218	952.81
570.43	970.81
570.641	909.81
570.853	870.81
571.064	891.81
571.276	873.81
571.487	851.81
571.698	834.81
571.91	827.81
572.121	823.81
572.333	826.81
572.544	811.81
572.755	878.81
572.966	973.81
573.178	922.81
573.389	856.81
573.6	762.81
573.811	772.81
574.023	773.81
574.234	768.81
574.445	757.81
574.656	744.81
574.867	743.81
575.078	757.81
575.289	769.81
575.501	762.81
575.712	734.81
575.923	747.81
576.134	718.81
576.345	750.81
576.556	772.81
576.767	752.81
576.978	747.81
577.188	766.81
577.399	771.81
577.61	750.81
577.821	738.81
578.032	775.81
578.243	782.81
578.454	817.81
578.665	809.81
578.875	851.81
579.086	849.81
579.297	873.81
579.508	918.81
579.718	973.81
579.929	1096.81
580.14	1221.81
580.35	1245.81
580.561	1173.81
580.772	1120.81
580.982	1033.81
581.193	953.81
581.403	919.81
581.614	921.81
581.825	864.81
582.035	824.81
582.246	808.81
582.456	775.81
582.667	801.81
582.877	777.81
583.087	752.81
583.298	714.81
583.508	710.81
583.719	700.81
583.929	707.81
584.139	667.81
584.35	655.81
584.56	639.81
584.77	640.81
584.981	657.81
585.191	638.81
585.401	631.81
585.611	606.81
585.821	630.81
586.032	617.81
586.242	608.81
586.452	597.81
586.662	613.81
586.872	605.81
587.082	559.81
587.292	575.81
587.502	596.81
587.713	568.81
587.923	556.81
588.133	573.81
588.343	570.81
588.553	578.81
588.762	546.81
588.972	546.81
589.182	565.81
589.392	524.81
589.602	536.81
589.812	545.81
590.022	542.81
590.232	563.81
590.441	536.81
590.651	550.81
590.861	535.81
591.071	537.81
591.281	540.81
591.49	518.81
591.7	526.81
591.91	553.81
592.119	559.81
592.329	562.81
592.539	571.81
592.748	557.81
592.958	536.81
593.167	566.81
593.377	574.81
593.587	577.81
593.796	584.81
594.006	555.81
594.215	573.81
594.424	558.81
594.634	548.81
594.843	560.81
595.053	557.81
595.262	537.81
595.472	509.81
595.681	511.81
595.89	514.81
596.1	509.81
596.309	519.81
596.518	513.81
596.727	482.81
596.937	479.81
597.146	484.81
597.355	478.81
597.564	490.81
597.774	472.81
597.983	455.81
598.192	448.81
598.401	455.81
598.61	455.81
598.819	454.81
599.028	447.81
599.237	470.81
599.446	478.81
599.655	478.81
599.864	433.81
600.073	449.81
600.282	430.81
600.491	433.81
600.7	454.81
600.909	442.81
601.118	437.81
601.327	446.81
601.536	472.81
601.745	461.81
601.953	517.81
602.162	573.81
602.371	524.81
602.58	469.81
602.789	445.81
602.997	460.81
603.206	455.81
603.415	423.81
603.623	435.81
603.832	430.81
604.041	440.81
604.249	440.81
604.458	418.81
604.666	413.81
604.875	404.81
605.084	430.81
605.292	443.81
605.501	429.81
605.709	443.81
605.918	423.81
606.126	432.81
606.334	415.81
606.543	429.81
606.751	473.81
606.96	527.81
607.168	577.81
607.376	482.81
607.585	468.81
607.793	448.81
608.001	434.81
608.21	436.81
608.418	429.81
608.626	425.81
608.834	412.81
609.043	429.81
609.251	401.81
609.459	424.81
609.667	425.81
609.875	431.81
610.083	399.81
610.291	407.81
610.499	409.81
610.707	420.81
610.916	402.81
611.124	405.81
611.332	393.81
611.54	393.81
611.748	391.81
611.955	394.81
612.163	406.81
612.371	383.81
612.579	393.81
612.787	377.81
612.995	386.81
613.203	375.81
613.411	397.81
613.618	397.81
613.826	384.81
614.034	409.81
614.242	383.81
614.449	402.81
614.657	384.81
614.865	392.81
615.072	393.81
615.28	382.81
615.488	376.81
615.695	409.81
615.903	387.81
616.111	402.81
616.318	383.81
616.526	407.81
616.733	405.81
616.941	368.81
617.148	385.81
617.356	393.81
617.563	387.81
617.771	398.81
617.978	369.81
618.185	378.81
618.393	367.81
618.6	385.81
618.807	383.81
619.015	388.81
619.222	386.81
619.429	389.81
619.637	365.81
619.844	373.81
620.051	375.81
620.258	354.81
620.466	363.81
620.673	365.81
620.88	354.81
621.087	351.81
621.294	346.81
621.501	360.81
621.708	346.81
621.915	354.81
622.122	344.81
622.329	365.81
622.536	369.81
622.743	365.81
622.95	351.81
623.157	362.81
623.364	343.81
623.571	353.81
623.778	350.81
623.985	346.81
624.192	353.81
624.399	351.81
624.606	339.81
624.812	339.81
625.019	336.81
625.226	318.81
625.433	335.81
625.639	336.81
625.846	325.81
626.053	326.81
626.259	318.81
626.466	328.81
626.673	321.81
626.879	311.81
627.086	316.81
627.293	317.81
627.499	338.81
627.706	322.81
627.912	311.81
628.119	316.81
628.325	311.81
628.532	312.81
628.738	333.81
628.945	326.81
629.151	313.81
629.357	322.81
629.564	309.81
629.77	316.81
629.976	330.81
630.183	316.81
630.389	321.81
630.595	309.81
630.802	309.81
631.008	317.81
631.214	315.81
631.42	315.81
631.627	313.81
631.833	303.81
632.039	302.81
632.245	308.81
632.451	319.81
632.657	305.81
632.863	297.81
633.069	295.81
633.275	293.81
633.481	296.81
633.688	288.81
633.893	282.81
634.099	306.81
634.305	309.81
634.511	302.81
634.717	304.81
634.923	303.81
635.129	335.81
635.335	386.81
635.541	305.81
635.747	321.81
635.952	319.81
636.158	304.81
636.364	315.81
636.57	281.81
636.775	296.81
636.981	302.81
637.187	313.81
637.392	308.81
637.598	291.81
637.804	322.81
638.009	286.81
638.215	298.81
638.421	292.81
638.626	286.81
638.832	297.81
639.037	314.81
639.243	305.81
639.448	315.81
639.654	331.81
639.859	314.81
640.065	303.81
640.27	329.81
640.475	302.81
640.681	307.81
640.886	313.81
641.091	308.81
641.297	330.81
641.502	325.81
641.707	319.81
641.913	327.81
642.118	321.81
642.323	339.81
642.528	353.81
642.733	366.81
642.939	357.81
643.144	341.81
643.349	361.81
643.554	382.81
643.759	384.81
643.964	401.81
644.169	398.81
644.374	436.81
644.579	457.81
644.784	493.81
644.989	560.81
645.194	624.81
645.399	747.81
645.604	773.81
645.809	605.81
646.014	490.81
646.219	421.81
646.423	409.81
646.628	349.81
646.833	331.81
647.038	322.81
647.243	311.81
647.447	328.81
647.652	313.81
647.857	298.81
648.062	287.81
648.266	283.81
648.471	298.81
648.676	277.81
648.88	281.81
649.085	280.81
649.289	270.81
649.494	268.81
649.698	261.81
649.903	264.81
650.107	265.81
650.312	266.81
650.516	253.81
650.721	239.81
650.925	256.81
651.13	241.81
651.334	255.81
651.539	219.81
651.743	231.81
651.947	239.81
652.152	231.81
652.356	233.81
652.56	262.81
652.764	269.81
652.969	239.81
653.173	228.81
653.377	223.81
653.581	212.81
653.785	198.81
653.99	214.81
654.194	203.81
654.398	184.81
654.602	207.81
654.806	210.81
655.01	213.81
655.214	214.81
655.418	194.81
655.622	203.81
655.826	193.81
656.03	197.81
656.234	230.81
656.438	224.81
656.642	218.81
656.846	198.81
657.049	206.81
657.253	197.81
657.457	182.81
657.661	175.81
657.865	152.81
658.068	168.81
658.272	163.81
658.476	132.81
658.68	149.81
658.883	129.81
659.087	129.81
659.291	137.81
659.494	121.81
659.698	134.81
659.901	124.81
660.105	121.81
660.309	123.81
660.512	111.81
660.716	107.81
660.919	109.81
661.123	118.81
661.326	103.81
661.53	120.81
661.733	101.81
661.936	100.81
662.14	94.81
662.343	99.81
662.546	87.81
662.75	88.81
662.953	98.81
663.156	89.81
663.36	95.81
663.563	81.81
663.766	94.81
663.969	88.81
664.173	88.81
664.376	81.81
664.579	81.81
664.782	88.81
664.985	81.81
665.188	78.81
665.391	86.81
665.594	90.81
665.797	85.81
666	88.81
666.203	97.81
666.406	69.81
666.609	80.81
666.812	90.81
667.015	90.81
667.218	85.81
667.421	88.81
667.624	84.81
667.827	80.81
668.03	81.81
668.232	74.81
668.435	91.81
668.638	88.81
668.841	88.81
669.043	90.81
669.246	88.81
669.449	72.81
669.651	88.81
669.854	73.81
670.057	72.81
670.259	75.81
670.462	71.81
670.665	87.81
670.867	77.81
671.07	90.81
671.272	69.81
671.475	78.81
671.677	87.81
671.88	71.81
672.082	86.81
672.284	83.81
672.487	61.81
672.689	88.81
672.892	74.81
