Data from SnStandardFlinnAPT0064_LampEnergy5.5_LIBS07252019.E.O._I.C._HRD10591_15-16-54-492.txt Node
Date: Thu Jul 25 15:16:54 EDT 2019
User: cochatt
Spectrometer: HR+D1059
Trigger mode: 1
Integration Time (sec): 1.000000E-1
Scans to average: 1
Electric dark correction enabled: true
Nonlinearity correction enabled: false
Boxcar width: 0
XAxis mode: Wavelengths
Number of Pixels in Spectrum: 2048
>>>>>Begin Spectral Data<<<<<
223.165	-18.75
223.4	-18.75
223.635	-18.75
223.869	-14.75
224.104	-26.75
224.338	-26.75
224.573	-22.75
224.808	-12.75
225.042	-10.75
225.277	-2.75
225.511	-12.75
225.746	19.25
225.98	7.25
226.215	12.25
226.449	9.25
226.683	36.25
226.918	25.25
227.152	39.25
227.387	45.25
227.621	36.25
227.856	29.25
228.09	60.25
228.324	45.25
228.559	57.25
228.793	83.25
229.027	151.25
229.262	175.25
229.496	158.25
229.73	143.25
229.964	163.25
230.199	157.25
230.433	145.25
230.667	168.25
230.901	160.25
231.136	184.25
231.37	187.25
231.604	202.25
231.838	223.25
232.072	240.25
232.306	253.25
232.541	225.25
232.775	220.25
233.009	200.25
233.243	201.25
233.477	216.25
233.711	245.25
233.945	255.25
234.179	238.25
234.413	210.25
234.647	207.25
234.881	222.25
235.115	228.25
235.349	287.25
235.583	362.25
235.817	463.25
236.051	446.25
236.285	311.25
236.519	242.25
236.753	237.25
236.987	230.25
237.221	257.25
237.455	234.25
237.689	242.25
237.922	217.25
238.156	222.25
238.39	232.25
238.624	230.25
238.858	229.25
239.091	223.25
239.325	230.25
239.559	217.25
239.793	233.25
240.027	257.25
240.26	248.25
240.494	232.25
240.728	237.25
240.961	276.25
241.195	289.25
241.429	313.25
241.662	295.25
241.896	330.25
242.13	409.25
242.363	541.25
242.597	647.25
242.83	655.25
243.064	644.25
243.298	768.25
243.531	641.25
243.765	395.25
243.998	324.25
244.232	289.25
244.465	298.25
244.699	292.25
244.932	300.25
245.166	305.25
245.399	329.25
245.633	324.25
245.866	313.25
246.099	300.25
246.333	298.25
246.566	278.25
246.8	296.25
247.033	294.25
247.266	302.25
247.5	301.25
247.733	298.25
247.966	330.25
248.2	348.25
248.433	377.25
248.666	416.25
248.899	398.25
249.133	360.25
249.366	375.25
249.599	390.25
249.832	452.25
250.066	449.25
250.299	361.25
250.532	341.25
250.765	329.25
250.998	334.25
251.231	321.25
251.465	350.25
251.698	344.25
251.931	329.25
252.164	348.25
252.397	335.25
252.63	347.25
252.863	346.25
253.096	355.25
253.329	349.25
253.562	346.25
253.795	342.25
254.028	372.25
254.261	368.25
254.494	398.25
254.727	467.25
254.96	519.25
255.193	507.25
255.426	413.25
255.659	389.25
255.892	390.25
256.124	400.25
256.357	387.25
256.59	403.25
256.823	423.25
257.056	448.25
257.289	537.25
257.521	612.25
257.754	485.25
257.987	424.25
258.22	418.25
258.452	406.25
258.685	425.25
258.918	405.25
259.151	441.25
259.383	470.25
259.616	505.25
259.849	534.25
260.081	444.25
260.314	442.25
260.547	420.25
260.779	407.25
261.012	431.25
261.244	434.25
261.477	437.25
261.71	437.25
261.942	433.25
262.175	432.25
262.407	464.25
262.64	455.25
262.872	488.25
263.105	513.25
263.337	533.25
263.57	545.25
263.802	565.25
264.035	588.25
264.267	582.25
264.499	598.25
264.732	628.25
264.964	623.25
265.197	633.25
265.429	620.25
265.661	645.25
265.894	669.25
266.126	750.25
266.358	795.25
266.591	774.25
266.823	685.25
267.055	647.25
267.287	618.25
267.52	586.25
267.752	565.25
267.984	556.25
268.216	559.25
268.448	563.25
268.681	573.25
268.913	545.25
269.145	523.25
269.377	545.25
269.609	542.25
269.841	565.25
270.073	603.25
270.306	678.25
270.538	889.25
270.77	1285.25
271.002	1578.25
271.234	1116.25
271.466	747.25
271.698	638.25
271.93	599.25
272.162	543.25
272.394	556.25
272.626	549.25
272.858	549.25
273.09	526.25
273.322	539.25
273.553	516.25
273.785	515.25
274.017	542.25
274.249	528.25
274.481	529.25
274.713	553.25
274.945	535.25
275.176	527.25
275.408	531.25
275.64	548.25
275.872	525.25
276.104	566.25
276.335	532.25
276.567	543.25
276.799	535.25
277.031	572.25
277.262	579.25
277.494	583.25
277.726	640.25
277.957	727.25
278.189	830.25
278.421	776.25
278.652	676.25
278.884	661.25
279.115	635.25
279.347	607.25
279.579	603.25
279.81	586.25
280.042	583.25
280.273	609.25
280.505	616.25
280.736	611.25
280.968	646.25
281.199	721.25
281.431	829.25
281.662	803.25
281.894	719.25
282.125	679.25
282.356	713.25
282.588	690.25
282.819	712.25
283.051	734.25
283.282	803.25
283.513	974.25
283.745	1419.25
283.976	2332.25
284.207	3265.25
284.439	2849.25
284.67	1708.25
284.901	1421.25
285.132	1386.25
285.364	1350.25
285.595	1053.25
285.826	941.25
286.057	1122.25
286.288	1538.25
286.52	2117.25
286.751	1906.25
286.982	1185.25
287.213	913.25
287.444	801.25
287.675	775.25
287.906	751.25
288.138	718.25
288.369	706.25
288.6	705.25
288.831	717.25
289.062	708.25
289.293	685.25
289.524	715.25
289.755	731.25
289.986	715.25
290.217	712.25
290.448	734.25
290.679	728.25
290.91	737.25
291.141	762.25
291.371	804.25
291.602	821.25
291.833	757.25
292.064	722.25
292.295	709.25
292.526	686.25
292.757	697.25
292.987	680.25
293.218	670.25
293.449	666.25
293.68	666.25
293.91	683.25
294.141	677.25
294.372	681.25
294.603	691.25
294.833	664.25
295.064	670.25
295.295	694.25
295.525	645.25
295.756	677.25
295.987	679.25
296.217	651.25
296.448	660.25
296.679	679.25
296.909	699.25
297.14	699.25
297.37	656.25
297.601	679.25
297.831	666.25
298.062	709.25
298.292	682.25
298.523	694.25
298.753	730.25
298.984	710.25
299.214	722.25
299.445	721.25
299.675	773.25
299.905	757.25
300.136	805.25
300.366	891.25
300.597	1135.25
300.827	1537.25
301.057	2084.25
301.288	2042.25
301.518	1299.25
301.748	1019.25
301.979	933.25
302.209	909.25
302.439	920.25
302.669	983.25
302.9	1193.25
303.13	1649.25
303.36	2412.25
303.59	3227.25
303.82	2797.25
304.051	1615.25
304.281	1187.25
304.511	983.25
304.741	930.25
304.971	886.25
305.201	845.25
305.431	811.25
305.661	803.25
305.891	813.25
306.121	776.25
306.352	805.25
306.582	774.25
306.812	757.25
307.042	765.25
307.272	769.25
307.502	787.25
307.731	770.25
307.961	792.25
308.191	771.25
308.421	770.25
308.651	795.25
308.881	784.25
309.111	781.25
309.341	769.25
309.571	771.25
309.8	786.25
310.03	780.25
310.26	770.25
310.49	789.25
310.72	795.25
310.949	777.25
311.179	813.25
311.409	799.25
311.639	804.25
311.868	814.25
312.098	805.25
312.328	833.25
312.557	818.25
312.787	821.25
313.017	812.25
313.246	851.25
313.476	857.25
313.706	863.25
313.935	926.25
314.165	956.25
314.394	992.25
314.624	925.25
314.853	869.25
315.083	892.25
315.312	901.25
315.542	918.25
315.771	912.25
316.001	932.25
316.23	962.25
316.46	991.25
316.689	1063.25
316.919	1286.25
317.148	1856.25
317.377	2882.25
317.607	4187.25
317.836	4393.25
318.065	2532.25
318.295	1619.25
318.524	1303.25
318.753	1182.25
318.983	1064.25
319.212	1006.25
319.441	1009.25
319.67	985.25
319.9	951.25
320.129	981.25
320.358	971.25
320.587	942.25
320.816	938.25
321.046	967.25
321.275	985.25
321.504	978.25
321.733	983.25
321.962	1007.25
322.191	1026.25
322.42	1040.25
322.649	1016.25
322.878	997.25
323.108	1015.25
323.337	1016.25
323.566	1065.25
323.795	1066.25
324.024	1069.25
324.253	1126.25
324.482	1147.25
324.71	1181.25
324.939	1286.25
325.168	1283.25
325.397	1300.25
325.626	1586.25
325.855	2219.25
326.084	3456.25
326.313	5222.25
326.542	5449.25
326.77	3393.25
326.999	2231.25
327.228	1863.25
327.457	1743.25
327.686	1807.25
327.914	1866.25
328.143	2168.25
328.372	2553.25
328.6	2758.25
328.829	2545.25
329.058	2224.25
329.287	1944.25
329.515	1757.25
329.744	1688.25
329.972	1629.25
330.201	1529.25
330.43	1477.25
330.658	1440.25
330.887	1421.25
331.115	1422.25
331.344	1418.25
331.572	1385.25
331.801	1395.25
332.03	1386.25
332.258	1436.25
332.486	1486.25
332.715	1701.25
332.943	2073.25
333.172	2565.25
333.4	2463.25
333.629	1946.25
333.857	1749.25
334.085	1765.25
334.314	1814.25
334.542	1959.25
334.771	2259.25
334.999	2702.25
335.227	3291.25
335.455	3670.25
335.684	3404.25
335.912	2831.25
336.14	2492.25
336.369	2229.25
336.597	2074.25
336.825	1907.25
337.053	1793.25
337.281	1715.25
337.51	1621.25
337.738	1563.25
337.966	1495.25
338.194	1447.25
338.422	1409.25
338.65	1398.25
338.878	1340.25
339.106	1339.25
339.334	1326.25
339.562	1285.25
339.79	1271.25
340.018	1258.25
340.246	1255.25
340.474	1241.25
340.702	1249.25
340.93	1269.25
341.158	1216.25
341.386	1203.25
341.614	1210.25
341.842	1166.25
342.07	1180.25
342.298	1173.25
342.526	1148.25
342.754	1122.25
342.981	1098.25
343.209	1134.25
343.437	1150.25
343.665	1155.25
343.893	1155.25
344.12	1188.25
344.348	1180.25
344.576	1156.25
344.804	1109.25
345.031	1084.25
345.259	1102.25
345.487	1090.25
345.714	1080.25
345.942	1077.25
346.17	1061.25
346.397	1089.25
346.625	1064.25
346.853	1044.25
347.08	1067.25
347.308	1049.25
347.535	1027.25
347.763	1047.25
347.99	1012.25
348.218	1063.25
348.445	1046.25
348.673	1029.25
348.9	1066.25
349.128	1043.25
349.355	1003.25
349.583	1021.25
349.81	1016.25
350.037	1021.25
350.265	1028.25
350.492	1010.25
350.72	1001.25
350.947	1023.25
351.174	1012.25
351.402	1018.25
351.629	1001.25
351.856	995.25
352.083	985.25
352.311	999.25
352.538	1000.25
352.765	999.25
352.992	989.25
353.22	988.25
353.447	1002.25
353.674	1035.25
353.901	993.25
354.128	1011.25
354.355	1005.25
354.583	1014.25
354.81	1039.25
355.037	1046.25
355.264	1039.25
355.491	1029.25
355.718	1009.25
355.945	1039.25
356.172	1010.25
356.399	1048.25
356.626	1073.25
356.853	1041.25
357.08	1059.25
357.307	1025.25
357.534	1078.25
357.761	1054.25
357.988	1074.25
358.215	1072.25
358.441	1102.25
358.668	1053.25
358.895	1082.25
359.122	1069.25
359.349	1047.25
359.576	1082.25
359.802	1080.25
360.029	1093.25
360.256	1091.25
360.483	1059.25
360.709	1052.25
360.936	1079.25
361.163	1070.25
361.39	1065.25
361.616	1101.25
361.843	1082.25
362.07	1054.25
362.296	1065.25
362.523	1071.25
362.749	1068.25
362.976	1078.25
363.203	1057.25
363.429	1049.25
363.656	1071.25
363.882	1059.25
364.109	1081.25
364.335	1089.25
364.562	1066.25
364.788	1073.25
365.015	1097.25
365.241	1104.25
365.468	1142.25
365.694	1175.25
365.92	1144.25
366.147	1090.25
366.373	1115.25
366.599	1102.25
366.826	1087.25
367.052	1070.25
367.278	1087.25
367.505	1067.25
367.731	1109.25
367.957	1132.25
368.184	1117.25
368.41	1094.25
368.636	1121.25
368.862	1113.25
369.089	1118.25
369.315	1132.25
369.541	1115.25
369.767	1093.25
369.993	1102.25
370.219	1095.25
370.445	1114.25
370.672	1118.25
370.898	1129.25
371.124	1148.25
371.35	1133.25
371.576	1159.25
371.802	1174.25
372.028	1177.25
372.254	1167.25
372.48	1163.25
372.706	1210.25
372.932	1173.25
373.158	1164.25
373.384	1149.25
373.61	1169.25
373.835	1165.25
374.061	1182.25
374.287	1215.25
374.513	1173.25
374.739	1210.25
374.965	1210.25
375.191	1242.25
375.416	1213.25
375.642	1216.25
375.868	1186.25
376.094	1173.25
376.319	1188.25
376.545	1174.25
376.771	1182.25
376.997	1176.25
377.222	1179.25
377.448	1130.25
377.674	1173.25
377.899	1158.25
378.125	1162.25
378.35	1162.25
378.576	1138.25
378.802	1159.25
379.027	1169.25
379.253	1210.25
379.478	1285.25
379.704	1477.25
379.929	2075.25
380.155	3079.25
380.38	3358.25
380.606	2036.25
380.831	1452.25
381.057	1274.25
381.282	1225.25
381.507	1190.25
381.733	1197.25
381.958	1128.25
382.184	1140.25
382.409	1142.25
382.634	1131.25
382.86	1145.25
383.085	1175.25
383.31	1144.25
383.535	1133.25
383.761	1148.25
383.986	1161.25
384.211	1162.25
384.436	1153.25
384.662	1190.25
384.887	1173.25
385.112	1148.25
385.337	1193.25
385.562	1150.25
385.787	1173.25
386.013	1197.25
386.238	1178.25
386.463	1189.25
386.688	1162.25
386.913	1163.25
387.138	1157.25
387.363	1194.25
387.588	1203.25
387.813	1181.25
388.038	1169.25
388.263	1160.25
388.488	1189.25
388.713	1169.25
388.938	1169.25
389.163	1190.25
389.387	1163.25
389.612	1173.25
389.837	1201.25
390.062	1196.25
390.287	1181.25
390.512	1178.25
390.736	1227.25
390.961	1225.25
391.186	1232.25
391.411	1247.25
391.636	1248.25
391.86	1246.25
392.085	1240.25
392.31	1224.25
392.534	1247.25
392.759	1222.25
392.984	1215.25
393.208	1199.25
393.433	1234.25
393.658	1227.25
393.882	1177.25
394.107	1192.25
394.331	1213.25
394.556	1231.25
394.78	1205.25
395.005	1203.25
395.229	1225.25
395.454	1237.25
395.678	1269.25
395.903	1231.25
396.127	1238.25
396.352	1205.25
396.576	1231.25
396.801	1217.25
397.025	1244.25
397.249	1239.25
397.474	1245.25
397.698	1255.25
397.922	1273.25
398.147	1269.25
398.371	1280.25
398.595	1302.25
398.82	1342.25
399.044	1343.25
399.268	1398.25
399.492	1530.25
399.717	1596.25
399.941	1592.25
400.165	1517.25
400.389	1475.25
400.613	1403.25
400.837	1350.25
401.062	1351.25
401.286	1340.25
401.51	1323.25
401.734	1308.25
401.958	1327.25
402.182	1326.25
402.406	1290.25
402.63	1335.25
402.854	1306.25
403.078	1357.25
403.302	1324.25
403.526	1362.25
403.75	1311.25
403.974	1393.25
404.198	1348.25
404.422	1337.25
404.645	1379.25
404.869	1341.25
405.093	1395.25
405.317	1340.25
405.541	1359.25
405.765	1413.25
405.988	1407.25
406.212	1390.25
406.436	1391.25
406.66	1417.25
406.883	1403.25
407.107	1423.25
407.331	1420.25
407.555	1435.25
407.778	1484.25
408.002	1469.25
408.226	1442.25
408.449	1456.25
408.673	1414.25
408.896	1410.25
409.12	1382.25
409.344	1382.25
409.567	1343.25
409.791	1343.25
410.014	1345.25
410.238	1359.25
410.461	1361.25
410.685	1359.25
410.908	1370.25
411.132	1322.25
411.355	1334.25
411.578	1311.25
411.802	1315.25
412.025	1333.25
412.249	1311.25
412.472	1276.25
412.695	1281.25
412.919	1309.25
413.142	1318.25
413.365	1305.25
413.589	1321.25
413.812	1295.25
414.035	1266.25
414.258	1262.25
414.482	1266.25
414.705	1256.25
414.928	1307.25
415.151	1257.25
415.374	1295.25
415.597	1287.25
415.821	1242.25
416.044	1229.25
416.267	1242.25
416.49	1257.25
416.713	1256.25
416.936	1245.25
417.159	1236.25
417.382	1239.25
417.605	1208.25
417.828	1227.25
418.051	1219.25
418.274	1252.25
418.497	1244.25
418.72	1286.25
418.943	1231.25
419.166	1316.25
419.389	1359.25
419.611	1348.25
419.834	1337.25
420.057	1295.25
420.28	1285.25
420.503	1267.25
420.726	1220.25
420.948	1255.25
421.171	1244.25
421.394	1246.25
421.617	1240.25
421.839	1266.25
422.062	1250.25
422.285	1240.25
422.507	1288.25
422.73	1288.25
422.953	1266.25
423.175	1283.25
423.398	1277.25
423.621	1203.25
423.843	1292.25
424.066	1273.25
424.288	1250.25
424.511	1240.25
424.733	1265.25
424.956	1231.25
425.178	1233.25
425.401	1231.25
425.623	1253.25
425.846	1207.25
426.068	1213.25
426.291	1204.25
426.513	1185.25
426.735	1223.25
426.958	1203.25
427.18	1161.25
427.402	1167.25
427.625	1158.25
427.847	1148.25
428.069	1166.25
428.292	1159.25
428.514	1142.25
428.736	1163.25
428.958	1161.25
429.181	1127.25
429.403	1142.25
429.625	1143.25
429.847	1131.25
430.069	1157.25
430.292	1191.25
430.514	1254.25
430.736	1249.25
430.958	1175.25
431.18	1156.25
431.402	1170.25
431.624	1157.25
431.846	1127.25
432.068	1143.25
432.29	1110.25
432.512	1119.25
432.734	1150.25
432.956	1153.25
433.178	1151.25
433.4	1137.25
433.622	1125.25
433.844	1171.25
434.066	1158.25
434.287	1135.25
434.509	1151.25
434.731	1181.25
434.953	1189.25
435.175	1191.25
435.397	1195.25
435.618	1150.25
435.84	1168.25
436.062	1129.25
436.284	1106.25
436.505	1115.25
436.727	1186.25
436.949	1121.25
437.17	1111.25
437.392	1135.25
437.614	1140.25
437.835	1049.25
438.057	1073.25
438.278	1079.25
438.5	1099.25
438.721	1121.25
438.943	1158.25
439.165	1159.25
439.386	1186.25
439.608	1213.25
439.829	1205.25
440.05	1225.25
440.272	1243.25
440.493	1173.25
440.715	1165.25
440.936	1180.25
441.158	1222.25
441.379	1251.25
441.6	1267.25
441.822	1281.25
442.043	1335.25
442.264	1369.25
442.486	1288.25
442.707	1225.25
442.928	1211.25
443.149	1192.25
443.371	1185.25
443.592	1207.25
443.813	1238.25
444.034	1253.25
444.255	1270.25
444.476	1329.25
444.698	1321.25
444.919	1314.25
445.14	1418.25
445.361	1301.25
445.582	1281.25
445.803	1251.25
446.024	1234.25
446.245	1240.25
446.466	1246.25
446.687	1261.25
446.908	1206.25
447.129	1191.25
447.35	1192.25
447.571	1150.25
447.792	1149.25
448.013	1128.25
448.234	1118.25
448.455	1114.25
448.675	1104.25
448.896	1156.25
449.117	1227.25
449.338	1283.25
449.559	1356.25
449.779	1199.25
450	1134.25
450.221	1134.25
450.442	1100.25
450.662	1132.25
450.883	1090.25
451.104	1134.25
451.324	1093.25
451.545	1105.25
451.766	1070.25
451.986	1118.25
452.207	1172.25
452.428	1401.25
452.648	2059.25
452.869	1739.25
453.089	1270.25
453.31	1203.25
453.53	1209.25
453.751	1233.25
453.971	1315.25
454.192	1317.25
454.412	1164.25
454.633	1103.25
454.853	1085.25
455.073	1066.25
455.294	1053.25
455.514	1029.25
455.734	1053.25
455.955	1022.25
456.175	1043.25
456.395	1051.25
456.616	1052.25
456.836	1051.25
457.056	1077.25
457.276	1063.25
457.497	1139.25
457.717	1142.25
457.937	1094.25
458.157	1112.25
458.377	1096.25
458.598	1109.25
458.818	1107.25
459.038	1134.25
459.258	1141.25
459.478	1133.25
459.698	1139.25
459.918	1168.25
460.138	1174.25
460.358	1226.25
460.578	1254.25
460.798	1223.25
461.018	1230.25
461.238	1259.25
461.458	1275.25
461.678	1278.25
461.898	1269.25
462.118	1292.25
462.338	1321.25
462.558	1358.25
462.777	1355.25
462.997	1395.25
463.217	1420.25
463.437	1479.25
463.657	1534.25
463.876	1535.25
464.096	1413.25
464.316	1360.25
464.536	1361.25
464.755	1312.25
464.975	1290.25
465.195	1206.25
465.414	1229.25
465.634	1189.25
465.854	1163.25
466.073	1178.25
466.293	1177.25
466.512	1163.25
466.732	1157.25
466.951	1177.25
467.171	1276.25
467.391	1277.25
467.61	1191.25
467.829	1163.25
468.049	1135.25
468.268	1144.25
468.488	1111.25
468.707	1087.25
468.927	1144.25
469.146	1127.25
469.365	1143.25
469.585	1134.25
469.804	1177.25
470.023	1191.25
470.243	1196.25
470.462	1215.25
470.681	1281.25
470.901	1409.25
471.12	1621.25
471.339	1619.25
471.558	1325.25
471.777	1253.25
471.997	1208.25
472.216	1165.25
472.435	1149.25
472.654	1128.25
472.873	1106.25
473.092	1131.25
473.311	1125.25
473.53	1143.25
473.749	1148.25
473.968	1192.25
474.187	1138.25
474.406	1127.25
474.625	1125.25
474.844	1139.25
475.063	1147.25
475.282	1143.25
475.501	1141.25
475.72	1146.25
475.939	1134.25
476.158	1178.25
476.377	1199.25
476.596	1227.25
476.814	1170.25
477.033	1181.25
477.252	1237.25
477.471	1200.25
477.69	1259.25
477.908	1253.25
478.127	1280.25
478.346	1265.25
478.564	1290.25
478.783	1308.25
479.002	1377.25
479.22	1347.25
479.439	1364.25
479.658	1342.25
479.876	1341.25
480.095	1358.25
480.313	1359.25
480.532	1419.25
480.751	1369.25
480.969	1357.25
481.188	1323.25
481.406	1306.25
481.624	1303.25
481.843	1336.25
482.061	1366.25
482.28	1354.25
482.498	1327.25
482.717	1315.25
482.935	1341.25
483.153	1393.25
483.372	1408.25
483.59	1401.25
483.808	1394.25
484.027	1448.25
484.245	1526.25
484.463	1730.25
484.681	1898.25
484.9	1715.25
485.118	1571.25
485.336	1524.25
485.554	1537.25
485.772	1617.25
485.99	1874.25
486.209	2037.25
486.427	1724.25
486.645	1557.25
486.863	1502.25
487.081	1430.25
487.299	1447.25
487.517	1461.25
487.735	1438.25
487.953	1432.25
488.171	1471.25
488.389	1437.25
488.607	1444.25
488.825	1398.25
489.043	1367.25
489.261	1366.25
489.479	1402.25
489.696	1395.25
489.914	1408.25
490.132	1420.25
490.35	1407.25
490.568	1420.25
490.786	1434.25
491.003	1430.25
491.221	1470.25
491.439	1497.25
491.657	1497.25
491.874	1521.25
492.092	1492.25
492.31	1542.25
492.527	1516.25
492.745	1517.25
492.963	1498.25
493.18	1493.25
493.398	1519.25
493.615	1468.25
493.833	1501.25
494.05	1499.25
494.268	1492.25
494.485	1493.25
494.703	1503.25
494.92	1484.25
495.138	1494.25
495.355	1489.25
495.573	1496.25
495.79	1501.25
496.008	1487.25
496.225	1488.25
496.442	1529.25
496.66	1589.25
496.877	1596.25
497.094	1623.25
497.312	1575.25
497.529	1573.25
497.746	1634.25
497.963	1615.25
498.181	1650.25
498.398	1688.25
498.615	1735.25
498.832	1760.25
499.049	1857.25
499.267	2033.25
499.484	2117.25
499.701	2123.25
499.918	2217.25
500.135	2356.25
500.352	2477.25
500.569	2497.25
500.786	2465.25
501.003	2420.25
501.22	2310.25
501.437	2152.25
501.654	2055.25
501.871	1966.25
502.088	1860.25
502.305	1802.25
502.522	1781.25
502.739	1717.25
502.956	1629.25
503.172	1610.25
503.389	1562.25
503.606	1542.25
503.823	1547.25
504.04	1548.25
504.256	1570.25
504.473	1525.25
504.69	1533.25
504.907	1486.25
505.123	1444.25
505.34	1393.25
505.557	1411.25
505.773	1402.25
505.99	1395.25
506.207	1354.25
506.423	1339.25
506.64	1339.25
506.856	1340.25
507.073	1329.25
507.289	1309.25
507.506	1293.25
507.722	1309.25
507.939	1315.25
508.155	1305.25
508.372	1256.25
508.588	1245.25
508.805	1239.25
509.021	1264.25
509.238	1294.25
509.454	1346.25
509.67	1446.25
509.887	1310.25
510.103	1283.25
510.319	1239.25
510.536	1237.25
510.752	1249.25
510.968	1248.25
511.184	1201.25
511.401	1212.25
511.617	1205.25
511.833	1185.25
512.049	1176.25
512.265	1206.25
512.481	1203.25
512.698	1214.25
512.914	1201.25
513.13	1209.25
513.346	1198.25
513.562	1189.25
513.778	1245.25
513.994	1232.25
514.21	1254.25
514.426	1333.25
514.642	1340.25
514.858	1300.25
515.074	1254.25
515.29	1210.25
515.506	1228.25
515.721	1214.25
515.937	1234.25
516.153	1237.25
516.369	1234.25
516.585	1278.25
516.801	1307.25
517.016	1318.25
517.232	1354.25
517.448	1342.25
517.664	1395.25
517.879	1388.25
518.095	1388.25
518.311	1403.25
518.527	1346.25
518.742	1342.25
518.958	1359.25
519.173	1393.25
519.389	1350.25
519.605	1292.25
519.82	1269.25
520.036	1255.25
520.251	1197.25
520.467	1229.25
520.682	1226.25
520.898	1213.25
521.113	1195.25
521.329	1219.25
521.544	1189.25
521.76	1196.25
521.975	1185.25
522.19	1205.25
522.406	1196.25
522.621	1175.25
522.836	1179.25
523.052	1175.25
523.267	1150.25
523.482	1169.25
523.698	1139.25
523.913	1161.25
524.128	1174.25
524.343	1174.25
524.559	1182.25
524.774	1186.25
524.989	1161.25
525.204	1172.25
525.419	1161.25
525.634	1124.25
525.849	1201.25
526.064	1179.25
526.28	1165.25
526.495	1143.25
526.71	1189.25
526.925	1135.25
527.14	1150.25
527.355	1158.25
527.57	1159.25
527.785	1177.25
527.999	1174.25
528.214	1194.25
528.429	1181.25
528.644	1230.25
528.859	1231.25
529.074	1229.25
529.289	1257.25
529.503	1265.25
529.718	1256.25
529.933	1226.25
530.148	1198.25
530.363	1255.25
530.577	1206.25
530.792	1239.25
531.007	1239.25
531.221	1242.25
531.436	1237.25
531.651	1283.25
531.865	1263.25
532.08	1270.25
532.295	1290.25
532.509	1413.25
532.724	1399.25
532.938	1399.25
533.153	1442.25
533.367	1531.25
533.582	1586.25
533.796	1533.25
534.011	1484.25
534.225	1438.25
534.44	1437.25
534.654	1381.25
534.868	1382.25
535.083	1354.25
535.297	1349.25
535.511	1329.25
535.726	1306.25
535.94	1287.25
536.154	1275.25
536.369	1244.25
536.583	1221.25
536.797	1209.25
537.011	1212.25
537.225	1168.25
537.44	1157.25
537.654	1209.25
537.868	1143.25
538.082	1181.25
538.296	1139.25
538.51	1151.25
538.724	1175.25
538.938	1153.25
539.153	1148.25
539.367	1145.25
539.581	1140.25
539.795	1132.25
540.009	1106.25
540.222	1113.25
540.436	1116.25
540.65	1134.25
540.864	1152.25
541.078	1190.25
541.292	1250.25
541.506	1455.25
541.72	1534.25
541.934	1323.25
542.147	1270.25
542.361	1213.25
542.575	1169.25
542.789	1110.25
543.002	1130.25
543.216	1066.25
543.43	1083.25
543.644	1093.25
543.857	1081.25
544.071	1141.25
544.285	1117.25
544.498	1111.25
544.712	1127.25
544.925	1115.25
545.139	1118.25
545.352	1148.25
545.566	1111.25
545.779	1179.25
545.993	1141.25
546.206	1137.25
546.42	1142.25
546.633	1141.25
546.847	1151.25
547.06	1139.25
547.274	1147.25
547.487	1154.25
547.7	1143.25
547.914	1155.25
548.127	1167.25
548.34	1150.25
548.554	1128.25
548.767	1161.25
548.98	1122.25
549.193	1140.25
549.407	1122.25
549.62	1125.25
549.833	1133.25
550.046	1141.25
550.259	1113.25
550.473	1120.25
550.686	1158.25
550.899	1157.25
551.112	1128.25
551.325	1123.25
551.538	1143.25
551.751	1110.25
551.964	1109.25
552.177	1128.25
552.39	1158.25
552.603	1201.25
552.816	1198.25
553.029	1181.25
553.242	1235.25
553.455	1238.25
553.667	1254.25
553.88	1221.25
554.093	1232.25
554.306	1254.25
554.519	1260.25
554.732	1275.25
554.944	1275.25
555.157	1305.25
555.37	1319.25
555.583	1349.25
555.795	1414.25
556.008	1483.25
556.221	1644.25
556.433	1677.25
556.646	1651.25
556.859	1646.25
557.071	1618.25
557.284	1581.25
557.496	1528.25
557.709	1491.25
557.921	1502.25
558.134	1502.25
558.346	1516.25
558.559	1547.25
558.771	1646.25
558.984	1734.25
559.196	1837.25
559.409	1768.25
559.621	1717.25
559.833	1575.25
560.046	1527.25
560.258	1428.25
560.47	1373.25
560.683	1379.25
560.895	1303.25
561.107	1270.25
561.32	1227.25
561.532	1225.25
561.744	1191.25
561.956	1186.25
562.168	1168.25
562.381	1135.25
562.593	1131.25
562.805	1154.25
563.017	1144.25
563.229	1157.25
563.441	1295.25
563.653	1122.25
563.865	1067.25
564.077	1039.25
564.289	1063.25
564.501	1053.25
564.713	1063.25
564.925	1022.25
565.137	1043.25
565.349	1046.25
565.561	1077.25
565.773	1057.25
565.985	1082.25
566.197	1061.25
566.408	1090.25
566.62	1126.25
566.832	1137.25
567.044	1146.25
567.255	1153.25
567.467	1157.25
567.679	1186.25
567.891	1258.25
568.102	1386.25
568.314	1607.25
568.526	1382.25
568.737	1205.25
568.949	1064.25
569.161	1011.25
569.372	979.25
569.584	943.25
569.795	974.25
570.007	945.25
570.218	942.25
570.43	962.25
570.641	911.25
570.853	883.25
571.064	870.25
571.276	882.25
571.487	858.25
571.698	851.25
571.91	837.25
572.121	805.25
572.333	840.25
572.544	833.25
572.755	895.25
572.966	1075.25
573.178	912.25
573.389	834.25
573.6	789.25
573.811	787.25
574.023	773.25
574.234	757.25
574.445	758.25
574.656	748.25
574.867	762.25
575.078	799.25
575.289	761.25
575.501	759.25
575.712	739.25
575.923	746.25
576.134	741.25
576.345	780.25
576.556	782.25
576.767	762.25
576.978	759.25
577.188	779.25
577.399	777.25
577.61	779.25
577.821	757.25
578.032	797.25
578.243	769.25
578.454	793.25
578.665	827.25
578.875	833.25
579.086	859.25
579.297	884.25
579.508	911.25
579.718	973.25
579.929	1093.25
580.14	1196.25
580.35	1247.25
580.561	1192.25
580.772	1077.25
580.982	1031.25
581.193	989.25
581.403	939.25
581.614	900.25
581.825	855.25
582.035	846.25
582.246	798.25
582.456	801.25
582.667	787.25
582.877	753.25
583.087	755.25
583.298	709.25
583.508	706.25
583.719	701.25
583.929	722.25
584.139	672.25
584.35	676.25
584.56	658.25
584.77	649.25
584.981	667.25
585.191	650.25
585.401	622.25
585.611	609.25
585.821	626.25
586.032	615.25
586.242	604.25
586.452	621.25
586.662	579.25
586.872	585.25
587.082	581.25
587.292	575.25
587.502	579.25
587.713	592.25
587.923	574.25
588.133	555.25
588.343	572.25
588.553	563.25
588.762	566.25
588.972	556.25
589.182	555.25
589.392	563.25
589.602	561.25
589.812	577.25
590.022	563.25
590.232	538.25
590.441	541.25
590.651	548.25
590.861	557.25
591.071	553.25
591.281	526.25
591.49	561.25
591.7	539.25
591.91	549.25
592.119	541.25
592.329	550.25
592.539	541.25
592.748	579.25
592.958	569.25
593.167	575.25
593.377	591.25
593.587	581.25
593.796	571.25
594.006	573.25
594.215	589.25
594.424	560.25
594.634	560.25
594.843	550.25
595.053	566.25
595.262	528.25
595.472	535.25
595.681	524.25
595.89	545.25
596.1	489.25
596.309	499.25
596.518	502.25
596.727	506.25
596.937	493.25
597.146	485.25
597.355	486.25
597.564	464.25
597.774	483.25
597.983	487.25
598.192	435.25
598.401	468.25
598.61	467.25
598.819	477.25
599.028	461.25
599.237	445.25
599.446	471.25
599.655	448.25
599.864	449.25
600.073	448.25
600.282	438.25
600.491	444.25
600.7	451.25
600.909	442.25
601.118	435.25
601.327	460.25
601.536	444.25
601.745	442.25
601.953	506.25
602.162	554.25
602.371	494.25
602.58	487.25
602.789	454.25
602.997	428.25
603.206	454.25
603.415	445.25
603.623	465.25
603.832	452.25
604.041	425.25
604.249	420.25
604.458	429.25
604.666	399.25
604.875	406.25
605.084	422.25
605.292	433.25
605.501	435.25
605.709	452.25
605.918	451.25
606.126	441.25
606.334	455.25
606.543	447.25
606.751	463.25
606.96	506.25
607.168	586.25
607.376	518.25
607.585	457.25
607.793	445.25
608.001	450.25
608.21	423.25
608.418	434.25
608.626	442.25
608.834	415.25
609.043	427.25
609.251	433.25
609.459	411.25
609.667	426.25
609.875	443.25
610.083	403.25
610.291	405.25
610.499	418.25
610.707	434.25
610.916	434.25
611.124	412.25
611.332	403.25
611.54	422.25
611.748	410.25
611.955	398.25
612.163	407.25
612.371	422.25
612.579	405.25
612.787	427.25
612.995	387.25
613.203	403.25
613.411	397.25
613.618	398.25
613.826	397.25
614.034	420.25
614.242	403.25
614.449	403.25
614.657	387.25
614.865	386.25
615.072	389.25
615.28	419.25
615.488	411.25
615.695	396.25
615.903	379.25
616.111	389.25
616.318	402.25
616.526	407.25
616.733	383.25
616.941	384.25
617.148	379.25
617.356	397.25
617.563	390.25
617.771	381.25
617.978	380.25
618.185	390.25
618.393	375.25
618.6	387.25
618.807	375.25
619.015	376.25
619.222	381.25
619.429	383.25
619.637	378.25
619.844	383.25
620.051	351.25
620.258	358.25
620.466	360.25
620.673	360.25
620.88	361.25
621.087	360.25
621.294	353.25
621.501	348.25
621.708	355.25
621.915	345.25
622.122	361.25
622.329	346.25
622.536	365.25
622.743	370.25
622.95	355.25
623.157	350.25
623.364	350.25
623.571	358.25
623.778	349.25
623.985	351.25
624.192	343.25
624.399	343.25
624.606	366.25
624.812	331.25
625.019	344.25
625.226	336.25
625.433	318.25
625.639	345.25
625.846	321.25
626.053	319.25
626.259	334.25
626.466	319.25
626.673	311.25
626.879	306.25
627.086	306.25
627.293	341.25
627.499	320.25
627.706	320.25
627.912	331.25
628.119	323.25
628.325	311.25
628.532	323.25
628.738	323.25
628.945	334.25
629.151	335.25
629.357	318.25
629.564	296.25
629.77	321.25
629.976	309.25
630.183	316.25
630.389	325.25
630.595	311.25
630.802	311.25
631.008	329.25
631.214	305.25
631.42	305.25
631.627	327.25
631.833	307.25
632.039	292.25
632.245	312.25
632.451	301.25
632.657	292.25
632.863	296.25
633.069	301.25
633.275	312.25
633.481	298.25
633.688	293.25
633.893	311.25
634.099	306.25
634.305	302.25
634.511	309.25
634.717	303.25
634.923	305.25
635.129	327.25
635.335	377.25
635.541	350.25
635.747	338.25
635.952	324.25
636.158	303.25
636.364	317.25
636.57	298.25
636.775	305.25
636.981	307.25
637.187	300.25
637.392	331.25
637.598	289.25
637.804	300.25
638.009	298.25
638.215	315.25
638.421	325.25
638.626	308.25
638.832	292.25
639.037	299.25
639.243	326.25
639.448	308.25
639.654	307.25
639.859	319.25
640.065	315.25
640.27	308.25
640.475	318.25
640.681	300.25
640.886	301.25
641.091	316.25
641.297	311.25
641.502	323.25
641.707	332.25
641.913	331.25
642.118	339.25
642.323	323.25
642.528	333.25
642.733	348.25
642.939	343.25
643.144	366.25
643.349	381.25
643.554	389.25
643.759	400.25
643.964	395.25
644.169	407.25
644.374	445.25
644.579	479.25
644.784	523.25
644.989	565.25
645.194	637.25
645.399	730.25
645.604	787.25
645.809	607.25
646.014	501.25
646.219	431.25
646.423	405.25
646.628	375.25
646.833	349.25
647.038	337.25
647.243	335.25
647.447	327.25
647.652	316.25
647.857	321.25
648.062	296.25
648.266	284.25
648.471	298.25
648.676	287.25
648.88	298.25
649.085	267.25
649.289	286.25
649.494	271.25
649.698	276.25
649.903	269.25
650.107	263.25
650.312	262.25
650.516	244.25
650.721	257.25
650.925	263.25
651.13	262.25
651.334	250.25
651.539	247.25
651.743	229.25
651.947	232.25
652.152	235.25
652.356	225.25
652.56	244.25
652.764	260.25
652.969	236.25
653.173	232.25
653.377	222.25
653.581	241.25
653.785	216.25
653.99	207.25
654.194	203.25
654.398	219.25
654.602	209.25
654.806	214.25
655.01	213.25
655.214	209.25
655.418	198.25
655.622	190.25
655.826	187.25
656.03	200.25
656.234	222.25
656.438	223.25
656.642	230.25
656.846	218.25
657.049	217.25
657.253	198.25
657.457	167.25
657.661	178.25
657.865	173.25
658.068	153.25
658.272	164.25
658.476	149.25
658.68	151.25
658.883	138.25
659.087	143.25
659.291	130.25
659.494	141.25
659.698	136.25
659.901	127.25
660.105	117.25
660.309	125.25
660.512	127.25
660.716	127.25
660.919	117.25
661.123	105.25
661.326	106.25
661.53	102.25
661.733	111.25
661.936	102.25
662.14	96.25
662.343	99.25
662.546	87.25
662.75	89.25
662.953	102.25
663.156	92.25
663.36	77.25
663.563	74.25
663.766	91.25
663.969	93.25
664.173	87.25
664.376	97.25
664.579	85.25
664.782	82.25
664.985	85.25
665.188	83.25
665.391	74.25
665.594	95.25
665.797	72.25
666	88.25
666.203	86.25
666.406	74.25
666.609	95.25
666.812	74.25
667.015	84.25
667.218	86.25
667.421	90.25
667.624	83.25
667.827	82.25
668.03	87.25
668.232	86.25
668.435	97.25
668.638	78.25
668.841	93.25
669.043	83.25
669.246	89.25
669.449	88.25
669.651	92.25
669.854	94.25
670.057	91.25
670.259	73.25
670.462	75.25
670.665	89.25
670.867	92.25
671.07	96.25
671.272	79.25
671.475	92.25
671.677	89.25
671.88	80.25
672.082	81.25
672.284	94.25
672.487	105.25
672.689	80.25
672.892	90.25
