Data from SnStandardFlinnAPT0064_LampEnergy10_LIBS07252019.E.O._I.C._HRD10591_15-22-13-494.txt Node
Date: Thu Jul 25 15:22:13 EDT 2019
User: cochatt
Spectrometer: HR+D1059
Trigger mode: 1
Integration Time (sec): 1.000000E-1
Scans to average: 1
Electric dark correction enabled: true
Nonlinearity correction enabled: false
Boxcar width: 0
XAxis mode: Wavelengths
Number of Pixels in Spectrum: 2048
>>>>>Begin Spectral Data<<<<<
223.165	-19.31
223.4	-19.31
223.635	-19.31
223.869	-24.31
224.104	-18.31
224.338	-13.31
224.573	-8.31
224.808	-14.31
225.042	-5.31
225.277	-4.31
225.511	-9.31
225.746	-2.31
225.98	15.69
226.215	15.69
226.449	14.69
226.683	31.69
226.918	12.69
227.152	28.69
227.387	36.69
227.621	39.69
227.856	54.69
228.09	48.69
228.324	41.69
228.559	37.69
228.793	117.69
229.027	322.69
229.262	340.69
229.496	299.69
229.73	278.69
229.964	280.69
230.199	296.69
230.433	301.69
230.667	316.69
230.901	330.69
231.136	335.69
231.37	344.69
231.604	361.69
231.838	454.69
232.072	535.69
232.306	592.69
232.541	472.69
232.775	422.69
233.009	387.69
233.243	427.69
233.477	434.69
233.711	512.69
233.945	593.69
234.179	513.69
234.413	473.69
234.647	428.69
234.881	455.69
235.115	523.69
235.349	624.69
235.583	757.69
235.817	1016.69
236.051	1009.69
236.285	652.69
236.519	547.69
236.753	495.69
236.987	496.69
237.221	521.69
237.455	511.69
237.689	468.69
237.922	467.69
238.156	484.69
238.39	493.69
238.624	516.69
238.858	491.69
239.091	478.69
239.325	470.69
239.559	506.69
239.793	502.69
240.027	502.69
240.26	553.69
240.494	547.69
240.728	556.69
240.961	599.69
241.195	661.69
241.429	659.69
241.662	681.69
241.896	754.69
242.13	932.69
242.363	1268.69
242.597	1652.69
242.83	1529.69
243.064	1525.69
243.298	1848.69
243.531	1504.69
243.765	936.69
243.998	760.69
244.232	701.69
244.465	680.69
244.699	639.69
244.932	644.69
245.166	654.69
245.399	669.69
245.633	657.69
245.866	649.69
246.099	647.69
246.333	647.69
246.566	633.69
246.8	640.69
247.033	620.69
247.266	630.69
247.5	641.69
247.733	663.69
247.966	699.69
248.2	785.69
248.433	853.69
248.666	984.69
248.899	974.69
249.133	841.69
249.366	883.69
249.599	919.69
249.832	1084.69
250.066	1061.69
250.299	857.69
250.532	769.69
250.765	733.69
250.998	739.69
251.231	723.69
251.465	722.69
251.698	738.69
251.931	738.69
252.164	731.69
252.397	775.69
252.63	791.69
252.863	811.69
253.096	780.69
253.329	748.69
253.562	780.69
253.795	778.69
254.028	802.69
254.261	817.69
254.494	871.69
254.727	1059.69
254.96	1253.69
255.193	1225.69
255.426	936.69
255.659	879.69
255.892	856.69
256.124	862.69
256.357	879.69
256.59	888.69
256.823	943.69
257.056	1120.69
257.289	1352.69
257.521	1479.69
257.754	1189.69
257.987	975.69
258.22	915.69
258.452	904.69
258.685	943.69
258.918	952.69
259.151	953.69
259.383	1062.69
259.616	1242.69
259.849	1305.69
260.081	1106.69
260.314	979.69
260.547	959.69
260.779	917.69
261.012	924.69
261.244	954.69
261.477	968.69
261.71	979.69
261.942	988.69
262.175	997.69
262.407	1052.69
262.64	1052.69
262.872	1083.69
263.105	1148.69
263.337	1193.69
263.57	1238.69
263.802	1267.69
264.035	1318.69
264.267	1351.69
264.499	1405.69
264.732	1395.69
264.964	1458.69
265.197	1415.69
265.429	1444.69
265.661	1467.69
265.894	1599.69
266.126	1731.69
266.358	1952.69
266.591	1918.69
266.823	1613.69
267.055	1439.69
267.287	1381.69
267.52	1351.69
267.752	1287.69
267.984	1272.69
268.216	1244.69
268.448	1237.69
268.681	1264.69
268.913	1210.69
269.145	1196.69
269.377	1232.69
269.609	1220.69
269.841	1279.69
270.073	1356.69
270.306	1611.69
270.538	2167.69
270.77	3238.69
271.002	3957.69
271.234	2732.69
271.466	1862.69
271.698	1498.69
271.93	1380.69
272.162	1292.69
272.394	1228.69
272.626	1233.69
272.858	1265.69
273.09	1195.69
273.322	1199.69
273.553	1194.69
273.785	1195.69
274.017	1178.69
274.249	1194.69
274.481	1204.69
274.713	1191.69
274.945	1196.69
275.176	1217.69
275.408	1232.69
275.64	1203.69
275.872	1238.69
276.104	1235.69
276.335	1226.69
276.567	1271.69
276.799	1245.69
277.031	1264.69
277.262	1307.69
277.494	1386.69
277.726	1565.69
277.957	1850.69
278.189	2123.69
278.421	1975.69
278.652	1744.69
278.884	1666.69
279.115	1527.69
279.347	1405.69
279.579	1402.69
279.81	1363.69
280.042	1389.69
280.273	1381.69
280.505	1435.69
280.736	1521.69
280.968	1557.69
281.199	1747.69
281.431	2034.69
281.662	2076.69
281.894	1777.69
282.125	1568.69
282.356	1615.69
282.588	1639.69
282.819	1701.69
283.051	1775.69
283.282	1978.69
283.513	2451.69
283.745	3643.69
283.976	5811.69
284.207	8300.69
284.439	7398.69
284.67	4476.69
284.901	3761.69
285.132	3717.69
285.364	3590.69
285.595	2715.69
285.826	2427.69
286.057	2804.69
286.288	3932.69
286.52	5321.69
286.751	4899.69
286.982	3011.69
287.213	2211.69
287.444	1979.69
287.675	1857.69
287.906	1767.69
288.138	1708.69
288.369	1679.69
288.6	1631.69
288.831	1675.69
289.062	1656.69
289.293	1658.69
289.524	1660.69
289.755	1652.69
289.986	1664.69
290.217	1715.69
290.448	1713.69
290.679	1696.69
290.91	1713.69
291.141	1851.69
291.371	2014.69
291.602	2124.69
291.833	1892.69
292.064	1751.69
292.295	1686.69
292.526	1650.69
292.757	1588.69
292.987	1612.69
293.218	1583.69
293.449	1592.69
293.68	1563.69
293.91	1549.69
294.141	1562.69
294.372	1561.69
294.603	1564.69
294.833	1556.69
295.064	1557.69
295.295	1584.69
295.525	1567.69
295.756	1529.69
295.987	1530.69
296.217	1558.69
296.448	1559.69
296.679	1583.69
296.909	1538.69
297.14	1569.69
297.37	1605.69
297.601	1623.69
297.831	1647.69
298.062	1611.69
298.292	1597.69
298.523	1661.69
298.753	1675.69
298.984	1681.69
299.214	1717.69
299.445	1769.69
299.675	1763.69
299.905	1795.69
300.136	1874.69
300.366	2155.69
300.597	2723.69
300.827	3819.69
301.057	5320.69
301.288	5339.69
301.518	3313.69
301.748	2543.69
301.979	2320.69
302.209	2240.69
302.439	2282.69
302.669	2426.69
302.9	2936.69
303.13	4246.69
303.36	6311.69
303.59	8476.69
303.82	7200.69
304.051	4160.69
304.281	2979.69
304.511	2505.69
304.741	2277.69
304.971	2161.69
305.201	2105.69
305.431	2006.69
305.661	1936.69
305.891	1873.69
306.121	1858.69
306.352	1838.69
306.582	1804.69
306.812	1797.69
307.042	1866.69
307.272	1817.69
307.502	1804.69
307.731	1844.69
307.961	1834.69
308.191	1833.69
308.421	1755.69
308.651	1804.69
308.881	1779.69
309.111	1801.69
309.341	1783.69
309.571	1847.69
309.8	1836.69
310.03	1854.69
310.26	1856.69
310.49	1824.69
310.72	1859.69
310.949	1824.69
311.179	1855.69
311.409	1895.69
311.639	1880.69
311.868	1916.69
312.098	1864.69
312.328	1918.69
312.557	1967.69
312.787	1934.69
313.017	1958.69
313.246	2001.69
313.476	2007.69
313.706	2091.69
313.935	2172.69
314.165	2299.69
314.394	2455.69
314.624	2343.69
314.853	2166.69
315.083	2132.69
315.312	2170.69
315.542	2195.69
315.771	2181.69
316.001	2201.69
316.23	2333.69
316.46	2446.69
316.689	2691.69
316.919	3201.69
317.148	4689.69
317.377	7335.69
317.607	10760.69
317.836	11057.69
318.065	6535.69
318.295	4152.69
318.524	3377.69
318.753	2927.69
318.983	2696.69
319.212	2575.69
319.441	2467.69
319.67	2438.69
319.9	2375.69
320.129	2337.69
320.358	2337.69
320.587	2323.69
320.816	2321.69
321.046	2326.69
321.275	2339.69
321.504	2328.69
321.733	2377.69
321.962	2486.69
322.191	2532.69
322.42	2521.69
322.649	2489.69
322.878	2443.69
323.108	2457.69
323.337	2521.69
323.566	2559.69
323.795	2602.69
324.024	2618.69
324.253	2695.69
324.482	2805.69
324.71	2992.69
324.939	3146.69
325.168	3212.69
325.397	3340.69
325.626	4003.69
325.855	5661.69
326.084	8917.69
326.313	12969.69
326.542	13580.69
326.77	8994.69
326.999	5771.69
327.228	4895.69
327.457	4694.69
327.686	4749.69
327.914	5039.69
328.143	5909.69
328.372	7079.69
328.6	7699.69
328.829	6812.69
329.058	5620.69
329.287	5011.69
329.515	4545.69
329.744	4206.69
329.972	4005.69
330.201	3812.69
330.43	3723.69
330.658	3597.69
330.887	3463.69
331.115	3473.69
331.344	3536.69
331.572	3419.69
331.801	3467.69
332.03	3479.69
332.258	3536.69
332.486	3690.69
332.715	4286.69
332.943	5321.69
333.172	6630.69
333.4	6673.69
333.629	4956.69
333.857	4452.69
334.085	4384.69
334.314	4647.69
334.542	5011.69
334.771	5937.69
334.999	7237.69
335.227	9223.69
335.455	10291.69
335.684	9137.69
335.912	7465.69
336.14	6311.69
336.369	5593.69
336.597	5139.69
336.825	4697.69
337.053	4484.69
337.281	4249.69
337.51	3987.69
337.738	3834.69
337.966	3664.69
338.194	3543.69
338.422	3435.69
338.65	3345.69
338.878	3290.69
339.106	3214.69
339.334	3183.69
339.562	3130.69
339.79	3058.69
340.018	3031.69
340.246	3035.69
340.474	3050.69
340.702	3008.69
340.93	2975.69
341.158	2986.69
341.386	2948.69
341.614	2951.69
341.842	2911.69
342.07	2814.69
342.298	2868.69
342.526	2755.69
342.754	2748.69
342.981	2686.69
343.209	2716.69
343.437	2728.69
343.665	2815.69
343.893	2775.69
344.12	2799.69
344.348	2744.69
344.576	2744.69
344.804	2681.69
345.031	2607.69
345.259	2596.69
345.487	2549.69
345.714	2560.69
345.942	2522.69
346.17	2505.69
346.397	2530.69
346.625	2561.69
346.853	2513.69
347.08	2499.69
347.308	2490.69
347.535	2492.69
347.763	2507.69
347.99	2454.69
348.218	2495.69
348.445	2402.69
348.673	2465.69
348.9	2508.69
349.128	2427.69
349.355	2427.69
349.583	2423.69
349.81	2433.69
350.037	2419.69
350.265	2382.69
350.492	2387.69
350.72	2344.69
350.947	2380.69
351.174	2403.69
351.402	2351.69
351.629	2361.69
351.856	2359.69
352.083	2336.69
352.311	2415.69
352.538	2373.69
352.765	2370.69
352.992	2275.69
353.22	2396.69
353.447	2357.69
353.674	2371.69
353.901	2388.69
354.128	2456.69
354.355	2356.69
354.583	2360.69
354.81	2361.69
355.037	2426.69
355.264	2421.69
355.491	2422.69
355.718	2396.69
355.945	2463.69
356.172	2455.69
356.399	2426.69
356.626	2477.69
356.853	2487.69
357.08	2457.69
357.307	2532.69
357.534	2563.69
357.761	2545.69
357.988	2597.69
358.215	2543.69
358.441	2565.69
358.668	2564.69
358.895	2543.69
359.122	2527.69
359.349	2505.69
359.576	2506.69
359.802	2559.69
360.029	2483.69
360.256	2563.69
360.483	2573.69
360.709	2508.69
360.936	2536.69
361.163	2499.69
361.39	2550.69
361.616	2545.69
361.843	2524.69
362.07	2586.69
362.296	2545.69
362.523	2507.69
362.749	2552.69
362.976	2520.69
363.203	2525.69
363.429	2497.69
363.656	2528.69
363.882	2503.69
364.109	2498.69
364.335	2503.69
364.562	2494.69
364.788	2521.69
365.015	2565.69
365.241	2655.69
365.468	2764.69
365.694	2920.69
365.92	2836.69
366.147	2614.69
366.373	2531.69
366.599	2617.69
366.826	2592.69
367.052	2586.69
367.278	2615.69
367.505	2636.69
367.731	2572.69
367.957	2558.69
368.184	2621.69
368.41	2647.69
368.636	2648.69
368.862	2645.69
369.089	2608.69
369.315	2597.69
369.541	2595.69
369.767	2630.69
369.993	2638.69
370.219	2649.69
370.445	2599.69
370.672	2645.69
370.898	2647.69
371.124	2599.69
371.35	2680.69
371.576	2671.69
371.802	2728.69
372.028	2779.69
372.254	2758.69
372.48	2776.69
372.706	2752.69
372.932	2811.69
373.158	2788.69
373.384	2783.69
373.61	2717.69
373.835	2773.69
374.061	2783.69
374.287	2829.69
374.513	2832.69
374.739	2897.69
374.965	2863.69
375.191	2908.69
375.416	2884.69
375.642	2820.69
375.868	2855.69
376.094	2800.69
376.319	2780.69
376.545	2776.69
376.771	2740.69
376.997	2758.69
377.222	2762.69
377.448	2696.69
377.674	2723.69
377.899	2723.69
378.125	2702.69
378.35	2685.69
378.576	2739.69
378.802	2764.69
379.027	2780.69
379.253	2865.69
379.478	3084.69
379.704	3632.69
379.929	5217.69
380.155	8080.69
380.38	8712.69
380.606	5198.69
380.831	3622.69
381.057	3206.69
381.282	2945.69
381.507	2814.69
381.733	2754.69
381.958	2672.69
382.184	2713.69
382.409	2692.69
382.634	2664.69
382.86	2660.69
383.085	2613.69
383.31	2666.69
383.535	2727.69
383.761	2673.69
383.986	2698.69
384.211	2708.69
384.436	2737.69
384.662	2754.69
384.887	2808.69
385.112	2754.69
385.337	2769.69
385.562	2742.69
385.787	2762.69
386.013	2793.69
386.238	2755.69
386.463	2757.69
386.688	2753.69
386.913	2711.69
387.138	2770.69
387.363	2765.69
387.588	2745.69
387.813	2762.69
388.038	2754.69
388.263	2731.69
388.488	2786.69
388.713	2768.69
388.938	2818.69
389.163	2717.69
389.387	2791.69
389.612	2744.69
389.837	2707.69
390.062	2784.69
390.287	2793.69
390.512	2768.69
390.736	2831.69
390.961	2881.69
391.186	2807.69
391.411	2937.69
391.636	2886.69
391.86	2890.69
392.085	2947.69
392.31	2908.69
392.534	2886.69
392.759	2851.69
392.984	2827.69
393.208	2831.69
393.433	2847.69
393.658	2847.69
393.882	2818.69
394.107	2761.69
394.331	2805.69
394.556	2774.69
394.78	2819.69
395.005	2801.69
395.229	2769.69
395.454	2839.69
395.678	2861.69
395.903	2871.69
396.127	2872.69
396.352	2846.69
396.576	2846.69
396.801	2871.69
397.025	2908.69
397.249	2884.69
397.474	2905.69
397.698	2884.69
397.922	2958.69
398.147	2887.69
398.371	2965.69
398.595	3024.69
398.82	3090.69
399.044	3198.69
399.268	3296.69
399.492	3554.69
399.717	3661.69
399.941	3636.69
400.165	3564.69
400.389	3403.69
400.613	3223.69
400.837	3176.69
401.062	3096.69
401.286	3103.69
401.51	3046.69
401.734	3007.69
401.958	3050.69
402.182	3058.69
402.406	3012.69
402.63	3076.69
402.854	3064.69
403.078	3048.69
403.302	3116.69
403.526	3160.69
403.75	3167.69
403.974	3164.69
404.198	3121.69
404.422	3149.69
404.645	3137.69
404.869	3114.69
405.093	3213.69
405.317	3212.69
405.541	3225.69
405.765	3256.69
405.988	3304.69
406.212	3240.69
406.436	3256.69
406.66	3279.69
406.883	3305.69
407.107	3347.69
407.331	3397.69
407.555	3448.69
407.778	3403.69
408.002	3385.69
408.226	3386.69
408.449	3386.69
408.673	3301.69
408.896	3229.69
409.12	3217.69
409.344	3202.69
409.567	3135.69
409.791	3195.69
410.014	3136.69
410.238	3138.69
410.461	3203.69
410.685	3088.69
410.908	3073.69
411.132	3068.69
411.355	3044.69
411.578	3046.69
411.802	3006.69
412.025	3037.69
412.249	3018.69
412.472	3042.69
412.695	3026.69
412.919	2980.69
413.142	2976.69
413.365	2996.69
413.589	3029.69
413.812	3024.69
414.035	2988.69
414.258	2993.69
414.482	2996.69
414.705	3010.69
414.928	2940.69
415.151	2943.69
415.374	2946.69
415.597	2923.69
415.821	2863.69
416.044	2842.69
416.267	2888.69
416.49	2918.69
416.713	2853.69
416.936	2828.69
417.159	2826.69
417.382	2848.69
417.605	2795.69
417.828	2850.69
418.051	2895.69
418.274	2896.69
418.497	2847.69
418.72	2981.69
418.943	2887.69
419.166	2989.69
419.389	3185.69
419.611	3150.69
419.834	3037.69
420.057	3040.69
420.28	2923.69
420.503	2845.69
420.726	2809.69
420.948	2805.69
421.171	2826.69
421.394	2894.69
421.617	2856.69
421.839	2875.69
422.062	2918.69
422.285	2879.69
422.507	2888.69
422.73	2955.69
422.953	2949.69
423.175	2984.69
423.398	2955.69
423.621	2906.69
423.843	2906.69
424.066	2881.69
424.288	2863.69
424.511	2855.69
424.733	2805.69
424.956	2791.69
425.178	2826.69
425.401	2809.69
425.623	2801.69
425.846	2729.69
426.068	2716.69
426.291	2786.69
426.513	2750.69
426.735	2719.69
426.958	2751.69
427.18	2728.69
427.402	2713.69
427.625	2723.69
427.847	2680.69
428.069	2653.69
428.292	2683.69
428.514	2630.69
428.736	2587.69
428.958	2687.69
429.181	2614.69
429.403	2603.69
429.625	2574.69
429.847	2626.69
430.069	2709.69
430.292	2729.69
430.514	2816.69
430.736	2865.69
430.958	2699.69
431.18	2607.69
431.402	2628.69
431.624	2635.69
431.846	2601.69
432.068	2589.69
432.29	2607.69
432.512	2605.69
432.734	2620.69
432.956	2642.69
433.178	2637.69
433.4	2654.69
433.622	2672.69
433.844	2643.69
434.066	2635.69
434.287	2601.69
434.509	2707.69
434.731	2689.69
434.953	2712.69
435.175	2765.69
435.397	2756.69
435.618	2648.69
435.84	2643.69
436.062	2578.69
436.284	2580.69
436.505	2624.69
436.727	2630.69
436.949	2604.69
437.17	2579.69
437.392	2553.69
437.614	2577.69
437.835	2525.69
438.057	2508.69
438.278	2496.69
438.5	2509.69
438.721	2566.69
438.943	2655.69
439.165	2724.69
439.386	2746.69
439.608	2719.69
439.829	2680.69
440.05	2819.69
440.272	2844.69
440.493	2757.69
440.715	2669.69
440.936	2739.69
441.158	2733.69
441.379	2804.69
441.6	2876.69
441.822	2924.69
442.043	3091.69
442.264	3209.69
442.486	3000.69
442.707	2865.69
442.928	2781.69
443.149	2776.69
443.371	2746.69
443.592	2808.69
443.813	2802.69
444.034	2813.69
444.255	2823.69
444.476	2913.69
444.698	2973.69
444.919	2993.69
445.14	3100.69
445.361	2909.69
445.582	2869.69
445.803	2794.69
446.024	2774.69
446.245	2772.69
446.466	2792.69
446.687	2767.69
446.908	2775.69
447.129	2666.69
447.35	2671.69
447.571	2677.69
447.792	2614.69
448.013	2540.69
448.234	2578.69
448.455	2564.69
448.675	2611.69
448.896	2681.69
449.117	2724.69
449.338	3020.69
449.559	3123.69
449.779	2779.69
450	2585.69
450.221	2538.69
450.442	2557.69
450.662	2574.69
450.883	2487.69
451.104	2517.69
451.324	2492.69
451.545	2505.69
451.766	2544.69
451.986	2588.69
452.207	2809.69
452.428	3583.69
452.648	5481.69
452.869	4527.69
453.089	3125.69
453.31	2910.69
453.53	2917.69
453.751	3044.69
453.971	3216.69
454.192	3147.69
454.412	2700.69
454.633	2533.69
454.853	2479.69
455.073	2465.69
455.294	2492.69
455.514	2426.69
455.734	2443.69
455.955	2388.69
456.175	2400.69
456.395	2409.69
456.616	2450.69
456.836	2451.69
457.056	2441.69
457.276	2458.69
457.497	2620.69
457.717	2667.69
457.937	2548.69
458.157	2530.69
458.377	2561.69
458.598	2547.69
458.818	2610.69
459.038	2628.69
459.258	2590.69
459.478	2623.69
459.698	2671.69
459.918	2708.69
460.138	2699.69
460.358	2755.69
460.578	2812.69
460.798	2838.69
461.018	2915.69
461.238	2823.69
461.458	2897.69
461.678	2885.69
461.898	2966.69
462.118	2953.69
462.338	3015.69
462.558	3069.69
462.777	3115.69
462.997	3246.69
463.217	3364.69
463.437	3546.69
463.657	3599.69
463.876	3663.69
464.096	3378.69
464.316	3168.69
464.536	3148.69
464.755	3086.69
464.975	3020.69
465.195	2940.69
465.414	2767.69
465.634	2786.69
465.854	2719.69
466.073	2668.69
466.293	2677.69
466.512	2657.69
466.732	2701.69
466.951	2839.69
467.171	2984.69
467.391	2966.69
467.61	2745.69
467.829	2648.69
468.049	2607.69
468.268	2567.69
468.488	2541.69
468.707	2588.69
468.927	2522.69
469.146	2536.69
469.365	2596.69
469.585	2615.69
469.804	2704.69
470.023	2705.69
470.243	2770.69
470.462	2879.69
470.681	2979.69
470.901	3311.69
471.12	3820.69
471.339	3819.69
471.558	3174.69
471.777	2845.69
471.997	2765.69
472.216	2691.69
472.435	2633.69
472.654	2625.69
472.873	2535.69
473.092	2586.69
473.311	2584.69
473.53	2562.69
473.749	2708.69
473.968	2758.69
474.187	2601.69
474.406	2581.69
474.625	2592.69
474.844	2605.69
475.063	2603.69
475.282	2574.69
475.501	2599.69
475.72	2636.69
475.939	2617.69
476.158	2676.69
476.377	2727.69
476.596	2749.69
476.814	2745.69
477.033	2713.69
477.252	2773.69
477.471	2773.69
477.69	2848.69
477.908	2879.69
478.127	2941.69
478.346	2939.69
478.564	2992.69
478.783	2968.69
479.002	3120.69
479.22	3079.69
479.439	3107.69
479.658	3112.69
479.876	3144.69
480.095	3133.69
480.313	3165.69
480.532	3190.69
480.751	3203.69
480.969	3148.69
481.188	3137.69
481.406	3113.69
481.624	3099.69
481.843	3155.69
482.061	3166.69
482.28	3131.69
482.498	3106.69
482.717	3120.69
482.935	3175.69
483.153	3242.69
483.372	3210.69
483.59	3277.69
483.808	3336.69
484.027	3367.69
484.245	3663.69
484.463	4060.69
484.681	4595.69
484.9	4083.69
485.118	3852.69
485.336	3719.69
485.554	3714.69
485.772	4031.69
485.99	4587.69
486.209	4978.69
486.427	4151.69
486.645	3715.69
486.863	3537.69
487.081	3400.69
487.299	3358.69
487.517	3303.69
487.735	3336.69
487.953	3366.69
488.171	3333.69
488.389	3317.69
488.607	3275.69
488.825	3294.69
489.043	3237.69
489.261	3194.69
489.479	3274.69
489.696	3251.69
489.914	3213.69
490.132	3261.69
490.35	3253.69
490.568	3285.69
490.786	3254.69
491.003	3351.69
491.221	3350.69
491.439	3409.69
491.657	3354.69
491.874	3367.69
492.092	3352.69
492.31	3362.69
492.527	3352.69
492.745	3377.69
492.963	3388.69
493.18	3393.69
493.398	3288.69
493.615	3404.69
493.833	3369.69
494.05	3379.69
494.268	3475.69
494.485	3396.69
494.703	3377.69
494.92	3417.69
495.138	3382.69
495.355	3431.69
495.573	3421.69
495.79	3453.69
496.008	3439.69
496.225	3494.69
496.442	3511.69
496.66	3646.69
496.877	3845.69
497.094	3799.69
497.312	3685.69
497.529	3652.69
497.746	3677.69
497.963	3755.69
498.181	3916.69
498.398	3960.69
498.615	4162.69
498.832	4219.69
499.049	4400.69
499.267	4821.69
499.484	5053.69
499.701	5010.69
499.918	5222.69
500.135	5411.69
500.352	5643.69
500.569	5726.69
500.786	5695.69
501.003	5504.69
501.22	5265.69
501.437	4973.69
501.654	4727.69
501.871	4515.69
502.088	4359.69
502.305	4180.69
502.522	4089.69
502.739	4027.69
502.956	3860.69
503.172	3785.69
503.389	3695.69
503.606	3679.69
503.823	3601.69
504.04	3590.69
504.256	3570.69
504.473	3563.69
504.69	3583.69
504.907	3514.69
505.123	3430.69
505.34	3315.69
505.557	3275.69
505.773	3234.69
505.99	3193.69
506.207	3164.69
506.423	3167.69
506.64	3083.69
506.856	3073.69
507.073	3077.69
507.289	3038.69
507.506	3050.69
507.722	3030.69
507.939	2923.69
508.155	2924.69
508.372	2993.69
508.588	2920.69
508.805	2959.69
509.021	2977.69
509.238	3027.69
509.454	3159.69
509.67	3366.69
509.887	3094.69
510.103	3043.69
510.319	2946.69
510.536	2944.69
510.752	2916.69
510.968	2885.69
511.184	2854.69
511.401	2871.69
511.617	2838.69
511.833	2868.69
512.049	2825.69
512.265	2801.69
512.481	2806.69
512.698	2796.69
512.914	2804.69
513.13	2817.69
513.346	2841.69
513.562	2824.69
513.778	2826.69
513.994	2879.69
514.21	2953.69
514.426	3153.69
514.642	3302.69
514.858	3025.69
515.074	2911.69
515.29	2946.69
515.506	2883.69
515.721	2899.69
515.937	2897.69
516.153	2863.69
516.369	2970.69
516.585	2971.69
516.801	2987.69
517.016	3054.69
517.232	3098.69
517.448	3196.69
517.664	3196.69
517.879	3202.69
518.095	3235.69
518.311	3211.69
518.527	3150.69
518.742	3157.69
518.958	3157.69
519.173	3251.69
519.389	3141.69
519.605	2964.69
519.82	2963.69
520.036	2899.69
520.251	2839.69
520.467	2854.69
520.682	2834.69
520.898	2805.69
521.113	2776.69
521.329	2754.69
521.544	2726.69
521.76	2776.69
521.975	2796.69
522.19	2747.69
522.406	2721.69
522.621	2742.69
522.836	2779.69
523.052	2748.69
523.267	2723.69
523.482	2707.69
523.698	2689.69
523.913	2701.69
524.128	2690.69
524.343	2675.69
524.559	2708.69
524.774	2684.69
524.989	2684.69
525.204	2725.69
525.419	2651.69
525.634	2666.69
525.849	2685.69
526.064	2678.69
526.28	2677.69
526.495	2707.69
526.71	2730.69
526.925	2724.69
527.14	2646.69
527.355	2727.69
527.57	2668.69
527.785	2728.69
527.999	2747.69
528.214	2724.69
528.429	2762.69
528.644	2793.69
528.859	2771.69
529.074	2852.69
529.289	2900.69
529.503	2907.69
529.718	2895.69
529.933	2850.69
530.148	2858.69
530.363	2900.69
530.577	2916.69
530.792	2860.69
531.007	2886.69
531.221	2897.69
531.436	2935.69
531.651	2945.69
531.865	3016.69
532.08	3028.69
532.295	3139.69
532.509	3347.69
532.724	3342.69
532.938	3341.69
533.153	3524.69
533.367	3767.69
533.582	4005.69
533.796	3866.69
534.011	3721.69
534.225	3626.69
534.44	3425.69
534.654	3349.69
534.868	3285.69
535.083	3241.69
535.297	3143.69
535.511	3101.69
535.726	3067.69
535.94	3016.69
536.154	3012.69
536.369	2988.69
536.583	2943.69
536.797	2846.69
537.011	2784.69
537.225	2782.69
537.44	2781.69
537.654	2832.69
537.868	2751.69
538.082	2693.69
538.296	2694.69
538.51	2650.69
538.724	2682.69
538.938	2717.69
539.153	2615.69
539.367	2651.69
539.581	2649.69
539.795	2635.69
540.009	2600.69
540.222	2617.69
540.436	2487.69
540.65	2586.69
540.864	2597.69
541.078	2646.69
541.292	2861.69
541.506	3371.69
541.72	3525.69
541.934	3007.69
542.147	2804.69
542.361	2743.69
542.575	2631.69
542.789	2568.69
543.002	2524.69
543.216	2522.69
543.43	2524.69
543.644	2476.69
543.857	2505.69
544.071	2524.69
544.285	2579.69
544.498	2509.69
544.712	2501.69
544.925	2532.69
545.139	2569.69
545.352	2483.69
545.566	2577.69
545.779	2531.69
545.993	2545.69
546.206	2584.69
546.42	2527.69
546.633	2511.69
546.847	2500.69
547.06	2572.69
547.274	2500.69
547.487	2529.69
547.7	2471.69
547.914	2513.69
548.127	2511.69
548.34	2512.69
548.554	2492.69
548.767	2532.69
548.98	2528.69
549.193	2517.69
549.407	2517.69
549.62	2538.69
549.833	2551.69
550.046	2553.69
550.259	2520.69
550.473	2483.69
550.686	2530.69
550.899	2555.69
551.112	2513.69
551.325	2530.69
551.538	2518.69
551.751	2517.69
551.964	2545.69
552.177	2572.69
552.39	2570.69
552.603	2650.69
552.816	2690.69
553.029	2706.69
553.242	2760.69
553.455	2772.69
553.667	2824.69
553.88	2837.69
554.093	2809.69
554.306	2858.69
554.519	2807.69
554.732	2875.69
554.944	2909.69
555.157	3028.69
555.37	3081.69
555.583	3160.69
555.795	3367.69
556.008	3711.69
556.221	4104.69
556.433	4497.69
556.646	4415.69
556.859	4199.69
557.071	4005.69
557.284	3880.69
557.496	3754.69
557.709	3676.69
557.921	3591.69
558.134	3569.69
558.346	3666.69
558.559	3836.69
558.771	4013.69
558.984	4463.69
559.196	4821.69
559.409	4527.69
559.621	4197.69
559.833	3864.69
560.046	3609.69
560.258	3484.69
560.47	3253.69
560.683	3183.69
560.895	3004.69
561.107	2957.69
561.32	2821.69
561.532	2803.69
561.744	2691.69
561.956	2689.69
562.168	2666.69
562.381	2617.69
562.593	2602.69
562.805	2660.69
563.017	2689.69
563.229	2713.69
563.441	3150.69
563.653	2609.69
563.865	2487.69
564.077	2404.69
564.289	2371.69
564.501	2362.69
564.713	2362.69
564.925	2323.69
565.137	2364.69
565.349	2313.69
565.561	2360.69
565.773	2371.69
565.985	2375.69
566.197	2419.69
566.408	2492.69
566.62	2550.69
566.832	2539.69
567.044	2555.69
567.255	2577.69
567.467	2617.69
567.679	2691.69
567.891	2857.69
568.102	3139.69
568.314	3609.69
568.526	3103.69
568.737	2698.69
568.949	2465.69
569.161	2340.69
569.372	2225.69
569.584	2161.69
569.795	2138.69
570.007	2137.69
570.218	2236.69
570.43	2272.69
570.641	2105.69
570.853	1998.69
571.064	1925.69
571.276	1942.69
571.487	1929.69
571.698	1859.69
571.91	1865.69
572.121	1830.69
572.333	1867.69
572.544	1897.69
572.755	1971.69
572.966	2378.69
573.178	2107.69
573.389	1883.69
573.6	1785.69
573.811	1732.69
574.023	1759.69
574.234	1742.69
574.445	1718.69
574.656	1696.69
574.867	1699.69
575.078	1703.69
575.289	1705.69
575.501	1700.69
575.712	1680.69
575.923	1664.69
576.134	1677.69
576.345	1690.69
576.556	1715.69
576.767	1700.69
576.978	1708.69
577.188	1713.69
577.399	1739.69
577.61	1706.69
577.821	1734.69
578.032	1751.69
578.243	1782.69
578.454	1796.69
578.665	1844.69
578.875	1846.69
579.086	1947.69
579.297	2111.69
579.508	2181.69
579.718	2373.69
579.929	2774.69
580.14	3270.69
580.35	3350.69
580.561	2962.69
580.772	2651.69
580.982	2448.69
581.193	2279.69
581.403	2143.69
581.614	2090.69
581.825	1944.69
582.035	1889.69
582.246	1823.69
582.456	1817.69
582.667	1742.69
582.877	1743.69
583.087	1733.69
583.298	1625.69
583.508	1576.69
583.719	1541.69
583.929	1543.69
584.139	1500.69
584.35	1475.69
584.56	1461.69
584.77	1436.69
584.981	1416.69
585.191	1420.69
585.401	1391.69
585.611	1370.69
585.821	1355.69
586.032	1368.69
586.242	1332.69
586.452	1323.69
586.662	1312.69
586.872	1292.69
587.082	1314.69
587.292	1287.69
587.502	1264.69
587.713	1266.69
587.923	1240.69
588.133	1235.69
588.343	1209.69
588.553	1229.69
588.762	1212.69
588.972	1194.69
589.182	1229.69
589.392	1209.69
589.602	1203.69
589.812	1183.69
590.022	1162.69
590.232	1154.69
590.441	1180.69
590.651	1173.69
590.861	1160.69
591.071	1176.69
591.281	1153.69
591.49	1177.69
591.7	1186.69
591.91	1166.69
592.119	1191.69
592.329	1158.69
592.539	1204.69
592.748	1225.69
592.958	1217.69
593.167	1230.69
593.377	1221.69
593.587	1215.69
593.796	1208.69
594.006	1228.69
594.215	1243.69
594.424	1228.69
594.634	1185.69
594.843	1166.69
595.053	1193.69
595.262	1146.69
595.472	1135.69
595.681	1109.69
595.89	1107.69
596.1	1072.69
596.309	1065.69
596.518	1059.69
596.727	1056.69
596.937	1031.69
597.146	1051.69
597.355	1027.69
597.564	1040.69
597.774	979.69
597.983	973.69
598.192	1002.69
598.401	977.69
598.61	987.69
598.819	979.69
599.028	979.69
599.237	982.69
599.446	957.69
599.655	932.69
599.864	931.69
600.073	953.69
600.282	927.69
600.491	953.69
600.7	940.69
600.909	931.69
601.118	919.69
601.327	931.69
601.536	910.69
601.745	949.69
601.953	1049.69
602.162	1223.69
602.371	1058.69
602.58	964.69
602.789	949.69
602.997	922.69
603.206	899.69
603.415	924.69
603.623	900.69
603.832	903.69
604.041	910.69
604.249	878.69
604.458	893.69
604.666	888.69
604.875	875.69
605.084	899.69
605.292	913.69
605.501	897.69
605.709	905.69
605.918	907.69
606.126	913.69
606.334	902.69
606.543	950.69
606.751	991.69
606.96	1135.69
607.168	1223.69
607.376	1069.69
607.585	937.69
607.793	928.69
608.001	908.69
608.21	893.69
608.418	871.69
608.626	859.69
608.834	862.69
609.043	864.69
609.251	861.69
609.459	832.69
609.667	839.69
609.875	840.69
610.083	804.69
610.291	835.69
610.499	810.69
610.707	817.69
610.916	795.69
611.124	809.69
611.332	794.69
611.54	832.69
611.748	815.69
611.955	791.69
612.163	803.69
612.371	792.69
612.579	808.69
612.787	810.69
612.995	781.69
613.203	790.69
613.411	764.69
613.618	755.69
613.826	794.69
614.034	782.69
614.242	793.69
614.449	801.69
614.657	800.69
614.865	770.69
615.072	809.69
615.28	831.69
615.488	799.69
615.695	795.69
615.903	780.69
616.111	795.69
616.318	769.69
616.526	783.69
616.733	804.69
616.941	769.69
617.148	781.69
617.356	747.69
617.563	771.69
617.771	775.69
617.978	740.69
618.185	728.69
618.393	730.69
618.6	755.69
618.807	769.69
619.015	744.69
619.222	751.69
619.429	751.69
619.637	739.69
619.844	708.69
620.051	724.69
620.258	705.69
620.466	688.69
620.673	723.69
620.88	698.69
621.087	703.69
621.294	693.69
621.501	692.69
621.708	691.69
621.915	734.69
622.122	713.69
622.329	706.69
622.536	697.69
622.743	695.69
622.95	704.69
623.157	693.69
623.364	704.69
623.571	677.69
623.778	668.69
623.985	666.69
624.192	693.69
624.399	675.69
624.606	660.69
624.812	685.69
625.019	621.69
625.226	637.69
625.433	648.69
625.639	634.69
625.846	639.69
626.053	625.69
626.259	637.69
626.466	641.69
626.673	631.69
626.879	613.69
627.086	615.69
627.293	607.69
627.499	620.69
627.706	627.69
627.912	635.69
628.119	646.69
628.325	646.69
628.532	616.69
628.738	614.69
628.945	608.69
629.151	625.69
629.357	600.69
629.564	610.69
629.77	616.69
629.976	598.69
630.183	598.69
630.389	586.69
630.595	589.69
630.802	624.69
631.008	589.69
631.214	578.69
631.42	593.69
631.627	583.69
631.833	591.69
632.039	588.69
632.245	595.69
632.451	559.69
632.657	579.69
632.863	566.69
633.069	578.69
633.275	567.69
633.481	565.69
633.688	587.69
633.893	579.69
634.099	593.69
634.305	607.69
634.511	596.69
634.717	581.69
634.923	640.69
635.129	712.69
635.335	800.69
635.541	688.69
635.747	657.69
635.952	587.69
636.158	608.69
636.364	561.69
636.57	602.69
636.775	600.69
636.981	564.69
637.187	552.69
637.392	558.69
637.598	561.69
637.804	579.69
638.009	565.69
638.215	583.69
638.421	565.69
638.626	578.69
638.832	564.69
639.037	583.69
639.243	580.69
639.448	594.69
639.654	603.69
639.859	586.69
640.065	582.69
640.27	603.69
640.475	616.69
640.681	600.69
640.886	631.69
641.091	630.69
641.297	624.69
641.502	611.69
641.707	638.69
641.913	630.69
642.118	651.69
642.323	636.69
642.528	676.69
642.733	667.69
642.939	685.69
643.144	737.69
643.349	738.69
643.554	778.69
643.759	789.69
643.964	841.69
644.169	885.69
644.374	969.69
644.579	1046.69
644.784	1123.69
644.989	1309.69
645.194	1539.69
645.399	1916.69
645.604	2090.69
645.809	1464.69
646.014	1148.69
646.219	936.69
646.423	834.69
646.628	763.69
646.833	713.69
647.038	674.69
647.243	607.69
647.447	616.69
647.652	604.69
647.857	577.69
648.062	563.69
648.266	572.69
648.471	552.69
648.676	574.69
648.88	528.69
649.085	515.69
649.289	522.69
649.494	524.69
649.698	517.69
649.903	487.69
650.107	492.69
650.312	470.69
650.516	460.69
650.721	441.69
650.925	445.69
651.13	433.69
651.334	421.69
651.539	427.69
651.743	415.69
651.947	441.69
652.152	424.69
652.356	405.69
652.56	454.69
652.764	509.69
652.969	469.69
653.173	432.69
653.377	387.69
653.581	403.69
653.785	383.69
653.99	371.69
654.194	369.69
654.398	352.69
654.602	339.69
654.806	349.69
655.01	337.69
655.214	367.69
655.418	344.69
655.622	340.69
655.826	369.69
656.03	355.69
656.234	361.69
656.438	359.69
656.642	378.69
656.846	377.69
657.049	346.69
657.253	319.69
657.457	309.69
657.661	296.69
657.865	295.69
658.068	264.69
658.272	211.69
658.476	228.69
658.68	236.69
658.883	226.69
659.087	213.69
659.291	194.69
659.494	202.69
659.698	189.69
659.901	163.69
660.105	189.69
660.309	161.69
660.512	156.69
660.716	139.69
660.919	146.69
661.123	153.69
661.326	137.69
661.53	125.69
661.733	123.69
661.936	126.69
662.14	109.69
662.343	108.69
662.546	122.69
662.75	114.69
662.953	115.69
663.156	99.69
663.36	100.69
663.563	95.69
663.766	100.69
663.969	92.69
664.173	88.69
664.376	97.69
664.579	83.69
664.782	84.69
664.985	97.69
665.188	109.69
665.391	98.69
665.594	93.69
665.797	93.69
666	75.69
666.203	85.69
666.406	97.69
666.609	85.69
666.812	95.69
667.015	84.69
667.218	95.69
667.421	85.69
667.624	84.69
667.827	78.69
668.03	85.69
668.232	85.69
668.435	96.69
668.638	87.69
668.841	79.69
669.043	85.69
669.246	91.69
669.449	87.69
669.651	78.69
669.854	76.69
670.057	91.69
670.259	90.69
670.462	95.69
670.665	79.69
670.867	82.69
671.07	88.69
671.272	81.69
671.475	92.69
671.677	90.69
671.88	86.69
672.082	85.69
672.284	90.69
672.487	74.69
672.689	80.69
672.892	78.69
