Data from SnStandardFlinnAPT0064_LampEnergy10_LIBS07252019.E.O._I.C._HRD10591_15-21-13-493.txt Node
Date: Thu Jul 25 15:21:13 EDT 2019
User: cochatt
Spectrometer: HR+D1059
Trigger mode: 1
Integration Time (sec): 1.000000E-1
Scans to average: 1
Electric dark correction enabled: true
Nonlinearity correction enabled: false
Boxcar width: 0
XAxis mode: Wavelengths
Number of Pixels in Spectrum: 2048
>>>>>Begin Spectral Data<<<<<
223.165	-23.94
223.4	-23.94
223.635	-23.94
223.869	-22.94
224.104	-22.94
224.338	2.06
224.573	-0.94
224.808	-7.94
225.042	-1.94
225.277	-4.94
225.511	3.06
225.746	-12.94
225.98	6.06
226.215	8.06
226.449	6.06
226.683	25.06
226.918	16.06
227.152	32.06
227.387	27.06
227.621	37.06
227.856	32.06
228.09	46.06
228.324	68.06
228.559	61.06
228.793	149.06
229.027	292.06
229.262	318.06
229.496	289.06
229.73	306.06
229.964	290.06
230.199	290.06
230.433	324.06
230.667	311.06
230.901	325.06
231.136	329.06
231.37	356.06
231.604	374.06
231.838	432.06
232.072	494.06
232.306	566.06
232.541	509.06
232.775	401.06
233.009	402.06
233.243	422.06
233.477	450.06
233.711	524.06
233.945	574.06
234.179	518.06
234.413	444.06
234.647	463.06
234.881	486.06
235.115	505.06
235.349	594.06
235.583	773.06
235.817	967.06
236.051	960.06
236.285	642.06
236.519	520.06
236.753	502.06
236.987	504.06
237.221	562.06
237.455	507.06
237.689	477.06
237.922	443.06
238.156	460.06
238.39	468.06
238.624	494.06
238.858	468.06
239.091	490.06
239.325	488.06
239.559	507.06
239.793	488.06
240.027	514.06
240.26	542.06
240.494	554.06
240.728	579.06
240.961	597.06
241.195	634.06
241.429	675.06
241.662	686.06
241.896	788.06
242.13	923.06
242.363	1222.06
242.597	1547.06
242.83	1491.06
243.064	1491.06
243.298	1760.06
243.531	1448.06
243.765	945.06
243.998	756.06
244.232	704.06
244.465	668.06
244.699	645.06
244.932	670.06
245.166	662.06
245.399	651.06
245.633	652.06
245.866	699.06
246.099	687.06
246.333	674.06
246.566	639.06
246.8	662.06
247.033	644.06
247.266	674.06
247.5	662.06
247.733	664.06
247.966	723.06
248.2	771.06
248.433	847.06
248.666	970.06
248.899	918.06
249.133	847.06
249.366	886.06
249.599	955.06
249.832	1067.06
250.066	1046.06
250.299	859.06
250.532	768.06
250.765	745.06
250.998	738.06
251.231	733.06
251.465	739.06
251.698	738.06
251.931	746.06
252.164	757.06
252.397	772.06
252.63	766.06
252.863	819.06
253.096	784.06
253.329	762.06
253.562	784.06
253.795	771.06
254.028	828.06
254.261	829.06
254.494	894.06
254.727	1049.06
254.96	1234.06
255.193	1210.06
255.426	955.06
255.659	858.06
255.892	863.06
256.124	864.06
256.357	874.06
256.59	900.06
256.823	965.06
257.056	1117.06
257.289	1340.06
257.521	1428.06
257.754	1216.06
257.987	972.06
258.22	928.06
258.452	926.06
258.685	889.06
258.918	937.06
259.151	989.06
259.383	1067.06
259.616	1241.06
259.849	1270.06
260.081	1119.06
260.314	996.06
260.547	970.06
260.779	941.06
261.012	986.06
261.244	961.06
261.477	960.06
261.71	982.06
261.942	1010.06
262.175	1022.06
262.407	1032.06
262.64	1025.06
262.872	1122.06
263.105	1124.06
263.337	1183.06
263.57	1250.06
263.802	1316.06
264.035	1344.06
264.267	1370.06
264.499	1388.06
264.732	1450.06
264.964	1428.06
265.197	1403.06
265.429	1463.06
265.661	1492.06
265.894	1598.06
266.126	1755.06
266.358	2006.06
266.591	1906.06
266.823	1629.06
267.055	1459.06
267.287	1385.06
267.52	1349.06
267.752	1306.06
267.984	1290.06
268.216	1254.06
268.448	1263.06
268.681	1239.06
268.913	1234.06
269.145	1240.06
269.377	1237.06
269.609	1253.06
269.841	1255.06
270.073	1386.06
270.306	1563.06
270.538	2048.06
270.77	3108.06
271.002	3825.06
271.234	2785.06
271.466	1857.06
271.698	1535.06
271.93	1403.06
272.162	1326.06
272.394	1300.06
272.626	1266.06
272.858	1226.06
273.09	1204.06
273.322	1229.06
273.553	1185.06
273.785	1196.06
274.017	1209.06
274.249	1199.06
274.481	1233.06
274.713	1186.06
274.945	1218.06
275.176	1205.06
275.408	1203.06
275.64	1248.06
275.872	1232.06
276.104	1263.06
276.335	1264.06
276.567	1269.06
276.799	1280.06
277.031	1313.06
277.262	1320.06
277.494	1424.06
277.726	1556.06
277.957	1816.06
278.189	2114.06
278.421	1963.06
278.652	1768.06
278.884	1671.06
279.115	1505.06
279.347	1454.06
279.579	1417.06
279.81	1368.06
280.042	1356.06
280.273	1426.06
280.505	1424.06
280.736	1496.06
280.968	1578.06
281.199	1762.06
281.431	2048.06
281.662	2063.06
281.894	1762.06
282.125	1625.06
282.356	1659.06
282.588	1664.06
282.819	1740.06
283.051	1803.06
283.282	1977.06
283.513	2438.06
283.745	3510.06
283.976	5527.06
284.207	7771.06
284.439	7105.06
284.67	4564.06
284.901	3648.06
285.132	3658.06
285.364	3474.06
285.595	2661.06
285.826	2424.06
286.057	2778.06
286.288	3752.06
286.52	5002.06
286.751	4739.06
286.982	3042.06
287.213	2284.06
287.444	2056.06
287.675	1868.06
287.906	1833.06
288.138	1729.06
288.369	1696.06
288.6	1704.06
288.831	1686.06
289.062	1654.06
289.293	1681.06
289.524	1698.06
289.755	1706.06
289.986	1735.06
290.217	1724.06
290.448	1700.06
290.679	1776.06
290.91	1796.06
291.141	1889.06
291.371	2045.06
291.602	2109.06
291.833	1931.06
292.064	1753.06
292.295	1678.06
292.526	1660.06
292.757	1672.06
292.987	1593.06
293.218	1585.06
293.449	1605.06
293.68	1582.06
293.91	1586.06
294.141	1594.06
294.372	1583.06
294.603	1579.06
294.833	1594.06
295.064	1563.06
295.295	1560.06
295.525	1604.06
295.756	1537.06
295.987	1544.06
296.217	1572.06
296.448	1558.06
296.679	1610.06
296.909	1594.06
297.14	1612.06
297.37	1635.06
297.601	1666.06
297.831	1628.06
298.062	1624.06
298.292	1636.06
298.523	1715.06
298.753	1721.06
298.984	1706.06
299.214	1742.06
299.445	1769.06
299.675	1806.06
299.905	1842.06
300.136	1950.06
300.366	2121.06
300.597	2732.06
300.827	3746.06
301.057	5159.06
301.288	5143.06
301.518	3345.06
301.748	2562.06
301.979	2331.06
302.209	2274.06
302.439	2261.06
302.669	2466.06
302.9	2938.06
303.13	4056.06
303.36	5970.06
303.59	7938.06
303.82	6975.06
304.051	4214.06
304.281	3030.06
304.511	2514.06
304.741	2344.06
304.971	2222.06
305.201	2091.06
305.431	1968.06
305.661	1974.06
305.891	1918.06
306.121	1886.06
306.352	1905.06
306.582	1832.06
306.812	1820.06
307.042	1835.06
307.272	1841.06
307.502	1810.06
307.731	1865.06
307.961	1808.06
308.191	1859.06
308.421	1808.06
308.651	1832.06
308.881	1782.06
309.111	1817.06
309.341	1800.06
309.571	1836.06
309.8	1876.06
310.03	1857.06
310.26	1850.06
310.49	1828.06
310.72	1904.06
310.949	1864.06
311.179	1927.06
311.409	1918.06
311.639	1916.06
311.868	1967.06
312.098	1914.06
312.328	1945.06
312.557	1977.06
312.787	1972.06
313.017	1926.06
313.246	2003.06
313.476	1945.06
313.706	2128.06
313.935	2183.06
314.165	2402.06
314.394	2480.06
314.624	2295.06
314.853	2136.06
315.083	2119.06
315.312	2151.06
315.542	2196.06
315.771	2218.06
316.001	2206.06
316.23	2247.06
316.46	2424.06
316.689	2696.06
316.919	3189.06
317.148	4576.06
317.377	6876.06
317.607	10162.06
317.836	10578.06
318.065	6481.06
318.295	4311.06
318.524	3392.06
318.753	2979.06
318.983	2764.06
319.212	2580.06
319.441	2512.06
319.67	2489.06
319.9	2425.06
320.129	2378.06
320.358	2270.06
320.587	2319.06
320.816	2350.06
321.046	2360.06
321.275	2347.06
321.504	2418.06
321.733	2422.06
321.962	2532.06
322.191	2529.06
322.42	2537.06
322.649	2522.06
322.878	2480.06
323.108	2526.06
323.337	2602.06
323.566	2596.06
323.795	2642.06
324.024	2737.06
324.253	2725.06
324.482	2825.06
324.71	3016.06
324.939	3185.06
325.168	3286.06
325.397	3376.06
325.626	4044.06
325.855	5608.06
326.084	8501.06
326.313	12349.06
326.542	13287.06
326.77	8941.06
326.999	5893.06
327.228	4980.06
327.457	4782.06
327.686	4854.06
327.914	5174.06
328.143	6029.06
328.372	7102.06
328.6	7857.06
328.829	6996.06
329.058	5901.06
329.287	5132.06
329.515	4636.06
329.744	4324.06
329.972	4043.06
330.201	3923.06
330.43	3750.06
330.658	3586.06
330.887	3550.06
331.115	3476.06
331.344	3551.06
331.572	3482.06
331.801	3527.06
332.03	3516.06
332.258	3568.06
332.486	3799.06
332.715	4293.06
332.943	5190.06
333.172	6546.06
333.4	6456.06
333.629	4984.06
333.857	4536.06
334.085	4496.06
334.314	4746.06
334.542	5172.06
334.771	6110.06
334.999	7442.06
335.227	9311.06
335.455	10446.06
335.684	9445.06
335.912	7690.06
336.14	6550.06
336.369	5717.06
336.597	5292.06
336.825	4873.06
337.053	4563.06
337.281	4286.06
337.51	4070.06
337.738	3883.06
337.966	3735.06
338.194	3588.06
338.422	3488.06
338.65	3403.06
338.878	3328.06
339.106	3264.06
339.334	3252.06
339.562	3183.06
339.79	3134.06
340.018	3080.06
340.246	3085.06
340.474	3030.06
340.702	3075.06
340.93	3106.06
341.158	3081.06
341.386	3073.06
341.614	2992.06
341.842	2927.06
342.07	2858.06
342.298	2834.06
342.526	2784.06
342.754	2763.06
342.981	2767.06
343.209	2744.06
343.437	2787.06
343.665	2759.06
343.893	2823.06
344.12	2867.06
344.348	2836.06
344.576	2731.06
344.804	2782.06
345.031	2632.06
345.259	2639.06
345.487	2548.06
345.714	2552.06
345.942	2592.06
346.17	2586.06
346.397	2527.06
346.625	2579.06
346.853	2563.06
347.08	2520.06
347.308	2536.06
347.535	2548.06
347.763	2529.06
347.99	2497.06
348.218	2527.06
348.445	2449.06
348.673	2483.06
348.9	2464.06
349.128	2469.06
349.355	2506.06
349.583	2491.06
349.81	2422.06
350.037	2396.06
350.265	2402.06
350.492	2390.06
350.72	2410.06
350.947	2421.06
351.174	2399.06
351.402	2471.06
351.629	2409.06
351.856	2374.06
352.083	2395.06
352.311	2411.06
352.538	2376.06
352.765	2377.06
352.992	2368.06
353.22	2324.06
353.447	2364.06
353.674	2407.06
353.901	2398.06
354.128	2419.06
354.355	2407.06
354.583	2406.06
354.81	2436.06
355.037	2450.06
355.264	2447.06
355.491	2425.06
355.718	2452.06
355.945	2465.06
356.172	2506.06
356.399	2481.06
356.626	2502.06
356.853	2537.06
357.08	2510.06
357.307	2521.06
357.534	2566.06
357.761	2586.06
357.988	2610.06
358.215	2580.06
358.441	2593.06
358.668	2533.06
358.895	2558.06
359.122	2571.06
359.349	2550.06
359.576	2556.06
359.802	2522.06
360.029	2518.06
360.256	2563.06
360.483	2544.06
360.709	2595.06
360.936	2588.06
361.163	2592.06
361.39	2591.06
361.616	2588.06
361.843	2581.06
362.07	2545.06
362.296	2603.06
362.523	2603.06
362.749	2611.06
362.976	2565.06
363.203	2544.06
363.429	2518.06
363.656	2596.06
363.882	2575.06
364.109	2556.06
364.335	2475.06
364.562	2542.06
364.788	2540.06
365.015	2603.06
365.241	2635.06
365.468	2816.06
365.694	2912.06
365.92	2834.06
366.147	2634.06
366.373	2643.06
366.599	2634.06
366.826	2597.06
367.052	2614.06
367.278	2671.06
367.505	2660.06
367.731	2638.06
367.957	2659.06
368.184	2625.06
368.41	2676.06
368.636	2664.06
368.862	2678.06
369.089	2655.06
369.315	2648.06
369.541	2681.06
369.767	2695.06
369.993	2625.06
370.219	2656.06
370.445	2697.06
370.672	2682.06
370.898	2679.06
371.124	2755.06
371.35	2711.06
371.576	2734.06
371.802	2775.06
372.028	2754.06
372.254	2754.06
372.48	2749.06
372.706	2800.06
372.932	2786.06
373.158	2796.06
373.384	2818.06
373.61	2770.06
373.835	2833.06
374.061	2806.06
374.287	2800.06
374.513	2850.06
374.739	2945.06
374.965	2898.06
375.191	2877.06
375.416	2883.06
375.642	2849.06
375.868	2899.06
376.094	2819.06
376.319	2780.06
376.545	2839.06
376.771	2762.06
376.997	2729.06
377.222	2744.06
377.448	2708.06
377.674	2736.06
377.899	2670.06
378.125	2744.06
378.35	2736.06
378.576	2774.06
378.802	2797.06
379.027	2867.06
379.253	2906.06
379.478	3027.06
379.704	3590.06
379.929	5070.06
380.155	7744.06
380.38	8393.06
380.606	5223.06
380.831	3690.06
381.057	3257.06
381.282	2979.06
381.507	2843.06
381.733	2836.06
381.958	2729.06
382.184	2779.06
382.409	2723.06
382.634	2727.06
382.86	2652.06
383.085	2722.06
383.31	2716.06
383.535	2703.06
383.761	2711.06
383.986	2703.06
384.211	2773.06
384.436	2774.06
384.662	2768.06
384.887	2820.06
385.112	2781.06
385.337	2825.06
385.562	2720.06
385.787	2788.06
386.013	2828.06
386.238	2767.06
386.463	2766.06
386.688	2799.06
386.913	2743.06
387.138	2752.06
387.363	2764.06
387.588	2762.06
387.813	2835.06
388.038	2761.06
388.263	2790.06
388.488	2777.06
388.713	2778.06
388.938	2775.06
389.163	2780.06
389.387	2785.06
389.612	2762.06
389.837	2751.06
390.062	2770.06
390.287	2817.06
390.512	2795.06
390.736	2845.06
390.961	2864.06
391.186	2895.06
391.411	2938.06
391.636	2942.06
391.86	2930.06
392.085	2929.06
392.31	2882.06
392.534	2870.06
392.759	2894.06
392.984	2830.06
393.208	2794.06
393.433	2786.06
393.658	2806.06
393.882	2785.06
394.107	2761.06
394.331	2825.06
394.556	2793.06
394.78	2827.06
395.005	2853.06
395.229	2841.06
395.454	2898.06
395.678	2882.06
395.903	2942.06
396.127	2912.06
396.352	2883.06
396.576	2832.06
396.801	2872.06
397.025	2934.06
397.249	2972.06
397.474	2950.06
397.698	2935.06
397.922	3018.06
398.147	2966.06
398.371	3008.06
398.595	3033.06
398.82	3070.06
399.044	3238.06
399.268	3379.06
399.492	3538.06
399.717	3678.06
399.941	3661.06
400.165	3515.06
400.389	3440.06
400.613	3316.06
400.837	3136.06
401.062	3170.06
401.286	3158.06
401.51	3074.06
401.734	3041.06
401.958	3033.06
402.182	3074.06
402.406	3074.06
402.63	3097.06
402.854	3094.06
403.078	3158.06
403.302	3143.06
403.526	3156.06
403.75	3178.06
403.974	3234.06
404.198	3217.06
404.422	3168.06
404.645	3170.06
404.869	3181.06
405.093	3216.06
405.317	3179.06
405.541	3240.06
405.765	3261.06
405.988	3299.06
406.212	3320.06
406.436	3234.06
406.66	3362.06
406.883	3288.06
407.107	3365.06
407.331	3411.06
407.555	3525.06
407.778	3452.06
408.002	3435.06
408.226	3416.06
408.449	3414.06
408.673	3307.06
408.896	3265.06
409.12	3212.06
409.344	3239.06
409.567	3162.06
409.791	3226.06
410.014	3184.06
410.238	3121.06
410.461	3192.06
410.685	3148.06
410.908	3156.06
411.132	3153.06
411.355	3080.06
411.578	3088.06
411.802	3084.06
412.025	3082.06
412.249	3088.06
412.472	3076.06
412.695	3014.06
412.919	3018.06
413.142	3019.06
413.365	2991.06
413.589	3006.06
413.812	2998.06
414.035	2990.06
414.258	3016.06
414.482	3019.06
414.705	2981.06
414.928	3051.06
415.151	2982.06
415.374	3011.06
415.597	2967.06
415.821	2910.06
416.044	2895.06
416.267	2841.06
416.49	2889.06
416.713	2867.06
416.936	2893.06
417.159	2857.06
417.382	2810.06
417.605	2834.06
417.828	2900.06
418.051	2903.06
418.274	2893.06
418.497	2930.06
418.72	2987.06
418.943	2938.06
419.166	3050.06
419.389	3185.06
419.611	3225.06
419.834	3090.06
420.057	2992.06
420.28	2958.06
420.503	2870.06
420.726	2880.06
420.948	2883.06
421.171	2907.06
421.394	2878.06
421.617	2875.06
421.839	2903.06
422.062	2879.06
422.285	2891.06
422.507	3011.06
422.73	2922.06
422.953	2964.06
423.175	2974.06
423.398	2971.06
423.621	2885.06
423.843	2928.06
424.066	2896.06
424.288	2900.06
424.511	2859.06
424.733	2859.06
424.956	2878.06
425.178	2885.06
425.401	2848.06
425.623	2886.06
425.846	2758.06
426.068	2793.06
426.291	2775.06
426.513	2775.06
426.735	2739.06
426.958	2779.06
427.18	2714.06
427.402	2696.06
427.625	2728.06
427.847	2664.06
428.069	2619.06
428.292	2730.06
428.514	2704.06
428.736	2640.06
428.958	2722.06
429.181	2632.06
429.403	2696.06
429.625	2625.06
429.847	2691.06
430.069	2725.06
430.292	2762.06
430.514	2876.06
430.736	2866.06
430.958	2706.06
431.18	2649.06
431.402	2664.06
431.624	2583.06
431.846	2634.06
432.068	2590.06
432.29	2655.06
432.512	2631.06
432.734	2650.06
432.956	2660.06
433.178	2670.06
433.4	2661.06
433.622	2622.06
433.844	2686.06
434.066	2673.06
434.287	2656.06
434.509	2769.06
434.731	2768.06
434.953	2746.06
435.175	2835.06
435.397	2762.06
435.618	2704.06
435.84	2673.06
436.062	2616.06
436.284	2648.06
436.505	2588.06
436.727	2632.06
436.949	2655.06
437.17	2596.06
437.392	2612.06
437.614	2576.06
437.835	2544.06
438.057	2551.06
438.278	2571.06
438.5	2566.06
438.721	2652.06
438.943	2686.06
439.165	2743.06
439.386	2780.06
439.608	2754.06
439.829	2717.06
440.05	2842.06
440.272	2880.06
440.493	2686.06
440.715	2681.06
440.936	2734.06
441.158	2731.06
441.379	2776.06
441.6	2870.06
441.822	2934.06
442.043	3088.06
442.264	3161.06
442.486	2960.06
442.707	2942.06
442.928	2859.06
443.149	2794.06
443.371	2830.06
443.592	2858.06
443.813	2849.06
444.034	2868.06
444.255	2894.06
444.476	2940.06
444.698	3043.06
444.919	3013.06
445.14	3088.06
445.361	2969.06
445.582	2857.06
445.803	2841.06
446.024	2830.06
446.245	2759.06
446.466	2830.06
446.687	2788.06
446.908	2734.06
447.129	2697.06
447.35	2700.06
447.571	2682.06
447.792	2625.06
448.013	2612.06
448.234	2602.06
448.455	2608.06
448.675	2657.06
448.896	2670.06
449.117	2765.06
449.338	2993.06
449.559	3063.06
449.779	2773.06
450	2624.06
450.221	2548.06
450.442	2561.06
450.662	2514.06
450.883	2535.06
451.104	2530.06
451.324	2531.06
451.545	2538.06
451.766	2609.06
451.986	2642.06
452.207	2767.06
452.428	3538.06
452.648	5378.06
452.869	4462.06
453.089	3120.06
453.31	2971.06
453.53	3014.06
453.751	2956.06
453.971	3134.06
454.192	3071.06
454.412	2715.06
454.633	2601.06
454.853	2547.06
455.073	2505.06
455.294	2457.06
455.514	2412.06
455.734	2469.06
455.955	2414.06
456.175	2394.06
456.395	2400.06
456.616	2437.06
456.836	2484.06
457.056	2478.06
457.276	2483.06
457.497	2640.06
457.717	2639.06
457.937	2566.06
458.157	2609.06
458.377	2593.06
458.598	2602.06
458.818	2620.06
459.038	2636.06
459.258	2650.06
459.478	2656.06
459.698	2744.06
459.918	2729.06
460.138	2784.06
460.358	2850.06
460.578	2822.06
460.798	2846.06
461.018	2884.06
461.238	2908.06
461.458	2915.06
461.678	2855.06
461.898	3019.06
462.118	3014.06
462.338	3075.06
462.558	3110.06
462.777	3110.06
462.997	3274.06
463.217	3395.06
463.437	3537.06
463.657	3562.06
463.876	3582.06
464.096	3345.06
464.316	3218.06
464.536	3211.06
464.755	3076.06
464.975	3009.06
465.195	2909.06
465.414	2834.06
465.634	2746.06
465.854	2736.06
466.073	2703.06
466.293	2711.06
466.512	2642.06
466.732	2694.06
466.951	2823.06
467.171	3018.06
467.391	2948.06
467.61	2733.06
467.829	2624.06
468.049	2615.06
468.268	2542.06
468.488	2568.06
468.707	2562.06
468.927	2578.06
469.146	2606.06
469.365	2668.06
469.585	2619.06
469.804	2682.06
470.023	2767.06
470.243	2816.06
470.462	2926.06
470.681	3022.06
470.901	3331.06
471.12	3776.06
471.339	3744.06
471.558	3156.06
471.777	2888.06
471.997	2810.06
472.216	2684.06
472.435	2659.06
472.654	2606.06
472.873	2546.06
473.092	2652.06
473.311	2639.06
473.53	2610.06
473.749	2699.06
473.968	2837.06
474.187	2713.06
474.406	2561.06
474.625	2644.06
474.844	2629.06
475.063	2624.06
475.282	2638.06
475.501	2655.06
475.72	2679.06
475.939	2708.06
476.158	2726.06
476.377	2771.06
476.596	2766.06
476.814	2735.06
477.033	2770.06
477.252	2785.06
477.471	2879.06
477.69	2901.06
477.908	2917.06
478.127	2970.06
478.346	2978.06
478.564	3074.06
478.783	3086.06
479.002	3082.06
479.22	3155.06
479.439	3126.06
479.658	3160.06
479.876	3137.06
480.095	3157.06
480.313	3232.06
480.532	3265.06
480.751	3215.06
480.969	3203.06
481.188	3198.06
481.406	3219.06
481.624	3163.06
481.843	3202.06
482.061	3278.06
482.28	3142.06
482.498	3198.06
482.717	3156.06
482.935	3248.06
483.153	3246.06
483.372	3232.06
483.59	3288.06
483.808	3404.06
484.027	3400.06
484.245	3588.06
484.463	3995.06
484.681	4492.06
484.9	4116.06
485.118	3830.06
485.336	3763.06
485.554	3825.06
485.772	4018.06
485.99	4610.06
486.209	4865.06
486.427	4088.06
486.645	3658.06
486.863	3592.06
487.081	3453.06
487.299	3407.06
487.517	3426.06
487.735	3414.06
487.953	3441.06
488.171	3359.06
488.389	3377.06
488.607	3330.06
488.825	3291.06
489.043	3207.06
489.261	3244.06
489.479	3252.06
489.696	3266.06
489.914	3279.06
490.132	3296.06
490.35	3344.06
490.568	3346.06
490.786	3375.06
491.003	3408.06
491.221	3382.06
491.439	3401.06
491.657	3391.06
491.874	3410.06
492.092	3448.06
492.31	3497.06
492.527	3416.06
492.745	3414.06
492.963	3384.06
493.18	3394.06
493.398	3379.06
493.615	3477.06
493.833	3446.06
494.05	3438.06
494.268	3450.06
494.485	3432.06
494.703	3466.06
494.92	3400.06
495.138	3467.06
495.355	3434.06
495.573	3442.06
495.79	3520.06
496.008	3500.06
496.225	3516.06
496.442	3567.06
496.66	3696.06
496.877	3847.06
497.094	3903.06
497.312	3728.06
497.529	3696.06
497.746	3774.06
497.963	3852.06
498.181	3883.06
498.398	3947.06
498.615	4087.06
498.832	4223.06
499.049	4459.06
499.267	4771.06
499.484	5127.06
499.701	5072.06
499.918	5145.06
500.135	5423.06
500.352	5730.06
500.569	5849.06
500.786	5776.06
501.003	5586.06
501.22	5340.06
501.437	5033.06
501.654	4707.06
501.871	4608.06
502.088	4462.06
502.305	4276.06
502.522	4096.06
502.739	4030.06
502.956	3854.06
503.172	3867.06
503.389	3794.06
503.606	3663.06
503.823	3623.06
504.04	3564.06
504.256	3598.06
504.473	3566.06
504.69	3602.06
504.907	3517.06
505.123	3478.06
505.34	3338.06
505.557	3299.06
505.773	3269.06
505.99	3257.06
506.207	3176.06
506.423	3106.06
506.64	3119.06
506.856	3075.06
507.073	3083.06
507.289	3088.06
507.506	3026.06
507.722	3027.06
507.939	3017.06
508.155	2992.06
508.372	2952.06
508.588	3037.06
508.805	2983.06
509.021	2955.06
509.238	3004.06
509.454	3177.06
509.67	3381.06
509.887	3136.06
510.103	3081.06
510.319	2987.06
510.536	2997.06
510.752	2959.06
510.968	2954.06
511.184	2869.06
511.401	2834.06
511.617	2907.06
511.833	2876.06
512.049	2850.06
512.265	2848.06
512.481	2851.06
512.698	2849.06
512.914	2843.06
513.13	2857.06
513.346	2857.06
513.562	2869.06
513.778	2890.06
513.994	2922.06
514.21	2915.06
514.426	3130.06
514.642	3230.06
514.858	3056.06
515.074	2935.06
515.29	2886.06
515.506	2838.06
515.721	2937.06
515.937	2907.06
516.153	2942.06
516.369	2963.06
516.585	3056.06
516.801	3083.06
517.016	3105.06
517.232	3179.06
517.448	3226.06
517.664	3301.06
517.879	3272.06
518.095	3270.06
518.311	3244.06
518.527	3249.06
518.742	3162.06
518.958	3220.06
519.173	3289.06
519.389	3130.06
519.605	2993.06
519.82	2940.06
520.036	2924.06
520.251	2899.06
520.467	2862.06
520.682	2795.06
520.898	2824.06
521.113	2837.06
521.329	2758.06
521.544	2805.06
521.76	2802.06
521.975	2818.06
522.19	2746.06
522.406	2793.06
522.621	2719.06
522.836	2782.06
523.052	2790.06
523.267	2726.06
523.482	2729.06
523.698	2700.06
523.913	2723.06
524.128	2706.06
524.343	2750.06
524.559	2679.06
524.774	2727.06
524.989	2800.06
525.204	2731.06
525.419	2711.06
525.634	2691.06
525.849	2738.06
526.064	2704.06
526.28	2738.06
526.495	2706.06
526.71	2727.06
526.925	2743.06
527.14	2749.06
527.355	2735.06
527.57	2727.06
527.785	2726.06
527.999	2708.06
528.214	2799.06
528.429	2788.06
528.644	2852.06
528.859	2883.06
529.074	2872.06
529.289	2926.06
529.503	2898.06
529.718	2912.06
529.933	2872.06
530.148	2895.06
530.363	2883.06
530.577	2894.06
530.792	2958.06
531.007	2920.06
531.221	2993.06
531.436	2992.06
531.651	3015.06
531.865	3057.06
532.08	3105.06
532.295	3120.06
532.509	3388.06
532.724	3431.06
532.938	3463.06
533.153	3547.06
533.367	3846.06
533.582	4086.06
533.796	3961.06
534.011	3862.06
534.225	3638.06
534.44	3487.06
534.654	3400.06
534.868	3354.06
535.083	3306.06
535.297	3188.06
535.511	3206.06
535.726	3139.06
535.94	3138.06
536.154	3068.06
536.369	3003.06
536.583	2980.06
536.797	2982.06
537.011	2934.06
537.225	2849.06
537.44	2851.06
537.654	2838.06
537.868	2819.06
538.082	2744.06
538.296	2712.06
538.51	2722.06
538.724	2700.06
538.938	2694.06
539.153	2691.06
539.367	2736.06
539.581	2663.06
539.795	2622.06
540.009	2659.06
540.222	2642.06
540.436	2652.06
540.65	2627.06
540.864	2664.06
541.078	2727.06
541.292	2850.06
541.506	3292.06
541.72	3507.06
541.934	3054.06
542.147	2888.06
542.361	2745.06
542.575	2627.06
542.789	2641.06
543.002	2563.06
543.216	2513.06
543.43	2548.06
543.644	2559.06
543.857	2511.06
544.071	2558.06
544.285	2543.06
544.498	2551.06
544.712	2558.06
544.925	2621.06
545.139	2520.06
545.352	2566.06
545.566	2599.06
545.779	2593.06
545.993	2578.06
546.206	2587.06
546.42	2554.06
546.633	2558.06
546.847	2629.06
547.06	2518.06
547.274	2594.06
547.487	2546.06
547.7	2603.06
547.914	2555.06
548.127	2571.06
548.34	2544.06
548.554	2539.06
548.767	2547.06
548.98	2548.06
549.193	2591.06
549.407	2562.06
549.62	2564.06
549.833	2620.06
550.046	2545.06
550.259	2516.06
550.473	2571.06
550.686	2558.06
550.899	2610.06
551.112	2558.06
551.325	2558.06
551.538	2543.06
551.751	2564.06
551.964	2566.06
552.177	2620.06
552.39	2651.06
552.603	2763.06
552.816	2727.06
553.029	2806.06
553.242	2830.06
553.455	2834.06
553.667	2892.06
553.88	2852.06
554.093	2908.06
554.306	2933.06
554.519	2855.06
554.732	2994.06
554.944	2963.06
555.157	3067.06
555.37	3100.06
555.583	3288.06
555.795	3450.06
556.008	3708.06
556.221	4146.06
556.433	4430.06
556.646	4475.06
556.859	4250.06
557.071	4085.06
557.284	4012.06
557.496	3880.06
557.709	3778.06
557.921	3731.06
558.134	3722.06
558.346	3742.06
558.559	3945.06
558.771	4146.06
558.984	4537.06
559.196	4891.06
559.409	4639.06
559.621	4248.06
559.833	3984.06
560.046	3783.06
560.258	3574.06
560.47	3407.06
560.683	3296.06
560.895	3122.06
561.107	3062.06
561.32	2946.06
561.532	2837.06
561.744	2781.06
561.956	2742.06
562.168	2742.06
562.381	2649.06
562.593	2627.06
562.805	2691.06
563.017	2739.06
563.229	2780.06
563.441	3168.06
563.653	2668.06
563.865	2494.06
564.077	2454.06
564.289	2415.06
564.501	2411.06
564.713	2410.06
564.925	2369.06
565.137	2384.06
565.349	2337.06
565.561	2383.06
565.773	2392.06
565.985	2430.06
566.197	2427.06
566.408	2505.06
566.62	2582.06
566.832	2614.06
567.044	2617.06
567.255	2638.06
567.467	2680.06
567.679	2702.06
567.891	2792.06
568.102	3176.06
568.314	3555.06
568.526	3094.06
568.737	2726.06
568.949	2518.06
569.161	2360.06
569.372	2233.06
569.584	2226.06
569.795	2204.06
570.007	2184.06
570.218	2188.06
570.43	2246.06
570.641	2058.06
570.853	1992.06
571.064	2004.06
571.276	1997.06
571.487	1915.06
571.698	1903.06
571.91	1911.06
572.121	1893.06
572.333	1834.06
572.544	1889.06
572.755	1972.06
572.966	2270.06
573.178	2121.06
573.389	1889.06
573.6	1844.06
573.811	1798.06
574.023	1766.06
574.234	1759.06
574.445	1767.06
574.656	1702.06
574.867	1733.06
575.078	1715.06
575.289	1691.06
575.501	1747.06
575.712	1699.06
575.923	1728.06
576.134	1710.06
576.345	1722.06
576.556	1743.06
576.767	1718.06
576.978	1734.06
577.188	1754.06
577.399	1755.06
577.61	1754.06
577.821	1745.06
578.032	1800.06
578.243	1850.06
578.454	1872.06
578.665	1860.06
578.875	1926.06
579.086	2011.06
579.297	2104.06
579.508	2241.06
579.718	2461.06
579.929	2734.06
580.14	3248.06
580.35	3278.06
580.561	3050.06
580.772	2715.06
580.982	2539.06
581.193	2335.06
581.403	2240.06
581.614	2055.06
581.825	2013.06
582.035	1932.06
582.246	1893.06
582.456	1851.06
582.667	1819.06
582.877	1775.06
583.087	1722.06
583.298	1668.06
583.508	1607.06
583.719	1599.06
583.929	1566.06
584.139	1525.06
584.35	1502.06
584.56	1490.06
584.77	1465.06
584.981	1434.06
585.191	1419.06
585.401	1385.06
585.611	1416.06
585.821	1398.06
586.032	1387.06
586.242	1364.06
586.452	1342.06
586.662	1346.06
586.872	1299.06
587.082	1306.06
587.292	1263.06
587.502	1274.06
587.713	1272.06
587.923	1257.06
588.133	1260.06
588.343	1229.06
588.553	1227.06
588.762	1238.06
588.972	1233.06
589.182	1254.06
589.392	1235.06
589.602	1208.06
589.812	1215.06
590.022	1179.06
590.232	1155.06
590.441	1186.06
590.651	1145.06
590.861	1187.06
591.071	1191.06
591.281	1163.06
591.49	1157.06
591.7	1194.06
591.91	1176.06
592.119	1178.06
592.329	1172.06
592.539	1183.06
592.748	1207.06
592.958	1227.06
593.167	1211.06
593.377	1220.06
593.587	1226.06
593.796	1220.06
594.006	1255.06
594.215	1201.06
594.424	1225.06
594.634	1182.06
594.843	1186.06
595.053	1185.06
595.262	1123.06
595.472	1128.06
595.681	1083.06
595.89	1089.06
596.1	1092.06
596.309	1074.06
596.518	1061.06
596.727	1036.06
596.937	1059.06
597.146	1030.06
597.355	1054.06
597.564	996.06
597.774	987.06
597.983	996.06
598.192	987.06
598.401	985.06
598.61	966.06
598.819	974.06
599.028	987.06
599.237	964.06
599.446	966.06
599.655	964.06
599.864	953.06
600.073	932.06
600.282	942.06
600.491	954.06
600.7	924.06
600.909	934.06
601.118	931.06
601.327	964.06
601.536	944.06
601.745	952.06
601.953	1076.06
602.162	1207.06
602.371	1065.06
602.58	978.06
602.789	987.06
602.997	991.06
603.206	922.06
603.415	916.06
603.623	909.06
603.832	927.06
604.041	923.06
604.249	911.06
604.458	876.06
604.666	875.06
604.875	882.06
605.084	885.06
605.292	901.06
605.501	908.06
605.709	904.06
605.918	900.06
606.126	906.06
606.334	916.06
606.543	923.06
606.751	972.06
606.96	1111.06
607.168	1212.06
607.376	1035.06
607.585	948.06
607.793	946.06
608.001	900.06
608.21	891.06
608.418	899.06
608.626	860.06
608.834	873.06
609.043	892.06
609.251	861.06
609.459	866.06
609.667	865.06
609.875	849.06
610.083	821.06
610.291	821.06
610.499	816.06
610.707	832.06
610.916	822.06
611.124	840.06
611.332	848.06
611.54	834.06
611.748	822.06
611.955	792.06
612.163	808.06
612.371	803.06
612.579	788.06
612.787	798.06
612.995	799.06
613.203	803.06
613.411	805.06
613.618	790.06
613.826	784.06
614.034	802.06
614.242	770.06
614.449	793.06
614.657	776.06
614.865	770.06
615.072	814.06
615.28	784.06
615.488	808.06
615.695	794.06
615.903	800.06
616.111	792.06
616.318	760.06
616.526	774.06
616.733	792.06
616.941	783.06
617.148	776.06
617.356	778.06
617.563	764.06
617.771	779.06
617.978	754.06
618.185	766.06
618.393	740.06
618.6	759.06
618.807	759.06
619.015	778.06
619.222	752.06
619.429	733.06
619.637	751.06
619.844	708.06
620.051	709.06
620.258	711.06
620.466	722.06
620.673	716.06
620.88	686.06
621.087	690.06
621.294	720.06
621.501	690.06
621.708	712.06
621.915	715.06
622.122	699.06
622.329	694.06
622.536	698.06
622.743	703.06
622.95	711.06
623.157	714.06
623.364	682.06
623.571	672.06
623.778	665.06
623.985	712.06
624.192	681.06
624.399	687.06
624.606	679.06
624.812	648.06
625.019	675.06
625.226	688.06
625.433	678.06
625.639	662.06
625.846	635.06
626.053	644.06
626.259	648.06
626.466	651.06
626.673	632.06
626.879	638.06
627.086	629.06
627.293	638.06
627.499	636.06
627.706	644.06
627.912	635.06
628.119	635.06
628.325	649.06
628.532	641.06
628.738	641.06
628.945	632.06
629.151	630.06
629.357	627.06
629.564	611.06
629.77	619.06
629.976	618.06
630.183	609.06
630.389	618.06
630.595	586.06
630.802	615.06
631.008	616.06
631.214	612.06
631.42	600.06
631.627	602.06
631.833	582.06
632.039	607.06
632.245	586.06
632.451	592.06
632.657	587.06
632.863	588.06
633.069	591.06
633.275	578.06
633.481	590.06
633.688	563.06
633.893	582.06
634.099	566.06
634.305	595.06
634.511	578.06
634.717	597.06
634.923	622.06
635.129	680.06
635.335	759.06
635.541	681.06
635.747	649.06
635.952	626.06
636.158	599.06
636.364	591.06
636.57	571.06
636.775	581.06
636.981	586.06
637.187	596.06
637.392	596.06
637.598	579.06
637.804	575.06
638.009	563.06
638.215	582.06
638.421	577.06
638.626	587.06
638.832	572.06
639.037	576.06
639.243	598.06
639.448	596.06
639.654	602.06
639.859	600.06
640.065	604.06
640.27	612.06
640.475	601.06
640.681	598.06
640.886	643.06
641.091	600.06
641.297	622.06
641.502	609.06
641.707	634.06
641.913	650.06
642.118	656.06
642.323	668.06
642.528	679.06
642.733	688.06
642.939	728.06
643.144	716.06
643.349	761.06
643.554	776.06
643.759	804.06
643.964	823.06
644.169	901.06
644.374	961.06
644.579	1049.06
644.784	1141.06
644.989	1328.06
645.194	1531.06
645.399	1924.06
645.604	2020.06
645.809	1500.06
646.014	1170.06
646.219	985.06
646.423	887.06
646.628	769.06
646.833	722.06
647.038	681.06
647.243	638.06
647.447	601.06
647.652	605.06
647.857	574.06
648.062	576.06
648.266	553.06
648.471	555.06
648.676	573.06
648.88	558.06
649.085	521.06
649.289	537.06
649.494	507.06
649.698	520.06
649.903	510.06
650.107	502.06
650.312	506.06
650.516	464.06
650.721	448.06
650.925	442.06
651.13	459.06
651.334	447.06
651.539	435.06
651.743	442.06
651.947	427.06
652.152	434.06
652.356	432.06
652.56	451.06
652.764	514.06
652.969	456.06
653.173	416.06
653.377	386.06
653.581	377.06
653.785	415.06
653.99	372.06
654.194	363.06
654.398	363.06
654.602	355.06
654.806	353.06
655.01	340.06
655.214	352.06
655.418	348.06
655.622	347.06
655.826	353.06
656.03	375.06
656.234	372.06
656.438	382.06
656.642	388.06
656.846	360.06
657.049	349.06
657.253	345.06
657.457	323.06
657.661	274.06
657.865	282.06
658.068	255.06
658.272	274.06
658.476	258.06
658.68	231.06
658.883	217.06
659.087	212.06
659.291	198.06
659.494	202.06
659.698	176.06
659.901	174.06
660.105	164.06
660.309	168.06
660.512	166.06
660.716	160.06
660.919	152.06
661.123	140.06
661.326	131.06
661.53	131.06
661.733	120.06
661.936	135.06
662.14	122.06
662.343	121.06
662.546	128.06
662.75	111.06
662.953	94.06
663.156	90.06
663.36	100.06
663.563	99.06
663.766	96.06
663.969	92.06
664.173	95.06
664.376	88.06
664.579	93.06
664.782	89.06
664.985	88.06
665.188	76.06
665.391	90.06
665.594	88.06
665.797	76.06
666	78.06
666.203	92.06
666.406	86.06
666.609	100.06
666.812	85.06
667.015	91.06
667.218	88.06
667.421	78.06
667.624	76.06
667.827	108.06
668.03	86.06
668.232	83.06
668.435	83.06
668.638	89.06
668.841	74.06
669.043	85.06
669.246	92.06
669.449	89.06
669.651	77.06
669.854	71.06
670.057	84.06
670.259	82.06
670.462	88.06
670.665	71.06
670.867	78.06
671.07	79.06
671.272	81.06
671.475	80.06
671.677	78.06
671.88	66.06
672.082	95.06
672.284	91.06
672.487	86.06
672.689	80.06
672.892	82.06
