Data from SnStandardFlinnAPT0064_LampEnergy5.5_LIBS07252019.E.O._I.C._HRD10591_15-14-43-491.txt Node
Date: Thu Jul 25 15:14:43 EDT 2019
User: cochatt
Spectrometer: HR+D1059
Trigger mode: 1
Integration Time (sec): 1.000000E-1
Scans to average: 1
Electric dark correction enabled: true
Nonlinearity correction enabled: false
Boxcar width: 0
XAxis mode: Wavelengths
Number of Pixels in Spectrum: 2048
>>>>>Begin Spectral Data<<<<<
223.165	-17.31
223.4	-17.31
223.635	-17.31
223.869	-30.31
224.104	-19.31
224.338	-8.31
224.573	-17.31
224.808	-6.31
225.042	3.69
225.277	-3.31
225.511	1.69
225.746	-7.31
225.98	16.69
226.215	7.69
226.449	8.69
226.683	19.69
226.918	22.69
227.152	28.69
227.387	39.69
227.621	32.69
227.856	36.69
228.09	35.69
228.324	61.69
228.559	58.69
228.793	72.69
229.027	124.69
229.262	138.69
229.496	156.69
229.73	145.69
229.964	157.69
230.199	152.69
230.433	145.69
230.667	166.69
230.901	174.69
231.136	148.69
231.37	152.69
231.604	178.69
231.838	194.69
232.072	204.69
232.306	216.69
232.541	206.69
232.775	198.69
233.009	187.69
233.243	181.69
233.477	201.69
233.711	216.69
233.945	236.69
234.179	215.69
234.413	203.69
234.647	210.69
234.881	206.69
235.115	202.69
235.349	239.69
235.583	304.69
235.817	361.69
236.051	343.69
236.285	269.69
236.519	219.69
236.753	220.69
236.987	209.69
237.221	210.69
237.455	218.69
237.689	203.69
237.922	200.69
238.156	210.69
238.39	202.69
238.624	208.69
238.858	216.69
239.091	215.69
239.325	199.69
239.559	227.69
239.793	219.69
240.027	242.69
240.26	222.69
240.494	241.69
240.728	227.69
240.961	245.69
241.195	250.69
241.429	250.69
241.662	276.69
241.896	310.69
242.13	330.69
242.363	428.69
242.597	536.69
242.83	500.69
243.064	514.69
243.298	585.69
243.531	513.69
243.765	343.69
243.998	290.69
244.232	265.69
244.465	281.69
244.699	277.69
244.932	278.69
245.166	287.69
245.399	295.69
245.633	277.69
245.866	274.69
246.099	290.69
246.333	280.69
246.566	263.69
246.8	271.69
247.033	270.69
247.266	263.69
247.5	267.69
247.733	294.69
247.966	289.69
248.2	298.69
248.433	336.69
248.666	359.69
248.899	348.69
249.133	345.69
249.366	331.69
249.599	355.69
249.832	378.69
250.066	382.69
250.299	310.69
250.532	304.69
250.765	305.69
250.998	295.69
251.231	292.69
251.465	307.69
251.698	306.69
251.931	298.69
252.164	306.69
252.397	300.69
252.63	350.69
252.863	308.69
253.096	330.69
253.329	326.69
253.562	319.69
253.795	320.69
254.028	324.69
254.261	322.69
254.494	346.69
254.727	390.69
254.96	432.69
255.193	420.69
255.426	367.69
255.659	353.69
255.892	331.69
256.124	340.69
256.357	344.69
256.59	374.69
256.823	374.69
257.056	406.69
257.289	470.69
257.521	483.69
257.754	441.69
257.987	382.69
258.22	372.69
258.452	376.69
258.685	360.69
258.918	403.69
259.151	392.69
259.383	408.69
259.616	448.69
259.849	447.69
260.081	406.69
260.314	392.69
260.547	418.69
260.779	394.69
261.012	381.69
261.244	386.69
261.477	397.69
261.71	402.69
261.942	406.69
262.175	412.69
262.407	433.69
262.64	424.69
262.872	465.69
263.105	473.69
263.337	485.69
263.57	510.69
263.802	520.69
264.035	550.69
264.267	539.69
264.499	563.69
264.732	592.69
264.964	608.69
265.197	601.69
265.429	603.69
265.661	593.69
265.894	640.69
266.126	675.69
266.358	711.69
266.591	682.69
266.823	633.69
267.055	587.69
267.287	544.69
267.52	561.69
267.752	529.69
267.984	534.69
268.216	523.69
268.448	520.69
268.681	498.69
268.913	493.69
269.145	488.69
269.377	487.69
269.609	512.69
269.841	507.69
270.073	560.69
270.306	590.69
270.538	753.69
270.77	1013.69
271.002	1194.69
271.234	922.69
271.466	663.69
271.698	558.69
271.93	562.69
272.162	517.69
272.394	506.69
272.626	510.69
272.858	493.69
273.09	479.69
273.322	491.69
273.553	485.69
273.785	482.69
274.017	470.69
274.249	494.69
274.481	496.69
274.713	484.69
274.945	483.69
275.176	473.69
275.408	499.69
275.64	478.69
275.872	482.69
276.104	492.69
276.335	508.69
276.567	512.69
276.799	494.69
277.031	506.69
277.262	524.69
277.494	520.69
277.726	567.69
277.957	638.69
278.189	667.69
278.421	662.69
278.652	604.69
278.884	591.69
279.115	561.69
279.347	536.69
279.579	532.69
279.81	517.69
280.042	498.69
280.273	544.69
280.505	562.69
280.736	558.69
280.968	575.69
281.199	614.69
281.431	668.69
281.662	670.69
281.894	637.69
282.125	606.69
282.356	639.69
282.588	618.69
282.819	611.69
283.051	659.69
283.282	721.69
283.513	867.69
283.745	1164.69
283.976	1730.69
284.207	2380.69
284.439	2173.69
284.67	1412.69
284.901	1168.69
285.132	1127.69
285.364	1070.69
285.595	901.69
285.826	845.69
286.057	948.69
286.288	1225.69
286.52	1555.69
286.751	1480.69
286.982	996.69
287.213	797.69
287.444	713.69
287.675	664.69
287.906	672.69
288.138	655.69
288.369	642.69
288.6	663.69
288.831	649.69
289.062	662.69
289.293	670.69
289.524	665.69
289.755	638.69
289.986	661.69
290.217	651.69
290.448	655.69
290.679	670.69
290.91	662.69
291.141	668.69
291.371	696.69
291.602	725.69
291.833	700.69
292.064	631.69
292.295	635.69
292.526	655.69
292.757	640.69
292.987	623.69
293.218	584.69
293.449	632.69
293.68	620.69
293.91	612.69
294.141	617.69
294.372	611.69
294.603	587.69
294.833	592.69
295.064	610.69
295.295	599.69
295.525	602.69
295.756	612.69
295.987	607.69
296.217	636.69
296.448	596.69
296.679	622.69
296.909	605.69
297.14	618.69
297.37	620.69
297.601	627.69
297.831	624.69
298.062	624.69
298.292	633.69
298.523	640.69
298.753	680.69
298.984	642.69
299.214	660.69
299.445	658.69
299.675	656.69
299.905	680.69
300.136	707.69
300.366	779.69
300.597	922.69
300.827	1202.69
301.057	1555.69
301.288	1519.69
301.518	1100.69
301.748	870.69
301.979	824.69
302.209	802.69
302.439	818.69
302.669	838.69
302.9	1002.69
303.13	1296.69
303.36	1778.69
303.59	2297.69
303.82	2054.69
304.051	1338.69
304.281	1059.69
304.511	885.69
304.741	831.69
304.971	786.69
305.201	740.69
305.431	766.69
305.661	736.69
305.891	728.69
306.121	714.69
306.352	710.69
306.582	706.69
306.812	690.69
307.042	722.69
307.272	697.69
307.502	699.69
307.731	697.69
307.961	716.69
308.191	681.69
308.421	700.69
308.651	737.69
308.881	701.69
309.111	712.69
309.341	697.69
309.571	703.69
309.8	713.69
310.03	703.69
310.26	744.69
310.49	699.69
310.72	729.69
310.949	726.69
311.179	731.69
311.409	721.69
311.639	739.69
311.868	732.69
312.098	740.69
312.328	768.69
312.557	768.69
312.787	734.69
313.017	747.69
313.246	774.69
313.476	757.69
313.706	791.69
313.935	795.69
314.165	819.69
314.394	859.69
314.624	835.69
314.853	810.69
315.083	806.69
315.312	820.69
315.542	814.69
315.771	830.69
316.001	840.69
316.23	860.69
316.46	890.69
316.689	980.69
316.919	1083.69
317.148	1456.69
317.377	2158.69
317.607	3035.69
317.836	3176.69
318.065	1972.69
318.295	1416.69
318.524	1145.69
318.753	1030.69
318.983	960.69
319.212	915.69
319.441	931.69
319.67	891.69
319.9	915.69
320.129	881.69
320.358	875.69
320.587	866.69
320.816	878.69
321.046	894.69
321.275	870.69
321.504	902.69
321.733	922.69
321.962	919.69
322.191	935.69
322.42	936.69
322.649	933.69
322.878	918.69
323.108	947.69
323.337	942.69
323.566	952.69
323.795	977.69
324.024	1012.69
324.253	1004.69
324.482	1038.69
324.71	1067.69
324.939	1125.69
325.168	1128.69
325.397	1185.69
325.626	1324.69
325.855	1791.69
326.084	2598.69
326.313	3732.69
326.542	4007.69
326.77	2693.69
326.999	1912.69
327.228	1679.69
327.457	1582.69
327.686	1610.69
327.914	1716.69
328.143	1938.69
328.372	2178.69
328.6	2394.69
328.829	2237.69
329.058	1979.69
329.287	1761.69
329.515	1666.69
329.744	1543.69
329.972	1504.69
330.201	1383.69
330.43	1392.69
330.658	1334.69
330.887	1313.69
331.115	1294.69
331.344	1270.69
331.572	1259.69
331.801	1282.69
332.03	1278.69
332.258	1315.69
332.486	1326.69
332.715	1470.69
332.943	1753.69
333.172	2037.69
333.4	2024.69
333.629	1697.69
333.857	1603.69
334.085	1610.69
334.314	1687.69
334.542	1796.69
334.771	2031.69
334.999	2356.69
335.227	2863.69
335.455	3132.69
335.684	2964.69
335.912	2596.69
336.14	2264.69
336.369	2041.69
336.597	1894.69
336.825	1762.69
337.053	1643.69
337.281	1522.69
337.51	1507.69
337.738	1440.69
337.966	1366.69
338.194	1366.69
338.422	1320.69
338.65	1254.69
338.878	1241.69
339.106	1211.69
339.334	1212.69
339.562	1161.69
339.79	1191.69
340.018	1183.69
340.246	1142.69
340.474	1148.69
340.702	1130.69
340.93	1156.69
341.158	1155.69
341.386	1141.69
341.614	1115.69
341.842	1114.69
342.07	1082.69
342.298	1074.69
342.526	1040.69
342.754	1059.69
342.981	1044.69
343.209	1064.69
343.437	1054.69
343.665	1064.69
343.893	1075.69
344.12	1085.69
344.348	1035.69
344.576	1059.69
344.804	1052.69
345.031	1015.69
345.259	1027.69
345.487	988.69
345.714	968.69
345.942	1003.69
346.17	1006.69
346.397	965.69
346.625	987.69
346.853	964.69
347.08	972.69
347.308	940.69
347.535	967.69
347.763	937.69
347.99	942.69
348.218	948.69
348.445	939.69
348.673	949.69
348.9	937.69
349.128	939.69
349.355	933.69
349.583	934.69
349.81	931.69
350.037	963.69
350.265	930.69
350.492	951.69
350.72	932.69
350.947	915.69
351.174	925.69
351.402	908.69
351.629	916.69
351.856	940.69
352.083	939.69
352.311	932.69
352.538	942.69
352.765	910.69
352.992	906.69
353.22	935.69
353.447	902.69
353.674	920.69
353.901	936.69
354.128	931.69
354.355	924.69
354.583	947.69
354.81	948.69
355.037	938.69
355.264	899.69
355.491	976.69
355.718	944.69
355.945	946.69
356.172	948.69
356.399	946.69
356.626	980.69
356.853	961.69
357.08	983.69
357.307	980.69
357.534	975.69
357.761	976.69
357.988	982.69
358.215	974.69
358.441	967.69
358.668	960.69
358.895	968.69
359.122	949.69
359.349	984.69
359.576	972.69
359.802	962.69
360.029	977.69
360.256	998.69
360.483	966.69
360.709	976.69
360.936	999.69
361.163	982.69
361.39	971.69
361.616	974.69
361.843	950.69
362.07	997.69
362.296	985.69
362.523	984.69
362.749	982.69
362.976	965.69
363.203	969.69
363.429	981.69
363.656	969.69
363.882	984.69
364.109	979.69
364.335	999.69
364.562	976.69
364.788	989.69
365.015	982.69
365.241	998.69
365.468	1027.69
365.694	1036.69
365.92	1071.69
366.147	988.69
366.373	1011.69
366.599	994.69
366.826	994.69
367.052	983.69
367.278	988.69
367.505	1016.69
367.731	998.69
367.957	1014.69
368.184	1021.69
368.41	1022.69
368.636	1032.69
368.862	1042.69
369.089	1022.69
369.315	1026.69
369.541	1026.69
369.767	1037.69
369.993	1014.69
370.219	1022.69
370.445	1014.69
370.672	1045.69
370.898	1033.69
371.124	1058.69
371.35	1072.69
371.576	1074.69
371.802	1041.69
372.028	1070.69
372.254	1074.69
372.48	1051.69
372.706	1078.69
372.932	1130.69
373.158	1077.69
373.384	1072.69
373.61	1106.69
373.835	1119.69
374.061	1105.69
374.287	1092.69
374.513	1106.69
374.739	1129.69
374.965	1128.69
375.191	1124.69
375.416	1137.69
375.642	1131.69
375.868	1079.69
376.094	1066.69
376.319	1073.69
376.545	1065.69
376.771	1076.69
376.997	1064.69
377.222	1025.69
377.448	1063.69
377.674	1083.69
377.899	1076.69
378.125	1040.69
378.35	1056.69
378.576	1103.69
378.802	1054.69
379.027	1092.69
379.253	1111.69
379.478	1140.69
379.704	1310.69
379.929	1678.69
380.155	2332.69
380.38	2466.69
380.606	1698.69
380.831	1296.69
381.057	1186.69
381.282	1119.69
381.507	1117.69
381.733	1090.69
381.958	1056.69
382.184	1044.69
382.409	1028.69
382.634	1072.69
382.86	1029.69
383.085	1076.69
383.31	1054.69
383.535	1060.69
383.761	1062.69
383.986	1075.69
384.211	1074.69
384.436	1070.69
384.662	1077.69
384.887	1082.69
385.112	1066.69
385.337	1070.69
385.562	1087.69
385.787	1080.69
386.013	1111.69
386.238	1087.69
386.463	1066.69
386.688	1097.69
386.913	1080.69
387.138	1096.69
387.363	1073.69
387.588	1080.69
387.813	1107.69
388.038	1102.69
388.263	1094.69
388.488	1124.69
388.713	1092.69
388.938	1118.69
389.163	1061.69
389.387	1067.69
389.612	1082.69
389.837	1099.69
390.062	1110.69
390.287	1099.69
390.512	1073.69
390.736	1115.69
390.961	1120.69
391.186	1121.69
391.411	1125.69
391.636	1155.69
391.86	1170.69
392.085	1154.69
392.31	1134.69
392.534	1105.69
392.759	1134.69
392.984	1106.69
393.208	1102.69
393.433	1120.69
393.658	1098.69
393.882	1089.69
394.107	1107.69
394.331	1093.69
394.556	1090.69
394.78	1110.69
395.005	1131.69
395.229	1121.69
395.454	1139.69
395.678	1130.69
395.903	1143.69
396.127	1138.69
396.352	1113.69
396.576	1144.69
396.801	1140.69
397.025	1124.69
397.249	1118.69
397.474	1170.69
397.698	1150.69
397.922	1186.69
398.147	1163.69
398.371	1171.69
398.595	1204.69
398.82	1228.69
399.044	1266.69
399.268	1339.69
399.492	1384.69
399.717	1432.69
399.941	1456.69
400.165	1382.69
400.389	1361.69
400.613	1303.69
400.837	1255.69
401.062	1217.69
401.286	1200.69
401.51	1190.69
401.734	1218.69
401.958	1203.69
402.182	1240.69
402.406	1222.69
402.63	1231.69
402.854	1236.69
403.078	1231.69
403.302	1240.69
403.526	1265.69
403.75	1251.69
403.974	1269.69
404.198	1263.69
404.422	1235.69
404.645	1288.69
404.869	1239.69
405.093	1258.69
405.317	1247.69
405.541	1306.69
405.765	1280.69
405.988	1274.69
406.212	1286.69
406.436	1246.69
406.66	1296.69
406.883	1311.69
407.107	1323.69
407.331	1327.69
407.555	1370.69
407.778	1328.69
408.002	1337.69
408.226	1333.69
408.449	1324.69
408.673	1302.69
408.896	1271.69
409.12	1284.69
409.344	1258.69
409.567	1249.69
409.791	1264.69
410.014	1224.69
410.238	1222.69
410.461	1240.69
410.685	1227.69
410.908	1219.69
411.132	1219.69
411.355	1207.69
411.578	1208.69
411.802	1222.69
412.025	1212.69
412.249	1192.69
412.472	1204.69
412.695	1202.69
412.919	1183.69
413.142	1216.69
413.365	1216.69
413.589	1175.69
413.812	1208.69
414.035	1188.69
414.258	1173.69
414.482	1165.69
414.705	1194.69
414.928	1172.69
415.151	1195.69
415.374	1198.69
415.597	1154.69
415.821	1162.69
416.044	1146.69
416.267	1131.69
416.49	1164.69
416.713	1170.69
416.936	1136.69
417.159	1114.69
417.382	1149.69
417.605	1123.69
417.828	1180.69
418.051	1129.69
418.274	1129.69
418.497	1133.69
418.72	1182.69
418.943	1140.69
419.166	1266.69
419.389	1255.69
419.611	1237.69
419.834	1230.69
420.057	1207.69
420.28	1187.69
420.503	1140.69
420.726	1127.69
420.948	1152.69
421.171	1157.69
421.394	1148.69
421.617	1116.69
421.839	1155.69
422.062	1162.69
422.285	1156.69
422.507	1183.69
422.73	1152.69
422.953	1174.69
423.175	1196.69
423.398	1147.69
423.621	1152.69
423.843	1180.69
424.066	1164.69
424.288	1165.69
424.511	1168.69
424.733	1154.69
424.956	1152.69
425.178	1145.69
425.401	1152.69
425.623	1105.69
425.846	1124.69
426.068	1120.69
426.291	1140.69
426.513	1149.69
426.735	1090.69
426.958	1089.69
427.18	1052.69
427.402	1074.69
427.625	1107.69
427.847	1068.69
428.069	1096.69
428.292	1080.69
428.514	1098.69
428.736	1077.69
428.958	1066.69
429.181	1081.69
429.403	1064.69
429.625	1050.69
429.847	1066.69
430.069	1077.69
430.292	1134.69
430.514	1139.69
430.736	1142.69
430.958	1088.69
431.18	1049.69
431.402	1066.69
431.624	1031.69
431.846	1056.69
432.068	1053.69
432.29	1058.69
432.512	1001.69
432.734	1059.69
432.956	1071.69
433.178	1081.69
433.4	1095.69
433.622	1054.69
433.844	1093.69
434.066	1107.69
434.287	1065.69
434.509	1059.69
434.731	1081.69
434.953	1086.69
435.175	1086.69
435.397	1104.69
435.618	1065.69
435.84	1060.69
436.062	1081.69
436.284	1058.69
436.505	1059.69
436.727	1058.69
436.949	1047.69
437.17	1066.69
437.392	1055.69
437.614	1044.69
437.835	986.69
438.057	1009.69
438.278	1023.69
438.5	1037.69
438.721	1043.69
438.943	1059.69
439.165	1068.69
439.386	1060.69
439.608	1090.69
439.829	1122.69
440.05	1123.69
440.272	1117.69
440.493	1100.69
440.715	1119.69
440.936	1092.69
441.158	1127.69
441.379	1124.69
441.6	1174.69
441.822	1142.69
442.043	1191.69
442.264	1200.69
442.486	1164.69
442.707	1140.69
442.928	1112.69
443.149	1119.69
443.371	1124.69
443.592	1145.69
443.813	1168.69
444.034	1142.69
444.255	1154.69
444.476	1215.69
444.698	1218.69
444.919	1220.69
445.14	1311.69
445.361	1223.69
445.582	1158.69
445.803	1128.69
446.024	1147.69
446.245	1106.69
446.466	1134.69
446.687	1108.69
446.908	1098.69
447.129	1102.69
447.35	1096.69
447.571	1066.69
447.792	1048.69
448.013	1034.69
448.234	1040.69
448.455	1057.69
448.675	1036.69
448.896	1047.69
449.117	1091.69
449.338	1160.69
449.559	1188.69
449.779	1086.69
450	1046.69
450.221	1016.69
450.442	1051.69
450.662	998.69
450.883	995.69
451.104	1005.69
451.324	1031.69
451.545	1003.69
451.766	1024.69
451.986	1029.69
452.207	1076.69
452.428	1202.69
452.648	1593.69
452.869	1398.69
453.089	1129.69
453.31	1096.69
453.53	1095.69
453.751	1080.69
453.971	1128.69
454.192	1150.69
454.412	1032.69
454.633	995.69
454.853	992.69
455.073	960.69
455.294	977.69
455.514	973.69
455.734	977.69
455.955	963.69
456.175	960.69
456.395	963.69
456.616	980.69
456.836	968.69
457.056	987.69
457.276	992.69
457.497	1032.69
457.717	1028.69
457.937	1023.69
458.157	1020.69
458.377	1011.69
458.598	1011.69
458.818	1037.69
459.038	1002.69
459.258	1024.69
459.478	1049.69
459.698	1056.69
459.918	1088.69
460.138	1096.69
460.358	1118.69
460.578	1107.69
460.798	1130.69
461.018	1160.69
461.238	1178.69
461.458	1164.69
461.678	1165.69
461.898	1158.69
462.118	1190.69
462.338	1221.69
462.558	1201.69
462.777	1234.69
462.997	1277.69
463.217	1297.69
463.437	1341.69
463.657	1335.69
463.876	1344.69
464.096	1277.69
464.316	1236.69
464.536	1258.69
464.755	1205.69
464.975	1196.69
465.195	1155.69
465.414	1120.69
465.634	1095.69
465.854	1126.69
466.073	1095.69
466.293	1065.69
466.512	1056.69
466.732	1086.69
466.951	1115.69
467.171	1158.69
467.391	1130.69
467.61	1075.69
467.829	1042.69
468.049	1040.69
468.268	1020.69
468.488	1010.69
468.707	1047.69
468.927	1036.69
469.146	1026.69
469.365	1078.69
469.585	1056.69
469.804	1079.69
470.023	1096.69
470.243	1083.69
470.462	1088.69
470.681	1145.69
470.901	1214.69
471.12	1378.69
471.339	1331.69
471.558	1204.69
471.777	1119.69
471.997	1099.69
472.216	1078.69
472.435	1083.69
472.654	1002.69
472.873	1007.69
473.092	1028.69
473.311	1038.69
473.53	1039.69
473.749	1066.69
473.968	1072.69
474.187	1061.69
474.406	1076.69
474.625	1064.69
474.844	1045.69
475.063	1048.69
475.282	1020.69
475.501	1036.69
475.72	1044.69
475.939	1078.69
476.158	1062.69
476.377	1072.69
476.596	1095.69
476.814	1090.69
477.033	1072.69
477.252	1067.69
477.471	1131.69
477.69	1158.69
477.908	1183.69
478.127	1172.69
478.346	1161.69
478.564	1202.69
478.783	1204.69
479.002	1246.69
479.22	1267.69
479.439	1266.69
479.658	1242.69
479.876	1208.69
480.095	1218.69
480.313	1251.69
480.532	1289.69
480.751	1280.69
480.969	1233.69
481.188	1243.69
481.406	1222.69
481.624	1244.69
481.843	1225.69
482.061	1240.69
482.28	1244.69
482.498	1238.69
482.717	1238.69
482.935	1262.69
483.153	1287.69
483.372	1309.69
483.59	1303.69
483.808	1316.69
484.027	1318.69
484.245	1355.69
484.463	1470.69
484.681	1606.69
484.9	1493.69
485.118	1436.69
485.336	1399.69
485.554	1420.69
485.772	1468.69
485.99	1628.69
486.209	1714.69
486.427	1542.69
486.645	1373.69
486.863	1374.69
487.081	1348.69
487.299	1330.69
487.517	1333.69
487.735	1322.69
487.953	1371.69
488.171	1366.69
488.389	1342.69
488.607	1302.69
488.825	1313.69
489.043	1286.69
489.261	1294.69
489.479	1281.69
489.696	1338.69
489.914	1315.69
490.132	1319.69
490.35	1310.69
490.568	1317.69
490.786	1380.69
491.003	1338.69
491.221	1388.69
491.439	1388.69
491.657	1377.69
491.874	1390.69
492.092	1385.69
492.31	1418.69
492.527	1433.69
492.745	1404.69
492.963	1391.69
493.18	1370.69
493.398	1396.69
493.615	1406.69
493.833	1388.69
494.05	1359.69
494.268	1426.69
494.485	1406.69
494.703	1387.69
494.92	1366.69
495.138	1368.69
495.355	1356.69
495.573	1402.69
495.79	1392.69
496.008	1382.69
496.225	1367.69
496.442	1396.69
496.66	1479.69
496.877	1503.69
497.094	1520.69
497.312	1474.69
497.529	1439.69
497.746	1490.69
497.963	1484.69
498.181	1540.69
498.398	1563.69
498.615	1593.69
498.832	1636.69
499.049	1736.69
499.267	1841.69
499.484	2001.69
499.701	2016.69
499.918	2088.69
500.135	2214.69
500.352	2336.69
500.569	2363.69
500.786	2340.69
501.003	2270.69
501.22	2135.69
501.437	2050.69
501.654	1947.69
501.871	1829.69
502.088	1753.69
502.305	1694.69
502.522	1625.69
502.739	1594.69
502.956	1514.69
503.172	1511.69
503.389	1481.69
503.606	1434.69
503.823	1429.69
504.04	1404.69
504.256	1427.69
504.473	1426.69
504.69	1412.69
504.907	1372.69
505.123	1368.69
505.34	1360.69
505.557	1300.69
505.773	1288.69
505.99	1274.69
506.207	1251.69
506.423	1241.69
506.64	1263.69
506.856	1241.69
507.073	1217.69
507.289	1184.69
507.506	1203.69
507.722	1228.69
507.939	1179.69
508.155	1186.69
508.372	1209.69
508.588	1150.69
508.805	1190.69
509.021	1155.69
509.238	1191.69
509.454	1216.69
509.67	1290.69
509.887	1207.69
510.103	1191.69
510.319	1170.69
510.536	1179.69
510.752	1150.69
510.968	1127.69
511.184	1119.69
511.401	1097.69
511.617	1112.69
511.833	1121.69
512.049	1098.69
512.265	1126.69
512.481	1129.69
512.698	1139.69
512.914	1107.69
513.13	1106.69
513.346	1106.69
513.562	1100.69
513.778	1144.69
513.994	1131.69
514.21	1168.69
514.426	1204.69
514.642	1232.69
514.858	1194.69
515.074	1128.69
515.29	1100.69
515.506	1143.69
515.721	1174.69
515.937	1180.69
516.153	1157.69
516.369	1147.69
516.585	1178.69
516.801	1185.69
517.016	1192.69
517.232	1226.69
517.448	1250.69
517.664	1276.69
517.879	1268.69
518.095	1259.69
518.311	1266.69
518.527	1259.69
518.742	1241.69
518.958	1240.69
519.173	1255.69
519.389	1194.69
519.605	1170.69
519.82	1137.69
520.036	1154.69
520.251	1147.69
520.467	1131.69
520.682	1127.69
520.898	1089.69
521.113	1111.69
521.329	1122.69
521.544	1096.69
521.76	1118.69
521.975	1134.69
522.19	1105.69
522.406	1115.69
522.621	1121.69
522.836	1106.69
523.052	1099.69
523.267	1094.69
523.482	1074.69
523.698	1063.69
523.913	1078.69
524.128	1100.69
524.343	1088.69
524.559	1050.69
524.774	1060.69
524.989	1098.69
525.204	1106.69
525.419	1094.69
525.634	1112.69
525.849	1080.69
526.064	1056.69
526.28	1108.69
526.495	1079.69
526.71	1065.69
526.925	1054.69
527.14	1072.69
527.355	1067.69
527.57	1064.69
527.785	1072.69
527.999	1106.69
528.214	1083.69
528.429	1120.69
528.644	1109.69
528.859	1126.69
529.074	1184.69
529.289	1178.69
529.503	1158.69
529.718	1176.69
529.933	1151.69
530.148	1125.69
530.363	1130.69
530.577	1146.69
530.792	1136.69
531.007	1138.69
531.221	1172.69
531.436	1158.69
531.651	1149.69
531.865	1193.69
532.08	1179.69
532.295	1218.69
532.509	1273.69
532.724	1260.69
532.938	1283.69
533.153	1271.69
533.367	1373.69
533.582	1382.69
533.796	1396.69
534.011	1379.69
534.225	1326.69
534.44	1288.69
534.654	1310.69
534.868	1275.69
535.083	1265.69
535.297	1267.69
535.511	1273.69
535.726	1198.69
535.94	1202.69
536.154	1156.69
536.369	1136.69
536.583	1154.69
536.797	1135.69
537.011	1098.69
537.225	1137.69
537.44	1143.69
537.654	1106.69
537.868	1103.69
538.082	1087.69
538.296	1080.69
538.51	1084.69
538.724	1081.69
538.938	1087.69
539.153	1064.69
539.367	1107.69
539.581	1104.69
539.795	1027.69
540.009	1028.69
540.222	1018.69
540.436	1038.69
540.65	1051.69
540.864	1042.69
541.078	1091.69
541.292	1121.69
541.506	1272.69
541.72	1315.69
541.934	1176.69
542.147	1164.69
542.361	1138.69
542.575	1094.69
542.789	1054.69
543.002	1023.69
543.216	1048.69
543.43	1035.69
543.644	1015.69
543.857	1041.69
544.071	1065.69
544.285	1058.69
544.498	1027.69
544.712	1052.69
544.925	1074.69
545.139	1100.69
545.352	1078.69
545.566	1070.69
545.779	1061.69
545.993	1075.69
546.206	1070.69
546.42	1075.69
546.633	1025.69
546.847	1057.69
547.06	1035.69
547.274	1074.69
547.487	1082.69
547.7	1126.69
547.914	1078.69
548.127	1098.69
548.34	1045.69
548.554	1074.69
548.767	1082.69
548.98	1063.69
549.193	1040.69
549.407	1084.69
549.62	1092.69
549.833	1061.69
550.046	1072.69
550.259	1062.69
550.473	1028.69
550.686	1034.69
550.899	1061.69
551.112	1080.69
551.325	1033.69
551.538	1042.69
551.751	1021.69
551.964	1039.69
552.177	1074.69
552.39	1063.69
552.603	1091.69
552.816	1128.69
553.029	1121.69
553.242	1120.69
553.455	1134.69
553.667	1158.69
553.88	1163.69
554.093	1156.69
554.306	1144.69
554.519	1152.69
554.732	1179.69
554.944	1219.69
555.157	1198.69
555.37	1188.69
555.583	1243.69
555.795	1298.69
556.008	1332.69
556.221	1437.69
556.433	1473.69
556.646	1502.69
556.859	1489.69
557.071	1433.69
557.284	1415.69
557.496	1381.69
557.709	1377.69
557.921	1384.69
558.134	1357.69
558.346	1382.69
558.559	1434.69
558.771	1460.69
558.984	1539.69
559.196	1627.69
559.409	1563.69
559.621	1489.69
559.833	1449.69
560.046	1368.69
560.258	1328.69
560.47	1316.69
560.683	1264.69
560.895	1222.69
561.107	1186.69
561.32	1134.69
561.532	1118.69
561.744	1109.69
561.956	1097.69
562.168	1096.69
562.381	1067.69
562.593	1064.69
562.805	1092.69
563.017	1031.69
563.229	1078.69
563.441	1143.69
563.653	1046.69
563.865	1003.69
564.077	972.69
564.289	982.69
564.501	976.69
564.713	966.69
564.925	965.69
565.137	963.69
565.349	970.69
565.561	976.69
565.773	971.69
565.985	990.69
566.197	1015.69
566.408	1033.69
566.62	1071.69
566.832	1064.69
567.044	1061.69
567.255	1091.69
567.467	1100.69
567.679	1103.69
567.891	1154.69
568.102	1257.69
568.314	1380.69
568.526	1218.69
568.737	1078.69
568.949	1001.69
569.161	942.69
569.372	928.69
569.584	893.69
569.795	864.69
570.007	842.69
570.218	865.69
570.43	855.69
570.641	826.69
570.853	843.69
571.064	807.69
571.276	808.69
571.487	806.69
571.698	808.69
571.91	773.69
572.121	779.69
572.333	766.69
572.544	799.69
572.755	796.69
572.966	887.69
573.178	835.69
573.389	774.69
573.6	741.69
573.811	726.69
574.023	694.69
574.234	723.69
574.445	710.69
574.656	715.69
574.867	702.69
575.078	745.69
575.289	717.69
575.501	727.69
575.712	707.69
575.923	657.69
576.134	690.69
576.345	729.69
576.556	719.69
576.767	709.69
576.978	714.69
577.188	699.69
577.399	728.69
577.61	714.69
577.821	732.69
578.032	714.69
578.243	723.69
578.454	722.69
578.665	739.69
578.875	782.69
579.086	791.69
579.297	819.69
579.508	838.69
579.718	894.69
579.929	948.69
580.14	1058.69
580.35	1084.69
580.561	1028.69
580.772	994.69
580.982	923.69
581.193	887.69
581.403	838.69
581.614	838.69
581.825	797.69
582.035	790.69
582.246	754.69
582.456	728.69
582.667	712.69
582.877	696.69
583.087	692.69
583.298	696.69
583.508	659.69
583.719	654.69
583.929	634.69
584.139	616.69
584.35	617.69
584.56	622.69
584.77	624.69
584.981	613.69
585.191	592.69
585.401	590.69
585.611	571.69
585.821	589.69
586.032	584.69
586.242	566.69
586.452	592.69
586.662	537.69
586.872	548.69
587.082	542.69
587.292	551.69
587.502	542.69
587.713	530.69
587.923	546.69
588.133	546.69
588.343	544.69
588.553	515.69
588.762	540.69
588.972	537.69
589.182	518.69
589.392	536.69
589.602	515.69
589.812	514.69
590.022	525.69
590.232	505.69
590.441	515.69
590.651	504.69
590.861	504.69
591.071	512.69
591.281	534.69
591.49	494.69
591.7	523.69
591.91	501.69
592.119	512.69
592.329	542.69
592.539	529.69
592.748	531.69
592.958	551.69
593.167	546.69
593.377	541.69
593.587	554.69
593.796	550.69
594.006	519.69
594.215	523.69
594.424	513.69
594.634	527.69
594.843	506.69
595.053	514.69
595.262	505.69
595.472	494.69
595.681	479.69
595.89	489.69
596.1	468.69
596.309	492.69
596.518	461.69
596.727	459.69
596.937	454.69
597.146	462.69
597.355	458.69
597.564	435.69
597.774	434.69
597.983	420.69
598.192	446.69
598.401	457.69
598.61	440.69
598.819	435.69
599.028	414.69
599.237	426.69
599.446	418.69
599.655	424.69
599.864	404.69
600.073	426.69
600.282	412.69
600.491	439.69
600.7	433.69
600.909	420.69
601.118	416.69
601.327	434.69
601.536	414.69
601.745	427.69
601.953	474.69
602.162	494.69
602.371	448.69
602.58	432.69
602.789	446.69
602.997	418.69
603.206	417.69
603.415	427.69
603.623	419.69
603.832	408.69
604.041	420.69
604.249	410.69
604.458	417.69
604.666	396.69
604.875	393.69
605.084	412.69
605.292	418.69
605.501	407.69
605.709	432.69
605.918	390.69
606.126	406.69
606.334	407.69
606.543	435.69
606.751	422.69
606.96	472.69
607.168	506.69
607.376	447.69
607.585	424.69
607.793	412.69
608.001	416.69
608.21	400.69
608.418	409.69
608.626	390.69
608.834	385.69
609.043	398.69
609.251	405.69
609.459	389.69
609.667	391.69
609.875	406.69
610.083	399.69
610.291	392.69
610.499	390.69
610.707	387.69
610.916	395.69
611.124	390.69
611.332	398.69
611.54	369.69
611.748	369.69
611.955	375.69
612.163	372.69
612.371	374.69
612.579	395.69
612.787	360.69
612.995	361.69
613.203	380.69
613.411	374.69
613.618	386.69
613.826	378.69
614.034	388.69
614.242	382.69
614.449	366.69
614.657	377.69
614.865	354.69
615.072	370.69
615.28	361.69
615.488	364.69
615.695	386.69
615.903	361.69
616.111	368.69
616.318	378.69
616.526	386.69
616.733	343.69
616.941	367.69
617.148	368.69
617.356	354.69
617.563	360.69
617.771	361.69
617.978	391.69
618.185	357.69
618.393	343.69
618.6	355.69
618.807	352.69
619.015	344.69
619.222	362.69
619.429	360.69
619.637	357.69
619.844	336.69
620.051	343.69
620.258	348.69
620.466	338.69
620.673	342.69
620.88	332.69
621.087	333.69
621.294	333.69
621.501	336.69
621.708	332.69
621.915	332.69
622.122	315.69
622.329	343.69
622.536	324.69
622.743	337.69
622.95	342.69
623.157	329.69
623.364	335.69
623.571	338.69
623.778	318.69
623.985	328.69
624.192	351.69
624.399	327.69
624.606	315.69
624.812	310.69
625.019	319.69
625.226	312.69
625.433	328.69
625.639	321.69
625.846	295.69
626.053	302.69
626.259	294.69
626.466	297.69
626.673	293.69
626.879	299.69
627.086	300.69
627.293	306.69
627.499	298.69
627.706	310.69
627.912	311.69
628.119	315.69
628.325	303.69
628.532	307.69
628.738	318.69
628.945	312.69
629.151	304.69
629.357	283.69
629.564	291.69
629.77	298.69
629.976	274.69
630.183	292.69
630.389	296.69
630.595	276.69
630.802	286.69
631.008	304.69
631.214	278.69
631.42	302.69
631.627	290.69
631.833	302.69
632.039	308.69
632.245	299.69
632.451	282.69
632.657	302.69
632.863	300.69
633.069	293.69
633.275	275.69
633.481	293.69
633.688	284.69
633.893	294.69
634.099	295.69
634.305	268.69
634.511	273.69
634.717	274.69
634.923	275.69
635.129	299.69
635.335	328.69
635.541	325.69
635.747	306.69
635.952	302.69
636.158	287.69
636.364	290.69
636.57	281.69
636.775	289.69
636.981	280.69
637.187	289.69
637.392	291.69
637.598	301.69
637.804	273.69
638.009	282.69
638.215	298.69
638.421	281.69
638.626	274.69
638.832	282.69
639.037	288.69
639.243	286.69
639.448	282.69
639.654	279.69
639.859	291.69
640.065	274.69
640.27	285.69
640.475	288.69
640.681	281.69
640.886	297.69
641.091	305.69
641.297	310.69
641.502	319.69
641.707	285.69
641.913	312.69
642.118	302.69
642.323	312.69
642.528	325.69
642.733	333.69
642.939	343.69
643.144	335.69
643.349	355.69
643.554	351.69
643.759	368.69
643.964	394.69
644.169	394.69
644.374	404.69
644.579	438.69
644.784	471.69
644.989	510.69
645.194	537.69
645.399	587.69
645.604	604.69
645.809	526.69
646.014	434.69
646.219	402.69
646.423	346.69
646.628	353.69
646.833	321.69
647.038	292.69
647.243	287.69
647.447	286.69
647.652	303.69
647.857	271.69
648.062	257.69
648.266	267.69
648.471	251.69
648.676	282.69
648.88	254.69
649.085	269.69
649.289	263.69
649.494	243.69
649.698	257.69
649.903	246.69
650.107	255.69
650.312	245.69
650.516	240.69
650.721	233.69
650.925	234.69
651.13	236.69
651.334	233.69
651.539	232.69
651.743	221.69
651.947	194.69
652.152	217.69
652.356	215.69
652.56	229.69
652.764	249.69
652.969	225.69
653.173	219.69
653.377	218.69
653.581	217.69
653.785	208.69
653.99	201.69
654.194	200.69
654.398	207.69
654.602	200.69
654.806	186.69
655.01	191.69
655.214	188.69
655.418	201.69
655.622	208.69
655.826	193.69
656.03	206.69
656.234	222.69
656.438	210.69
656.642	213.69
656.846	218.69
657.049	178.69
657.253	190.69
657.457	182.69
657.661	165.69
657.865	144.69
658.068	157.69
658.272	141.69
658.476	164.69
658.68	147.69
658.883	122.69
659.087	128.69
659.291	135.69
659.494	132.69
659.698	130.69
659.901	138.69
660.105	122.69
660.309	118.69
660.512	124.69
660.716	113.69
660.919	111.69
661.123	121.69
661.326	122.69
661.53	101.69
661.733	108.69
661.936	84.69
662.14	88.69
662.343	101.69
662.546	88.69
662.75	94.69
662.953	92.69
663.156	93.69
663.36	88.69
663.563	74.69
663.766	77.69
663.969	86.69
664.173	90.69
664.376	92.69
664.579	78.69
664.782	90.69
664.985	77.69
665.188	76.69
665.391	97.69
665.594	94.69
665.797	77.69
666	81.69
666.203	77.69
666.406	80.69
666.609	87.69
666.812	79.69
667.015	95.69
667.218	99.69
667.421	82.69
667.624	87.69
667.827	86.69
668.03	72.69
668.232	85.69
668.435	94.69
668.638	95.69
668.841	88.69
669.043	73.69
669.246	83.69
669.449	80.69
669.651	79.69
669.854	85.69
670.057	83.69
670.259	80.69
670.462	75.69
670.665	89.69
670.867	85.69
671.07	83.69
671.272	73.69
671.475	82.69
671.677	83.69
671.88	87.69
672.082	70.69
672.284	76.69
672.487	67.69
672.689	87.69
672.892	84.69
