Data from SnStandardFlinnAPT0064_LampEnergy5.5_LIBS07252019.E.O._I.C._HRD10591_15-14-39-491.txt Node
Date: Thu Jul 25 15:14:39 EDT 2019
User: cochatt
Spectrometer: HR+D1059
Trigger mode: 1
Integration Time (sec): 1.000000E-1
Scans to average: 1
Electric dark correction enabled: true
Nonlinearity correction enabled: false
Boxcar width: 0
XAxis mode: Wavelengths
Number of Pixels in Spectrum: 2048
>>>>>Begin Spectral Data<<<<<
223.165	5.75
223.4	5.75
223.635	5.75
223.869	-13.25
224.104	-21.25
224.338	-13.25
224.573	-16.25
224.808	-16.25
225.042	11.75
225.277	-5.25
225.511	-11.25
225.746	9.75
225.98	11.75
226.215	9.75
226.449	5.75
226.683	-0.25
226.918	19.75
227.152	22.75
227.387	35.75
227.621	34.75
227.856	42.75
228.09	42.75
228.324	46.75
228.559	59.75
228.793	81.75
229.027	148.75
229.262	150.75
229.496	151.75
229.73	145.75
229.964	150.75
230.199	159.75
230.433	139.75
230.667	159.75
230.901	145.75
231.136	171.75
231.37	164.75
231.604	175.75
231.838	197.75
232.072	211.75
232.306	223.75
232.541	198.75
232.775	193.75
233.009	193.75
233.243	207.75
233.477	202.75
233.711	219.75
233.945	241.75
234.179	219.75
234.413	207.75
234.647	203.75
234.881	203.75
235.115	232.75
235.349	255.75
235.583	309.75
235.817	373.75
236.051	378.75
236.285	262.75
236.519	215.75
236.753	213.75
236.987	218.75
237.221	239.75
237.455	218.75
237.689	207.75
237.922	211.75
238.156	209.75
238.39	218.75
238.624	214.75
238.858	219.75
239.091	228.75
239.325	216.75
239.559	222.75
239.793	229.75
240.027	235.75
240.26	247.75
240.494	239.75
240.728	237.75
240.961	255.75
241.195	267.75
241.429	285.75
241.662	295.75
241.896	302.75
242.13	356.75
242.363	411.75
242.597	529.75
242.83	535.75
243.064	526.75
243.298	625.75
243.531	529.75
243.765	367.75
243.998	314.75
244.232	298.75
244.465	277.75
244.699	298.75
244.932	286.75
245.166	271.75
245.399	289.75
245.633	282.75
245.866	285.75
246.099	292.75
246.333	292.75
246.566	282.75
246.8	268.75
247.033	286.75
247.266	296.75
247.5	279.75
247.733	286.75
247.966	288.75
248.2	324.75
248.433	340.75
248.666	356.75
248.899	359.75
249.133	338.75
249.366	342.75
249.599	372.75
249.832	395.75
250.066	417.75
250.299	348.75
250.532	304.75
250.765	311.75
250.998	302.75
251.231	311.75
251.465	323.75
251.698	310.75
251.931	302.75
252.164	312.75
252.397	323.75
252.63	330.75
252.863	325.75
253.096	328.75
253.329	347.75
253.562	329.75
253.795	346.75
254.028	337.75
254.261	349.75
254.494	352.75
254.727	401.75
254.96	453.75
255.193	449.75
255.426	385.75
255.659	341.75
255.892	373.75
256.124	337.75
256.357	370.75
256.59	358.75
256.823	387.75
257.056	414.75
257.289	457.75
257.521	526.75
257.754	443.75
257.987	367.75
258.22	407.75
258.452	381.75
258.685	385.75
258.918	397.75
259.151	396.75
259.383	406.75
259.616	458.75
259.849	453.75
260.081	437.75
260.314	411.75
260.547	384.75
260.779	410.75
261.012	424.75
261.244	414.75
261.477	424.75
261.71	430.75
261.942	431.75
262.175	429.75
262.407	418.75
262.64	458.75
262.872	457.75
263.105	480.75
263.337	504.75
263.57	524.75
263.802	544.75
264.035	568.75
264.267	558.75
264.499	552.75
264.732	593.75
264.964	605.75
265.197	583.75
265.429	594.75
265.661	613.75
265.894	630.75
266.126	683.75
266.358	773.75
266.591	717.75
266.823	686.75
267.055	631.75
267.287	566.75
267.52	543.75
267.752	538.75
267.984	531.75
268.216	523.75
268.448	515.75
268.681	522.75
268.913	503.75
269.145	511.75
269.377	507.75
269.609	497.75
269.841	544.75
270.073	537.75
270.306	607.75
270.538	778.75
270.77	1070.75
271.002	1272.75
271.234	925.75
271.466	681.75
271.698	586.75
271.93	538.75
272.162	542.75
272.394	529.75
272.626	525.75
272.858	501.75
273.09	498.75
273.322	490.75
273.553	508.75
273.785	507.75
274.017	511.75
274.249	519.75
274.481	494.75
274.713	514.75
274.945	505.75
275.176	513.75
275.408	527.75
275.64	510.75
275.872	532.75
276.104	501.75
276.335	521.75
276.567	526.75
276.799	533.75
277.031	528.75
277.262	517.75
277.494	551.75
277.726	581.75
277.957	668.75
278.189	680.75
278.421	667.75
278.652	612.75
278.884	609.75
279.115	567.75
279.347	567.75
279.579	541.75
279.81	546.75
280.042	559.75
280.273	547.75
280.505	571.75
280.736	577.75
280.968	602.75
281.199	634.75
281.431	699.75
281.662	709.75
281.894	627.75
282.125	599.75
282.356	649.75
282.588	629.75
282.819	641.75
283.051	698.75
283.282	742.75
283.513	886.75
283.745	1178.75
283.976	1821.75
284.207	2479.75
284.439	2284.75
284.67	1459.75
284.901	1176.75
285.132	1157.75
285.364	1098.75
285.595	896.75
285.826	853.75
286.057	959.75
286.288	1256.75
286.52	1617.75
286.751	1506.75
286.982	1060.75
287.213	846.75
287.444	747.75
287.675	716.75
287.906	695.75
288.138	695.75
288.369	674.75
288.6	671.75
288.831	674.75
289.062	658.75
289.293	665.75
289.524	661.75
289.755	674.75
289.986	691.75
290.217	678.75
290.448	682.75
290.679	664.75
290.91	668.75
291.141	715.75
291.371	716.75
291.602	739.75
291.833	682.75
292.064	661.75
292.295	671.75
292.526	642.75
292.757	641.75
292.987	637.75
293.218	643.75
293.449	654.75
293.68	633.75
293.91	658.75
294.141	638.75
294.372	607.75
294.603	637.75
294.833	648.75
295.064	605.75
295.295	611.75
295.525	638.75
295.756	623.75
295.987	613.75
296.217	636.75
296.448	625.75
296.679	628.75
296.909	626.75
297.14	644.75
297.37	634.75
297.601	672.75
297.831	645.75
298.062	649.75
298.292	646.75
298.523	662.75
298.753	654.75
298.984	655.75
299.214	687.75
299.445	676.75
299.675	701.75
299.905	704.75
300.136	738.75
300.366	801.75
300.597	941.75
300.827	1226.75
301.057	1633.75
301.288	1625.75
301.518	1107.75
301.748	908.75
301.979	837.75
302.209	846.75
302.439	827.75
302.669	883.75
302.9	1004.75
303.13	1326.75
303.36	1811.75
303.59	2373.75
303.82	2114.75
304.051	1382.75
304.281	1033.75
304.511	887.75
304.741	859.75
304.971	809.75
305.201	776.75
305.431	772.75
305.661	765.75
305.891	771.75
306.121	734.75
306.352	734.75
306.582	723.75
306.812	711.75
307.042	744.75
307.272	718.75
307.502	732.75
307.731	735.75
307.961	722.75
308.191	717.75
308.421	729.75
308.651	758.75
308.881	724.75
309.111	717.75
309.341	711.75
309.571	723.75
309.8	753.75
310.03	749.75
310.26	755.75
310.49	731.75
310.72	743.75
310.949	738.75
311.179	774.75
311.409	729.75
311.639	773.75
311.868	760.75
312.098	780.75
312.328	763.75
312.557	762.75
312.787	758.75
313.017	788.75
313.246	785.75
313.476	781.75
313.706	795.75
313.935	845.75
314.165	852.75
314.394	895.75
314.624	868.75
314.853	815.75
315.083	829.75
315.312	831.75
315.542	847.75
315.771	859.75
316.001	853.75
316.23	873.75
316.46	908.75
316.689	962.75
316.919	1134.75
317.148	1514.75
317.377	2205.75
317.607	3159.75
317.836	3239.75
318.065	2062.75
318.295	1416.75
318.524	1176.75
318.753	1064.75
318.983	987.75
319.212	957.75
319.441	939.75
319.67	933.75
319.9	902.75
320.129	922.75
320.358	934.75
320.587	900.75
320.816	904.75
321.046	902.75
321.275	921.75
321.504	908.75
321.733	919.75
321.962	923.75
322.191	945.75
322.42	951.75
322.649	939.75
322.878	956.75
323.108	954.75
323.337	977.75
323.566	969.75
323.795	985.75
324.024	1005.75
324.253	1026.75
324.482	1069.75
324.71	1077.75
324.939	1101.75
325.168	1152.75
325.397	1180.75
325.626	1404.75
325.855	1815.75
326.084	2671.75
326.313	3881.75
326.542	4223.75
326.77	2799.75
326.999	1949.75
327.228	1723.75
327.457	1641.75
327.686	1667.75
327.914	1729.75
328.143	1986.75
328.372	2275.75
328.6	2392.75
328.829	2297.75
329.058	2036.75
329.287	1856.75
329.515	1688.75
329.744	1587.75
329.972	1527.75
330.201	1466.75
330.43	1414.75
330.658	1348.75
330.887	1333.75
331.115	1313.75
331.344	1324.75
331.572	1313.75
331.801	1340.75
332.03	1316.75
332.258	1359.75
332.486	1388.75
332.715	1544.75
332.943	1787.75
333.172	2086.75
333.4	2067.75
333.629	1722.75
333.857	1637.75
334.085	1614.75
334.314	1701.75
334.542	1835.75
334.771	2087.75
334.999	2466.75
335.227	2895.75
335.455	3211.75
335.684	3031.75
335.912	2721.75
336.14	2343.75
336.369	2097.75
336.597	1963.75
336.825	1781.75
337.053	1681.75
337.281	1581.75
337.51	1502.75
337.738	1467.75
337.966	1419.75
338.194	1371.75
338.422	1332.75
338.65	1292.75
338.878	1269.75
339.106	1275.75
339.334	1267.75
339.562	1206.75
339.79	1198.75
340.018	1181.75
340.246	1165.75
340.474	1173.75
340.702	1191.75
340.93	1159.75
341.158	1179.75
341.386	1183.75
341.614	1177.75
341.842	1147.75
342.07	1121.75
342.298	1087.75
342.526	1078.75
342.754	1077.75
342.981	1074.75
343.209	1089.75
343.437	1072.75
343.665	1121.75
343.893	1091.75
344.12	1096.75
344.348	1100.75
344.576	1087.75
344.804	1042.75
345.031	1010.75
345.259	1007.75
345.487	999.75
345.714	1019.75
345.942	1009.75
346.17	1006.75
346.397	1020.75
346.625	983.75
346.853	986.75
347.08	973.75
347.308	1000.75
347.535	989.75
347.763	990.75
347.99	988.75
348.218	970.75
348.445	1002.75
348.673	976.75
348.9	985.75
349.128	974.75
349.355	959.75
349.583	972.75
349.81	963.75
350.037	955.75
350.265	955.75
350.492	958.75
350.72	979.75
350.947	965.75
351.174	954.75
351.402	945.75
351.629	975.75
351.856	950.75
352.083	956.75
352.311	952.75
352.538	939.75
352.765	947.75
352.992	942.75
353.22	934.75
353.447	975.75
353.674	956.75
353.901	929.75
354.128	930.75
354.355	945.75
354.583	970.75
354.81	966.75
355.037	953.75
355.264	974.75
355.491	929.75
355.718	939.75
355.945	991.75
356.172	955.75
356.399	962.75
356.626	978.75
356.853	997.75
357.08	961.75
357.307	1002.75
357.534	1028.75
357.761	996.75
357.988	1029.75
358.215	1009.75
358.441	983.75
358.668	983.75
358.895	1015.75
359.122	1015.75
359.349	1013.75
359.576	986.75
359.802	995.75
360.029	1001.75
360.256	1043.75
360.483	1017.75
360.709	1037.75
360.936	1028.75
361.163	1010.75
361.39	985.75
361.616	1004.75
361.843	1022.75
362.07	1042.75
362.296	1006.75
362.523	1019.75
362.749	1013.75
362.976	1031.75
363.203	1017.75
363.429	1015.75
363.656	1008.75
363.882	1003.75
364.109	989.75
364.335	988.75
364.562	1021.75
364.788	1029.75
365.015	1042.75
365.241	1025.75
365.468	1054.75
365.694	1068.75
365.92	1100.75
366.147	1020.75
366.373	1021.75
366.599	1059.75
366.826	1038.75
367.052	1045.75
367.278	1013.75
367.505	1022.75
367.731	1043.75
367.957	1030.75
368.184	1043.75
368.41	1047.75
368.636	1075.75
368.862	1063.75
369.089	1077.75
369.315	1052.75
369.541	1053.75
369.767	1059.75
369.993	1049.75
370.219	1073.75
370.445	1061.75
370.672	1093.75
370.898	1051.75
371.124	1064.75
371.35	1051.75
371.576	1054.75
371.802	1099.75
372.028	1091.75
372.254	1108.75
372.48	1105.75
372.706	1101.75
372.932	1115.75
373.158	1119.75
373.384	1125.75
373.61	1115.75
373.835	1134.75
374.061	1153.75
374.287	1182.75
374.513	1141.75
374.739	1148.75
374.965	1117.75
375.191	1155.75
375.416	1146.75
375.642	1135.75
375.868	1109.75
376.094	1141.75
376.319	1115.75
376.545	1092.75
376.771	1097.75
376.997	1088.75
377.222	1118.75
377.448	1074.75
377.674	1090.75
377.899	1084.75
378.125	1098.75
378.35	1075.75
378.576	1124.75
378.802	1054.75
379.027	1122.75
379.253	1125.75
379.478	1170.75
379.704	1317.75
379.929	1723.75
380.155	2347.75
380.38	2573.75
380.606	1729.75
380.831	1366.75
381.057	1221.75
381.282	1144.75
381.507	1104.75
381.733	1111.75
381.958	1110.75
382.184	1090.75
382.409	1100.75
382.634	1083.75
382.86	1077.75
383.085	1076.75
383.31	1090.75
383.535	1100.75
383.761	1089.75
383.986	1128.75
384.211	1112.75
384.436	1081.75
384.662	1106.75
384.887	1085.75
385.112	1097.75
385.337	1126.75
385.562	1093.75
385.787	1122.75
386.013	1128.75
386.238	1127.75
386.463	1105.75
386.688	1134.75
386.913	1102.75
387.138	1107.75
387.363	1108.75
387.588	1118.75
387.813	1124.75
388.038	1107.75
388.263	1074.75
388.488	1109.75
388.713	1121.75
388.938	1118.75
389.163	1135.75
389.387	1120.75
389.612	1098.75
389.837	1098.75
390.062	1121.75
390.287	1139.75
390.512	1109.75
390.736	1152.75
390.961	1182.75
391.186	1160.75
391.411	1176.75
391.636	1180.75
391.86	1145.75
392.085	1169.75
392.31	1210.75
392.534	1156.75
392.759	1153.75
392.984	1155.75
393.208	1104.75
393.433	1150.75
393.658	1116.75
393.882	1109.75
394.107	1130.75
394.331	1149.75
394.556	1135.75
394.78	1151.75
395.005	1139.75
395.229	1120.75
395.454	1175.75
395.678	1186.75
395.903	1167.75
396.127	1128.75
396.352	1149.75
396.576	1145.75
396.801	1166.75
397.025	1154.75
397.249	1182.75
397.474	1161.75
397.698	1166.75
397.922	1207.75
398.147	1213.75
398.371	1251.75
398.595	1237.75
398.82	1236.75
399.044	1303.75
399.268	1353.75
399.492	1442.75
399.717	1491.75
399.941	1480.75
400.165	1416.75
400.389	1399.75
400.613	1345.75
400.837	1284.75
401.062	1294.75
401.286	1261.75
401.51	1240.75
401.734	1205.75
401.958	1220.75
402.182	1237.75
402.406	1265.75
402.63	1244.75
402.854	1273.75
403.078	1252.75
403.302	1276.75
403.526	1273.75
403.75	1281.75
403.974	1295.75
404.198	1313.75
404.422	1301.75
404.645	1270.75
404.869	1275.75
405.093	1279.75
405.317	1309.75
405.541	1362.75
405.765	1345.75
405.988	1341.75
406.212	1331.75
406.436	1305.75
406.66	1326.75
406.883	1362.75
407.107	1363.75
407.331	1404.75
407.555	1390.75
407.778	1392.75
408.002	1350.75
408.226	1349.75
408.449	1355.75
408.673	1352.75
408.896	1305.75
409.12	1292.75
409.344	1324.75
409.567	1293.75
409.791	1293.75
410.014	1265.75
410.238	1269.75
410.461	1288.75
410.685	1257.75
410.908	1249.75
411.132	1269.75
411.355	1222.75
411.578	1235.75
411.802	1223.75
412.025	1195.75
412.249	1242.75
412.472	1247.75
412.695	1221.75
412.919	1220.75
413.142	1190.75
413.365	1213.75
413.589	1205.75
413.812	1245.75
414.035	1236.75
414.258	1251.75
414.482	1230.75
414.705	1228.75
414.928	1214.75
415.151	1208.75
415.374	1227.75
415.597	1186.75
415.821	1167.75
416.044	1179.75
416.267	1193.75
416.49	1171.75
416.713	1176.75
416.936	1201.75
417.159	1158.75
417.382	1180.75
417.605	1143.75
417.828	1155.75
418.051	1176.75
418.274	1189.75
418.497	1166.75
418.72	1230.75
418.943	1182.75
419.166	1285.75
419.389	1294.75
419.611	1270.75
419.834	1249.75
420.057	1221.75
420.28	1165.75
420.503	1171.75
420.726	1161.75
420.948	1179.75
421.171	1185.75
421.394	1175.75
421.617	1151.75
421.839	1181.75
422.062	1194.75
422.285	1174.75
422.507	1205.75
422.73	1192.75
422.953	1195.75
423.175	1209.75
423.398	1205.75
423.621	1186.75
423.843	1196.75
424.066	1187.75
424.288	1188.75
424.511	1187.75
424.733	1201.75
424.956	1157.75
425.178	1135.75
425.401	1155.75
425.623	1181.75
425.846	1151.75
426.068	1139.75
426.291	1124.75
426.513	1110.75
426.735	1147.75
426.958	1115.75
427.18	1098.75
427.402	1166.75
427.625	1116.75
427.847	1107.75
428.069	1103.75
428.292	1102.75
428.514	1092.75
428.736	1121.75
428.958	1110.75
429.181	1068.75
429.403	1057.75
429.625	1085.75
429.847	1091.75
430.069	1098.75
430.292	1157.75
430.514	1166.75
430.736	1172.75
430.958	1103.75
431.18	1065.75
431.402	1120.75
431.624	1064.75
431.846	1046.75
432.068	1061.75
432.29	1064.75
432.512	1047.75
432.734	1124.75
432.956	1077.75
433.178	1097.75
433.4	1102.75
433.622	1092.75
433.844	1111.75
434.066	1092.75
434.287	1084.75
434.509	1084.75
434.731	1131.75
434.953	1112.75
435.175	1123.75
435.397	1170.75
435.618	1140.75
435.84	1103.75
436.062	1102.75
436.284	1108.75
436.505	1100.75
436.727	1070.75
436.949	1097.75
437.17	1092.75
437.392	1056.75
437.614	1059.75
437.835	1033.75
438.057	1023.75
438.278	1021.75
438.5	1049.75
438.721	1066.75
438.943	1089.75
439.165	1108.75
439.386	1116.75
439.608	1140.75
439.829	1141.75
440.05	1119.75
440.272	1158.75
440.493	1115.75
440.715	1108.75
440.936	1100.75
441.158	1150.75
441.379	1151.75
441.6	1161.75
441.822	1190.75
442.043	1262.75
442.264	1249.75
442.486	1209.75
442.707	1201.75
442.928	1151.75
443.149	1170.75
443.371	1192.75
443.592	1190.75
443.813	1185.75
444.034	1150.75
444.255	1182.75
444.476	1229.75
444.698	1240.75
444.919	1283.75
445.14	1327.75
445.361	1260.75
445.582	1209.75
445.803	1181.75
446.024	1176.75
446.245	1157.75
446.466	1163.75
446.687	1150.75
446.908	1138.75
447.129	1097.75
447.35	1104.75
447.571	1080.75
447.792	1085.75
448.013	1069.75
448.234	1062.75
448.455	1099.75
448.675	1074.75
448.896	1113.75
449.117	1116.75
449.338	1137.75
449.559	1196.75
449.779	1085.75
450	1055.75
450.221	1027.75
450.442	1053.75
450.662	1023.75
450.883	1053.75
451.104	1042.75
451.324	1033.75
451.545	1029.75
451.766	1062.75
451.986	1059.75
452.207	1098.75
452.428	1261.75
452.648	1636.75
452.869	1464.75
453.089	1178.75
453.31	1135.75
453.53	1115.75
453.751	1128.75
453.971	1166.75
454.192	1157.75
454.412	1074.75
454.633	1053.75
454.853	1005.75
455.073	995.75
455.294	1002.75
455.514	979.75
455.734	996.75
455.955	987.75
456.175	964.75
456.395	982.75
456.616	987.75
456.836	1005.75
457.056	1037.75
457.276	980.75
457.497	1051.75
457.717	1057.75
457.937	1050.75
458.157	1068.75
458.377	1042.75
458.598	1055.75
458.818	1079.75
459.038	1059.75
459.258	1063.75
459.478	1062.75
459.698	1047.75
459.918	1073.75
460.138	1111.75
460.358	1152.75
460.578	1203.75
460.798	1178.75
461.018	1195.75
461.238	1188.75
461.458	1208.75
461.678	1171.75
461.898	1192.75
462.118	1190.75
462.338	1248.75
462.558	1262.75
462.777	1288.75
462.997	1297.75
463.217	1380.75
463.437	1386.75
463.657	1396.75
463.876	1344.75
464.096	1320.75
464.316	1291.75
464.536	1307.75
464.755	1213.75
464.975	1241.75
465.195	1190.75
465.414	1173.75
465.634	1106.75
465.854	1123.75
466.073	1114.75
466.293	1103.75
466.512	1088.75
466.732	1103.75
466.951	1168.75
467.171	1165.75
467.391	1170.75
467.61	1093.75
467.829	1064.75
468.049	1083.75
468.268	1039.75
468.488	1061.75
468.707	1082.75
468.927	1081.75
469.146	1063.75
469.365	1077.75
469.585	1081.75
469.804	1084.75
470.023	1110.75
470.243	1137.75
470.462	1175.75
470.681	1209.75
470.901	1265.75
471.12	1419.75
471.339	1404.75
471.558	1230.75
471.777	1163.75
471.997	1091.75
472.216	1069.75
472.435	1094.75
472.654	1058.75
472.873	1075.75
473.092	1082.75
473.311	1044.75
473.53	1077.75
473.749	1085.75
473.968	1109.75
474.187	1094.75
474.406	1055.75
474.625	1068.75
474.844	1097.75
475.063	1064.75
475.282	1099.75
475.501	1065.75
475.72	1101.75
475.939	1082.75
476.158	1117.75
476.377	1134.75
476.596	1128.75
476.814	1130.75
477.033	1127.75
477.252	1162.75
477.471	1117.75
477.69	1201.75
477.908	1184.75
478.127	1205.75
478.346	1227.75
478.564	1236.75
478.783	1262.75
479.002	1269.75
479.22	1242.75
479.439	1303.75
479.658	1271.75
479.876	1268.75
480.095	1254.75
480.313	1312.75
480.532	1296.75
480.751	1323.75
480.969	1271.75
481.188	1273.75
481.406	1265.75
481.624	1250.75
481.843	1270.75
482.061	1278.75
482.28	1241.75
482.498	1249.75
482.717	1269.75
482.935	1307.75
483.153	1297.75
483.372	1331.75
483.59	1338.75
483.808	1326.75
484.027	1366.75
484.245	1387.75
484.463	1494.75
484.681	1647.75
484.9	1557.75
485.118	1500.75
485.336	1467.75
485.554	1459.75
485.772	1546.75
485.99	1664.75
486.209	1767.75
486.427	1559.75
486.645	1455.75
486.863	1413.75
487.081	1413.75
487.299	1369.75
487.517	1379.75
487.735	1379.75
487.953	1412.75
488.171	1359.75
488.389	1385.75
488.607	1371.75
488.825	1346.75
489.043	1325.75
489.261	1319.75
489.479	1329.75
489.696	1320.75
489.914	1335.75
490.132	1327.75
490.35	1356.75
490.568	1358.75
490.786	1393.75
491.003	1395.75
491.221	1415.75
491.439	1458.75
491.657	1412.75
491.874	1429.75
492.092	1462.75
492.31	1470.75
492.527	1470.75
492.745	1421.75
492.963	1415.75
493.18	1425.75
493.398	1422.75
493.615	1443.75
493.833	1415.75
494.05	1435.75
494.268	1391.75
494.485	1388.75
494.703	1390.75
494.92	1424.75
495.138	1450.75
495.355	1413.75
495.573	1406.75
495.79	1472.75
496.008	1465.75
496.225	1428.75
496.442	1473.75
496.66	1475.75
496.877	1530.75
497.094	1526.75
497.312	1513.75
497.529	1509.75
497.746	1537.75
497.963	1540.75
498.181	1603.75
498.398	1583.75
498.615	1697.75
498.832	1697.75
499.049	1781.75
499.267	1865.75
499.484	2022.75
499.701	2047.75
499.918	2131.75
500.135	2249.75
500.352	2379.75
500.569	2405.75
500.786	2373.75
501.003	2334.75
501.22	2217.75
501.437	2070.75
501.654	1973.75
501.871	1860.75
502.088	1822.75
502.305	1728.75
502.522	1665.75
502.739	1633.75
502.956	1592.75
503.172	1565.75
503.389	1545.75
503.606	1496.75
503.823	1493.75
504.04	1472.75
504.256	1480.75
504.473	1471.75
504.69	1445.75
504.907	1431.75
505.123	1384.75
505.34	1362.75
505.557	1363.75
505.773	1317.75
505.99	1315.75
506.207	1284.75
506.423	1284.75
506.64	1296.75
506.856	1244.75
507.073	1247.75
507.289	1251.75
507.506	1260.75
507.722	1244.75
507.939	1227.75
508.155	1219.75
508.372	1238.75
508.588	1165.75
508.805	1191.75
509.021	1195.75
509.238	1165.75
509.454	1265.75
509.67	1285.75
509.887	1214.75
510.103	1205.75
510.319	1206.75
510.536	1227.75
510.752	1198.75
510.968	1181.75
511.184	1180.75
511.401	1151.75
511.617	1169.75
511.833	1146.75
512.049	1131.75
512.265	1166.75
512.481	1144.75
512.698	1142.75
512.914	1147.75
513.13	1163.75
513.346	1140.75
513.562	1146.75
513.778	1168.75
513.994	1194.75
514.21	1178.75
514.426	1238.75
514.642	1261.75
514.858	1181.75
515.074	1147.75
515.29	1165.75
515.506	1187.75
515.721	1186.75
515.937	1194.75
516.153	1190.75
516.369	1192.75
516.585	1211.75
516.801	1230.75
517.016	1241.75
517.232	1254.75
517.448	1281.75
517.664	1289.75
517.879	1262.75
518.095	1304.75
518.311	1298.75
518.527	1275.75
518.742	1278.75
518.958	1278.75
519.173	1302.75
519.389	1256.75
519.605	1229.75
519.82	1191.75
520.036	1214.75
520.251	1159.75
520.467	1171.75
520.682	1163.75
520.898	1139.75
521.113	1143.75
521.329	1137.75
521.544	1109.75
521.76	1142.75
521.975	1150.75
522.19	1130.75
522.406	1153.75
522.621	1117.75
522.836	1120.75
523.052	1139.75
523.267	1139.75
523.482	1123.75
523.698	1128.75
523.913	1089.75
524.128	1130.75
524.343	1139.75
524.559	1134.75
524.774	1104.75
524.989	1087.75
525.204	1100.75
525.419	1115.75
525.634	1101.75
525.849	1104.75
526.064	1113.75
526.28	1091.75
526.495	1111.75
526.71	1110.75
526.925	1120.75
527.14	1096.75
527.355	1121.75
527.57	1100.75
527.785	1134.75
527.999	1118.75
528.214	1125.75
528.429	1146.75
528.644	1123.75
528.859	1142.75
529.074	1197.75
529.289	1225.75
529.503	1207.75
529.718	1192.75
529.933	1161.75
530.148	1150.75
530.363	1164.75
530.577	1151.75
530.792	1159.75
531.007	1166.75
531.221	1189.75
531.436	1178.75
531.651	1197.75
531.865	1233.75
532.08	1210.75
532.295	1247.75
532.509	1284.75
532.724	1297.75
532.938	1300.75
533.153	1345.75
533.367	1349.75
533.582	1435.75
533.796	1413.75
534.011	1386.75
534.225	1349.75
534.44	1319.75
534.654	1313.75
534.868	1288.75
535.083	1285.75
535.297	1285.75
535.511	1249.75
535.726	1203.75
535.94	1224.75
536.154	1206.75
536.369	1204.75
536.583	1142.75
536.797	1152.75
537.011	1155.75
537.225	1152.75
537.44	1140.75
537.654	1145.75
537.868	1137.75
538.082	1089.75
538.296	1119.75
538.51	1110.75
538.724	1105.75
538.938	1092.75
539.153	1082.75
539.367	1119.75
539.581	1093.75
539.795	1081.75
540.009	1067.75
540.222	1080.75
540.436	1050.75
540.65	1094.75
540.864	1130.75
541.078	1123.75
541.292	1146.75
541.506	1303.75
541.72	1369.75
541.934	1230.75
542.147	1206.75
542.361	1159.75
542.575	1145.75
542.789	1113.75
543.002	1053.75
543.216	1053.75
543.43	1051.75
543.644	1077.75
543.857	1058.75
544.071	1110.75
544.285	1107.75
544.498	1102.75
544.712	1106.75
544.925	1099.75
545.139	1109.75
545.352	1053.75
545.566	1070.75
545.779	1095.75
545.993	1090.75
546.206	1116.75
546.42	1100.75
546.633	1083.75
546.847	1069.75
547.06	1096.75
547.274	1106.75
547.487	1089.75
547.7	1070.75
547.914	1129.75
548.127	1102.75
548.34	1119.75
548.554	1107.75
548.767	1085.75
548.98	1109.75
549.193	1077.75
549.407	1073.75
549.62	1077.75
549.833	1101.75
550.046	1096.75
550.259	1115.75
550.473	1106.75
550.686	1108.75
550.899	1062.75
551.112	1068.75
551.325	1097.75
551.538	1107.75
551.751	1073.75
551.964	1035.75
552.177	1064.75
552.39	1100.75
552.603	1162.75
552.816	1123.75
553.029	1152.75
553.242	1190.75
553.455	1189.75
553.667	1195.75
553.88	1169.75
554.093	1169.75
554.306	1179.75
554.519	1211.75
554.732	1210.75
554.944	1212.75
555.157	1244.75
555.37	1255.75
555.583	1281.75
555.795	1346.75
556.008	1372.75
556.221	1452.75
556.433	1511.75
556.646	1502.75
556.859	1482.75
557.071	1491.75
557.284	1484.75
557.496	1459.75
557.709	1441.75
557.921	1421.75
558.134	1433.75
558.346	1420.75
558.559	1458.75
558.771	1491.75
558.984	1586.75
559.196	1606.75
559.409	1564.75
559.621	1516.75
559.833	1494.75
560.046	1400.75
560.258	1354.75
560.47	1318.75
560.683	1257.75
560.895	1269.75
561.107	1216.75
561.32	1195.75
561.532	1169.75
561.744	1166.75
561.956	1122.75
562.168	1099.75
562.381	1073.75
562.593	1096.75
562.805	1097.75
563.017	1093.75
563.229	1134.75
563.441	1181.75
563.653	1069.75
563.865	1011.75
564.077	1006.75
564.289	1001.75
564.501	995.75
564.713	1011.75
564.925	983.75
565.137	994.75
565.349	977.75
565.561	1016.75
565.773	998.75
565.985	1035.75
566.197	1014.75
566.408	1050.75
566.62	1083.75
566.832	1093.75
567.044	1103.75
567.255	1106.75
567.467	1123.75
567.679	1127.75
567.891	1181.75
568.102	1270.75
568.314	1420.75
568.526	1221.75
568.737	1107.75
568.949	1057.75
569.161	965.75
569.372	930.75
569.584	913.75
569.795	897.75
570.007	879.75
570.218	895.75
570.43	921.75
570.641	882.75
570.853	881.75
571.064	857.75
571.276	829.75
571.487	823.75
571.698	797.75
571.91	819.75
572.121	750.75
572.333	787.75
572.544	786.75
572.755	826.75
572.966	901.75
573.178	852.75
573.389	789.75
573.6	775.75
573.811	762.75
574.023	744.75
574.234	713.75
574.445	738.75
574.656	745.75
574.867	720.75
575.078	705.75
575.289	734.75
575.501	718.75
575.712	716.75
575.923	721.75
576.134	739.75
576.345	730.75
576.556	714.75
576.767	706.75
576.978	713.75
577.188	741.75
577.399	742.75
577.61	723.75
577.821	754.75
578.032	727.75
578.243	773.75
578.454	755.75
578.665	761.75
578.875	808.75
579.086	827.75
579.297	822.75
579.508	846.75
579.718	890.75
579.929	1006.75
580.14	1069.75
580.35	1125.75
580.561	1095.75
580.772	1019.75
580.982	954.75
581.193	921.75
581.403	869.75
581.614	859.75
581.825	817.75
582.035	800.75
582.246	787.75
582.456	779.75
582.667	731.75
582.877	715.75
583.087	691.75
583.298	682.75
583.508	680.75
583.719	665.75
583.929	665.75
584.139	648.75
584.35	650.75
584.56	639.75
584.77	616.75
584.981	637.75
585.191	609.75
585.401	611.75
585.611	614.75
585.821	606.75
586.032	586.75
586.242	591.75
586.452	561.75
586.662	557.75
586.872	545.75
587.082	565.75
587.292	565.75
587.502	557.75
587.713	547.75
587.923	558.75
588.133	558.75
588.343	547.75
588.553	542.75
588.762	521.75
588.972	521.75
589.182	538.75
589.392	563.75
589.602	536.75
589.812	515.75
590.022	528.75
590.232	517.75
590.441	521.75
590.651	529.75
590.861	510.75
591.071	523.75
591.281	526.75
591.49	502.75
591.7	515.75
591.91	533.75
592.119	521.75
592.329	518.75
592.539	554.75
592.748	555.75
592.958	563.75
593.167	542.75
593.377	544.75
593.587	558.75
593.796	557.75
594.006	536.75
594.215	538.75
594.424	533.75
594.634	527.75
594.843	534.75
595.053	531.75
595.262	544.75
595.472	518.75
595.681	497.75
595.89	478.75
596.1	489.75
596.309	472.75
596.518	482.75
596.727	481.75
596.937	486.75
597.146	465.75
597.355	455.75
597.564	464.75
597.774	453.75
597.983	440.75
598.192	446.75
598.401	452.75
598.61	449.75
598.819	471.75
599.028	441.75
599.237	435.75
599.446	427.75
599.655	453.75
599.864	427.75
600.073	437.75
600.282	422.75
600.491	441.75
600.7	409.75
600.909	435.75
601.118	410.75
601.327	404.75
601.536	460.75
601.745	433.75
601.953	479.75
602.162	503.75
602.371	459.75
602.58	436.75
602.789	438.75
602.997	440.75
603.206	439.75
603.415	443.75
603.623	439.75
603.832	429.75
604.041	443.75
604.249	403.75
604.458	428.75
604.666	398.75
604.875	405.75
605.084	393.75
605.292	433.75
605.501	423.75
605.709	427.75
605.918	419.75
606.126	416.75
606.334	428.75
606.543	423.75
606.751	431.75
606.96	481.75
607.168	527.75
607.376	451.75
607.585	415.75
607.793	433.75
608.001	403.75
608.21	425.75
608.418	422.75
608.626	409.75
608.834	419.75
609.043	404.75
609.251	409.75
609.459	396.75
609.667	402.75
609.875	398.75
610.083	407.75
610.291	408.75
610.499	398.75
610.707	410.75
610.916	388.75
611.124	391.75
611.332	402.75
611.54	396.75
611.748	388.75
611.955	393.75
612.163	385.75
612.371	391.75
612.579	400.75
612.787	402.75
612.995	395.75
613.203	378.75
613.411	355.75
613.618	387.75
613.826	413.75
614.034	387.75
614.242	382.75
614.449	371.75
614.657	390.75
614.865	389.75
615.072	391.75
615.28	401.75
615.488	387.75
615.695	375.75
615.903	359.75
616.111	387.75
616.318	362.75
616.526	378.75
616.733	374.75
616.941	388.75
617.148	383.75
617.356	374.75
617.563	355.75
617.771	380.75
617.978	375.75
618.185	371.75
618.393	377.75
618.6	370.75
618.807	373.75
619.015	365.75
619.222	381.75
619.429	343.75
619.637	345.75
619.844	347.75
620.051	357.75
620.258	366.75
620.466	348.75
620.673	342.75
620.88	356.75
621.087	331.75
621.294	332.75
621.501	338.75
621.708	350.75
621.915	343.75
622.122	334.75
622.329	347.75
622.536	347.75
622.743	347.75
622.95	331.75
623.157	349.75
623.364	334.75
623.571	353.75
623.778	344.75
623.985	329.75
624.192	326.75
624.399	334.75
624.606	325.75
624.812	327.75
625.019	325.75
625.226	328.75
625.433	317.75
625.639	329.75
625.846	309.75
626.053	299.75
626.259	321.75
626.466	327.75
626.673	323.75
626.879	314.75
627.086	313.75
627.293	317.75
627.499	310.75
627.706	329.75
627.912	316.75
628.119	325.75
628.325	323.75
628.532	314.75
628.738	318.75
628.945	317.75
629.151	309.75
629.357	318.75
629.564	302.75
629.77	299.75
629.976	315.75
630.183	308.75
630.389	309.75
630.595	302.75
630.802	291.75
631.008	301.75
631.214	293.75
631.42	313.75
631.627	295.75
631.833	279.75
632.039	292.75
632.245	302.75
632.451	289.75
632.657	320.75
632.863	325.75
633.069	292.75
633.275	297.75
633.481	293.75
633.688	300.75
633.893	285.75
634.099	289.75
634.305	297.75
634.511	291.75
634.717	292.75
634.923	295.75
635.129	313.75
635.335	350.75
635.541	318.75
635.747	305.75
635.952	289.75
636.158	293.75
636.364	309.75
636.57	289.75
636.775	297.75
636.981	293.75
637.187	281.75
637.392	277.75
637.598	312.75
637.804	295.75
638.009	285.75
638.215	293.75
638.421	292.75
638.626	311.75
638.832	283.75
639.037	300.75
639.243	285.75
639.448	288.75
639.654	313.75
639.859	293.75
640.065	299.75
640.27	307.75
640.475	277.75
640.681	305.75
640.886	303.75
641.091	307.75
641.297	310.75
641.502	319.75
641.707	307.75
641.913	322.75
642.118	302.75
642.323	337.75
642.528	326.75
642.733	332.75
642.939	326.75
643.144	333.75
643.349	347.75
643.554	361.75
643.759	361.75
643.964	377.75
644.169	400.75
644.374	423.75
644.579	435.75
644.784	463.75
644.989	532.75
645.194	539.75
645.399	617.75
645.604	628.75
645.809	530.75
646.014	446.75
646.219	411.75
646.423	373.75
646.628	363.75
646.833	334.75
647.038	332.75
647.243	314.75
647.447	318.75
647.652	301.75
647.857	295.75
648.062	273.75
648.266	285.75
648.471	294.75
648.676	297.75
648.88	274.75
649.085	264.75
649.289	255.75
649.494	259.75
649.698	249.75
649.903	247.75
650.107	258.75
650.312	266.75
650.516	243.75
650.721	251.75
650.925	224.75
651.13	235.75
651.334	244.75
651.539	238.75
651.743	219.75
651.947	237.75
652.152	230.75
652.356	220.75
652.56	227.75
652.764	251.75
652.969	225.75
653.173	233.75
653.377	210.75
653.581	223.75
653.785	203.75
653.99	218.75
654.194	197.75
654.398	207.75
654.602	213.75
654.806	202.75
655.01	196.75
655.214	197.75
655.418	202.75
655.622	221.75
655.826	210.75
656.03	217.75
656.234	219.75
656.438	236.75
656.642	239.75
656.846	206.75
657.049	193.75
657.253	193.75
657.457	177.75
657.661	188.75
657.865	174.75
658.068	159.75
658.272	165.75
658.476	152.75
658.68	151.75
658.883	138.75
659.087	127.75
659.291	148.75
659.494	133.75
659.698	123.75
659.901	125.75
660.105	121.75
660.309	130.75
660.512	125.75
660.716	107.75
660.919	107.75
661.123	100.75
661.326	118.75
661.53	115.75
661.733	113.75
661.936	108.75
662.14	91.75
662.343	95.75
662.546	89.75
662.75	100.75
662.953	82.75
663.156	93.75
663.36	100.75
663.563	99.75
663.766	80.75
663.969	83.75
664.173	85.75
664.376	84.75
664.579	93.75
664.782	96.75
664.985	79.75
665.188	87.75
665.391	85.75
665.594	81.75
665.797	88.75
666	88.75
666.203	77.75
666.406	93.75
666.609	89.75
666.812	96.75
667.015	85.75
667.218	92.75
667.421	85.75
667.624	83.75
667.827	95.75
668.03	92.75
668.232	88.75
668.435	90.75
668.638	81.75
668.841	88.75
669.043	74.75
669.246	85.75
669.449	83.75
669.651	93.75
669.854	85.75
670.057	104.75
670.259	92.75
670.462	102.75
670.665	82.75
670.867	76.75
671.07	81.75
671.272	83.75
671.475	87.75
671.677	76.75
671.88	83.75
672.082	94.75
672.284	88.75
672.487	89.75
672.689	71.75
672.892	76.75
