Data from SnStandardFlinnAPT0064_LampEnergy5.5_LIBS07252019.E.O._I.C._HRD10591_15-14-31-491.txt Node
Date: Thu Jul 25 15:14:31 EDT 2019
User: cochatt
Spectrometer: HR+D1059
Trigger mode: 1
Integration Time (sec): 1.000000E-1
Scans to average: 1
Electric dark correction enabled: true
Nonlinearity correction enabled: false
Boxcar width: 0
XAxis mode: Wavelengths
Number of Pixels in Spectrum: 2048
>>>>>Begin Spectral Data<<<<<
223.165	-7.19
223.4	-7.19
223.635	-7.19
223.869	-25.19
224.104	-16.19
224.338	-14.19
224.573	-30.19
224.808	-16.19
225.042	-2.19
225.277	-23.19
225.511	8.81
225.746	0.81
225.98	18.81
226.215	16.81
226.449	16.81
226.683	23.81
226.918	24.81
227.152	23.81
227.387	34.81
227.621	50.81
227.856	43.81
228.09	35.81
228.324	41.81
228.559	54.81
228.793	69.81
229.027	145.81
229.262	158.81
229.496	145.81
229.73	133.81
229.964	137.81
230.199	165.81
230.433	146.81
230.667	171.81
230.901	156.81
231.136	164.81
231.37	160.81
231.604	179.81
231.838	181.81
232.072	192.81
232.306	223.81
232.541	200.81
232.775	185.81
233.009	210.81
233.243	197.81
233.477	211.81
233.711	215.81
233.945	239.81
234.179	223.81
234.413	210.81
234.647	204.81
234.881	212.81
235.115	235.81
235.349	232.81
235.583	293.81
235.817	368.81
236.051	358.81
236.285	276.81
236.519	215.81
236.753	227.81
236.987	225.81
237.221	226.81
237.455	222.81
237.689	212.81
237.922	210.81
238.156	205.81
238.39	221.81
238.624	223.81
238.858	207.81
239.091	224.81
239.325	219.81
239.559	227.81
239.793	225.81
240.027	217.81
240.26	245.81
240.494	226.81
240.728	244.81
240.961	259.81
241.195	273.81
241.429	280.81
241.662	287.81
241.896	323.81
242.13	363.81
242.363	440.81
242.597	528.81
242.83	528.81
243.064	530.81
243.298	608.81
243.531	548.81
243.765	384.81
243.998	328.81
244.232	284.81
244.465	269.81
244.699	278.81
244.932	275.81
245.166	300.81
245.399	289.81
245.633	278.81
245.866	282.81
246.099	297.81
246.333	284.81
246.566	288.81
246.8	288.81
247.033	281.81
247.266	282.81
247.5	271.81
247.733	274.81
247.966	296.81
248.2	305.81
248.433	330.81
248.666	380.81
248.899	355.81
249.133	320.81
249.366	352.81
249.599	362.81
249.832	394.81
250.066	393.81
250.299	350.81
250.532	332.81
250.765	344.81
250.998	323.81
251.231	302.81
251.465	304.81
251.698	315.81
251.931	310.81
252.164	331.81
252.397	310.81
252.63	331.81
252.863	315.81
253.096	338.81
253.329	331.81
253.562	331.81
253.795	337.81
254.028	345.81
254.261	340.81
254.494	345.81
254.727	392.81
254.96	440.81
255.193	432.81
255.426	394.81
255.659	384.81
255.892	351.81
256.124	347.81
256.357	359.81
256.59	359.81
256.823	386.81
257.056	427.81
257.289	484.81
257.521	520.81
257.754	446.81
257.987	388.81
258.22	376.81
258.452	372.81
258.685	378.81
258.918	390.81
259.151	400.81
259.383	442.81
259.616	471.81
259.849	483.81
260.081	427.81
260.314	411.81
260.547	399.81
260.779	411.81
261.012	417.81
261.244	405.81
261.477	416.81
261.71	419.81
261.942	423.81
262.175	414.81
262.407	444.81
262.64	440.81
262.872	466.81
263.105	480.81
263.337	500.81
263.57	528.81
263.802	539.81
264.035	571.81
264.267	550.81
264.499	570.81
264.732	556.81
264.964	568.81
265.197	604.81
265.429	594.81
265.661	605.81
265.894	645.81
266.126	685.81
266.358	743.81
266.591	724.81
266.823	653.81
267.055	593.81
267.287	590.81
267.52	571.81
267.752	543.81
267.984	532.81
268.216	548.81
268.448	551.81
268.681	523.81
268.913	517.81
269.145	528.81
269.377	505.81
269.609	523.81
269.841	523.81
270.073	575.81
270.306	601.81
270.538	784.81
270.77	1082.81
271.002	1286.81
271.234	956.81
271.466	707.81
271.698	603.81
271.93	555.81
272.162	520.81
272.394	542.81
272.626	526.81
272.858	502.81
273.09	491.81
273.322	512.81
273.553	516.81
273.785	497.81
274.017	490.81
274.249	509.81
274.481	501.81
274.713	507.81
274.945	505.81
275.176	509.81
275.408	482.81
275.64	512.81
275.872	508.81
276.104	527.81
276.335	492.81
276.567	515.81
276.799	495.81
277.031	514.81
277.262	521.81
277.494	575.81
277.726	585.81
277.957	635.81
278.189	720.81
278.421	690.81
278.652	638.81
278.884	618.81
279.115	558.81
279.347	556.81
279.579	570.81
279.81	548.81
280.042	563.81
280.273	571.81
280.505	592.81
280.736	581.81
280.968	618.81
281.199	643.81
281.431	682.81
281.662	710.81
281.894	630.81
282.125	615.81
282.356	640.81
282.588	655.81
282.819	667.81
283.051	675.81
283.282	755.81
283.513	879.81
283.745	1214.81
283.976	1806.81
284.207	2521.81
284.439	2301.81
284.67	1477.81
284.901	1221.81
285.132	1178.81
285.364	1113.81
285.595	931.81
285.826	857.81
286.057	966.81
286.288	1286.81
286.52	1690.81
286.751	1538.81
286.982	1050.81
287.213	839.81
287.444	756.81
287.675	696.81
287.906	689.81
288.138	693.81
288.369	679.81
288.6	675.81
288.831	676.81
289.062	668.81
289.293	651.81
289.524	668.81
289.755	690.81
289.986	655.81
290.217	688.81
290.448	657.81
290.679	691.81
290.91	675.81
291.141	697.81
291.371	720.81
291.602	764.81
291.833	700.81
292.064	689.81
292.295	688.81
292.526	657.81
292.757	660.81
292.987	656.81
293.218	624.81
293.449	638.81
293.68	649.81
293.91	624.81
294.141	638.81
294.372	623.81
294.603	632.81
294.833	639.81
295.064	631.81
295.295	638.81
295.525	635.81
295.756	624.81
295.987	639.81
296.217	646.81
296.448	635.81
296.679	642.81
296.909	634.81
297.14	636.81
297.37	651.81
297.601	640.81
297.831	637.81
298.062	653.81
298.292	638.81
298.523	679.81
298.753	697.81
298.984	656.81
299.214	680.81
299.445	668.81
299.675	683.81
299.905	704.81
300.136	707.81
300.366	771.81
300.597	962.81
300.827	1284.81
301.057	1620.81
301.288	1612.81
301.518	1161.81
301.748	952.81
301.979	849.81
302.209	820.81
302.439	834.81
302.669	870.81
302.9	1027.81
303.13	1339.81
303.36	1854.81
303.59	2417.81
303.82	2158.81
304.051	1351.81
304.281	1064.81
304.511	920.81
304.741	848.81
304.971	820.81
305.201	787.81
305.431	752.81
305.661	771.81
305.891	754.81
306.121	759.81
306.352	733.81
306.582	752.81
306.812	723.81
307.042	737.81
307.272	711.81
307.502	719.81
307.731	746.81
307.961	731.81
308.191	726.81
308.421	743.81
308.651	716.81
308.881	722.81
309.111	713.81
309.341	733.81
309.571	714.81
309.8	743.81
310.03	730.81
310.26	743.81
310.49	745.81
310.72	730.81
310.949	730.81
311.179	743.81
311.409	772.81
311.639	766.81
311.868	743.81
312.098	775.81
312.328	791.81
312.557	781.81
312.787	778.81
313.017	783.81
313.246	786.81
313.476	826.81
313.706	816.81
313.935	862.81
314.165	862.81
314.394	884.81
314.624	868.81
314.853	842.81
315.083	830.81
315.312	848.81
315.542	858.81
315.771	853.81
316.001	886.81
316.23	891.81
316.46	927.81
316.689	982.81
316.919	1158.81
317.148	1539.81
317.377	2274.81
317.607	3231.81
317.836	3344.81
318.065	2055.81
318.295	1442.81
318.524	1214.81
318.753	1085.81
318.983	1005.81
319.212	1000.81
319.441	952.81
319.67	916.81
319.9	918.81
320.129	948.81
320.358	900.81
320.587	891.81
320.816	894.81
321.046	922.81
321.275	935.81
321.504	942.81
321.733	933.81
321.962	963.81
322.191	960.81
322.42	961.81
322.649	953.81
322.878	951.81
323.108	957.81
323.337	964.81
323.566	960.81
323.795	998.81
324.024	1023.81
324.253	1040.81
324.482	1039.81
324.71	1092.81
324.939	1147.81
325.168	1180.81
325.397	1233.81
325.626	1406.81
325.855	1895.81
326.084	2762.81
326.313	3968.81
326.542	4196.81
326.77	2825.81
326.999	1982.81
327.228	1704.81
327.457	1633.81
327.686	1679.81
327.914	1787.81
328.143	2024.81
328.372	2285.81
328.6	2430.81
328.829	2295.81
329.058	2042.81
329.287	1850.81
329.515	1666.81
329.744	1571.81
329.972	1488.81
330.201	1442.81
330.43	1412.81
330.658	1371.81
330.887	1373.81
331.115	1333.81
331.344	1333.81
331.572	1341.81
331.801	1320.81
332.03	1337.81
332.258	1344.81
332.486	1410.81
332.715	1516.81
332.943	1796.81
333.172	2124.81
333.4	2155.81
333.629	1740.81
333.857	1644.81
334.085	1667.81
334.314	1707.81
334.542	1855.81
334.771	2123.81
334.999	2472.81
335.227	2943.81
335.455	3251.81
335.684	3039.81
335.912	2705.81
336.14	2330.81
336.369	2154.81
336.597	1978.81
336.825	1802.81
337.053	1712.81
337.281	1616.81
337.51	1546.81
337.738	1498.81
337.966	1387.81
338.194	1349.81
338.422	1336.81
338.65	1316.81
338.878	1267.81
339.106	1243.81
339.334	1254.81
339.562	1253.81
339.79	1212.81
340.018	1210.81
340.246	1196.81
340.474	1176.81
340.702	1184.81
340.93	1174.81
341.158	1170.81
341.386	1167.81
341.614	1155.81
341.842	1145.81
342.07	1109.81
342.298	1077.81
342.526	1071.81
342.754	1082.81
342.981	1074.81
343.209	1060.81
343.437	1094.81
343.665	1114.81
343.893	1112.81
344.12	1129.81
344.348	1086.81
344.576	1092.81
344.804	1059.81
345.031	1057.81
345.259	1027.81
345.487	1024.81
345.714	1013.81
345.942	1028.81
346.17	1015.81
346.397	1000.81
346.625	989.81
346.853	988.81
347.08	1004.81
347.308	988.81
347.535	979.81
347.763	1013.81
347.99	1032.81
348.218	983.81
348.445	1007.81
348.673	986.81
348.9	969.81
349.128	1016.81
349.355	956.81
349.583	988.81
349.81	967.81
350.037	969.81
350.265	961.81
350.492	952.81
350.72	959.81
350.947	960.81
351.174	948.81
351.402	975.81
351.629	972.81
351.856	963.81
352.083	966.81
352.311	938.81
352.538	938.81
352.765	969.81
352.992	950.81
353.22	962.81
353.447	939.81
353.674	927.81
353.901	907.81
354.128	944.81
354.355	932.81
354.583	947.81
354.81	942.81
355.037	966.81
355.264	985.81
355.491	966.81
355.718	953.81
355.945	990.81
356.172	958.81
356.399	986.81
356.626	997.81
356.853	1010.81
357.08	984.81
357.307	1009.81
357.534	1034.81
357.761	1020.81
357.988	1056.81
358.215	1026.81
358.441	1015.81
358.668	1019.81
358.895	999.81
359.122	1009.81
359.349	1023.81
359.576	1038.81
359.802	1012.81
360.029	1003.81
360.256	983.81
360.483	1034.81
360.709	988.81
360.936	1013.81
361.163	1012.81
361.39	985.81
361.616	998.81
361.843	1013.81
362.07	1022.81
362.296	1032.81
362.523	1006.81
362.749	1011.81
362.976	993.81
363.203	1023.81
363.429	1022.81
363.656	1057.81
363.882	1042.81
364.109	1020.81
364.335	996.81
364.562	1033.81
364.788	1010.81
365.015	1001.81
365.241	1038.81
365.468	1083.81
365.694	1099.81
365.92	1043.81
366.147	1048.81
366.373	1047.81
366.599	1061.81
366.826	1024.81
367.052	1032.81
367.278	1051.81
367.505	1062.81
367.731	1029.81
367.957	1042.81
368.184	1058.81
368.41	1080.81
368.636	1046.81
368.862	1052.81
369.089	1059.81
369.315	1070.81
369.541	1061.81
369.767	1076.81
369.993	1055.81
370.219	1064.81
370.445	1054.81
370.672	1099.81
370.898	1063.81
371.124	1063.81
371.35	1078.81
371.576	1094.81
371.802	1063.81
372.028	1062.81
372.254	1091.81
372.48	1103.81
372.706	1126.81
372.932	1113.81
373.158	1083.81
373.384	1121.81
373.61	1142.81
373.835	1152.81
374.061	1130.81
374.287	1147.81
374.513	1119.81
374.739	1157.81
374.965	1172.81
375.191	1197.81
375.416	1143.81
375.642	1113.81
375.868	1121.81
376.094	1096.81
376.319	1111.81
376.545	1109.81
376.771	1086.81
376.997	1070.81
377.222	1090.81
377.448	1098.81
377.674	1103.81
377.899	1108.81
378.125	1078.81
378.35	1067.81
378.576	1100.81
378.802	1083.81
379.027	1128.81
379.253	1152.81
379.478	1161.81
379.704	1306.81
379.929	1762.81
380.155	2411.81
380.38	2602.81
380.606	1761.81
380.831	1332.81
381.057	1221.81
381.282	1119.81
381.507	1123.81
381.733	1109.81
381.958	1082.81
382.184	1112.81
382.409	1088.81
382.634	1090.81
382.86	1067.81
383.085	1092.81
383.31	1080.81
383.535	1094.81
383.761	1063.81
383.986	1094.81
384.211	1092.81
384.436	1136.81
384.662	1108.81
384.887	1109.81
385.112	1126.81
385.337	1160.81
385.562	1124.81
385.787	1098.81
386.013	1157.81
386.238	1144.81
386.463	1127.81
386.688	1138.81
386.913	1112.81
387.138	1116.81
387.363	1115.81
387.588	1088.81
387.813	1131.81
388.038	1152.81
388.263	1120.81
388.488	1132.81
388.713	1166.81
388.938	1112.81
389.163	1123.81
389.387	1136.81
389.612	1125.81
389.837	1130.81
390.062	1151.81
390.287	1100.81
390.512	1138.81
390.736	1136.81
390.961	1188.81
391.186	1184.81
391.411	1164.81
391.636	1204.81
391.86	1204.81
392.085	1180.81
392.31	1146.81
392.534	1145.81
392.759	1155.81
392.984	1151.81
393.208	1115.81
393.433	1127.81
393.658	1135.81
393.882	1144.81
394.107	1151.81
394.331	1135.81
394.556	1127.81
394.78	1172.81
395.005	1160.81
395.229	1154.81
395.454	1193.81
395.678	1170.81
395.903	1159.81
396.127	1188.81
396.352	1161.81
396.576	1168.81
396.801	1150.81
397.025	1165.81
397.249	1166.81
397.474	1180.81
397.698	1199.81
397.922	1224.81
398.147	1171.81
398.371	1215.81
398.595	1219.81
398.82	1233.81
399.044	1311.81
399.268	1373.81
399.492	1463.81
399.717	1484.81
399.941	1510.81
400.165	1462.81
400.389	1400.81
400.613	1333.81
400.837	1323.81
401.062	1321.81
401.286	1249.81
401.51	1263.81
401.734	1241.81
401.958	1247.81
402.182	1260.81
402.406	1248.81
402.63	1283.81
402.854	1282.81
403.078	1293.81
403.302	1284.81
403.526	1326.81
403.75	1318.81
403.974	1283.81
404.198	1306.81
404.422	1298.81
404.645	1279.81
404.869	1312.81
405.093	1311.81
405.317	1281.81
405.541	1300.81
405.765	1313.81
405.988	1319.81
406.212	1358.81
406.436	1310.81
406.66	1332.81
406.883	1338.81
407.107	1379.81
407.331	1373.81
407.555	1414.81
407.778	1396.81
408.002	1380.81
408.226	1384.81
408.449	1372.81
408.673	1333.81
408.896	1335.81
409.12	1320.81
409.344	1307.81
409.567	1291.81
409.791	1306.81
410.014	1253.81
410.238	1262.81
410.461	1293.81
410.685	1286.81
410.908	1292.81
411.132	1280.81
411.355	1221.81
411.578	1255.81
411.802	1266.81
412.025	1232.81
412.249	1286.81
412.472	1282.81
412.695	1211.81
412.919	1198.81
413.142	1198.81
413.365	1204.81
413.589	1242.81
413.812	1211.81
414.035	1200.81
414.258	1234.81
414.482	1233.81
414.705	1214.81
414.928	1212.81
415.151	1234.81
415.374	1226.81
415.597	1187.81
415.821	1196.81
416.044	1155.81
416.267	1174.81
416.49	1184.81
416.713	1200.81
416.936	1198.81
417.159	1191.81
417.382	1162.81
417.605	1154.81
417.828	1176.81
418.051	1178.81
418.274	1183.81
418.497	1195.81
418.72	1222.81
418.943	1204.81
419.166	1222.81
419.389	1280.81
419.611	1314.81
419.834	1263.81
420.057	1248.81
420.28	1200.81
420.503	1179.81
420.726	1174.81
420.948	1162.81
421.171	1214.81
421.394	1209.81
421.617	1192.81
421.839	1200.81
422.062	1217.81
422.285	1146.81
422.507	1210.81
422.73	1207.81
422.953	1198.81
423.175	1204.81
423.398	1216.81
423.621	1175.81
423.843	1226.81
424.066	1206.81
424.288	1146.81
424.511	1186.81
424.733	1200.81
424.956	1172.81
425.178	1147.81
425.401	1193.81
425.623	1191.81
425.846	1163.81
426.068	1160.81
426.291	1156.81
426.513	1173.81
426.735	1147.81
426.958	1131.81
427.18	1147.81
427.402	1127.81
427.625	1126.81
427.847	1091.81
428.069	1086.81
428.292	1121.81
428.514	1124.81
428.736	1065.81
428.958	1108.81
429.181	1086.81
429.403	1066.81
429.625	1094.81
429.847	1094.81
430.069	1126.81
430.292	1133.81
430.514	1158.81
430.736	1179.81
430.958	1117.81
431.18	1114.81
431.402	1107.81
431.624	1069.81
431.846	1074.81
432.068	1073.81
432.29	1078.81
432.512	1072.81
432.734	1101.81
432.956	1086.81
433.178	1129.81
433.4	1116.81
433.622	1092.81
433.844	1111.81
434.066	1095.81
434.287	1092.81
434.509	1112.81
434.731	1092.81
434.953	1086.81
435.175	1141.81
435.397	1126.81
435.618	1154.81
435.84	1086.81
436.062	1058.81
436.284	1079.81
436.505	1102.81
436.727	1063.81
436.949	1075.81
437.17	1090.81
437.392	1070.81
437.614	1063.81
437.835	1038.81
438.057	1040.81
438.278	1063.81
438.5	1063.81
438.721	1083.81
438.943	1129.81
439.165	1123.81
439.386	1111.81
439.608	1129.81
439.829	1112.81
440.05	1141.81
440.272	1164.81
440.493	1140.81
440.715	1106.81
440.936	1126.81
441.158	1147.81
441.379	1145.81
441.6	1182.81
441.822	1210.81
442.043	1263.81
442.264	1284.81
442.486	1231.81
442.707	1209.81
442.928	1161.81
443.149	1161.81
443.371	1175.81
443.592	1190.81
443.813	1178.81
444.034	1162.81
444.255	1207.81
444.476	1216.81
444.698	1248.81
444.919	1240.81
445.14	1335.81
445.361	1252.81
445.582	1180.81
445.803	1190.81
446.024	1182.81
446.245	1153.81
446.466	1180.81
446.687	1166.81
446.908	1174.81
447.129	1118.81
447.35	1115.81
447.571	1119.81
447.792	1084.81
448.013	1066.81
448.234	1076.81
448.455	1044.81
448.675	1060.81
448.896	1098.81
449.117	1141.81
449.338	1195.81
449.559	1234.81
449.779	1129.81
450	1080.81
450.221	1051.81
450.442	1040.81
450.662	1025.81
450.883	1058.81
451.104	1043.81
451.324	1003.81
451.545	1062.81
451.766	1038.81
451.986	1087.81
452.207	1119.81
452.428	1289.81
452.648	1722.81
452.869	1496.81
453.089	1200.81
453.31	1123.81
453.53	1114.81
453.751	1128.81
453.971	1209.81
454.192	1190.81
454.412	1059.81
454.633	1008.81
454.853	1035.81
455.073	1020.81
455.294	1010.81
455.514	1010.81
455.734	1015.81
455.955	976.81
456.175	987.81
456.395	984.81
456.616	996.81
456.836	1015.81
457.056	1015.81
457.276	1024.81
457.497	1035.81
457.717	1049.81
457.937	1061.81
458.157	1039.81
458.377	1036.81
458.598	1043.81
458.818	1074.81
459.038	1050.81
459.258	1056.81
459.478	1109.81
459.698	1086.81
459.918	1085.81
460.138	1130.81
460.358	1158.81
460.578	1151.81
460.798	1182.81
461.018	1179.81
461.238	1216.81
461.458	1210.81
461.678	1180.81
461.898	1195.81
462.118	1232.81
462.338	1219.81
462.558	1276.81
462.777	1278.81
462.997	1321.81
463.217	1355.81
463.437	1403.81
463.657	1358.81
463.876	1384.81
464.096	1354.81
464.316	1279.81
464.536	1258.81
464.755	1226.81
464.975	1222.81
465.195	1207.81
465.414	1161.81
465.634	1135.81
465.854	1117.81
466.073	1129.81
466.293	1114.81
466.512	1100.81
466.732	1120.81
466.951	1156.81
467.171	1166.81
467.391	1160.81
467.61	1136.81
467.829	1114.81
468.049	1108.81
468.268	1090.81
468.488	1090.81
468.707	1083.81
468.927	1074.81
469.146	1068.81
469.365	1082.81
469.585	1075.81
469.804	1092.81
470.023	1145.81
470.243	1138.81
470.462	1164.81
470.681	1213.81
470.901	1312.81
471.12	1417.81
471.339	1462.81
471.558	1222.81
471.777	1175.81
471.997	1139.81
472.216	1070.81
472.435	1118.81
472.654	1046.81
472.873	1059.81
473.092	1054.81
473.311	1094.81
473.53	1060.81
473.749	1067.81
473.968	1114.81
474.187	1095.81
474.406	1081.81
474.625	1099.81
474.844	1088.81
475.063	1093.81
475.282	1088.81
475.501	1089.81
475.72	1081.81
475.939	1130.81
476.158	1125.81
476.377	1160.81
476.596	1138.81
476.814	1122.81
477.033	1105.81
477.252	1177.81
477.471	1181.81
477.69	1218.81
477.908	1228.81
478.127	1247.81
478.346	1214.81
478.564	1238.81
478.783	1254.81
479.002	1276.81
479.22	1269.81
479.439	1290.81
479.658	1291.81
479.876	1268.81
480.095	1304.81
480.313	1319.81
480.532	1342.81
480.751	1292.81
480.969	1305.81
481.188	1260.81
481.406	1290.81
481.624	1275.81
481.843	1267.81
482.061	1291.81
482.28	1282.81
482.498	1314.81
482.717	1272.81
482.935	1300.81
483.153	1318.81
483.372	1313.81
483.59	1348.81
483.808	1324.81
484.027	1345.81
484.245	1407.81
484.463	1574.81
484.681	1695.81
484.9	1531.81
485.118	1490.81
485.336	1453.81
485.554	1468.81
485.772	1543.81
485.99	1704.81
486.209	1811.81
486.427	1570.81
486.645	1447.81
486.863	1406.81
487.081	1419.81
487.299	1414.81
487.517	1362.81
487.735	1402.81
487.953	1397.81
488.171	1430.81
488.389	1386.81
488.607	1412.81
488.825	1351.81
489.043	1330.81
489.261	1329.81
489.479	1336.81
489.696	1347.81
489.914	1331.81
490.132	1359.81
490.35	1349.81
490.568	1346.81
490.786	1377.81
491.003	1398.81
491.221	1419.81
491.439	1442.81
491.657	1408.81
491.874	1443.81
492.092	1460.81
492.31	1457.81
492.527	1459.81
492.745	1451.81
492.963	1429.81
493.18	1420.81
493.398	1454.81
493.615	1431.81
493.833	1422.81
494.05	1438.81
494.268	1423.81
494.485	1415.81
494.703	1415.81
494.92	1414.81
495.138	1417.81
495.355	1449.81
495.573	1430.81
495.79	1464.81
496.008	1436.81
496.225	1452.81
496.442	1478.81
496.66	1511.81
496.877	1525.81
497.094	1552.81
497.312	1513.81
497.529	1552.81
497.746	1554.81
497.963	1561.81
498.181	1597.81
498.398	1633.81
498.615	1662.81
498.832	1722.81
499.049	1803.81
499.267	1929.81
499.484	2048.81
499.701	2099.81
499.918	2196.81
500.135	2331.81
500.352	2425.81
500.569	2494.81
500.786	2428.81
501.003	2385.81
501.22	2254.81
501.437	2131.81
501.654	1972.81
501.871	1911.81
502.088	1821.81
502.305	1735.81
502.522	1737.81
502.739	1661.81
502.956	1609.81
503.172	1569.81
503.389	1495.81
503.606	1484.81
503.823	1458.81
504.04	1465.81
504.256	1471.81
504.473	1498.81
504.69	1476.81
504.907	1448.81
505.123	1402.81
505.34	1345.81
505.557	1335.81
505.773	1335.81
505.99	1304.81
506.207	1308.81
506.423	1282.81
506.64	1282.81
506.856	1274.81
507.073	1257.81
507.289	1203.81
507.506	1251.81
507.722	1216.81
507.939	1211.81
508.155	1208.81
508.372	1229.81
508.588	1218.81
508.805	1211.81
509.021	1235.81
509.238	1203.81
509.454	1236.81
509.67	1306.81
509.887	1268.81
510.103	1192.81
510.319	1205.81
510.536	1209.81
510.752	1185.81
510.968	1180.81
511.184	1168.81
511.401	1141.81
511.617	1163.81
511.833	1187.81
512.049	1177.81
512.265	1135.81
512.481	1159.81
512.698	1137.81
512.914	1160.81
513.13	1136.81
513.346	1142.81
513.562	1157.81
513.778	1139.81
513.994	1172.81
514.21	1238.81
514.426	1213.81
514.642	1248.81
514.858	1208.81
515.074	1182.81
515.29	1175.81
515.506	1183.81
515.721	1167.81
515.937	1168.81
516.153	1200.81
516.369	1214.81
516.585	1229.81
516.801	1221.81
517.016	1235.81
517.232	1264.81
517.448	1306.81
517.664	1314.81
517.879	1304.81
518.095	1302.81
518.311	1322.81
518.527	1297.81
518.742	1249.81
518.958	1280.81
519.173	1307.81
519.389	1257.81
519.605	1215.81
519.82	1160.81
520.036	1178.81
520.251	1179.81
520.467	1162.81
520.682	1166.81
520.898	1177.81
521.113	1158.81
521.329	1150.81
521.544	1143.81
521.76	1146.81
521.975	1146.81
522.19	1105.81
522.406	1145.81
522.621	1112.81
522.836	1134.81
523.052	1104.81
523.267	1088.81
523.482	1126.81
523.698	1109.81
523.913	1123.81
524.128	1111.81
524.343	1158.81
524.559	1113.81
524.774	1115.81
524.989	1104.81
525.204	1133.81
525.419	1106.81
525.634	1099.81
525.849	1123.81
526.064	1135.81
526.28	1115.81
526.495	1095.81
526.71	1116.81
526.925	1125.81
527.14	1126.81
527.355	1122.81
527.57	1135.81
527.785	1114.81
527.999	1128.81
528.214	1143.81
528.429	1155.81
528.644	1188.81
528.859	1166.81
529.074	1197.81
529.289	1202.81
529.503	1168.81
529.718	1214.81
529.933	1186.81
530.148	1159.81
530.363	1184.81
530.577	1178.81
530.792	1206.81
531.007	1182.81
531.221	1183.81
531.436	1216.81
531.651	1202.81
531.865	1177.81
532.08	1218.81
532.295	1231.81
532.509	1287.81
532.724	1286.81
532.938	1291.81
533.153	1329.81
533.367	1404.81
533.582	1427.81
533.796	1435.81
534.011	1411.81
534.225	1367.81
534.44	1353.81
534.654	1315.81
534.868	1312.81
535.083	1262.81
535.297	1270.81
535.511	1236.81
535.726	1239.81
535.94	1228.81
536.154	1210.81
536.369	1208.81
536.583	1185.81
536.797	1185.81
537.011	1176.81
537.225	1157.81
537.44	1166.81
537.654	1127.81
537.868	1147.81
538.082	1119.81
538.296	1124.81
538.51	1125.81
538.724	1124.81
538.938	1075.81
539.153	1116.81
539.367	1136.81
539.581	1069.81
539.795	1074.81
540.009	1047.81
540.222	1045.81
540.436	1062.81
540.65	1085.81
540.864	1067.81
541.078	1101.81
541.292	1156.81
541.506	1344.81
541.72	1388.81
541.934	1249.81
542.147	1205.81
542.361	1163.81
542.575	1130.81
542.789	1088.81
543.002	1061.81
543.216	1087.81
543.43	1062.81
543.644	1059.81
543.857	1051.81
544.071	1079.81
544.285	1070.81
544.498	1086.81
544.712	1104.81
544.925	1113.81
545.139	1093.81
545.352	1100.81
545.566	1064.81
545.779	1104.81
545.993	1103.81
546.206	1086.81
546.42	1114.81
546.633	1090.81
546.847	1093.81
547.06	1080.81
547.274	1111.81
547.487	1114.81
547.7	1122.81
547.914	1092.81
548.127	1104.81
548.34	1109.81
548.554	1091.81
548.767	1086.81
548.98	1087.81
549.193	1089.81
549.407	1088.81
549.62	1105.81
549.833	1112.81
550.046	1064.81
550.259	1093.81
550.473	1110.81
550.686	1110.81
550.899	1106.81
551.112	1083.81
551.325	1067.81
551.538	1093.81
551.751	1074.81
551.964	1079.81
552.177	1078.81
552.39	1101.81
552.603	1143.81
552.816	1167.81
553.029	1137.81
553.242	1164.81
553.455	1179.81
553.667	1174.81
553.88	1164.81
554.093	1178.81
554.306	1163.81
554.519	1201.81
554.732	1214.81
554.944	1228.81
555.157	1218.81
555.37	1257.81
555.583	1298.81
555.795	1364.81
556.008	1377.81
556.221	1493.81
556.433	1523.81
556.646	1562.81
556.859	1527.81
557.071	1542.81
557.284	1472.81
557.496	1442.81
557.709	1421.81
557.921	1434.81
558.134	1415.81
558.346	1412.81
558.559	1442.81
558.771	1501.81
558.984	1599.81
559.196	1641.81
559.409	1642.81
559.621	1560.81
559.833	1482.81
560.046	1434.81
560.258	1359.81
560.47	1371.81
560.683	1303.81
560.895	1241.81
561.107	1192.81
561.32	1185.81
561.532	1174.81
561.744	1126.81
561.956	1127.81
562.168	1117.81
562.381	1083.81
562.593	1101.81
562.805	1115.81
563.017	1079.81
563.229	1107.81
563.441	1176.81
563.653	1065.81
563.865	1033.81
564.077	1006.81
564.289	1010.81
564.501	1010.81
564.713	1000.81
564.925	1011.81
565.137	998.81
565.349	991.81
565.561	1008.81
565.773	1032.81
565.985	991.81
566.197	1013.81
566.408	1076.81
566.62	1063.81
566.832	1126.81
567.044	1112.81
567.255	1126.81
567.467	1132.81
567.679	1139.81
567.891	1195.81
568.102	1267.81
568.314	1443.81
568.526	1280.81
568.737	1076.81
568.949	1022.81
569.161	984.81
569.372	979.81
569.584	917.81
569.795	907.81
570.007	879.81
570.218	892.81
570.43	903.81
570.641	876.81
570.853	871.81
571.064	855.81
571.276	873.81
571.487	838.81
571.698	819.81
571.91	810.81
572.121	798.81
572.333	776.81
572.544	771.81
572.755	805.81
572.966	929.81
573.178	830.81
573.389	811.81
573.6	771.81
573.811	734.81
574.023	741.81
574.234	748.81
574.445	738.81
574.656	742.81
574.867	717.81
575.078	689.81
575.289	745.81
575.501	745.81
575.712	689.81
575.923	720.81
576.134	728.81
576.345	721.81
576.556	741.81
576.767	715.81
576.978	713.81
577.188	740.81
577.399	728.81
577.61	753.81
577.821	750.81
578.032	740.81
578.243	724.81
578.454	753.81
578.665	782.81
578.875	794.81
579.086	817.81
579.297	841.81
579.508	881.81
579.718	907.81
579.929	970.81
580.14	1068.81
580.35	1156.81
580.561	1097.81
580.772	1034.81
580.982	942.81
581.193	926.81
581.403	873.81
581.614	856.81
581.825	841.81
582.035	803.81
582.246	790.81
582.456	766.81
582.667	717.81
582.877	726.81
583.087	719.81
583.298	689.81
583.508	698.81
583.719	681.81
583.929	687.81
584.139	669.81
584.35	635.81
584.56	626.81
584.77	637.81
584.981	619.81
585.191	614.81
585.401	612.81
585.611	582.81
585.821	574.81
586.032	579.81
586.242	582.81
586.452	584.81
586.662	578.81
586.872	581.81
587.082	554.81
587.292	582.81
587.502	577.81
587.713	574.81
587.923	548.81
588.133	557.81
588.343	548.81
588.553	536.81
588.762	520.81
588.972	550.81
589.182	561.81
589.392	531.81
589.602	542.81
589.812	523.81
590.022	537.81
590.232	511.81
590.441	526.81
590.651	528.81
590.861	523.81
591.071	536.81
591.281	508.81
591.49	522.81
591.7	524.81
591.91	528.81
592.119	550.81
592.329	528.81
592.539	542.81
592.748	537.81
592.958	534.81
593.167	542.81
593.377	553.81
593.587	551.81
593.796	572.81
594.006	550.81
594.215	545.81
594.424	532.81
594.634	528.81
594.843	499.81
595.053	537.81
595.262	506.81
595.472	495.81
595.681	490.81
595.89	494.81
596.1	489.81
596.309	470.81
596.518	482.81
596.727	484.81
596.937	496.81
597.146	464.81
597.355	470.81
597.564	460.81
597.774	438.81
597.983	450.81
598.192	450.81
598.401	463.81
598.61	464.81
598.819	464.81
599.028	439.81
599.237	442.81
599.446	443.81
599.655	418.81
599.864	440.81
600.073	419.81
600.282	446.81
600.491	417.81
600.7	447.81
600.909	426.81
601.118	406.81
601.327	438.81
601.536	450.81
601.745	432.81
601.953	471.81
602.162	506.81
602.371	460.81
602.58	448.81
602.789	444.81
602.997	467.81
603.206	443.81
603.415	426.81
603.623	442.81
603.832	411.81
604.041	419.81
604.249	415.81
604.458	408.81
604.666	409.81
604.875	412.81
605.084	400.81
605.292	414.81
605.501	425.81
605.709	428.81
605.918	427.81
606.126	410.81
606.334	419.81
606.543	441.81
606.751	448.81
606.96	481.81
607.168	524.81
607.376	443.81
607.585	428.81
607.793	434.81
608.001	406.81
608.21	423.81
608.418	412.81
608.626	418.81
608.834	405.81
609.043	406.81
609.251	398.81
609.459	391.81
609.667	407.81
609.875	408.81
610.083	395.81
610.291	425.81
610.499	382.81
610.707	404.81
610.916	395.81
611.124	383.81
611.332	400.81
611.54	391.81
611.748	379.81
611.955	398.81
612.163	364.81
612.371	392.81
612.579	393.81
612.787	382.81
612.995	404.81
613.203	382.81
613.411	402.81
613.618	363.81
613.826	383.81
614.034	395.81
614.242	405.81
614.449	394.81
614.657	389.81
614.865	376.81
615.072	385.81
615.28	380.81
615.488	371.81
615.695	374.81
615.903	368.81
616.111	374.81
616.318	398.81
616.526	390.81
616.733	374.81
616.941	393.81
617.148	373.81
617.356	380.81
617.563	376.81
617.771	383.81
617.978	373.81
618.185	361.81
618.393	370.81
618.6	366.81
618.807	377.81
619.015	372.81
619.222	364.81
619.429	373.81
619.637	354.81
619.844	332.81
620.051	351.81
620.258	366.81
620.466	332.81
620.673	355.81
620.88	332.81
621.087	351.81
621.294	324.81
621.501	351.81
621.708	355.81
621.915	327.81
622.122	341.81
622.329	356.81
622.536	368.81
622.743	352.81
622.95	342.81
623.157	332.81
623.364	352.81
623.571	350.81
623.778	353.81
623.985	324.81
624.192	333.81
624.399	331.81
624.606	325.81
624.812	334.81
625.019	329.81
625.226	335.81
625.433	336.81
625.639	323.81
625.846	331.81
626.053	322.81
626.259	316.81
626.466	309.81
626.673	305.81
626.879	308.81
627.086	311.81
627.293	323.81
627.499	327.81
627.706	324.81
627.912	326.81
628.119	318.81
628.325	314.81
628.532	317.81
628.738	312.81
628.945	312.81
629.151	293.81
629.357	311.81
629.564	299.81
629.77	304.81
629.976	290.81
630.183	300.81
630.389	288.81
630.595	293.81
630.802	314.81
631.008	317.81
631.214	321.81
631.42	287.81
631.627	292.81
631.833	275.81
632.039	284.81
632.245	294.81
632.451	312.81
632.657	304.81
632.863	308.81
633.069	282.81
633.275	294.81
633.481	298.81
633.688	297.81
633.893	295.81
634.099	281.81
634.305	303.81
634.511	294.81
634.717	296.81
634.923	277.81
635.129	328.81
635.335	355.81
635.541	314.81
635.747	298.81
635.952	292.81
636.158	303.81
636.364	295.81
636.57	290.81
636.775	294.81
636.981	297.81
637.187	290.81
637.392	286.81
637.598	296.81
637.804	284.81
638.009	292.81
638.215	302.81
638.421	307.81
638.626	304.81
638.832	303.81
639.037	300.81
639.243	279.81
639.448	285.81
639.654	280.81
639.859	289.81
640.065	281.81
640.27	313.81
640.475	282.81
640.681	306.81
640.886	299.81
641.091	302.81
641.297	334.81
641.502	307.81
641.707	308.81
641.913	315.81
642.118	328.81
642.323	311.81
642.528	323.81
642.733	327.81
642.939	343.81
643.144	337.81
643.349	336.81
643.554	362.81
643.759	374.81
643.964	373.81
644.169	392.81
644.374	399.81
644.579	425.81
644.784	480.81
644.989	512.81
645.194	554.81
645.399	650.81
645.604	654.81
645.809	532.81
646.014	454.81
646.219	399.81
646.423	372.81
646.628	348.81
646.833	336.81
647.038	326.81
647.243	327.81
647.447	310.81
647.652	306.81
647.857	310.81
648.062	288.81
648.266	289.81
648.471	255.81
648.676	279.81
648.88	278.81
649.085	283.81
649.289	258.81
649.494	253.81
649.698	265.81
649.903	256.81
650.107	251.81
650.312	246.81
650.516	241.81
650.721	258.81
650.925	256.81
651.13	254.81
651.334	239.81
651.539	242.81
651.743	219.81
651.947	243.81
652.152	226.81
652.356	210.81
652.56	230.81
652.764	257.81
652.969	225.81
653.173	204.81
653.377	224.81
653.581	222.81
653.785	222.81
653.99	190.81
654.194	199.81
654.398	202.81
654.602	186.81
654.806	203.81
655.01	202.81
655.214	207.81
655.418	184.81
655.622	182.81
655.826	207.81
656.03	194.81
656.234	219.81
656.438	211.81
656.642	212.81
656.846	214.81
657.049	199.81
657.253	191.81
657.457	171.81
657.661	164.81
657.865	155.81
658.068	161.81
658.272	159.81
658.476	158.81
658.68	144.81
658.883	141.81
659.087	128.81
659.291	134.81
659.494	129.81
659.698	126.81
659.901	128.81
660.105	121.81
660.309	126.81
660.512	110.81
660.716	120.81
660.919	111.81
661.123	123.81
661.326	96.81
661.53	109.81
661.733	109.81
661.936	97.81
662.14	91.81
662.343	89.81
662.546	97.81
662.75	84.81
662.953	90.81
663.156	76.81
663.36	86.81
663.563	80.81
663.766	91.81
663.969	86.81
664.173	83.81
664.376	89.81
664.579	92.81
664.782	89.81
664.985	95.81
665.188	74.81
665.391	65.81
665.594	83.81
665.797	98.81
666	91.81
666.203	93.81
666.406	80.81
666.609	77.81
666.812	74.81
667.015	84.81
667.218	88.81
667.421	96.81
667.624	71.81
667.827	83.81
668.03	89.81
668.232	87.81
668.435	74.81
668.638	92.81
668.841	88.81
669.043	72.81
669.246	82.81
669.449	89.81
669.651	81.81
669.854	82.81
670.057	64.81
670.259	96.81
670.462	80.81
670.665	82.81
670.867	80.81
671.07	76.81
671.272	77.81
671.475	78.81
671.677	74.81
671.88	80.81
672.082	80.81
672.284	85.81
672.487	89.81
672.689	95.81
672.892	81.81
