Data from SnStandardFlinnAPT0064_LampEnergy5.5_LIBS07252019.E.O._I.C._HRD10591_15-17-09-492.txt Node
Date: Thu Jul 25 15:17:09 EDT 2019
User: cochatt
Spectrometer: HR+D1059
Trigger mode: 1
Integration Time (sec): 1.000000E-1
Scans to average: 1
Electric dark correction enabled: true
Nonlinearity correction enabled: false
Boxcar width: 0
XAxis mode: Wavelengths
Number of Pixels in Spectrum: 2048
>>>>>Begin Spectral Data<<<<<
223.165	-19.31
223.4	-19.31
223.635	-19.31
223.869	-0.31
224.104	-19.31
224.338	-23.31
224.573	-11.31
224.808	-7.31
225.042	-10.31
225.277	-13.31
225.511	1.69
225.746	3.69
225.98	-0.31
226.215	22.69
226.449	20.69
226.683	14.69
226.918	15.69
227.152	25.69
227.387	30.69
227.621	30.69
227.856	42.69
228.09	41.69
228.324	44.69
228.559	61.69
228.793	66.69
229.027	138.69
229.262	166.69
229.496	162.69
229.73	152.69
229.964	166.69
230.199	156.69
230.433	161.69
230.667	170.69
230.901	157.69
231.136	170.69
231.37	175.69
231.604	204.69
231.838	212.69
232.072	248.69
232.306	266.69
232.541	232.69
232.775	223.69
233.009	220.69
233.243	220.69
233.477	233.69
233.711	250.69
233.945	291.69
234.179	245.69
234.413	224.69
234.647	220.69
234.881	243.69
235.115	267.69
235.349	297.69
235.583	358.69
235.817	459.69
236.051	444.69
236.285	309.69
236.519	260.69
236.753	246.69
236.987	250.69
237.221	252.69
237.455	242.69
237.689	242.69
237.922	244.69
238.156	222.69
238.39	227.69
238.624	241.69
238.858	231.69
239.091	219.69
239.325	245.69
239.559	254.69
239.793	221.69
240.027	254.69
240.26	243.69
240.494	251.69
240.728	277.69
240.961	273.69
241.195	306.69
241.429	302.69
241.662	327.69
241.896	334.69
242.13	435.69
242.363	530.69
242.597	705.69
242.83	642.69
243.064	633.69
243.298	788.69
243.531	648.69
243.765	425.69
243.998	339.69
244.232	315.69
244.465	311.69
244.699	310.69
244.932	305.69
245.166	302.69
245.399	309.69
245.633	312.69
245.866	319.69
246.099	308.69
246.333	294.69
246.566	305.69
246.8	292.69
247.033	304.69
247.266	312.69
247.5	268.69
247.733	310.69
247.966	313.69
248.2	343.69
248.433	388.69
248.666	440.69
248.899	432.69
249.133	386.69
249.366	357.69
249.599	410.69
249.832	460.69
250.066	478.69
250.299	382.69
250.532	347.69
250.765	342.69
250.998	356.69
251.231	332.69
251.465	331.69
251.698	331.69
251.931	357.69
252.164	332.69
252.397	384.69
252.63	363.69
252.863	354.69
253.096	346.69
253.329	348.69
253.562	359.69
253.795	359.69
254.028	372.69
254.261	371.69
254.494	399.69
254.727	465.69
254.96	532.69
255.193	534.69
255.426	421.69
255.659	376.69
255.892	390.69
256.124	380.69
256.357	375.69
256.59	399.69
256.823	440.69
257.056	491.69
257.289	565.69
257.521	628.69
257.754	516.69
257.987	424.69
258.22	406.69
258.452	403.69
258.685	413.69
258.918	435.69
259.151	439.69
259.383	456.69
259.616	514.69
259.849	518.69
260.081	482.69
260.314	436.69
260.547	440.69
260.779	434.69
261.012	438.69
261.244	432.69
261.477	443.69
261.71	426.69
261.942	455.69
262.175	455.69
262.407	463.69
262.64	490.69
262.872	495.69
263.105	508.69
263.337	559.69
263.57	580.69
263.802	575.69
264.035	582.69
264.267	602.69
264.499	613.69
264.732	642.69
264.964	640.69
265.197	655.69
265.429	650.69
265.661	646.69
265.894	694.69
266.126	775.69
266.358	852.69
266.591	825.69
266.823	705.69
267.055	644.69
267.287	614.69
267.52	590.69
267.752	588.69
267.984	555.69
268.216	574.69
268.448	556.69
268.681	551.69
268.913	561.69
269.145	527.69
269.377	566.69
269.609	548.69
269.841	586.69
270.073	591.69
270.306	706.69
270.538	928.69
270.77	1415.69
271.002	1656.69
271.234	1154.69
271.466	781.69
271.698	647.69
271.93	588.69
272.162	560.69
272.394	555.69
272.626	546.69
272.858	543.69
273.09	537.69
273.322	548.69
273.553	518.69
273.785	540.69
274.017	538.69
274.249	541.69
274.481	546.69
274.713	536.69
274.945	544.69
275.176	545.69
275.408	543.69
275.64	566.69
275.872	525.69
276.104	560.69
276.335	555.69
276.567	591.69
276.799	582.69
277.031	577.69
277.262	591.69
277.494	605.69
277.726	676.69
277.957	745.69
278.189	873.69
278.421	817.69
278.652	721.69
278.884	683.69
279.115	642.69
279.347	616.69
279.579	586.69
279.81	575.69
280.042	590.69
280.273	596.69
280.505	646.69
280.736	617.69
280.968	690.69
281.199	758.69
281.431	843.69
281.662	862.69
281.894	754.69
282.125	706.69
282.356	702.69
282.588	720.69
282.819	730.69
283.051	757.69
283.282	851.69
283.513	1061.69
283.745	1510.69
283.976	2420.69
284.207	3511.69
284.439	3092.69
284.67	1838.69
284.901	1441.69
285.132	1439.69
285.364	1364.69
285.595	1084.69
285.826	1013.69
286.057	1208.69
286.288	1660.69
286.52	2239.69
286.751	2026.69
286.982	1214.69
287.213	937.69
287.444	834.69
287.675	767.69
287.906	748.69
288.138	718.69
288.369	743.69
288.6	728.69
288.831	735.69
289.062	720.69
289.293	720.69
289.524	719.69
289.755	716.69
289.986	738.69
290.217	738.69
290.448	741.69
290.679	726.69
290.91	736.69
291.141	768.69
291.371	821.69
291.602	850.69
291.833	794.69
292.064	753.69
292.295	730.69
292.526	708.69
292.757	704.69
292.987	701.69
293.218	679.69
293.449	688.69
293.68	689.69
293.91	695.69
294.141	680.69
294.372	683.69
294.603	702.69
294.833	684.69
295.064	684.69
295.295	691.69
295.525	679.69
295.756	672.69
295.987	693.69
296.217	705.69
296.448	682.69
296.679	687.69
296.909	700.69
297.14	678.69
297.37	708.69
297.601	718.69
297.831	701.69
298.062	708.69
298.292	727.69
298.523	718.69
298.753	722.69
298.984	735.69
299.214	745.69
299.445	730.69
299.675	754.69
299.905	779.69
300.136	810.69
300.366	905.69
300.597	1192.69
300.827	1611.69
301.057	2216.69
301.288	2202.69
301.518	1356.69
301.748	1057.69
301.979	1004.69
302.209	951.69
302.439	931.69
302.669	995.69
302.9	1208.69
303.13	1723.69
303.36	2567.69
303.59	3436.69
303.82	2890.69
304.051	1723.69
304.281	1226.69
304.511	1010.69
304.741	940.69
304.971	908.69
305.201	889.69
305.431	839.69
305.661	842.69
305.891	824.69
306.121	798.69
306.352	818.69
306.582	800.69
306.812	776.69
307.042	831.69
307.272	811.69
307.502	797.69
307.731	777.69
307.961	805.69
308.191	793.69
308.421	778.69
308.651	779.69
308.881	794.69
309.111	788.69
309.341	791.69
309.571	817.69
309.8	816.69
310.03	796.69
310.26	811.69
310.49	802.69
310.72	827.69
310.949	806.69
311.179	834.69
311.409	814.69
311.639	830.69
311.868	799.69
312.098	831.69
312.328	840.69
312.557	866.69
312.787	874.69
313.017	828.69
313.246	847.69
313.476	855.69
313.706	875.69
313.935	932.69
314.165	976.69
314.394	1000.69
314.624	978.69
314.853	935.69
315.083	912.69
315.312	899.69
315.542	959.69
315.771	942.69
316.001	956.69
316.23	987.69
316.46	1028.69
316.689	1123.69
316.919	1338.69
317.148	1906.69
317.377	3060.69
317.607	4479.69
317.836	4591.69
318.065	2623.69
318.295	1681.69
318.524	1347.69
318.753	1200.69
318.983	1106.69
319.212	1067.69
319.441	1033.69
319.67	1010.69
319.9	1024.69
320.129	1001.69
320.358	1006.69
320.587	995.69
320.816	1003.69
321.046	1011.69
321.275	987.69
321.504	1001.69
321.733	1028.69
321.962	1046.69
322.191	1083.69
322.42	1030.69
322.649	1075.69
322.878	1026.69
323.108	1034.69
323.337	1073.69
323.566	1074.69
323.795	1079.69
324.024	1118.69
324.253	1142.69
324.482	1193.69
324.71	1241.69
324.939	1315.69
325.168	1360.69
325.397	1392.69
325.626	1600.69
325.855	2309.69
326.084	3620.69
326.313	5412.69
326.542	5810.69
326.77	3561.69
326.999	2285.69
327.228	1918.69
327.457	1862.69
327.686	1848.69
327.914	1930.69
328.143	2213.69
328.372	2542.69
328.6	2732.69
328.829	2539.69
329.058	2209.69
329.287	1980.69
329.515	1849.69
329.744	1688.69
329.972	1635.69
330.201	1545.69
330.43	1476.69
330.658	1491.69
330.887	1492.69
331.115	1420.69
331.344	1424.69
331.572	1383.69
331.801	1428.69
332.03	1421.69
332.258	1475.69
332.486	1525.69
332.715	1780.69
332.943	2151.69
333.172	2648.69
333.4	2581.69
333.629	2000.69
333.857	1793.69
334.085	1788.69
334.314	1868.69
334.542	2015.69
334.771	2321.69
334.999	2758.69
335.227	3355.69
335.455	3648.69
335.684	3424.69
335.912	2902.69
336.14	2529.69
336.369	2250.69
336.597	2062.69
336.825	1931.69
337.053	1855.69
337.281	1745.69
337.51	1662.69
337.738	1611.69
337.966	1534.69
338.194	1511.69
338.422	1464.69
338.65	1406.69
338.878	1353.69
339.106	1351.69
339.334	1308.69
339.562	1283.69
339.79	1314.69
340.018	1282.69
340.246	1259.69
340.474	1267.69
340.702	1290.69
340.93	1284.69
341.158	1282.69
341.386	1285.69
341.614	1235.69
341.842	1240.69
342.07	1217.69
342.298	1180.69
342.526	1206.69
342.754	1154.69
342.981	1177.69
343.209	1180.69
343.437	1214.69
343.665	1192.69
343.893	1196.69
344.12	1201.69
344.348	1170.69
344.576	1194.69
344.804	1169.69
345.031	1136.69
345.259	1089.69
345.487	1115.69
345.714	1120.69
345.942	1090.69
346.17	1084.69
346.397	1084.69
346.625	1068.69
346.853	1088.69
347.08	1086.69
347.308	1071.69
347.535	1088.69
347.763	1057.69
347.99	1030.69
348.218	1091.69
348.445	1090.69
348.673	1072.69
348.9	1056.69
349.128	1054.69
349.355	1071.69
349.583	1041.69
349.81	1065.69
350.037	1037.69
350.265	1022.69
350.492	1038.69
350.72	1028.69
350.947	1036.69
351.174	1040.69
351.402	1036.69
351.629	1008.69
351.856	1045.69
352.083	1059.69
352.311	1034.69
352.538	989.69
352.765	1047.69
352.992	1050.69
353.22	1010.69
353.447	1039.69
353.674	1038.69
353.901	1053.69
354.128	1024.69
354.355	1068.69
354.583	1034.69
354.81	1010.69
355.037	1049.69
355.264	1032.69
355.491	1060.69
355.718	1099.69
355.945	1058.69
356.172	1082.69
356.399	1044.69
356.626	1088.69
356.853	1075.69
357.08	1080.69
357.307	1056.69
357.534	1070.69
357.761	1104.69
357.988	1063.69
358.215	1082.69
358.441	1112.69
358.668	1090.69
358.895	1059.69
359.122	1089.69
359.349	1092.69
359.576	1094.69
359.802	1079.69
360.029	1089.69
360.256	1097.69
360.483	1117.69
360.709	1094.69
360.936	1095.69
361.163	1108.69
361.39	1102.69
361.616	1089.69
361.843	1086.69
362.07	1110.69
362.296	1104.69
362.523	1112.69
362.749	1081.69
362.976	1090.69
363.203	1088.69
363.429	1098.69
363.656	1083.69
363.882	1122.69
364.109	1104.69
364.335	1112.69
364.562	1094.69
364.788	1078.69
365.015	1149.69
365.241	1144.69
365.468	1172.69
365.694	1184.69
365.92	1171.69
366.147	1154.69
366.373	1140.69
366.599	1105.69
366.826	1115.69
367.052	1112.69
367.278	1092.69
367.505	1140.69
367.731	1138.69
367.957	1102.69
368.184	1122.69
368.41	1092.69
368.636	1146.69
368.862	1148.69
369.089	1148.69
369.315	1132.69
369.541	1152.69
369.767	1147.69
369.993	1162.69
370.219	1118.69
370.445	1143.69
370.672	1178.69
370.898	1154.69
371.124	1154.69
371.35	1194.69
371.576	1138.69
371.802	1177.69
372.028	1164.69
372.254	1177.69
372.48	1188.69
372.706	1182.69
372.932	1218.69
373.158	1191.69
373.384	1188.69
373.61	1212.69
373.835	1211.69
374.061	1244.69
374.287	1209.69
374.513	1218.69
374.739	1265.69
374.965	1267.69
375.191	1236.69
375.416	1246.69
375.642	1240.69
375.868	1226.69
376.094	1241.69
376.319	1204.69
376.545	1188.69
376.771	1172.69
376.997	1179.69
377.222	1171.69
377.448	1190.69
377.674	1209.69
377.899	1184.69
378.125	1182.69
378.35	1151.69
378.576	1202.69
378.802	1198.69
379.027	1239.69
379.253	1218.69
379.478	1297.69
379.704	1507.69
379.929	2160.69
380.155	3266.69
380.38	3476.69
380.606	2124.69
380.831	1543.69
381.057	1359.69
381.282	1254.69
381.507	1240.69
381.733	1182.69
381.958	1198.69
382.184	1170.69
382.409	1181.69
382.634	1174.69
382.86	1165.69
383.085	1155.69
383.31	1182.69
383.535	1187.69
383.761	1181.69
383.986	1214.69
384.211	1193.69
384.436	1182.69
384.662	1241.69
384.887	1241.69
385.112	1179.69
385.337	1224.69
385.562	1195.69
385.787	1221.69
386.013	1218.69
386.238	1208.69
386.463	1224.69
386.688	1209.69
386.913	1199.69
387.138	1224.69
387.363	1214.69
387.588	1188.69
387.813	1228.69
388.038	1199.69
388.263	1203.69
388.488	1212.69
388.713	1228.69
388.938	1217.69
389.163	1220.69
389.387	1212.69
389.612	1190.69
389.837	1208.69
390.062	1224.69
390.287	1236.69
390.512	1207.69
390.736	1254.69
390.961	1262.69
391.186	1241.69
391.411	1232.69
391.636	1264.69
391.86	1284.69
392.085	1266.69
392.31	1265.69
392.534	1267.69
392.759	1252.69
392.984	1238.69
393.208	1213.69
393.433	1252.69
393.658	1258.69
393.882	1248.69
394.107	1198.69
394.331	1233.69
394.556	1246.69
394.78	1231.69
395.005	1250.69
395.229	1235.69
395.454	1272.69
395.678	1264.69
395.903	1264.69
396.127	1265.69
396.352	1237.69
396.576	1256.69
396.801	1245.69
397.025	1311.69
397.249	1280.69
397.474	1285.69
397.698	1288.69
397.922	1285.69
398.147	1269.69
398.371	1312.69
398.595	1338.69
398.82	1355.69
399.044	1411.69
399.268	1444.69
399.492	1535.69
399.717	1582.69
399.941	1584.69
400.165	1522.69
400.389	1479.69
400.613	1450.69
400.837	1398.69
401.062	1372.69
401.286	1377.69
401.51	1354.69
401.734	1355.69
401.958	1301.69
402.182	1347.69
402.406	1355.69
402.63	1336.69
402.854	1347.69
403.078	1364.69
403.302	1386.69
403.526	1397.69
403.75	1377.69
403.974	1392.69
404.198	1362.69
404.422	1377.69
404.645	1392.69
404.869	1387.69
405.093	1410.69
405.317	1396.69
405.541	1387.69
405.765	1412.69
405.988	1446.69
406.212	1434.69
406.436	1401.69
406.66	1421.69
406.883	1446.69
407.107	1471.69
407.331	1493.69
407.555	1526.69
407.778	1516.69
408.002	1491.69
408.226	1495.69
408.449	1505.69
408.673	1445.69
408.896	1425.69
409.12	1406.69
409.344	1417.69
409.567	1380.69
409.791	1419.69
410.014	1360.69
410.238	1384.69
410.461	1395.69
410.685	1398.69
410.908	1355.69
411.132	1347.69
411.355	1334.69
411.578	1339.69
411.802	1362.69
412.025	1309.69
412.249	1336.69
412.472	1326.69
412.695	1316.69
412.919	1326.69
413.142	1330.69
413.365	1310.69
413.589	1340.69
413.812	1329.69
414.035	1319.69
414.258	1336.69
414.482	1317.69
414.705	1327.69
414.928	1307.69
415.151	1304.69
415.374	1307.69
415.597	1306.69
415.821	1265.69
416.044	1262.69
416.267	1248.69
416.49	1278.69
416.713	1268.69
416.936	1294.69
417.159	1255.69
417.382	1268.69
417.605	1248.69
417.828	1247.69
418.051	1274.69
418.274	1259.69
418.497	1268.69
418.72	1283.69
418.943	1279.69
419.166	1367.69
419.389	1404.69
419.611	1398.69
419.834	1340.69
420.057	1315.69
420.28	1321.69
420.503	1273.69
420.726	1290.69
420.948	1264.69
421.171	1282.69
421.394	1291.69
421.617	1246.69
421.839	1298.69
422.062	1302.69
422.285	1268.69
422.507	1291.69
422.73	1306.69
422.953	1319.69
423.175	1294.69
423.398	1314.69
423.621	1282.69
423.843	1288.69
424.066	1283.69
424.288	1290.69
424.511	1279.69
424.733	1266.69
424.956	1280.69
425.178	1268.69
425.401	1263.69
425.623	1259.69
425.846	1228.69
426.068	1236.69
426.291	1245.69
426.513	1239.69
426.735	1184.69
426.958	1215.69
427.18	1180.69
427.402	1207.69
427.625	1220.69
427.847	1179.69
428.069	1181.69
428.292	1201.69
428.514	1198.69
428.736	1203.69
428.958	1208.69
429.181	1153.69
429.403	1174.69
429.625	1193.69
429.847	1161.69
430.069	1193.69
430.292	1250.69
430.514	1260.69
430.736	1247.69
430.958	1211.69
431.18	1158.69
431.402	1200.69
431.624	1163.69
431.846	1171.69
432.068	1145.69
432.29	1172.69
432.512	1156.69
432.734	1225.69
432.956	1185.69
433.178	1164.69
433.4	1198.69
433.622	1192.69
433.844	1180.69
434.066	1157.69
434.287	1161.69
434.509	1154.69
434.731	1171.69
434.953	1215.69
435.175	1235.69
435.397	1231.69
435.618	1195.69
435.84	1185.69
436.062	1180.69
436.284	1166.69
436.505	1173.69
436.727	1200.69
436.949	1190.69
437.17	1150.69
437.392	1157.69
437.614	1162.69
437.835	1125.69
438.057	1134.69
438.278	1142.69
438.5	1154.69
438.721	1172.69
438.943	1220.69
439.165	1220.69
439.386	1229.69
439.608	1203.69
439.829	1242.69
440.05	1250.69
440.272	1266.69
440.493	1199.69
440.715	1182.69
440.936	1210.69
441.158	1208.69
441.379	1208.69
441.6	1298.69
441.822	1316.69
442.043	1363.69
442.264	1406.69
442.486	1326.69
442.707	1301.69
442.928	1254.69
443.149	1263.69
443.371	1254.69
443.592	1274.69
443.813	1275.69
444.034	1272.69
444.255	1303.69
444.476	1324.69
444.698	1323.69
444.919	1334.69
445.14	1447.69
445.361	1348.69
445.582	1290.69
445.803	1252.69
446.024	1252.69
446.245	1272.69
446.466	1280.69
446.687	1234.69
446.908	1207.69
447.129	1188.69
447.35	1217.69
447.571	1202.69
447.792	1194.69
448.013	1179.69
448.234	1137.69
448.455	1190.69
448.675	1170.69
448.896	1198.69
449.117	1221.69
449.338	1324.69
449.559	1379.69
449.779	1216.69
450	1134.69
450.221	1187.69
450.442	1138.69
450.662	1117.69
450.883	1118.69
451.104	1137.69
451.324	1122.69
451.545	1126.69
451.766	1151.69
451.986	1160.69
452.207	1249.69
452.428	1505.69
452.648	2147.69
452.869	1796.69
453.089	1311.69
453.31	1240.69
453.53	1222.69
453.751	1319.69
453.971	1393.69
454.192	1356.69
454.412	1175.69
454.633	1132.69
454.853	1086.69
455.073	1082.69
455.294	1086.69
455.514	1078.69
455.734	1096.69
455.955	1063.69
456.175	1057.69
456.395	1071.69
456.616	1064.69
456.836	1072.69
457.056	1095.69
457.276	1093.69
457.497	1172.69
457.717	1155.69
457.937	1155.69
458.157	1143.69
458.377	1115.69
458.598	1141.69
458.818	1118.69
459.038	1132.69
459.258	1137.69
459.478	1170.69
459.698	1182.69
459.918	1183.69
460.138	1189.69
460.358	1244.69
460.578	1255.69
460.798	1239.69
461.018	1273.69
461.238	1268.69
461.458	1300.69
461.678	1286.69
461.898	1279.69
462.118	1328.69
462.338	1338.69
462.558	1302.69
462.777	1371.69
462.997	1433.69
463.217	1465.69
463.437	1534.69
463.657	1506.69
463.876	1524.69
464.096	1451.69
464.316	1416.69
464.536	1380.69
464.755	1330.69
464.975	1335.69
465.195	1292.69
465.414	1251.69
465.634	1228.69
465.854	1244.69
466.073	1219.69
466.293	1182.69
466.512	1192.69
466.732	1187.69
466.951	1250.69
467.171	1330.69
467.391	1291.69
467.61	1222.69
467.829	1195.69
468.049	1178.69
468.268	1147.69
468.488	1160.69
468.707	1143.69
468.927	1176.69
469.146	1119.69
469.365	1147.69
469.585	1179.69
469.804	1186.69
470.023	1198.69
470.243	1208.69
470.462	1263.69
470.681	1352.69
470.901	1421.69
471.12	1670.69
471.339	1639.69
471.558	1377.69
471.777	1262.69
471.997	1184.69
472.216	1162.69
472.435	1143.69
472.654	1156.69
472.873	1126.69
473.092	1146.69
473.311	1129.69
473.53	1160.69
473.749	1192.69
473.968	1218.69
474.187	1157.69
474.406	1148.69
474.625	1150.69
474.844	1157.69
475.063	1181.69
475.282	1168.69
475.501	1156.69
475.72	1169.69
475.939	1172.69
476.158	1217.69
476.377	1214.69
476.596	1205.69
476.814	1176.69
477.033	1203.69
477.252	1222.69
477.471	1247.69
477.69	1306.69
477.908	1292.69
478.127	1312.69
478.346	1309.69
478.564	1322.69
478.783	1347.69
479.002	1367.69
479.22	1347.69
479.439	1382.69
479.658	1344.69
479.876	1378.69
480.095	1366.69
480.313	1412.69
480.532	1392.69
480.751	1381.69
480.969	1357.69
481.188	1350.69
481.406	1367.69
481.624	1359.69
481.843	1368.69
482.061	1380.69
482.28	1358.69
482.498	1354.69
482.717	1381.69
482.935	1364.69
483.153	1393.69
483.372	1446.69
483.59	1448.69
483.808	1449.69
484.027	1464.69
484.245	1533.69
484.463	1694.69
484.681	1936.69
484.9	1749.69
485.118	1638.69
485.336	1590.69
485.554	1617.69
485.772	1698.69
485.99	1950.69
486.209	2146.69
486.427	1739.69
486.645	1560.69
486.863	1517.69
487.081	1554.69
487.299	1486.69
487.517	1468.69
487.735	1489.69
487.953	1496.69
488.171	1454.69
488.389	1481.69
488.607	1407.69
488.825	1432.69
489.043	1413.69
489.261	1393.69
489.479	1439.69
489.696	1421.69
489.914	1423.69
490.132	1454.69
490.35	1460.69
490.568	1452.69
490.786	1482.69
491.003	1489.69
491.221	1521.69
491.439	1501.69
491.657	1504.69
491.874	1565.69
492.092	1537.69
492.31	1580.69
492.527	1516.69
492.745	1528.69
492.963	1511.69
493.18	1536.69
493.398	1544.69
493.615	1528.69
493.833	1538.69
494.05	1511.69
494.268	1532.69
494.485	1498.69
494.703	1543.69
494.92	1532.69
495.138	1544.69
495.355	1513.69
495.573	1525.69
495.79	1556.69
496.008	1519.69
496.225	1492.69
496.442	1593.69
496.66	1586.69
496.877	1672.69
497.094	1694.69
497.312	1600.69
497.529	1615.69
497.746	1644.69
497.963	1644.69
498.181	1715.69
498.398	1709.69
498.615	1787.69
498.832	1852.69
499.049	1913.69
499.267	2094.69
499.484	2189.69
499.701	2238.69
499.918	2276.69
500.135	2429.69
500.352	2564.69
500.569	2549.69
500.786	2564.69
501.003	2457.69
501.22	2329.69
501.437	2239.69
501.654	2106.69
501.871	2037.69
502.088	1906.69
502.305	1813.69
502.522	1777.69
502.739	1748.69
502.956	1739.69
503.172	1663.69
503.389	1619.69
503.606	1568.69
503.823	1579.69
504.04	1570.69
504.256	1553.69
504.473	1595.69
504.69	1555.69
504.907	1532.69
505.123	1525.69
505.34	1471.69
505.557	1462.69
505.773	1419.69
505.99	1406.69
506.207	1336.69
506.423	1325.69
506.64	1355.69
506.856	1371.69
507.073	1323.69
507.289	1350.69
507.506	1323.69
507.722	1342.69
507.939	1358.69
508.155	1316.69
508.372	1302.69
508.588	1278.69
508.805	1318.69
509.021	1309.69
509.238	1305.69
509.454	1372.69
509.67	1441.69
509.887	1339.69
510.103	1312.69
510.319	1282.69
510.536	1300.69
510.752	1265.69
510.968	1252.69
511.184	1234.69
511.401	1230.69
511.617	1239.69
511.833	1252.69
512.049	1200.69
512.265	1234.69
512.481	1238.69
512.698	1260.69
512.914	1171.69
513.13	1219.69
513.346	1233.69
513.562	1234.69
513.778	1249.69
513.994	1223.69
514.21	1312.69
514.426	1345.69
514.642	1386.69
514.858	1323.69
515.074	1280.69
515.29	1266.69
515.506	1242.69
515.721	1269.69
515.937	1270.69
516.153	1282.69
516.369	1287.69
516.585	1318.69
516.801	1316.69
517.016	1342.69
517.232	1376.69
517.448	1397.69
517.664	1410.69
517.879	1382.69
518.095	1380.69
518.311	1410.69
518.527	1400.69
518.742	1377.69
518.958	1366.69
519.173	1413.69
519.389	1378.69
519.605	1302.69
519.82	1276.69
520.036	1294.69
520.251	1267.69
520.467	1259.69
520.682	1245.69
520.898	1200.69
521.113	1234.69
521.329	1239.69
521.544	1214.69
521.76	1224.69
521.975	1209.69
522.19	1177.69
522.406	1213.69
522.621	1195.69
522.836	1195.69
523.052	1221.69
523.267	1201.69
523.482	1192.69
523.698	1174.69
523.913	1200.69
524.128	1207.69
524.343	1214.69
524.559	1222.69
524.774	1184.69
524.989	1176.69
525.204	1204.69
525.419	1166.69
525.634	1188.69
525.849	1193.69
526.064	1196.69
526.28	1176.69
526.495	1193.69
526.71	1178.69
526.925	1185.69
527.14	1178.69
527.355	1184.69
527.57	1193.69
527.785	1193.69
527.999	1205.69
528.214	1223.69
528.429	1218.69
528.644	1236.69
528.859	1288.69
529.074	1252.69
529.289	1310.69
529.503	1283.69
529.718	1266.69
529.933	1234.69
530.148	1271.69
530.363	1274.69
530.577	1243.69
530.792	1227.69
531.007	1262.69
531.221	1294.69
531.436	1286.69
531.651	1285.69
531.865	1301.69
532.08	1288.69
532.295	1337.69
532.509	1401.69
532.724	1421.69
532.938	1427.69
533.153	1470.69
533.367	1556.69
533.582	1582.69
533.796	1540.69
534.011	1516.69
534.225	1504.69
534.44	1448.69
534.654	1432.69
534.868	1396.69
535.083	1367.69
535.297	1345.69
535.511	1374.69
535.726	1335.69
535.94	1325.69
536.154	1267.69
536.369	1262.69
536.583	1255.69
536.797	1222.69
537.011	1207.69
537.225	1225.69
537.44	1234.69
537.654	1214.69
537.868	1220.69
538.082	1185.69
538.296	1165.69
538.51	1190.69
538.724	1201.69
538.938	1184.69
539.153	1191.69
539.367	1189.69
539.581	1162.69
539.795	1136.69
540.009	1156.69
540.222	1146.69
540.436	1131.69
540.65	1110.69
540.864	1192.69
541.078	1220.69
541.292	1289.69
541.506	1507.69
541.72	1542.69
541.934	1363.69
542.147	1297.69
542.361	1251.69
542.575	1194.69
542.789	1176.69
543.002	1131.69
543.216	1121.69
543.43	1099.69
543.644	1116.69
543.857	1154.69
544.071	1158.69
544.285	1172.69
544.498	1127.69
544.712	1152.69
544.925	1171.69
545.139	1168.69
545.352	1135.69
545.566	1115.69
545.779	1156.69
545.993	1169.69
546.206	1178.69
546.42	1156.69
546.633	1162.69
546.847	1152.69
547.06	1122.69
547.274	1132.69
547.487	1165.69
547.7	1160.69
547.914	1174.69
548.127	1159.69
548.34	1168.69
548.554	1145.69
548.767	1182.69
548.98	1168.69
549.193	1159.69
549.407	1134.69
549.62	1126.69
549.833	1164.69
550.046	1152.69
550.259	1161.69
550.473	1134.69
550.686	1166.69
550.899	1150.69
551.112	1168.69
551.325	1152.69
551.538	1127.69
551.751	1129.69
551.964	1096.69
552.177	1160.69
552.39	1190.69
552.603	1215.69
552.816	1227.69
553.029	1207.69
553.242	1231.69
553.455	1263.69
553.667	1233.69
553.88	1259.69
554.093	1285.69
554.306	1282.69
554.519	1263.69
554.732	1292.69
554.944	1278.69
555.157	1284.69
555.37	1351.69
555.583	1402.69
555.795	1410.69
556.008	1539.69
556.221	1633.69
556.433	1714.69
556.646	1703.69
556.859	1642.69
557.071	1619.69
557.284	1566.69
557.496	1520.69
557.709	1551.69
557.921	1509.69
558.134	1555.69
558.346	1516.69
558.559	1587.69
558.771	1643.69
558.984	1768.69
559.196	1868.69
559.409	1767.69
559.621	1660.69
559.833	1592.69
560.046	1492.69
560.258	1444.69
560.47	1442.69
560.683	1372.69
560.895	1322.69
561.107	1301.69
561.32	1264.69
561.532	1246.69
561.744	1195.69
561.956	1210.69
562.168	1194.69
562.381	1148.69
562.593	1134.69
562.805	1195.69
563.017	1147.69
563.229	1195.69
563.441	1317.69
563.653	1162.69
563.865	1070.69
564.077	1100.69
564.289	1070.69
564.501	1049.69
564.713	1043.69
564.925	1086.69
565.137	1042.69
565.349	1080.69
565.561	1064.69
565.773	1071.69
565.985	1127.69
566.197	1076.69
566.408	1104.69
566.62	1138.69
566.832	1145.69
567.044	1165.69
567.255	1161.69
567.467	1186.69
567.679	1210.69
567.891	1255.69
568.102	1391.69
568.314	1655.69
568.526	1414.69
568.737	1170.69
568.949	1108.69
569.161	1070.69
569.372	984.69
569.584	932.69
569.795	947.69
570.007	950.69
570.218	1000.69
570.43	1015.69
570.641	904.69
570.853	888.69
571.064	894.69
571.276	888.69
571.487	880.69
571.698	864.69
571.91	877.69
572.121	827.69
572.333	840.69
572.544	851.69
572.755	886.69
572.966	1094.69
573.178	932.69
573.389	864.69
573.6	811.69
573.811	818.69
574.023	795.69
574.234	771.69
574.445	797.69
574.656	768.69
574.867	766.69
575.078	771.69
575.289	764.69
575.501	780.69
575.712	767.69
575.923	754.69
576.134	775.69
576.345	760.69
576.556	774.69
576.767	760.69
576.978	772.69
577.188	771.69
577.399	771.69
577.61	775.69
577.821	779.69
578.032	782.69
578.243	802.69
578.454	828.69
578.665	817.69
578.875	830.69
579.086	859.69
579.297	892.69
579.508	922.69
579.718	961.69
579.929	1072.69
580.14	1199.69
580.35	1234.69
580.561	1196.69
580.772	1112.69
580.982	1023.69
581.193	1002.69
581.403	938.69
581.614	923.69
581.825	898.69
582.035	827.69
582.246	827.69
582.456	808.69
582.667	762.69
582.877	780.69
583.087	774.69
583.298	731.69
583.508	722.69
583.719	693.69
583.929	671.69
584.139	666.69
584.35	651.69
584.56	654.69
584.77	674.69
584.981	628.69
585.191	650.69
585.401	655.69
585.611	651.69
585.821	612.69
586.032	624.69
586.242	631.69
586.452	612.69
586.662	607.69
586.872	608.69
587.082	604.69
587.292	597.69
587.502	590.69
587.713	583.69
587.923	572.69
588.133	572.69
588.343	587.69
588.553	578.69
588.762	560.69
588.972	558.69
589.182	586.69
589.392	590.69
589.602	550.69
589.812	558.69
590.022	566.69
590.232	544.69
590.441	541.69
590.651	538.69
590.861	535.69
591.071	555.69
591.281	542.69
591.49	558.69
591.7	547.69
591.91	538.69
592.119	566.69
592.329	543.69
592.539	567.69
592.748	578.69
592.958	584.69
593.167	579.69
593.377	566.69
593.587	590.69
593.796	579.69
594.006	588.69
594.215	588.69
594.424	568.69
594.634	559.69
594.843	545.69
595.053	542.69
595.262	561.69
595.472	542.69
595.681	529.69
595.89	521.69
596.1	514.69
596.309	499.69
596.518	501.69
596.727	510.69
596.937	476.69
597.146	479.69
597.355	478.69
597.564	477.69
597.774	485.69
597.983	463.69
598.192	479.69
598.401	461.69
598.61	464.69
598.819	471.69
599.028	441.69
599.237	451.69
599.446	460.69
599.655	474.69
599.864	468.69
600.073	459.69
600.282	462.69
600.491	451.69
600.7	475.69
600.909	454.69
601.118	468.69
601.327	440.69
601.536	460.69
601.745	470.69
601.953	515.69
602.162	584.69
602.371	525.69
602.58	459.69
602.789	466.69
602.997	460.69
603.206	459.69
603.415	452.69
603.623	446.69
603.832	454.69
604.041	444.69
604.249	437.69
604.458	430.69
604.666	420.69
604.875	441.69
605.084	415.69
605.292	425.69
605.501	440.69
605.709	439.69
605.918	432.69
606.126	448.69
606.334	456.69
606.543	467.69
606.751	484.69
606.96	564.69
607.168	597.69
607.376	514.69
607.585	460.69
607.793	471.69
608.001	444.69
608.21	430.69
608.418	440.69
608.626	423.69
608.834	434.69
609.043	422.69
609.251	420.69
609.459	410.69
609.667	430.69
609.875	439.69
610.083	410.69
610.291	423.69
610.499	434.69
610.707	419.69
610.916	423.69
611.124	407.69
611.332	418.69
611.54	426.69
611.748	414.69
611.955	401.69
612.163	388.69
612.371	402.69
612.579	422.69
612.787	392.69
612.995	388.69
613.203	400.69
613.411	399.69
613.618	402.69
613.826	395.69
614.034	388.69
614.242	394.69
614.449	380.69
614.657	386.69
614.865	388.69
615.072	409.69
615.28	405.69
615.488	420.69
615.695	416.69
615.903	402.69
616.111	385.69
616.318	409.69
616.526	410.69
616.733	407.69
616.941	389.69
617.148	410.69
617.356	396.69
617.563	376.69
617.771	387.69
617.978	392.69
618.185	394.69
618.393	376.69
618.6	378.69
618.807	380.69
619.015	395.69
619.222	394.69
619.429	382.69
619.637	379.69
619.844	386.69
620.051	346.69
620.258	362.69
620.466	369.69
620.673	366.69
620.88	345.69
621.087	375.69
621.294	378.69
621.501	357.69
621.708	369.69
621.915	349.69
622.122	340.69
622.329	354.69
622.536	355.69
622.743	372.69
622.95	353.69
623.157	367.69
623.364	352.69
623.571	344.69
623.778	371.69
623.985	334.69
624.192	342.69
624.399	339.69
624.606	354.69
624.812	353.69
625.019	356.69
625.226	347.69
625.433	340.69
625.639	334.69
625.846	337.69
626.053	326.69
626.259	306.69
626.466	318.69
626.673	307.69
626.879	322.69
627.086	326.69
627.293	321.69
627.499	339.69
627.706	316.69
627.912	322.69
628.119	318.69
628.325	329.69
628.532	338.69
628.738	339.69
628.945	329.69
629.151	315.69
629.357	320.69
629.564	319.69
629.77	318.69
629.976	323.69
630.183	314.69
630.389	336.69
630.595	295.69
630.802	326.69
631.008	311.69
631.214	302.69
631.42	308.69
631.627	318.69
631.833	310.69
632.039	299.69
632.245	315.69
632.451	306.69
632.657	291.69
632.863	285.69
633.069	297.69
633.275	296.69
633.481	312.69
633.688	287.69
633.893	299.69
634.099	307.69
634.305	315.69
634.511	325.69
634.717	328.69
634.923	320.69
635.129	351.69
635.335	408.69
635.541	339.69
635.747	337.69
635.952	330.69
636.158	331.69
636.364	320.69
636.57	315.69
636.775	298.69
636.981	298.69
637.187	322.69
637.392	312.69
637.598	296.69
637.804	305.69
638.009	304.69
638.215	308.69
638.421	295.69
638.626	310.69
638.832	294.69
639.037	288.69
639.243	310.69
639.448	313.69
639.654	314.69
639.859	316.69
640.065	302.69
640.27	293.69
640.475	307.69
640.681	317.69
640.886	336.69
641.091	314.69
641.297	308.69
641.502	321.69
641.707	329.69
641.913	340.69
642.118	321.69
642.323	331.69
642.528	327.69
642.733	350.69
642.939	368.69
643.144	355.69
643.349	368.69
643.554	394.69
643.759	405.69
643.964	408.69
644.169	419.69
644.374	454.69
644.579	487.69
644.784	514.69
644.989	560.69
645.194	648.69
645.399	759.69
645.604	753.69
645.809	608.69
646.014	503.69
646.219	452.69
646.423	412.69
646.628	377.69
646.833	347.69
647.038	355.69
647.243	338.69
647.447	330.69
647.652	302.69
647.857	311.69
648.062	294.69
648.266	290.69
648.471	288.69
648.676	280.69
648.88	303.69
649.085	254.69
649.289	289.69
649.494	265.69
649.698	276.69
649.903	260.69
650.107	267.69
650.312	267.69
650.516	249.69
650.721	248.69
650.925	232.69
651.13	246.69
651.334	240.69
651.539	262.69
651.743	236.69
651.947	239.69
652.152	238.69
652.356	233.69
652.56	281.69
652.764	285.69
652.969	248.69
653.173	235.69
653.377	225.69
653.581	209.69
653.785	203.69
653.99	204.69
654.194	204.69
654.398	204.69
654.602	213.69
654.806	204.69
655.01	202.69
655.214	199.69
655.418	208.69
655.622	211.69
655.826	208.69
656.03	205.69
656.234	230.69
656.438	222.69
656.642	219.69
656.846	215.69
657.049	208.69
657.253	197.69
657.457	187.69
657.661	179.69
657.865	166.69
658.068	144.69
658.272	158.69
658.476	143.69
658.68	145.69
658.883	145.69
659.087	136.69
659.291	147.69
659.494	138.69
659.698	122.69
659.901	104.69
660.105	105.69
660.309	120.69
660.512	116.69
660.716	122.69
660.919	115.69
661.123	107.69
661.326	110.69
661.53	98.69
661.733	102.69
661.936	103.69
662.14	91.69
662.343	93.69
662.546	91.69
662.75	80.69
662.953	95.69
663.156	99.69
663.36	93.69
663.563	83.69
663.766	78.69
663.969	82.69
664.173	84.69
664.376	74.69
664.579	91.69
664.782	89.69
664.985	91.69
665.188	98.69
665.391	74.69
665.594	77.69
665.797	68.69
666	102.69
666.203	72.69
666.406	81.69
666.609	78.69
666.812	80.69
667.015	85.69
667.218	98.69
667.421	90.69
667.624	86.69
667.827	72.69
668.03	81.69
668.232	83.69
668.435	75.69
668.638	81.69
668.841	68.69
669.043	82.69
669.246	95.69
669.449	85.69
669.651	84.69
669.854	78.69
670.057	94.69
670.259	83.69
670.462	88.69
670.665	93.69
670.867	86.69
671.07	87.69
671.272	95.69
671.475	97.69
671.677	74.69
671.88	90.69
672.082	87.69
672.284	95.69
672.487	91.69
672.689	86.69
672.892	66.69
