Data from SnStandardFlinnAPT0064_LampEnergy5.5_LIBS07252019.E.O._I.C._HRD10591_15-15-53-498.txt Node
Date: Thu Jul 25 15:15:53 EDT 2019
User: cochatt
Spectrometer: HR+D1059
Trigger mode: 1
Integration Time (sec): 1.000000E-1
Scans to average: 1
Electric dark correction enabled: true
Nonlinearity correction enabled: false
Boxcar width: 0
XAxis mode: Wavelengths
Number of Pixels in Spectrum: 2048
>>>>>Begin Spectral Data<<<<<
223.165	-23.19
223.4	-23.19
223.635	-23.19
223.869	-30.19
224.104	-11.19
224.338	-15.19
224.573	1.81
224.808	-15.19
225.042	4.81
225.277	-0.19
225.511	-8.19
225.746	-13.19
225.98	25.81
226.215	0.81
226.449	10.81
226.683	22.81
226.918	24.81
227.152	24.81
227.387	33.81
227.621	43.81
227.856	27.81
228.09	36.81
228.324	59.81
228.559	50.81
228.793	87.81
229.027	146.81
229.262	155.81
229.496	143.81
229.73	140.81
229.964	158.81
230.199	152.81
230.433	145.81
230.667	190.81
230.901	162.81
231.136	162.81
231.37	174.81
231.604	193.81
231.838	188.81
232.072	215.81
232.306	237.81
232.541	230.81
232.775	199.81
233.009	169.81
233.243	196.81
233.477	198.81
233.711	227.81
233.945	260.81
234.179	226.81
234.413	213.81
234.647	199.81
234.881	218.81
235.115	220.81
235.349	273.81
235.583	330.81
235.817	404.81
236.051	404.81
236.285	271.81
236.519	230.81
236.753	242.81
236.987	241.81
237.221	232.81
237.455	230.81
237.689	211.81
237.922	238.81
238.156	211.81
238.39	214.81
238.624	216.81
238.858	226.81
239.091	230.81
239.325	239.81
239.559	222.81
239.793	230.81
240.027	235.81
240.26	241.81
240.494	249.81
240.728	259.81
240.961	275.81
241.195	281.81
241.429	276.81
241.662	309.81
241.896	322.81
242.13	378.81
242.363	479.81
242.597	592.81
242.83	553.81
243.064	571.81
243.298	668.81
243.531	584.81
243.765	394.81
243.998	332.81
244.232	279.81
244.465	286.81
244.699	287.81
244.932	284.81
245.166	287.81
245.399	288.81
245.633	310.81
245.866	292.81
246.099	276.81
246.333	307.81
246.566	280.81
246.8	286.81
247.033	299.81
247.266	286.81
247.5	307.81
247.733	290.81
247.966	320.81
248.2	336.81
248.433	354.81
248.666	386.81
248.899	366.81
249.133	343.81
249.366	352.81
249.599	383.81
249.832	446.81
250.066	418.81
250.299	351.81
250.532	339.81
250.765	337.81
250.998	331.81
251.231	323.81
251.465	321.81
251.698	351.81
251.931	327.81
252.164	343.81
252.397	355.81
252.63	336.81
252.863	358.81
253.096	332.81
253.329	361.81
253.562	338.81
253.795	335.81
254.028	335.81
254.261	354.81
254.494	367.81
254.727	418.81
254.96	499.81
255.193	474.81
255.426	402.81
255.659	369.81
255.892	369.81
256.124	356.81
256.357	372.81
256.59	382.81
256.823	393.81
257.056	452.81
257.289	487.81
257.521	530.81
257.754	451.81
257.987	407.81
258.22	390.81
258.452	384.81
258.685	393.81
258.918	385.81
259.151	411.81
259.383	444.81
259.616	482.81
259.849	488.81
260.081	448.81
260.314	422.81
260.547	439.81
260.779	423.81
261.012	420.81
261.244	431.81
261.477	448.81
261.71	428.81
261.942	446.81
262.175	440.81
262.407	452.81
262.64	447.81
262.872	478.81
263.105	481.81
263.337	523.81
263.57	538.81
263.802	578.81
264.035	563.81
264.267	584.81
264.499	578.81
264.732	618.81
264.964	632.81
265.197	620.81
265.429	603.81
265.661	623.81
265.894	664.81
266.126	715.81
266.358	774.81
266.591	775.81
266.823	666.81
267.055	640.81
267.287	596.81
267.52	580.81
267.752	553.81
267.984	520.81
268.216	568.81
268.448	535.81
268.681	568.81
268.913	526.81
269.145	527.81
269.377	512.81
269.609	538.81
269.841	562.81
270.073	574.81
270.306	642.81
270.538	858.81
270.77	1179.81
271.002	1399.81
271.234	1019.81
271.466	706.81
271.698	600.81
271.93	574.81
272.162	544.81
272.394	532.81
272.626	495.81
272.858	523.81
273.09	536.81
273.322	510.81
273.553	518.81
273.785	512.81
274.017	522.81
274.249	514.81
274.481	519.81
274.713	523.81
274.945	537.81
275.176	532.81
275.408	547.81
275.64	523.81
275.872	517.81
276.104	531.81
276.335	537.81
276.567	521.81
276.799	550.81
277.031	540.81
277.262	571.81
277.494	595.81
277.726	638.81
277.957	718.81
278.189	764.81
278.421	726.81
278.652	647.81
278.884	641.81
279.115	613.81
279.347	588.81
279.579	567.81
279.81	575.81
280.042	570.81
280.273	562.81
280.505	594.81
280.736	612.81
280.968	638.81
281.199	662.81
281.431	751.81
281.662	723.81
281.894	687.81
282.125	657.81
282.356	667.81
282.588	664.81
282.819	698.81
283.051	726.81
283.282	779.81
283.513	946.81
283.745	1343.81
283.976	1996.81
284.207	2814.81
284.439	2587.81
284.67	1630.81
284.901	1278.81
285.132	1250.81
285.364	1213.81
285.595	999.81
285.826	916.81
286.057	1037.81
286.288	1400.81
286.52	1838.81
286.751	1714.81
286.982	1102.81
287.213	891.81
287.444	786.81
287.675	751.81
287.906	714.81
288.138	723.81
288.369	710.81
288.6	701.81
288.831	676.81
289.062	680.81
289.293	687.81
289.524	688.81
289.755	691.81
289.986	681.81
290.217	713.81
290.448	689.81
290.679	720.81
290.91	714.81
291.141	730.81
291.371	762.81
291.602	795.81
291.833	737.81
292.064	697.81
292.295	692.81
292.526	662.81
292.757	660.81
292.987	653.81
293.218	684.81
293.449	678.81
293.68	668.81
293.91	661.81
294.141	672.81
294.372	640.81
294.603	633.81
294.833	651.81
295.064	646.81
295.295	669.81
295.525	656.81
295.756	640.81
295.987	639.81
296.217	652.81
296.448	658.81
296.679	631.81
296.909	640.81
297.14	646.81
297.37	683.81
297.601	671.81
297.831	676.81
298.062	694.81
298.292	674.81
298.523	696.81
298.753	719.81
298.984	708.81
299.214	694.81
299.445	677.81
299.675	704.81
299.905	710.81
300.136	773.81
300.366	857.81
300.597	1050.81
300.827	1382.81
301.057	1776.81
301.288	1794.81
301.518	1174.81
301.748	960.81
301.979	895.81
302.209	853.81
302.439	896.81
302.669	938.81
302.9	1065.81
303.13	1446.81
303.36	2040.81
303.59	2699.81
303.82	2396.81
304.051	1442.81
304.281	1098.81
304.511	921.81
304.741	912.81
304.971	833.81
305.201	811.81
305.431	805.81
305.661	776.81
305.891	799.81
306.121	759.81
306.352	775.81
306.582	761.81
306.812	741.81
307.042	764.81
307.272	768.81
307.502	748.81
307.731	752.81
307.961	771.81
308.191	751.81
308.421	742.81
308.651	758.81
308.881	737.81
309.111	732.81
309.341	750.81
309.571	788.81
309.8	780.81
310.03	774.81
310.26	777.81
310.49	783.81
310.72	759.81
310.949	762.81
311.179	767.81
311.409	800.81
311.639	772.81
311.868	786.81
312.098	795.81
312.328	805.81
312.557	806.81
312.787	811.81
313.017	786.81
313.246	811.81
313.476	811.81
313.706	814.81
313.935	873.81
314.165	923.81
314.394	881.81
314.624	908.81
314.853	865.81
315.083	855.81
315.312	891.81
315.542	887.81
315.771	886.81
316.001	927.81
316.23	941.81
316.46	959.81
316.689	1020.81
316.919	1184.81
317.148	1676.81
317.377	2493.81
317.607	3650.81
317.836	3792.81
318.065	2262.81
318.295	1530.81
318.524	1237.81
318.753	1113.81
318.983	1032.81
319.212	999.81
319.441	980.81
319.67	994.81
319.9	959.81
320.129	918.81
320.358	950.81
320.587	953.81
320.816	931.81
321.046	923.81
321.275	963.81
321.504	979.81
321.733	990.81
321.962	985.81
322.191	1012.81
322.42	992.81
322.649	996.81
322.878	1007.81
323.108	985.81
323.337	1020.81
323.566	981.81
323.795	1059.81
324.024	1074.81
324.253	1083.81
324.482	1100.81
324.71	1144.81
324.939	1204.81
325.168	1229.81
325.397	1279.81
325.626	1464.81
325.855	2002.81
326.084	3017.81
326.313	4436.81
326.542	4723.81
326.77	3075.81
326.999	2090.81
327.228	1765.81
327.457	1716.81
327.686	1723.81
327.914	1808.81
328.143	2085.81
328.372	2341.81
328.6	2552.81
328.829	2362.81
329.058	2107.81
329.287	1900.81
329.515	1738.81
329.744	1654.81
329.972	1549.81
330.201	1499.81
330.43	1450.81
330.658	1436.81
330.887	1382.81
331.115	1355.81
331.344	1395.81
331.572	1368.81
331.801	1349.81
332.03	1363.81
332.258	1408.81
332.486	1454.81
332.715	1561.81
332.943	1882.81
333.172	2282.81
333.4	2250.81
333.629	1827.81
333.857	1691.81
334.085	1714.81
334.314	1771.81
334.542	1888.81
334.771	2201.81
334.999	2535.81
335.227	3072.81
335.455	3425.81
335.684	3233.81
335.912	2785.81
336.14	2408.81
336.369	2168.81
336.597	1995.81
336.825	1852.81
337.053	1751.81
337.281	1654.81
337.51	1584.81
337.738	1502.81
337.966	1425.81
338.194	1421.81
338.422	1388.81
338.65	1343.81
338.878	1306.81
339.106	1272.81
339.334	1275.81
339.562	1247.81
339.79	1222.81
340.018	1231.81
340.246	1224.81
340.474	1205.81
340.702	1231.81
340.93	1218.81
341.158	1244.81
341.386	1176.81
341.614	1192.81
341.842	1157.81
342.07	1117.81
342.298	1140.81
342.526	1153.81
342.754	1108.81
342.981	1138.81
343.209	1120.81
343.437	1136.81
343.665	1122.81
343.893	1166.81
344.12	1182.81
344.348	1088.81
344.576	1114.81
344.804	1120.81
345.031	1066.81
345.259	1061.81
345.487	1046.81
345.714	1056.81
345.942	1044.81
346.17	1041.81
346.397	1016.81
346.625	1028.81
346.853	1025.81
347.08	1050.81
347.308	1044.81
347.535	1042.81
347.763	1034.81
347.99	1031.81
348.218	1026.81
348.445	1002.81
348.673	1012.81
348.9	1022.81
349.128	986.81
349.355	1012.81
349.583	1016.81
349.81	983.81
350.037	965.81
350.265	990.81
350.492	992.81
350.72	1022.81
350.947	1022.81
351.174	987.81
351.402	968.81
351.629	1018.81
351.856	998.81
352.083	995.81
352.311	989.81
352.538	1001.81
352.765	963.81
352.992	982.81
353.22	970.81
353.447	999.81
353.674	972.81
353.901	1039.81
354.128	1010.81
354.355	1003.81
354.583	995.81
354.81	1002.81
355.037	1037.81
355.264	1026.81
355.491	1015.81
355.718	994.81
355.945	1014.81
356.172	985.81
356.399	1009.81
356.626	1023.81
356.853	1042.81
357.08	1014.81
357.307	1033.81
357.534	1049.81
357.761	1041.81
357.988	1066.81
358.215	1034.81
358.441	1039.81
358.668	1040.81
358.895	1073.81
359.122	1044.81
359.349	1051.81
359.576	1071.81
359.802	1063.81
360.029	1048.81
360.256	1065.81
360.483	1041.81
360.709	1044.81
360.936	1064.81
361.163	1063.81
361.39	1056.81
361.616	1041.81
361.843	1057.81
362.07	1049.81
362.296	1041.81
362.523	1057.81
362.749	1081.81
362.976	1047.81
363.203	1050.81
363.429	1018.81
363.656	1058.81
363.882	1048.81
364.109	1017.81
364.335	1055.81
364.562	1030.81
364.788	1027.81
365.015	1070.81
365.241	1080.81
365.468	1103.81
365.694	1145.81
365.92	1094.81
366.147	1066.81
366.373	1068.81
366.599	1070.81
366.826	1088.81
367.052	1086.81
367.278	1080.81
367.505	1090.81
367.731	1086.81
367.957	1073.81
368.184	1095.81
368.41	1088.81
368.636	1086.81
368.862	1107.81
369.089	1086.81
369.315	1102.81
369.541	1072.81
369.767	1126.81
369.993	1088.81
370.219	1102.81
370.445	1113.81
370.672	1120.81
370.898	1099.81
371.124	1094.81
371.35	1108.81
371.576	1134.81
371.802	1124.81
372.028	1176.81
372.254	1143.81
372.48	1143.81
372.706	1170.81
372.932	1152.81
373.158	1175.81
373.384	1165.81
373.61	1134.81
373.835	1182.81
374.061	1157.81
374.287	1155.81
374.513	1198.81
374.739	1206.81
374.965	1219.81
375.191	1165.81
375.416	1198.81
375.642	1154.81
375.868	1166.81
376.094	1162.81
376.319	1184.81
376.545	1132.81
376.771	1145.81
376.997	1154.81
377.222	1140.81
377.448	1131.81
377.674	1114.81
377.899	1134.81
378.125	1131.81
378.35	1131.81
378.576	1168.81
378.802	1140.81
379.027	1153.81
379.253	1190.81
379.478	1257.81
379.704	1398.81
379.929	1854.81
380.155	2657.81
380.38	2914.81
380.606	1868.81
380.831	1410.81
381.057	1284.81
381.282	1183.81
381.507	1174.81
381.733	1113.81
381.958	1138.81
382.184	1120.81
382.409	1140.81
382.634	1140.81
382.86	1139.81
383.085	1128.81
383.31	1120.81
383.535	1151.81
383.761	1130.81
383.986	1117.81
384.211	1144.81
384.436	1188.81
384.662	1161.81
384.887	1138.81
385.112	1147.81
385.337	1170.81
385.562	1136.81
385.787	1184.81
386.013	1209.81
386.238	1192.81
386.463	1158.81
386.688	1166.81
386.913	1131.81
387.138	1152.81
387.363	1177.81
387.588	1151.81
387.813	1142.81
388.038	1157.81
388.263	1182.81
388.488	1183.81
388.713	1159.81
388.938	1180.81
389.163	1163.81
389.387	1162.81
389.612	1150.81
389.837	1192.81
390.062	1143.81
390.287	1187.81
390.512	1206.81
390.736	1208.81
390.961	1207.81
391.186	1224.81
391.411	1192.81
391.636	1233.81
391.86	1250.81
392.085	1220.81
392.31	1198.81
392.534	1193.81
392.759	1212.81
392.984	1191.81
393.208	1170.81
393.433	1164.81
393.658	1188.81
393.882	1148.81
394.107	1188.81
394.331	1180.81
394.556	1184.81
394.78	1189.81
395.005	1185.81
395.229	1194.81
395.454	1207.81
395.678	1206.81
395.903	1234.81
396.127	1215.81
396.352	1191.81
396.576	1184.81
396.801	1217.81
397.025	1195.81
397.249	1217.81
397.474	1209.81
397.698	1240.81
397.922	1284.81
398.147	1242.81
398.371	1256.81
398.595	1292.81
398.82	1324.81
399.044	1374.81
399.268	1436.81
399.492	1492.81
399.717	1568.81
399.941	1543.81
400.165	1503.81
400.389	1442.81
400.613	1366.81
400.837	1320.81
401.062	1303.81
401.286	1322.81
401.51	1289.81
401.734	1302.81
401.958	1290.81
402.182	1306.81
402.406	1315.81
402.63	1284.81
402.854	1321.81
403.078	1345.81
403.302	1317.81
403.526	1344.81
403.75	1307.81
403.974	1350.81
404.198	1326.81
404.422	1362.81
404.645	1361.81
404.869	1351.81
405.093	1326.81
405.317	1322.81
405.541	1360.81
405.765	1366.81
405.988	1333.81
406.212	1416.81
406.436	1370.81
406.66	1384.81
406.883	1384.81
407.107	1436.81
407.331	1428.81
407.555	1473.81
407.778	1463.81
408.002	1431.81
408.226	1428.81
408.449	1416.81
408.673	1369.81
408.896	1388.81
409.12	1352.81
409.344	1346.81
409.567	1316.81
409.791	1359.81
410.014	1335.81
410.238	1322.81
410.461	1292.81
410.685	1337.81
410.908	1317.81
411.132	1295.81
411.355	1271.81
411.578	1288.81
411.802	1262.81
412.025	1323.81
412.249	1273.81
412.472	1296.81
412.695	1275.81
412.919	1263.81
413.142	1278.81
413.365	1267.81
413.589	1255.81
413.812	1278.81
414.035	1273.81
414.258	1280.81
414.482	1269.81
414.705	1256.81
414.928	1276.81
415.151	1247.81
415.374	1268.81
415.597	1254.81
415.821	1206.81
416.044	1226.81
416.267	1228.81
416.49	1222.81
416.713	1224.81
416.936	1222.81
417.159	1203.81
417.382	1163.81
417.605	1222.81
417.828	1200.81
418.051	1211.81
418.274	1216.81
418.497	1248.81
418.72	1233.81
418.943	1243.81
419.166	1325.81
419.389	1344.81
419.611	1322.81
419.834	1287.81
420.057	1272.81
420.28	1254.81
420.503	1215.81
420.726	1191.81
420.948	1226.81
421.171	1172.81
421.394	1242.81
421.617	1216.81
421.839	1226.81
422.062	1236.81
422.285	1209.81
422.507	1239.81
422.73	1210.81
422.953	1239.81
423.175	1250.81
423.398	1248.81
423.621	1241.81
423.843	1245.81
424.066	1251.81
424.288	1247.81
424.511	1230.81
424.733	1238.81
424.956	1217.81
425.178	1246.81
425.401	1194.81
425.623	1227.81
425.846	1196.81
426.068	1179.81
426.291	1219.81
426.513	1188.81
426.735	1159.81
426.958	1191.81
427.18	1148.81
427.402	1165.81
427.625	1165.81
427.847	1135.81
428.069	1127.81
428.292	1129.81
428.514	1117.81
428.736	1110.81
428.958	1134.81
429.181	1136.81
429.403	1108.81
429.625	1126.81
429.847	1152.81
430.069	1152.81
430.292	1147.81
430.514	1168.81
430.736	1219.81
430.958	1112.81
431.18	1148.81
431.402	1110.81
431.624	1136.81
431.846	1146.81
432.068	1106.81
432.29	1134.81
432.512	1103.81
432.734	1140.81
432.956	1138.81
433.178	1120.81
433.4	1121.81
433.622	1134.81
433.844	1138.81
434.066	1148.81
434.287	1137.81
434.509	1118.81
434.731	1124.81
434.953	1193.81
435.175	1168.81
435.397	1184.81
435.618	1143.81
435.84	1123.81
436.062	1121.81
436.284	1097.81
436.505	1114.81
436.727	1111.81
436.949	1078.81
437.17	1105.81
437.392	1120.81
437.614	1089.81
437.835	1038.81
438.057	1088.81
438.278	1073.81
438.5	1077.81
438.721	1122.81
438.943	1157.81
439.165	1114.81
439.386	1144.81
439.608	1136.81
439.829	1173.81
440.05	1178.81
440.272	1214.81
440.493	1186.81
440.715	1156.81
440.936	1200.81
441.158	1181.81
441.379	1168.81
441.6	1233.81
441.822	1256.81
442.043	1297.81
442.264	1326.81
442.486	1248.81
442.707	1205.81
442.928	1234.81
443.149	1166.81
443.371	1216.81
443.592	1218.81
443.813	1224.81
444.034	1224.81
444.255	1219.81
444.476	1270.81
444.698	1307.81
444.919	1298.81
445.14	1387.81
445.361	1313.81
445.582	1241.81
445.803	1235.81
446.024	1194.81
446.245	1204.81
446.466	1212.81
446.687	1203.81
446.908	1181.81
447.129	1163.81
447.35	1131.81
447.571	1118.81
447.792	1108.81
448.013	1094.81
448.234	1097.81
448.455	1109.81
448.675	1130.81
448.896	1126.81
449.117	1167.81
449.338	1238.81
449.559	1266.81
449.779	1184.81
450	1137.81
450.221	1088.81
450.442	1089.81
450.662	1093.81
450.883	1080.81
451.104	1096.81
451.324	1081.81
451.545	1078.81
451.766	1097.81
451.986	1088.81
452.207	1139.81
452.428	1364.81
452.648	1795.81
452.869	1556.81
453.089	1250.81
453.31	1162.81
453.53	1144.81
453.751	1195.81
453.971	1258.81
454.192	1232.81
454.412	1091.81
454.633	1060.81
454.853	1056.81
455.073	1025.81
455.294	1044.81
455.514	1049.81
455.734	1035.81
455.955	1024.81
456.175	1042.81
456.395	995.81
456.616	1040.81
456.836	1031.81
457.056	1075.81
457.276	1043.81
457.497	1081.81
457.717	1083.81
457.937	1094.81
458.157	1103.81
458.377	1097.81
458.598	1107.81
458.818	1106.81
459.038	1088.81
459.258	1100.81
459.478	1125.81
459.698	1141.81
459.918	1142.81
460.138	1153.81
460.358	1191.81
460.578	1184.81
460.798	1222.81
461.018	1229.81
461.238	1222.81
461.458	1222.81
461.678	1212.81
461.898	1268.81
462.118	1264.81
462.338	1264.81
462.558	1339.81
462.777	1340.81
462.997	1367.81
463.217	1425.81
463.437	1461.81
463.657	1458.81
463.876	1428.81
464.096	1400.81
464.316	1357.81
464.536	1305.81
464.755	1324.81
464.975	1306.81
465.195	1236.81
465.414	1214.81
465.634	1152.81
465.854	1173.81
466.073	1162.81
466.293	1126.81
466.512	1127.81
466.732	1147.81
466.951	1186.81
467.171	1249.81
467.391	1226.81
467.61	1150.81
467.829	1121.81
468.049	1115.81
468.268	1126.81
468.488	1090.81
468.707	1102.81
468.927	1124.81
469.146	1118.81
469.365	1099.81
469.585	1111.81
469.804	1112.81
470.023	1146.81
470.243	1147.81
470.462	1193.81
470.681	1245.81
470.901	1351.81
471.12	1491.81
471.339	1493.81
471.558	1278.81
471.777	1202.81
471.997	1146.81
472.216	1110.81
472.435	1088.81
472.654	1117.81
472.873	1066.81
473.092	1087.81
473.311	1101.81
473.53	1109.81
473.749	1163.81
473.968	1160.81
474.187	1135.81
474.406	1110.81
474.625	1110.81
474.844	1122.81
475.063	1100.81
475.282	1128.81
475.501	1088.81
475.72	1116.81
475.939	1091.81
476.158	1184.81
476.377	1164.81
476.596	1155.81
476.814	1157.81
477.033	1175.81
477.252	1179.81
477.471	1208.81
477.69	1192.81
477.908	1275.81
478.127	1288.81
478.346	1264.81
478.564	1280.81
478.783	1272.81
479.002	1311.81
479.22	1324.81
479.439	1314.81
479.658	1310.81
479.876	1313.81
480.095	1330.81
480.313	1335.81
480.532	1368.81
480.751	1328.81
480.969	1343.81
481.188	1304.81
481.406	1286.81
481.624	1280.81
481.843	1286.81
482.061	1339.81
482.28	1313.81
482.498	1309.81
482.717	1279.81
482.935	1315.81
483.153	1359.81
483.372	1362.81
483.59	1399.81
483.808	1400.81
484.027	1414.81
484.245	1471.81
484.463	1612.81
484.681	1774.81
484.9	1657.81
485.118	1558.81
485.336	1531.81
485.554	1558.81
485.772	1602.81
485.99	1774.81
486.209	1896.81
486.427	1667.81
486.645	1510.81
486.863	1458.81
487.081	1420.81
487.299	1428.81
487.517	1425.81
487.735	1408.81
487.953	1453.81
488.171	1438.81
488.389	1408.81
488.607	1361.81
488.825	1380.81
489.043	1361.81
489.261	1342.81
489.479	1373.81
489.696	1381.81
489.914	1350.81
490.132	1378.81
490.35	1399.81
490.568	1428.81
490.786	1416.81
491.003	1447.81
491.221	1488.81
491.439	1472.81
491.657	1451.81
491.874	1474.81
492.092	1473.81
492.31	1488.81
492.527	1465.81
492.745	1496.81
492.963	1489.81
493.18	1486.81
493.398	1412.81
493.615	1483.81
493.833	1456.81
494.05	1455.81
494.268	1445.81
494.485	1472.81
494.703	1481.81
494.92	1451.81
495.138	1463.81
495.355	1448.81
495.573	1478.81
495.79	1476.81
496.008	1459.81
496.225	1506.81
496.442	1518.81
496.66	1546.81
496.877	1614.81
497.094	1588.81
497.312	1560.81
497.529	1585.81
497.746	1598.81
497.963	1591.81
498.181	1619.81
498.398	1625.81
498.615	1751.81
498.832	1772.81
499.049	1824.81
499.267	1938.81
499.484	2075.81
499.701	2089.81
499.918	2184.81
500.135	2322.81
500.352	2407.81
500.569	2489.81
500.786	2462.81
501.003	2360.81
501.22	2279.81
501.437	2140.81
501.654	2013.81
501.871	1962.81
502.088	1886.81
502.305	1758.81
502.522	1754.81
502.739	1657.81
502.956	1634.81
503.172	1618.81
503.389	1601.81
503.606	1536.81
503.823	1534.81
504.04	1495.81
504.256	1514.81
504.473	1471.81
504.69	1493.81
504.907	1490.81
505.123	1436.81
505.34	1423.81
505.557	1370.81
505.773	1362.81
505.99	1347.81
506.207	1322.81
506.423	1331.81
506.64	1305.81
506.856	1310.81
507.073	1276.81
507.289	1303.81
507.506	1265.81
507.722	1273.81
507.939	1245.81
508.155	1278.81
508.372	1256.81
508.588	1269.81
508.805	1233.81
509.021	1236.81
509.238	1244.81
509.454	1294.81
509.67	1342.81
509.887	1268.81
510.103	1236.81
510.319	1236.81
510.536	1219.81
510.752	1250.81
510.968	1204.81
511.184	1199.81
511.401	1198.81
511.617	1184.81
511.833	1215.81
512.049	1186.81
512.265	1164.81
512.481	1180.81
512.698	1178.81
512.914	1185.81
513.13	1173.81
513.346	1203.81
513.562	1162.81
513.778	1179.81
513.994	1179.81
514.21	1197.81
514.426	1256.81
514.642	1298.81
514.858	1262.81
515.074	1210.81
515.29	1213.81
515.506	1184.81
515.721	1196.81
515.937	1238.81
516.153	1242.81
516.369	1221.81
516.585	1246.81
516.801	1278.81
517.016	1311.81
517.232	1308.81
517.448	1338.81
517.664	1360.81
517.879	1309.81
518.095	1326.81
518.311	1337.81
518.527	1342.81
518.742	1333.81
518.958	1346.81
519.173	1305.81
519.389	1300.81
519.605	1264.81
519.82	1233.81
520.036	1217.81
520.251	1197.81
520.467	1178.81
520.682	1176.81
520.898	1176.81
521.113	1181.81
521.329	1166.81
521.544	1166.81
521.76	1175.81
521.975	1190.81
522.19	1179.81
522.406	1142.81
522.621	1145.81
522.836	1142.81
523.052	1146.81
523.267	1157.81
523.482	1145.81
523.698	1171.81
523.913	1119.81
524.128	1152.81
524.343	1182.81
524.559	1159.81
524.774	1124.81
524.989	1162.81
525.204	1150.81
525.419	1131.81
525.634	1138.81
525.849	1131.81
526.064	1150.81
526.28	1145.81
526.495	1125.81
526.71	1142.81
526.925	1138.81
527.14	1129.81
527.355	1163.81
527.57	1183.81
527.785	1159.81
527.999	1164.81
528.214	1178.81
528.429	1173.81
528.644	1194.81
528.859	1224.81
529.074	1252.81
529.289	1251.81
529.503	1244.81
529.718	1246.81
529.933	1210.81
530.148	1227.81
530.363	1219.81
530.577	1170.81
530.792	1174.81
531.007	1218.81
531.221	1204.81
531.436	1213.81
531.651	1231.81
531.865	1275.81
532.08	1252.81
532.295	1292.81
532.509	1342.81
532.724	1338.81
532.938	1321.81
533.153	1351.81
533.367	1437.81
533.582	1484.81
533.796	1481.81
534.011	1428.81
534.225	1444.81
534.44	1363.81
534.654	1361.81
534.868	1337.81
535.083	1368.81
535.297	1327.81
535.511	1300.81
535.726	1264.81
535.94	1255.81
536.154	1230.81
536.369	1243.81
536.583	1224.81
536.797	1203.81
537.011	1214.81
537.225	1150.81
537.44	1191.81
537.654	1173.81
537.868	1150.81
538.082	1148.81
538.296	1147.81
538.51	1122.81
538.724	1152.81
538.938	1151.81
539.153	1149.81
539.367	1150.81
539.581	1140.81
539.795	1111.81
540.009	1072.81
540.222	1108.81
540.436	1138.81
540.65	1098.81
540.864	1132.81
541.078	1177.81
541.292	1200.81
541.506	1400.81
541.72	1432.81
541.934	1284.81
542.147	1259.81
542.361	1195.81
542.575	1110.81
542.789	1144.81
543.002	1110.81
543.216	1102.81
543.43	1074.81
543.644	1078.81
543.857	1081.81
544.071	1096.81
544.285	1128.81
544.498	1123.81
544.712	1099.81
544.925	1096.81
545.139	1099.81
545.352	1123.81
545.566	1121.81
545.779	1136.81
545.993	1135.81
546.206	1118.81
546.42	1108.81
546.633	1120.81
546.847	1122.81
547.06	1107.81
547.274	1126.81
547.487	1126.81
547.7	1138.81
547.914	1103.81
548.127	1145.81
548.34	1118.81
548.554	1128.81
548.767	1147.81
548.98	1106.81
549.193	1136.81
549.407	1127.81
549.62	1125.81
549.833	1148.81
550.046	1150.81
550.259	1107.81
550.473	1110.81
550.686	1101.81
550.899	1115.81
551.112	1086.81
551.325	1090.81
551.538	1083.81
551.751	1081.81
551.964	1111.81
552.177	1084.81
552.39	1135.81
552.603	1184.81
552.816	1168.81
553.029	1181.81
553.242	1209.81
553.455	1209.81
553.667	1208.81
553.88	1201.81
554.093	1223.81
554.306	1187.81
554.519	1209.81
554.732	1257.81
554.944	1240.81
555.157	1237.81
555.37	1292.81
555.583	1334.81
555.795	1362.81
556.008	1413.81
556.221	1466.81
556.433	1534.81
556.646	1566.81
556.859	1573.81
557.071	1522.81
557.284	1507.81
557.496	1483.81
557.709	1483.81
557.921	1473.81
558.134	1457.81
558.346	1477.81
558.559	1524.81
558.771	1538.81
558.984	1641.81
559.196	1720.81
559.409	1681.81
559.621	1609.81
559.833	1511.81
560.046	1447.81
560.258	1421.81
560.47	1323.81
560.683	1313.81
560.895	1251.81
561.107	1245.81
561.32	1212.81
561.532	1180.81
561.744	1188.81
561.956	1154.81
562.168	1125.81
562.381	1120.81
562.593	1108.81
562.805	1100.81
563.017	1144.81
563.229	1110.81
563.441	1242.81
563.653	1099.81
563.865	1051.81
564.077	1043.81
564.289	1022.81
564.501	1023.81
564.713	1022.81
564.925	991.81
565.137	998.81
565.349	996.81
565.561	1046.81
565.773	1026.81
565.985	1021.81
566.197	1078.81
566.408	1094.81
566.62	1123.81
566.832	1131.81
567.044	1140.81
567.255	1116.81
567.467	1160.81
567.679	1198.81
567.891	1252.81
568.102	1340.81
568.314	1490.81
568.526	1303.81
568.737	1146.81
568.949	1059.81
569.161	1010.81
569.372	956.81
569.584	924.81
569.795	906.81
570.007	921.81
570.218	902.81
570.43	938.81
570.641	897.81
570.853	869.81
571.064	880.81
571.276	864.81
571.487	846.81
571.698	829.81
571.91	834.81
572.121	839.81
572.333	814.81
572.544	831.81
572.755	852.81
572.966	970.81
573.178	852.81
573.389	810.81
573.6	798.81
573.811	760.81
574.023	760.81
574.234	784.81
574.445	770.81
574.656	759.81
574.867	736.81
575.078	738.81
575.289	727.81
575.501	739.81
575.712	759.81
575.923	756.81
576.134	739.81
576.345	731.81
576.556	743.81
576.767	744.81
576.978	725.81
577.188	762.81
577.399	744.81
577.61	776.81
577.821	773.81
578.032	756.81
578.243	772.81
578.454	784.81
578.665	792.81
578.875	821.81
579.086	838.81
579.297	880.81
579.508	878.81
579.718	929.81
579.929	1013.81
580.14	1139.81
580.35	1163.81
580.561	1144.81
580.772	1043.81
580.982	998.81
581.193	942.81
581.403	889.81
581.614	862.81
581.825	841.81
582.035	818.81
582.246	786.81
582.456	789.81
582.667	747.81
582.877	739.81
583.087	724.81
583.298	700.81
583.508	711.81
583.719	686.81
583.929	668.81
584.139	630.81
584.35	640.81
584.56	640.81
584.77	658.81
584.981	645.81
585.191	606.81
585.401	628.81
585.611	607.81
585.821	607.81
586.032	613.81
586.242	585.81
586.452	608.81
586.662	604.81
586.872	598.81
587.082	591.81
587.292	603.81
587.502	567.81
587.713	565.81
587.923	571.81
588.133	551.81
588.343	561.81
588.553	551.81
588.762	531.81
588.972	560.81
589.182	569.81
589.392	570.81
589.602	530.81
589.812	541.81
590.022	532.81
590.232	524.81
590.441	543.81
590.651	545.81
590.861	532.81
591.071	560.81
591.281	509.81
591.49	536.81
591.7	530.81
591.91	534.81
592.119	538.81
592.329	543.81
592.539	520.81
592.748	547.81
592.958	558.81
593.167	556.81
593.377	570.81
593.587	568.81
593.796	554.81
594.006	560.81
594.215	584.81
594.424	579.81
594.634	556.81
594.843	546.81
595.053	527.81
595.262	533.81
595.472	517.81
595.681	509.81
595.89	502.81
596.1	523.81
596.309	503.81
596.518	474.81
596.727	511.81
596.937	492.81
597.146	480.81
597.355	475.81
597.564	450.81
597.774	472.81
597.983	449.81
598.192	462.81
598.401	462.81
598.61	423.81
598.819	441.81
599.028	447.81
599.237	450.81
599.446	443.81
599.655	455.81
599.864	472.81
600.073	440.81
600.282	453.81
600.491	437.81
600.7	445.81
600.909	432.81
601.118	447.81
601.327	445.81
601.536	440.81
601.745	446.81
601.953	470.81
602.162	563.81
602.371	487.81
602.58	466.81
602.789	444.81
602.997	440.81
603.206	429.81
603.415	439.81
603.623	446.81
603.832	423.81
604.041	437.81
604.249	438.81
604.458	422.81
604.666	423.81
604.875	420.81
605.084	410.81
605.292	431.81
605.501	420.81
605.709	431.81
605.918	422.81
606.126	435.81
606.334	450.81
606.543	443.81
606.751	473.81
606.96	504.81
607.168	546.81
607.376	465.81
607.585	457.81
607.793	433.81
608.001	438.81
608.21	426.81
608.418	436.81
608.626	427.81
608.834	422.81
609.043	433.81
609.251	402.81
609.459	409.81
609.667	410.81
609.875	427.81
610.083	407.81
610.291	394.81
610.499	407.81
610.707	388.81
610.916	420.81
611.124	401.81
611.332	417.81
611.54	401.81
611.748	387.81
611.955	388.81
612.163	395.81
612.371	390.81
612.579	388.81
612.787	390.81
612.995	401.81
613.203	386.81
613.411	381.81
613.618	386.81
613.826	378.81
614.034	366.81
614.242	392.81
614.449	378.81
614.657	400.81
614.865	380.81
615.072	401.81
615.28	400.81
615.488	387.81
615.695	388.81
615.903	384.81
616.111	378.81
616.318	376.81
616.526	403.81
616.733	409.81
616.941	385.81
617.148	386.81
617.356	376.81
617.563	378.81
617.771	378.81
617.978	370.81
618.185	375.81
618.393	358.81
618.6	360.81
618.807	371.81
619.015	384.81
619.222	368.81
619.429	381.81
619.637	348.81
619.844	358.81
620.051	382.81
620.258	377.81
620.466	372.81
620.673	351.81
620.88	361.81
621.087	345.81
621.294	344.81
621.501	344.81
621.708	360.81
621.915	356.81
622.122	364.81
622.329	356.81
622.536	359.81
622.743	360.81
622.95	339.81
623.157	348.81
623.364	335.81
623.571	349.81
623.778	352.81
623.985	346.81
624.192	338.81
624.399	352.81
624.606	343.81
624.812	343.81
625.019	345.81
625.226	330.81
625.433	335.81
625.639	339.81
625.846	304.81
626.053	303.81
626.259	322.81
626.466	330.81
626.673	303.81
626.879	314.81
627.086	332.81
627.293	326.81
627.499	340.81
627.706	314.81
627.912	339.81
628.119	340.81
628.325	334.81
628.532	318.81
628.738	306.81
628.945	307.81
629.151	309.81
629.357	314.81
629.564	310.81
629.77	318.81
629.976	292.81
630.183	281.81
630.389	305.81
630.595	321.81
630.802	309.81
631.008	298.81
631.214	309.81
631.42	309.81
631.627	328.81
631.833	306.81
632.039	298.81
632.245	291.81
632.451	316.81
632.657	295.81
632.863	292.81
633.069	312.81
633.275	307.81
633.481	282.81
633.688	307.81
633.893	306.81
634.099	284.81
634.305	288.81
634.511	290.81
634.717	307.81
634.923	290.81
635.129	327.81
635.335	355.81
635.541	335.81
635.747	323.81
635.952	314.81
636.158	304.81
636.364	319.81
636.57	296.81
636.775	306.81
636.981	304.81
637.187	296.81
637.392	310.81
637.598	308.81
637.804	297.81
638.009	288.81
638.215	276.81
638.421	292.81
638.626	282.81
638.832	292.81
639.037	314.81
639.243	306.81
639.448	310.81
639.654	312.81
639.859	306.81
640.065	294.81
640.27	322.81
640.475	293.81
640.681	310.81
640.886	296.81
641.091	320.81
641.297	311.81
641.502	324.81
641.707	308.81
641.913	306.81
642.118	322.81
642.323	325.81
642.528	333.81
642.733	344.81
642.939	321.81
643.144	356.81
643.349	359.81
643.554	376.81
643.759	380.81
643.964	382.81
644.169	420.81
644.374	428.81
644.579	455.81
644.784	490.81
644.989	539.81
645.194	578.81
645.399	666.81
645.604	692.81
645.809	571.81
646.014	461.81
646.219	410.81
646.423	410.81
646.628	358.81
646.833	356.81
647.038	342.81
647.243	307.81
647.447	307.81
647.652	297.81
647.857	296.81
648.062	291.81
648.266	292.81
648.471	299.81
648.676	274.81
648.88	283.81
649.085	270.81
649.289	280.81
649.494	268.81
649.698	275.81
649.903	258.81
650.107	258.81
650.312	259.81
650.516	255.81
650.721	253.81
650.925	261.81
651.13	239.81
651.334	235.81
651.539	230.81
651.743	233.81
651.947	226.81
652.152	228.81
652.356	239.81
652.56	246.81
652.764	264.81
652.969	214.81
653.173	234.81
653.377	208.81
653.581	210.81
653.785	220.81
653.99	210.81
654.194	205.81
654.398	221.81
654.602	214.81
654.806	214.81
655.01	200.81
655.214	207.81
655.418	214.81
655.622	210.81
655.826	211.81
656.03	214.81
656.234	231.81
656.438	228.81
656.642	230.81
656.846	213.81
657.049	226.81
657.253	183.81
657.457	178.81
657.661	170.81
657.865	174.81
658.068	153.81
658.272	159.81
658.476	143.81
658.68	140.81
658.883	144.81
659.087	142.81
659.291	140.81
659.494	123.81
659.698	124.81
659.901	121.81
660.105	128.81
660.309	114.81
660.512	121.81
660.716	113.81
660.919	112.81
661.123	102.81
661.326	100.81
661.53	107.81
661.733	88.81
661.936	117.81
662.14	104.81
662.343	111.81
662.546	99.81
662.75	94.81
662.953	80.81
663.156	102.81
663.36	95.81
663.563	89.81
663.766	90.81
663.969	101.81
664.173	86.81
664.376	72.81
664.579	70.81
664.782	96.81
664.985	89.81
665.188	82.81
665.391	82.81
665.594	92.81
665.797	89.81
666	86.81
666.203	91.81
666.406	94.81
666.609	92.81
666.812	75.81
667.015	87.81
667.218	64.81
667.421	93.81
667.624	86.81
667.827	94.81
668.03	85.81
668.232	93.81
668.435	83.81
668.638	96.81
668.841	86.81
669.043	82.81
669.246	82.81
669.449	85.81
669.651	83.81
669.854	73.81
670.057	86.81
670.259	69.81
670.462	78.81
670.665	90.81
670.867	90.81
671.07	67.81
671.272	91.81
671.475	79.81
671.677	93.81
671.88	78.81
672.082	84.81
672.284	74.81
672.487	99.81
672.689	78.81
672.892	91.81
