Data from SnStandardFlinnAPT0064_QswitchEnergy10_LIBS07252019.E.O._I.C._HRD10591_15-28-24-974.txt Node
Date: Thu Jul 25 15:28:24 EDT 2019
User: cochatt
Spectrometer: HR+D1059
Trigger mode: 1
Integration Time (sec): 1.000000E-1
Scans to average: 1
Electric dark correction enabled: true
Nonlinearity correction enabled: false
Boxcar width: 0
XAxis mode: Wavelengths
Number of Pixels in Spectrum: 2048
>>>>>Begin Spectral Data<<<<<
223.165	-1.12
223.4	-1.12
223.635	-1.12
223.869	3.88
224.104	-6.12
224.338	-25.12
224.573	-10.12
224.808	-15.12
225.042	-5.12
225.277	-14.12
225.511	-11.12
225.746	9.88
225.98	1.88
226.215	-7.12
226.449	16.88
226.683	24.88
226.918	7.88
227.152	29.88
227.387	44.88
227.621	29.88
227.856	37.88
228.09	41.88
228.324	39.88
228.559	49.88
228.793	57.88
229.027	70.88
229.262	73.88
229.496	66.88
229.73	75.88
229.964	71.88
230.199	79.88
230.433	82.88
230.667	70.88
230.901	86.88
231.136	68.88
231.37	72.88
231.604	112.88
231.838	115.88
232.072	126.88
232.306	126.88
232.541	87.88
232.775	84.88
233.009	93.88
233.243	87.88
233.477	89.88
233.711	93.88
233.945	94.88
234.179	102.88
234.413	83.88
234.647	105.88
234.881	94.88
235.115	97.88
235.349	82.88
235.583	90.88
235.817	128.88
236.051	128.88
236.285	101.88
236.519	83.88
236.753	85.88
236.987	66.88
237.221	76.88
237.455	102.88
237.689	91.88
237.922	81.88
238.156	75.88
238.39	87.88
238.624	86.88
238.858	80.88
239.091	82.88
239.325	86.88
239.559	85.88
239.793	88.88
240.027	82.88
240.26	70.88
240.494	84.88
240.728	80.88
240.961	83.88
241.195	102.88
241.429	84.88
241.662	86.88
241.896	98.88
242.13	99.88
242.363	129.88
242.597	169.88
242.83	139.88
243.064	146.88
243.298	165.88
243.531	134.88
243.765	104.88
243.998	77.88
244.232	84.88
244.465	84.88
244.699	89.88
244.932	80.88
245.166	74.88
245.399	71.88
245.633	86.88
245.866	88.88
246.099	103.88
246.333	74.88
246.566	71.88
246.8	87.88
247.033	82.88
247.266	82.88
247.5	83.88
247.733	94.88
247.966	80.88
248.2	78.88
248.433	95.88
248.666	126.88
248.899	128.88
249.133	100.88
249.366	102.88
249.599	99.88
249.832	120.88
250.066	137.88
250.299	103.88
250.532	92.88
250.765	85.88
250.998	74.88
251.231	80.88
251.465	77.88
251.698	87.88
251.931	72.88
252.164	83.88
252.397	92.88
252.63	112.88
252.863	96.88
253.096	99.88
253.329	95.88
253.562	97.88
253.795	92.88
254.028	90.88
254.261	89.88
254.494	107.88
254.727	123.88
254.96	146.88
255.193	135.88
255.426	110.88
255.659	103.88
255.892	98.88
256.124	87.88
256.357	89.88
256.59	93.88
256.823	99.88
257.056	121.88
257.289	132.88
257.521	184.88
257.754	128.88
257.987	94.88
258.22	90.88
258.452	89.88
258.685	78.88
258.918	81.88
259.151	110.88
259.383	115.88
259.616	122.88
259.849	158.88
260.081	103.88
260.314	86.88
260.547	83.88
260.779	79.88
261.012	89.88
261.244	82.88
261.477	96.88
261.71	95.88
261.942	83.88
262.175	98.88
262.407	83.88
262.64	86.88
262.872	86.88
263.105	70.88
263.337	90.88
263.57	83.88
263.802	74.88
264.035	91.88
264.267	78.88
264.499	88.88
264.732	115.88
264.964	91.88
265.197	89.88
265.429	98.88
265.661	122.88
265.894	97.88
266.126	119.88
266.358	146.88
266.591	150.88
266.823	111.88
267.055	92.88
267.287	87.88
267.52	82.88
267.752	86.88
267.984	74.88
268.216	96.88
268.448	74.88
268.681	84.88
268.913	100.88
269.145	95.88
269.377	104.88
269.609	102.88
269.841	90.88
270.073	112.88
270.306	138.88
270.538	194.88
270.77	294.88
271.002	357.88
271.234	199.88
271.466	116.88
271.698	91.88
271.93	79.88
272.162	82.88
272.394	91.88
272.626	88.88
272.858	88.88
273.09	66.88
273.322	94.88
273.553	86.88
273.785	89.88
274.017	88.88
274.249	83.88
274.481	80.88
274.713	99.88
274.945	94.88
275.176	76.88
275.408	90.88
275.64	98.88
275.872	87.88
276.104	103.88
276.335	110.88
276.567	105.88
276.799	95.88
277.031	98.88
277.262	106.88
277.494	114.88
277.726	115.88
277.957	176.88
278.189	255.88
278.421	222.88
278.652	210.88
278.884	205.88
279.115	155.88
279.347	115.88
279.579	123.88
279.81	95.88
280.042	94.88
280.273	112.88
280.505	87.88
280.736	106.88
280.968	150.88
281.199	179.88
281.431	269.88
281.662	283.88
281.894	168.88
282.125	121.88
282.356	114.88
282.588	111.88
282.819	110.88
283.051	128.88
283.282	139.88
283.513	186.88
283.745	320.88
283.976	547.88
284.207	747.88
284.439	585.88
284.67	273.88
284.901	256.88
285.132	334.88
285.364	407.88
285.595	227.88
285.826	176.88
286.057	246.88
286.288	410.88
286.52	634.88
286.751	483.88
286.982	199.88
287.213	123.88
287.444	105.88
287.675	97.88
287.906	115.88
288.138	101.88
288.369	100.88
288.6	103.88
288.831	80.88
289.062	85.88
289.293	95.88
289.524	99.88
289.755	100.88
289.986	96.88
290.217	101.88
290.448	84.88
290.679	108.88
290.91	134.88
291.141	178.88
291.371	277.88
291.602	330.88
291.833	230.88
292.064	138.88
292.295	90.88
292.526	97.88
292.757	101.88
292.987	97.88
293.218	88.88
293.449	90.88
293.68	88.88
293.91	91.88
294.141	90.88
294.372	95.88
294.603	97.88
294.833	89.88
295.064	99.88
295.295	91.88
295.525	88.88
295.756	87.88
295.987	79.88
296.217	96.88
296.448	100.88
296.679	105.88
296.909	103.88
297.14	101.88
297.37	104.88
297.601	113.88
297.831	87.88
298.062	103.88
298.292	103.88
298.523	114.88
298.753	75.88
298.984	112.88
299.214	116.88
299.445	121.88
299.675	100.88
299.905	126.88
300.136	133.88
300.366	168.88
300.597	291.88
300.827	453.88
301.057	698.88
301.288	627.88
301.518	254.88
301.748	154.88
301.979	145.88
302.209	148.88
302.439	150.88
302.669	185.88
302.9	274.88
303.13	520.88
303.36	929.88
303.59	1259.88
303.82	847.88
304.051	304.88
304.281	180.88
304.511	138.88
304.741	130.88
304.971	117.88
305.201	119.88
305.431	111.88
305.661	104.88
305.891	106.88
306.121	107.88
306.352	110.88
306.582	114.88
306.812	127.88
307.042	97.88
307.272	118.88
307.502	100.88
307.731	106.88
307.961	117.88
308.191	110.88
308.421	116.88
308.651	114.88
308.881	111.88
309.111	107.88
309.341	118.88
309.571	118.88
309.8	113.88
310.03	111.88
310.26	116.88
310.49	111.88
310.72	116.88
310.949	115.88
311.179	106.88
311.409	120.88
311.639	123.88
311.868	98.88
312.098	112.88
312.328	131.88
312.557	110.88
312.787	118.88
313.017	127.88
313.246	112.88
313.476	128.88
313.706	150.88
313.935	169.88
314.165	196.88
314.394	245.88
314.624	195.88
314.853	156.88
315.083	132.88
315.312	133.88
315.542	125.88
315.771	131.88
316.001	134.88
316.23	138.88
316.46	165.88
316.689	193.88
316.919	262.88
317.148	502.88
317.377	928.88
317.607	1493.88
317.836	1375.88
318.065	530.88
318.295	239.88
318.524	163.88
318.753	162.88
318.983	131.88
319.212	119.88
319.441	135.88
319.67	119.88
319.9	131.88
320.129	117.88
320.358	142.88
320.587	144.88
320.816	127.88
321.046	132.88
321.275	138.88
321.504	146.88
321.733	160.88
321.962	175.88
322.191	170.88
322.42	145.88
322.649	144.88
322.878	124.88
323.108	128.88
323.337	126.88
323.566	129.88
323.795	135.88
324.024	127.88
324.253	150.88
324.482	205.88
324.71	230.88
324.939	284.88
325.168	244.88
325.397	190.88
325.626	268.88
325.855	510.88
326.084	948.88
326.313	1593.88
326.542	1586.88
326.77	638.88
326.999	291.88
327.228	236.88
327.457	233.88
327.686	251.88
327.914	158.88
328.143	142.88
328.372	157.88
328.6	144.88
328.829	120.88
329.058	127.88
329.287	133.88
329.515	131.88
329.744	123.88
329.972	122.88
330.201	118.88
330.43	118.88
330.658	121.88
330.887	118.88
331.115	110.88
331.344	113.88
331.572	135.88
331.801	122.88
332.03	134.88
332.258	138.88
332.486	177.88
332.715	327.88
332.943	530.88
333.172	766.88
333.4	667.88
333.629	250.88
333.857	156.88
334.085	137.88
334.314	126.88
334.542	121.88
334.771	126.88
334.999	112.88
335.227	136.88
335.455	132.88
335.684	130.88
335.912	119.88
336.14	115.88
336.369	102.88
336.597	136.88
336.825	119.88
337.053	112.88
337.281	123.88
337.51	115.88
337.738	126.88
337.966	130.88
338.194	98.88
338.422	113.88
338.65	119.88
338.878	130.88
339.106	129.88
339.334	133.88
339.562	134.88
339.79	124.88
340.018	118.88
340.246	106.88
340.474	106.88
340.702	122.88
340.93	126.88
341.158	112.88
341.386	118.88
341.614	112.88
341.842	132.88
342.07	131.88
342.298	127.88
342.526	126.88
342.754	119.88
342.981	121.88
343.209	114.88
343.437	124.88
343.665	115.88
343.893	106.88
344.12	130.88
344.348	94.88
344.576	126.88
344.804	118.88
345.031	115.88
345.259	108.88
345.487	111.88
345.714	115.88
345.942	115.88
346.17	127.88
346.397	110.88
346.625	110.88
346.853	104.88
347.08	112.88
347.308	107.88
347.535	103.88
347.763	110.88
347.99	106.88
348.218	115.88
348.445	106.88
348.673	110.88
348.9	126.88
349.128	136.88
349.355	128.88
349.583	135.88
349.81	122.88
350.037	136.88
350.265	124.88
350.492	120.88
350.72	112.88
350.947	114.88
351.174	123.88
351.402	112.88
351.629	120.88
351.856	107.88
352.083	117.88
352.311	119.88
352.538	124.88
352.765	125.88
352.992	107.88
353.22	111.88
353.447	118.88
353.674	123.88
353.901	122.88
354.128	115.88
354.355	98.88
354.583	107.88
354.81	106.88
355.037	112.88
355.264	121.88
355.491	98.88
355.718	104.88
355.945	115.88
356.172	108.88
356.399	116.88
356.626	116.88
356.853	123.88
357.08	125.88
357.307	132.88
357.534	106.88
357.761	107.88
357.988	98.88
358.215	126.88
358.441	130.88
358.668	117.88
358.895	130.88
359.122	133.88
359.349	126.88
359.576	122.88
359.802	118.88
360.029	149.88
360.256	135.88
360.483	125.88
360.709	115.88
360.936	122.88
361.163	116.88
361.39	113.88
361.616	108.88
361.843	119.88
362.07	115.88
362.296	101.88
362.523	122.88
362.749	118.88
362.976	110.88
363.203	123.88
363.429	118.88
363.656	113.88
363.882	111.88
364.109	120.88
364.335	115.88
364.562	120.88
364.788	114.88
365.015	112.88
365.241	143.88
365.468	213.88
365.694	269.88
365.92	246.88
366.147	114.88
366.373	103.88
366.599	100.88
366.826	109.88
367.052	110.88
367.278	109.88
367.505	99.88
367.731	106.88
367.957	114.88
368.184	112.88
368.41	120.88
368.636	132.88
368.862	126.88
369.089	106.88
369.315	113.88
369.541	120.88
369.767	110.88
369.993	115.88
370.219	120.88
370.445	105.88
370.672	130.88
370.898	119.88
371.124	104.88
371.35	115.88
371.576	110.88
371.802	118.88
372.028	114.88
372.254	121.88
372.48	129.88
372.706	133.88
372.932	112.88
373.158	102.88
373.384	104.88
373.61	120.88
373.835	117.88
374.061	136.88
374.287	131.88
374.513	111.88
374.739	124.88
374.965	118.88
375.191	110.88
375.416	112.88
375.642	119.88
375.868	134.88
376.094	121.88
376.319	103.88
376.545	120.88
376.771	103.88
376.997	115.88
377.222	105.88
377.448	119.88
377.674	111.88
377.899	110.88
378.125	116.88
378.35	121.88
378.576	125.88
378.802	117.88
379.027	126.88
379.253	140.88
379.478	193.88
379.704	319.88
379.929	814.88
380.155	1683.88
380.38	1652.88
380.606	535.88
380.831	211.88
381.057	150.88
381.282	122.88
381.507	114.88
381.733	111.88
381.958	118.88
382.184	125.88
382.409	126.88
382.634	114.88
382.86	111.88
383.085	103.88
383.31	107.88
383.535	111.88
383.761	107.88
383.986	120.88
384.211	101.88
384.436	102.88
384.662	112.88
384.887	112.88
385.112	111.88
385.337	103.88
385.562	103.88
385.787	112.88
386.013	112.88
386.238	108.88
386.463	107.88
386.688	102.88
386.913	121.88
387.138	110.88
387.363	107.88
387.588	110.88
387.813	102.88
388.038	110.88
388.263	106.88
388.488	101.88
388.713	126.88
388.938	100.88
389.163	103.88
389.387	125.88
389.612	91.88
389.837	110.88
390.062	95.88
390.287	97.88
390.512	112.88
390.736	116.88
390.961	91.88
391.186	117.88
391.411	107.88
391.636	85.88
391.86	95.88
392.085	96.88
392.31	105.88
392.534	114.88
392.759	102.88
392.984	122.88
393.208	116.88
393.433	164.88
393.658	150.88
393.882	104.88
394.107	98.88
394.331	103.88
394.556	99.88
394.78	106.88
395.005	109.88
395.229	104.88
395.454	122.88
395.678	116.88
395.903	116.88
396.127	117.88
396.352	112.88
396.576	116.88
396.801	119.88
397.025	137.88
397.249	120.88
397.474	98.88
397.698	97.88
397.922	114.88
398.147	108.88
398.371	96.88
398.595	112.88
398.82	102.88
399.044	97.88
399.268	100.88
399.492	100.88
399.717	111.88
399.941	95.88
400.165	107.88
400.389	102.88
400.613	90.88
400.837	100.88
401.062	98.88
401.286	103.88
401.51	102.88
401.734	101.88
401.958	98.88
402.182	94.88
402.406	103.88
402.63	98.88
402.854	107.88
403.078	101.88
403.302	109.88
403.526	100.88
403.75	92.88
403.974	99.88
404.198	84.88
404.422	100.88
404.645	93.88
404.869	103.88
405.093	118.88
405.317	116.88
405.541	116.88
405.765	152.88
405.988	171.88
406.212	118.88
406.436	109.88
406.66	102.88
406.883	95.88
407.107	86.88
407.331	96.88
407.555	101.88
407.778	99.88
408.002	98.88
408.226	91.88
408.449	102.88
408.673	106.88
408.896	105.88
409.12	88.88
409.344	100.88
409.567	106.88
409.791	98.88
410.014	95.88
410.238	99.88
410.461	115.88
410.685	101.88
410.908	105.88
411.132	113.88
411.355	96.88
411.578	111.88
411.802	105.88
412.025	93.88
412.249	110.88
412.472	105.88
412.695	99.88
412.919	97.88
413.142	88.88
413.365	114.88
413.589	110.88
413.812	106.88
414.035	109.88
414.258	95.88
414.482	105.88
414.705	113.88
414.928	116.88
415.151	106.88
415.374	104.88
415.597	110.88
415.821	93.88
416.044	113.88
416.267	95.88
416.49	92.88
416.713	112.88
416.936	100.88
417.159	114.88
417.382	103.88
417.605	92.88
417.828	94.88
418.051	103.88
418.274	94.88
418.497	100.88
418.72	110.88
418.943	110.88
419.166	108.88
419.389	121.88
419.611	112.88
419.834	91.88
420.057	97.88
420.28	106.88
420.503	106.88
420.726	103.88
420.948	99.88
421.171	93.88
421.394	89.88
421.617	77.88
421.839	90.88
422.062	88.88
422.285	106.88
422.507	116.88
422.73	134.88
422.953	158.88
423.175	105.88
423.398	88.88
423.621	99.88
423.843	102.88
424.066	79.88
424.288	103.88
424.511	107.88
424.733	90.88
424.956	94.88
425.178	99.88
425.401	89.88
425.623	98.88
425.846	94.88
426.068	103.88
426.291	103.88
426.513	105.88
426.735	89.88
426.958	88.88
427.18	99.88
427.402	100.88
427.625	100.88
427.847	102.88
428.069	83.88
428.292	101.88
428.514	105.88
428.736	88.88
428.958	95.88
429.181	91.88
429.403	99.88
429.625	116.88
429.847	100.88
430.069	111.88
430.292	94.88
430.514	101.88
430.736	113.88
430.958	103.88
431.18	95.88
431.402	89.88
431.624	82.88
431.846	95.88
432.068	91.88
432.29	87.88
432.512	98.88
432.734	87.88
432.956	96.88
433.178	88.88
433.4	97.88
433.622	107.88
433.844	95.88
434.066	94.88
434.287	98.88
434.509	81.88
434.731	97.88
434.953	91.88
435.175	104.88
435.397	89.88
435.618	96.88
435.84	74.88
436.062	82.88
436.284	80.88
436.505	86.88
436.727	80.88
436.949	94.88
437.17	98.88
437.392	109.88
437.614	90.88
437.835	84.88
438.057	100.88
438.278	91.88
438.5	95.88
438.721	106.88
438.943	118.88
439.165	124.88
439.386	91.88
439.608	96.88
439.829	115.88
440.05	113.88
440.272	119.88
440.493	113.88
440.715	94.88
440.936	107.88
441.158	95.88
441.379	104.88
441.6	83.88
441.822	96.88
442.043	118.88
442.264	122.88
442.486	119.88
442.707	104.88
442.928	112.88
443.149	105.88
443.371	106.88
443.592	96.88
443.813	100.88
444.034	95.88
444.255	93.88
444.476	107.88
444.698	107.88
444.919	94.88
445.14	175.88
445.361	139.88
445.582	94.88
445.803	100.88
446.024	100.88
446.245	103.88
446.466	113.88
446.687	115.88
446.908	99.88
447.129	95.88
447.35	98.88
447.571	102.88
447.792	105.88
448.013	98.88
448.234	98.88
448.455	100.88
448.675	108.88
448.896	99.88
449.117	108.88
449.338	129.88
449.559	146.88
449.779	136.88
450	115.88
450.221	115.88
450.442	118.88
450.662	111.88
450.883	96.88
451.104	110.88
451.324	132.88
451.545	119.88
451.766	126.88
451.986	158.88
452.207	210.88
452.428	605.88
452.648	1455.88
452.869	827.88
453.089	207.88
453.31	130.88
453.53	112.88
453.751	137.88
453.971	172.88
454.192	141.88
454.412	112.88
454.633	97.88
454.853	87.88
455.073	95.88
455.294	97.88
455.514	105.88
455.734	105.88
455.955	86.88
456.175	92.88
456.395	100.88
456.616	105.88
456.836	96.88
457.056	100.88
457.276	95.88
457.497	117.88
457.717	130.88
457.937	107.88
458.157	96.88
458.377	100.88
458.598	92.88
458.818	96.88
459.038	86.88
459.258	88.88
459.478	93.88
459.698	90.88
459.918	85.88
460.138	90.88
460.358	95.88
460.578	93.88
460.798	83.88
461.018	88.88
461.238	101.88
461.458	98.88
461.678	104.88
461.898	114.88
462.118	102.88
462.338	107.88
462.558	107.88
462.777	115.88
462.997	102.88
463.217	96.88
463.437	139.88
463.657	189.88
463.876	199.88
464.096	124.88
464.316	116.88
464.536	102.88
464.755	106.88
464.975	106.88
465.195	98.88
465.414	90.88
465.634	86.88
465.854	92.88
466.073	86.88
466.293	113.88
466.512	110.88
466.732	107.88
466.951	120.88
467.171	147.88
467.391	146.88
467.61	116.88
467.829	102.88
468.049	91.88
468.268	92.88
468.488	95.88
468.707	96.88
468.927	95.88
469.146	101.88
469.365	103.88
469.585	83.88
469.804	98.88
470.023	112.88
470.243	111.88
470.462	110.88
470.681	103.88
470.901	126.88
471.12	185.88
471.339	194.88
471.558	152.88
471.777	119.88
471.997	112.88
472.216	107.88
472.435	100.88
472.654	89.88
472.873	93.88
473.092	99.88
473.311	91.88
473.53	82.88
473.749	106.88
473.968	104.88
474.187	90.88
474.406	90.88
474.625	99.88
474.844	108.88
475.063	107.88
475.282	92.88
475.501	102.88
475.72	106.88
475.939	103.88
476.158	82.88
476.377	118.88
476.596	112.88
476.814	104.88
477.033	99.88
477.252	89.88
477.471	103.88
477.69	99.88
477.908	107.88
478.127	105.88
478.346	99.88
478.564	97.88
478.783	91.88
479.002	96.88
479.22	102.88
479.439	102.88
479.658	91.88
479.876	90.88
480.095	91.88
480.313	101.88
480.532	112.88
480.751	93.88
480.969	102.88
481.188	99.88
481.406	103.88
481.624	103.88
481.843	119.88
482.061	100.88
482.28	96.88
482.498	92.88
482.717	99.88
482.935	102.88
483.153	83.88
483.372	100.88
483.59	116.88
483.808	97.88
484.027	107.88
484.245	122.88
484.463	174.88
484.681	219.88
484.9	145.88
485.118	123.88
485.336	108.88
485.554	120.88
485.772	123.88
485.99	190.88
486.209	240.88
486.427	156.88
486.645	121.88
486.863	110.88
487.081	119.88
487.299	100.88
487.517	122.88
487.735	89.88
487.953	109.88
488.171	102.88
488.389	110.88
488.607	93.88
488.825	91.88
489.043	107.88
489.261	98.88
489.479	99.88
489.696	105.88
489.914	93.88
490.132	109.88
490.35	94.88
490.568	94.88
490.786	107.88
491.003	115.88
491.221	107.88
491.439	115.88
491.657	103.88
491.874	123.88
492.092	111.88
492.31	117.88
492.527	91.88
492.745	102.88
492.963	112.88
493.18	115.88
493.398	96.88
493.615	123.88
493.833	99.88
494.05	104.88
494.268	102.88
494.485	99.88
494.703	105.88
494.92	105.88
495.138	115.88
495.355	91.88
495.573	110.88
495.79	111.88
496.008	123.88
496.225	104.88
496.442	99.88
496.66	119.88
496.877	163.88
497.094	142.88
497.312	121.88
497.529	105.88
497.746	100.88
497.963	106.88
498.181	101.88
498.398	99.88
498.615	104.88
498.832	104.88
499.049	97.88
499.267	143.88
499.484	174.88
499.701	102.88
499.918	116.88
500.135	95.88
500.352	109.88
500.569	94.88
500.786	110.88
501.003	90.88
501.22	96.88
501.437	101.88
501.654	103.88
501.871	110.88
502.088	96.88
502.305	99.88
502.522	101.88
502.739	87.88
502.956	94.88
503.172	105.88
503.389	91.88
503.606	101.88
503.823	107.88
504.04	97.88
504.256	106.88
504.473	109.88
504.69	104.88
504.907	126.88
505.123	126.88
505.34	101.88
505.557	112.88
505.773	112.88
505.99	106.88
506.207	94.88
506.423	115.88
506.64	114.88
506.856	98.88
507.073	93.88
507.289	100.88
507.506	87.88
507.722	101.88
507.939	105.88
508.155	102.88
508.372	102.88
508.588	94.88
508.805	98.88
509.021	98.88
509.238	114.88
509.454	133.88
509.67	154.88
509.887	117.88
510.103	112.88
510.319	114.88
510.536	119.88
510.752	114.88
510.968	98.88
511.184	107.88
511.401	102.88
511.617	108.88
511.833	107.88
512.049	107.88
512.265	106.88
512.481	106.88
512.698	95.88
512.914	94.88
513.13	104.88
513.346	86.88
513.562	97.88
513.778	103.88
513.994	102.88
514.21	116.88
514.426	155.88
514.642	194.88
514.858	106.88
515.074	100.88
515.29	109.88
515.506	102.88
515.721	107.88
515.937	98.88
516.153	94.88
516.369	98.88
516.585	110.88
516.801	91.88
517.016	101.88
517.232	95.88
517.448	89.88
517.664	92.88
517.879	111.88
518.095	111.88
518.311	98.88
518.527	111.88
518.742	104.88
518.958	124.88
519.173	167.88
519.389	128.88
519.605	106.88
519.82	89.88
520.036	96.88
520.251	114.88
520.467	99.88
520.682	98.88
520.898	94.88
521.113	98.88
521.329	92.88
521.544	101.88
521.76	101.88
521.975	105.88
522.19	112.88
522.406	105.88
522.621	82.88
522.836	114.88
523.052	106.88
523.267	96.88
523.482	94.88
523.698	95.88
523.913	113.88
524.128	83.88
524.343	85.88
524.559	101.88
524.774	85.88
524.989	104.88
525.204	116.88
525.419	105.88
525.634	102.88
525.849	99.88
526.064	94.88
526.28	122.88
526.495	98.88
526.71	94.88
526.925	94.88
527.14	101.88
527.355	101.88
527.57	104.88
527.785	85.88
527.999	102.88
528.214	106.88
528.429	102.88
528.644	95.88
528.859	87.88
529.074	99.88
529.289	95.88
529.503	101.88
529.718	99.88
529.933	91.88
530.148	100.88
530.363	101.88
530.577	101.88
530.792	100.88
531.007	98.88
531.221	104.88
531.436	96.88
531.651	114.88
531.865	84.88
532.08	107.88
532.295	105.88
532.509	132.88
532.724	126.88
532.938	88.88
533.153	105.88
533.367	98.88
533.582	98.88
533.796	95.88
534.011	110.88
534.225	94.88
534.44	95.88
534.654	107.88
534.868	95.88
535.083	90.88
535.297	108.88
535.511	110.88
535.726	91.88
535.94	110.88
536.154	98.88
536.369	106.88
536.583	120.88
536.797	98.88
537.011	96.88
537.225	84.88
537.44	102.88
537.654	95.88
537.868	96.88
538.082	106.88
538.296	97.88
538.51	91.88
538.724	100.88
538.938	99.88
539.153	114.88
539.367	92.88
539.581	87.88
539.795	96.88
540.009	87.88
540.222	104.88
540.436	110.88
540.65	89.88
540.864	100.88
541.078	111.88
541.292	128.88
541.506	195.88
541.72	205.88
541.934	138.88
542.147	115.88
542.361	99.88
542.575	120.88
542.789	112.88
543.002	118.88
543.216	110.88
543.43	106.88
543.644	110.88
543.857	112.88
544.071	104.88
544.285	116.88
544.498	102.88
544.712	95.88
544.925	92.88
545.139	122.88
545.352	118.88
545.566	107.88
545.779	107.88
545.993	101.88
546.206	95.88
546.42	107.88
546.633	111.88
546.847	96.88
547.06	99.88
547.274	101.88
547.487	110.88
547.7	115.88
547.914	122.88
548.127	117.88
548.34	104.88
548.554	105.88
548.767	99.88
548.98	100.88
549.193	107.88
549.407	106.88
549.62	102.88
549.833	82.88
550.046	93.88
550.259	97.88
550.473	106.88
550.686	98.88
550.899	118.88
551.112	98.88
551.325	96.88
551.538	96.88
551.751	102.88
551.964	122.88
552.177	101.88
552.39	91.88
552.603	114.88
552.816	111.88
553.029	108.88
553.242	107.88
553.455	107.88
553.667	95.88
553.88	96.88
554.093	118.88
554.306	114.88
554.519	94.88
554.732	104.88
554.944	106.88
555.157	104.88
555.37	110.88
555.583	111.88
555.795	102.88
556.008	121.88
556.221	158.88
556.433	121.88
556.646	113.88
556.859	103.88
557.071	120.88
557.284	122.88
557.496	117.88
557.709	111.88
557.921	125.88
558.134	119.88
558.346	105.88
558.559	100.88
558.771	102.88
558.984	111.88
559.196	111.88
559.409	100.88
559.621	102.88
559.833	98.88
560.046	112.88
560.258	115.88
560.47	96.88
560.683	114.88
560.895	107.88
561.107	114.88
561.32	98.88
561.532	102.88
561.744	112.88
561.956	86.88
562.168	98.88
562.381	114.88
562.593	112.88
562.805	157.88
563.017	206.88
563.229	303.88
563.441	695.88
563.653	226.88
563.865	110.88
564.077	100.88
564.289	99.88
564.501	105.88
564.713	99.88
564.925	102.88
565.137	91.88
565.349	91.88
565.561	105.88
565.773	89.88
565.985	103.88
566.197	98.88
566.408	92.88
566.62	111.88
566.832	99.88
567.044	94.88
567.255	100.88
567.467	119.88
567.679	97.88
567.891	110.88
568.102	178.88
568.314	230.88
568.526	157.88
568.737	128.88
568.949	115.88
569.161	103.88
569.372	96.88
569.584	112.88
569.795	105.88
570.007	112.88
570.218	134.88
570.43	160.88
570.641	115.88
570.853	107.88
571.064	100.88
571.276	88.88
571.487	94.88
571.698	94.88
571.91	101.88
572.121	99.88
572.333	101.88
572.544	118.88
572.755	148.88
572.966	199.88
573.178	120.88
573.389	91.88
573.6	87.88
573.811	103.88
574.023	101.88
574.234	93.88
574.445	81.88
574.656	110.88
574.867	106.88
575.078	91.88
575.289	108.88
575.501	96.88
575.712	102.88
575.923	96.88
576.134	97.88
576.345	94.88
576.556	111.88
576.767	107.88
576.978	98.88
577.188	92.88
577.399	81.88
577.61	99.88
577.821	84.88
578.032	93.88
578.243	90.88
578.454	115.88
578.665	91.88
578.875	85.88
579.086	99.88
579.297	89.88
579.508	89.88
579.718	90.88
579.929	84.88
580.14	97.88
580.35	99.88
580.561	90.88
580.772	99.88
580.982	99.88
581.193	103.88
581.403	102.88
581.614	101.88
581.825	97.88
582.035	84.88
582.246	92.88
582.456	99.88
582.667	104.88
582.877	115.88
583.087	127.88
583.298	101.88
583.508	85.88
583.719	93.88
583.929	100.88
584.139	86.88
584.35	95.88
584.56	88.88
584.77	80.88
584.981	103.88
585.191	91.88
585.401	117.88
585.611	91.88
585.821	92.88
586.032	100.88
586.242	87.88
586.452	95.88
586.662	103.88
586.872	85.88
587.082	96.88
587.292	97.88
587.502	95.88
587.713	117.88
587.923	106.88
588.133	84.88
588.343	91.88
588.553	94.88
588.762	102.88
588.972	105.88
589.182	148.88
589.392	111.88
589.602	102.88
589.812	113.88
590.022	115.88
590.232	82.88
590.441	97.88
590.651	89.88
590.861	90.88
591.071	105.88
591.281	115.88
591.49	88.88
591.7	96.88
591.91	104.88
592.119	85.88
592.329	87.88
592.539	94.88
592.748	98.88
592.958	103.88
593.167	99.88
593.377	93.88
593.587	111.88
593.796	105.88
594.006	98.88
594.215	91.88
594.424	106.88
594.634	101.88
594.843	88.88
595.053	99.88
595.262	98.88
595.472	86.88
595.681	104.88
595.89	81.88
596.1	99.88
596.309	89.88
596.518	93.88
596.727	112.88
596.937	105.88
597.146	111.88
597.355	106.88
597.564	111.88
597.774	90.88
597.983	90.88
598.192	102.88
598.401	100.88
598.61	100.88
598.819	94.88
599.028	103.88
599.237	88.88
599.446	88.88
599.655	83.88
599.864	79.88
600.073	90.88
600.282	91.88
600.491	79.88
600.7	80.88
600.909	97.88
601.118	91.88
601.327	87.88
601.536	94.88
601.745	105.88
601.953	135.88
602.162	155.88
602.371	119.88
602.58	106.88
602.789	89.88
602.997	86.88
603.206	92.88
603.415	102.88
603.623	101.88
603.832	106.88
604.041	113.88
604.249	108.88
604.458	100.88
604.666	86.88
604.875	99.88
605.084	91.88
605.292	97.88
605.501	87.88
605.709	110.88
605.918	114.88
606.126	96.88
606.334	102.88
606.543	106.88
606.751	145.88
606.96	162.88
607.168	149.88
607.376	106.88
607.585	109.88
607.793	109.88
608.001	95.88
608.21	86.88
608.418	79.88
608.626	95.88
608.834	97.88
609.043	82.88
609.251	107.88
609.459	96.88
609.667	111.88
609.875	87.88
610.083	95.88
610.291	99.88
610.499	102.88
610.707	96.88
610.916	85.88
611.124	99.88
611.332	81.88
611.54	95.88
611.748	89.88
611.955	100.88
612.163	92.88
612.371	95.88
612.579	88.88
612.787	86.88
612.995	87.88
613.203	98.88
613.411	101.88
613.618	88.88
613.826	104.88
614.034	98.88
614.242	96.88
614.449	96.88
614.657	112.88
614.865	97.88
615.072	114.88
615.28	128.88
615.488	110.88
615.695	110.88
615.903	110.88
616.111	91.88
616.318	98.88
616.526	110.88
616.733	110.88
616.941	92.88
617.148	104.88
617.356	106.88
617.563	95.88
617.771	91.88
617.978	94.88
618.185	95.88
618.393	73.88
618.6	101.88
618.807	102.88
619.015	96.88
619.222	95.88
619.429	98.88
619.637	91.88
619.844	80.88
620.051	95.88
620.258	97.88
620.466	85.88
620.673	89.88
620.88	83.88
621.087	103.88
621.294	100.88
621.501	92.88
621.708	97.88
621.915	89.88
622.122	97.88
622.329	87.88
622.536	97.88
622.743	105.88
622.95	106.88
623.157	89.88
623.364	105.88
623.571	85.88
623.778	95.88
623.985	83.88
624.192	84.88
624.399	87.88
624.606	99.88
624.812	87.88
625.019	100.88
625.226	85.88
625.433	92.88
625.639	71.88
625.846	94.88
626.053	92.88
626.259	95.88
626.466	101.88
626.673	93.88
626.879	93.88
627.086	91.88
627.293	82.88
627.499	92.88
627.706	87.88
627.912	96.88
628.119	93.88
628.325	92.88
628.532	107.88
628.738	87.88
628.945	86.88
629.151	91.88
629.357	91.88
629.564	96.88
629.77	95.88
629.976	81.88
630.183	95.88
630.389	90.88
630.595	92.88
630.802	102.88
631.008	94.88
631.214	100.88
631.42	90.88
631.627	89.88
631.833	105.88
632.039	82.88
632.245	98.88
632.451	85.88
632.657	91.88
632.863	81.88
633.069	88.88
633.275	91.88
633.481	84.88
633.688	96.88
633.893	85.88
634.099	87.88
634.305	84.88
634.511	96.88
634.717	100.88
634.923	100.88
635.129	116.88
635.335	118.88
635.541	110.88
635.747	102.88
635.952	87.88
636.158	78.88
636.364	81.88
636.57	84.88
636.775	90.88
636.981	96.88
637.187	94.88
637.392	89.88
637.598	103.88
637.804	89.88
638.009	78.88
638.215	88.88
638.421	91.88
638.626	75.88
638.832	81.88
639.037	82.88
639.243	103.88
639.448	100.88
639.654	92.88
639.859	95.88
640.065	91.88
640.27	94.88
640.475	87.88
640.681	101.88
640.886	93.88
641.091	82.88
641.297	92.88
641.502	92.88
641.707	76.88
641.913	76.88
642.118	90.88
642.323	90.88
642.528	87.88
642.733	84.88
642.939	87.88
643.144	102.88
643.349	79.88
643.554	82.88
643.759	87.88
643.964	87.88
644.169	83.88
644.374	84.88
644.579	88.88
644.784	95.88
644.989	81.88
645.194	99.88
645.399	104.88
645.604	100.88
645.809	89.88
646.014	82.88
646.219	93.88
646.423	85.88
646.628	92.88
646.833	99.88
647.038	100.88
647.243	64.88
647.447	70.88
647.652	75.88
647.857	81.88
648.062	92.88
648.266	96.88
648.471	94.88
648.676	74.88
648.88	84.88
649.085	91.88
649.289	97.88
649.494	90.88
649.698	75.88
649.903	96.88
650.107	90.88
650.312	92.88
650.516	86.88
650.721	87.88
650.925	84.88
651.13	88.88
651.334	86.88
651.539	75.88
651.743	84.88
651.947	90.88
652.152	98.88
652.356	74.88
652.56	94.88
652.764	104.88
652.969	105.88
653.173	89.88
653.377	79.88
653.581	88.88
653.785	94.88
653.99	84.88
654.194	78.88
654.398	95.88
654.602	58.88
654.806	73.88
655.01	86.88
655.214	91.88
655.418	89.88
655.622	87.88
655.826	90.88
656.03	96.88
656.234	95.88
656.438	87.88
656.642	82.88
656.846	82.88
657.049	80.88
657.253	97.88
657.457	83.88
657.661	73.88
657.865	75.88
658.068	86.88
658.272	73.88
658.476	70.88
658.68	74.88
658.883	78.88
659.087	86.88
659.291	90.88
659.494	74.88
659.698	84.88
659.901	90.88
660.105	77.88
660.309	87.88
660.512	83.88
660.716	87.88
660.919	87.88
661.123	94.88
661.326	77.88
661.53	74.88
661.733	77.88
661.936	91.88
662.14	87.88
662.343	91.88
662.546	75.88
662.75	78.88
662.953	79.88
663.156	80.88
663.36	93.88
663.563	81.88
663.766	74.88
663.969	78.88
664.173	73.88
664.376	71.88
664.579	77.88
664.782	73.88
664.985	64.88
665.188	66.88
665.391	75.88
665.594	83.88
665.797	77.88
666	89.88
666.203	79.88
666.406	87.88
666.609	82.88
666.812	73.88
667.015	84.88
667.218	79.88
667.421	84.88
667.624	70.88
667.827	80.88
668.03	79.88
668.232	83.88
668.435	86.88
668.638	83.88
668.841	90.88
669.043	74.88
669.246	90.88
669.449	87.88
669.651	78.88
669.854	90.88
670.057	91.88
670.259	87.88
670.462	81.88
670.665	88.88
670.867	88.88
671.07	78.88
671.272	87.88
671.475	95.88
671.677	79.88
671.88	81.88
672.082	91.88
672.284	79.88
672.487	86.88
672.689	84.88
672.892	77.88
