Data from SnStandardFlinnAPT0064_LampEnergy10_LIBS07252019.E.O._I.C._HRD10591_15-20-03-493.txt Node
Date: Thu Jul 25 15:20:03 EDT 2019
User: cochatt
Spectrometer: HR+D1059
Trigger mode: 1
Integration Time (sec): 1.000000E-1
Scans to average: 1
Electric dark correction enabled: true
Nonlinearity correction enabled: false
Boxcar width: 0
XAxis mode: Wavelengths
Number of Pixels in Spectrum: 2048
>>>>>Begin Spectral Data<<<<<
223.165	-10.94
223.4	-10.94
223.635	-10.94
223.869	-17.94
224.104	-13.94
224.338	-2.94
224.573	-13.94
224.808	-14.94
225.042	-9.94
225.277	-14.94
225.511	-12.94
225.746	1.06
225.98	15.06
226.215	3.06
226.449	27.06
226.683	25.06
226.918	24.06
227.152	17.06
227.387	50.06
227.621	39.06
227.856	41.06
228.09	45.06
228.324	36.06
228.559	51.06
228.793	119.06
229.027	307.06
229.262	343.06
229.496	323.06
229.73	291.06
229.964	306.06
230.199	319.06
230.433	312.06
230.667	297.06
230.901	315.06
231.136	327.06
231.37	350.06
231.604	389.06
231.838	444.06
232.072	539.06
232.306	589.06
232.541	467.06
232.775	420.06
233.009	431.06
233.243	439.06
233.477	448.06
233.711	551.06
233.945	608.06
234.179	519.06
234.413	475.06
234.647	445.06
234.881	485.06
235.115	535.06
235.349	623.06
235.583	788.06
235.817	1001.06
236.051	977.06
236.285	651.06
236.519	547.06
236.753	522.06
236.987	517.06
237.221	541.06
237.455	518.06
237.689	463.06
237.922	471.06
238.156	476.06
238.39	489.06
238.624	514.06
238.858	489.06
239.091	497.06
239.325	502.06
239.559	489.06
239.793	508.06
240.027	521.06
240.26	554.06
240.494	585.06
240.728	594.06
240.961	635.06
241.195	673.06
241.429	687.06
241.662	731.06
241.896	802.06
242.13	981.06
242.363	1265.06
242.597	1587.06
242.83	1539.06
243.064	1559.06
243.298	1795.06
243.531	1481.06
243.765	969.06
243.998	812.06
244.232	714.06
244.465	679.06
244.699	668.06
244.932	680.06
245.166	662.06
245.399	679.06
245.633	700.06
245.866	691.06
246.099	673.06
246.333	675.06
246.566	647.06
246.8	643.06
247.033	664.06
247.266	659.06
247.5	666.06
247.733	674.06
247.966	712.06
248.2	776.06
248.433	884.06
248.666	1027.06
248.899	966.06
249.133	869.06
249.366	906.06
249.599	964.06
249.832	1128.06
250.066	1091.06
250.299	868.06
250.532	772.06
250.765	744.06
250.998	746.06
251.231	738.06
251.465	735.06
251.698	723.06
251.931	756.06
252.164	724.06
252.397	769.06
252.63	803.06
252.863	811.06
253.096	818.06
253.329	775.06
253.562	796.06
253.795	802.06
254.028	807.06
254.261	838.06
254.494	908.06
254.727	1043.06
254.96	1214.06
255.193	1221.06
255.426	983.06
255.659	884.06
255.892	876.06
256.124	863.06
256.357	913.06
256.59	906.06
256.823	1003.06
257.056	1126.06
257.289	1356.06
257.521	1547.06
257.754	1213.06
257.987	997.06
258.22	946.06
258.452	937.06
258.685	909.06
258.918	957.06
259.151	1030.06
259.383	1080.06
259.616	1234.06
259.849	1269.06
260.081	1095.06
260.314	1028.06
260.547	971.06
260.779	945.06
261.012	964.06
261.244	970.06
261.477	960.06
261.71	993.06
261.942	994.06
262.175	1020.06
262.407	1041.06
262.64	1067.06
262.872	1074.06
263.105	1123.06
263.337	1222.06
263.57	1267.06
263.802	1271.06
264.035	1286.06
264.267	1314.06
264.499	1348.06
264.732	1400.06
264.964	1431.06
265.197	1421.06
265.429	1445.06
265.661	1472.06
265.894	1535.06
266.126	1730.06
266.358	1974.06
266.591	1929.06
266.823	1651.06
267.055	1445.06
267.287	1378.06
267.52	1320.06
267.752	1307.06
267.984	1267.06
268.216	1260.06
268.448	1238.06
268.681	1252.06
268.913	1194.06
269.145	1261.06
269.377	1220.06
269.609	1233.06
269.841	1311.06
270.073	1380.06
270.306	1633.06
270.538	2157.06
270.77	3199.06
271.002	3914.06
271.234	2847.06
271.466	1949.06
271.698	1589.06
271.93	1445.06
272.162	1350.06
272.394	1299.06
272.626	1260.06
272.858	1253.06
273.09	1244.06
273.322	1243.06
273.553	1195.06
273.785	1209.06
274.017	1235.06
274.249	1216.06
274.481	1227.06
274.713	1216.06
274.945	1200.06
275.176	1204.06
275.408	1193.06
275.64	1216.06
275.872	1238.06
276.104	1263.06
276.335	1248.06
276.567	1293.06
276.799	1282.06
277.031	1297.06
277.262	1354.06
277.494	1444.06
277.726	1588.06
277.957	1866.06
278.189	2123.06
278.421	1986.06
278.652	1768.06
278.884	1667.06
279.115	1496.06
279.347	1443.06
279.579	1413.06
279.81	1449.06
280.042	1397.06
280.273	1439.06
280.505	1443.06
280.736	1511.06
280.968	1597.06
281.199	1830.06
281.431	2047.06
281.662	2139.06
281.894	1844.06
282.125	1661.06
282.356	1647.06
282.588	1686.06
282.819	1725.06
283.051	1868.06
283.282	2058.06
283.513	2487.06
283.745	3579.06
283.976	5663.06
284.207	7922.06
284.439	7200.06
284.67	4652.06
284.901	3850.06
285.132	3849.06
285.364	3643.06
285.595	2783.06
285.826	2473.06
286.057	2865.06
286.288	3873.06
286.52	5163.06
286.751	4859.06
286.982	3111.06
287.213	2383.06
287.444	2026.06
287.675	1873.06
287.906	1787.06
288.138	1775.06
288.369	1734.06
288.6	1709.06
288.831	1713.06
289.062	1673.06
289.293	1727.06
289.524	1727.06
289.755	1716.06
289.986	1714.06
290.217	1747.06
290.448	1690.06
290.679	1759.06
290.91	1786.06
291.141	1865.06
291.371	2055.06
291.602	2136.06
291.833	1980.06
292.064	1756.06
292.295	1697.06
292.526	1667.06
292.757	1643.06
292.987	1626.06
293.218	1635.06
293.449	1619.06
293.68	1618.06
293.91	1610.06
294.141	1598.06
294.372	1539.06
294.603	1580.06
294.833	1599.06
295.064	1597.06
295.295	1588.06
295.525	1580.06
295.756	1559.06
295.987	1557.06
296.217	1604.06
296.448	1589.06
296.679	1601.06
296.909	1606.06
297.14	1615.06
297.37	1627.06
297.601	1664.06
297.831	1622.06
298.062	1621.06
298.292	1665.06
298.523	1680.06
298.753	1719.06
298.984	1704.06
299.214	1756.06
299.445	1807.06
299.675	1809.06
299.905	1894.06
300.136	1947.06
300.366	2153.06
300.597	2753.06
300.827	3840.06
301.057	5187.06
301.288	5262.06
301.518	3461.06
301.748	2653.06
301.979	2426.06
302.209	2298.06
302.439	2359.06
302.669	2503.06
302.9	2952.06
303.13	4186.06
303.36	6178.06
303.59	8128.06
303.82	7206.06
304.051	4331.06
304.281	3091.06
304.511	2591.06
304.741	2388.06
304.971	2273.06
305.201	2122.06
305.431	2008.06
305.661	1967.06
305.891	1955.06
306.121	1901.06
306.352	1897.06
306.582	1904.06
306.812	1844.06
307.042	1865.06
307.272	1820.06
307.502	1824.06
307.731	1819.06
307.961	1806.06
308.191	1834.06
308.421	1812.06
308.651	1844.06
308.881	1818.06
309.111	1814.06
309.341	1827.06
309.571	1843.06
309.8	1865.06
310.03	1888.06
310.26	1888.06
310.49	1851.06
310.72	1882.06
310.949	1874.06
311.179	1890.06
311.409	1895.06
311.639	1915.06
311.868	1941.06
312.098	1960.06
312.328	1977.06
312.557	1975.06
312.787	1937.06
313.017	2006.06
313.246	2012.06
313.476	2024.06
313.706	2077.06
313.935	2243.06
314.165	2379.06
314.394	2537.06
314.624	2421.06
314.853	2201.06
315.083	2193.06
315.312	2202.06
315.542	2264.06
315.771	2168.06
316.001	2273.06
316.23	2384.06
316.46	2457.06
316.689	2690.06
316.919	3207.06
317.148	4667.06
317.377	7018.06
317.607	10265.06
317.836	10758.06
318.065	6771.06
318.295	4424.06
318.524	3519.06
318.753	3058.06
318.983	2821.06
319.212	2631.06
319.441	2525.06
319.67	2503.06
319.9	2418.06
320.129	2407.06
320.358	2396.06
320.587	2418.06
320.816	2363.06
321.046	2372.06
321.275	2339.06
321.504	2396.06
321.733	2455.06
321.962	2511.06
322.191	2541.06
322.42	2514.06
322.649	2500.06
322.878	2473.06
323.108	2479.06
323.337	2528.06
323.566	2599.06
323.795	2605.06
324.024	2677.06
324.253	2760.06
324.482	2809.06
324.71	3039.06
324.939	3192.06
325.168	3387.06
325.397	3475.06
325.626	4084.06
325.855	5562.06
326.084	8668.06
326.313	12563.06
326.542	13245.06
326.77	9235.06
326.999	6181.06
327.228	5153.06
327.457	4904.06
327.686	4916.06
327.914	5211.06
328.143	6044.06
328.372	7167.06
328.6	7851.06
328.829	7073.06
329.058	5910.06
329.287	5209.06
329.515	4659.06
329.744	4347.06
329.972	4151.06
330.201	3898.06
330.43	3746.06
330.658	3648.06
330.887	3613.06
331.115	3499.06
331.344	3541.06
331.572	3505.06
331.801	3508.06
332.03	3478.06
332.258	3611.06
332.486	3833.06
332.715	4290.06
332.943	5370.06
333.172	6641.06
333.4	6590.06
333.629	5095.06
333.857	4527.06
334.085	4603.06
334.314	4814.06
334.542	5186.06
334.771	6063.06
334.999	7363.06
335.227	9355.06
335.455	10377.06
335.684	9509.06
335.912	7865.06
336.14	6583.06
336.369	5764.06
336.597	5302.06
336.825	4902.06
337.053	4610.06
337.281	4309.06
337.51	4023.06
337.738	3917.06
337.966	3767.06
338.194	3628.06
338.422	3540.06
338.65	3379.06
338.878	3369.06
339.106	3256.06
339.334	3227.06
339.562	3199.06
339.79	3114.06
340.018	3083.06
340.246	3042.06
340.474	3028.06
340.702	2998.06
340.93	2994.06
341.158	3036.06
341.386	2976.06
341.614	2972.06
341.842	2905.06
342.07	2862.06
342.298	2868.06
342.526	2812.06
342.754	2713.06
342.981	2682.06
343.209	2753.06
343.437	2783.06
343.665	2783.06
343.893	2851.06
344.12	2814.06
344.348	2807.06
344.576	2775.06
344.804	2700.06
345.031	2617.06
345.259	2658.06
345.487	2619.06
345.714	2609.06
345.942	2606.06
346.17	2569.06
346.397	2551.06
346.625	2537.06
346.853	2547.06
347.08	2481.06
347.308	2514.06
347.535	2516.06
347.763	2527.06
347.99	2523.06
348.218	2510.06
348.445	2453.06
348.673	2460.06
348.9	2432.06
349.128	2456.06
349.355	2492.06
349.583	2384.06
349.81	2406.06
350.037	2419.06
350.265	2439.06
350.492	2409.06
350.72	2412.06
350.947	2423.06
351.174	2425.06
351.402	2417.06
351.629	2392.06
351.856	2408.06
352.083	2419.06
352.311	2381.06
352.538	2325.06
352.765	2375.06
352.992	2357.06
353.22	2385.06
353.447	2336.06
353.674	2361.06
353.901	2380.06
354.128	2388.06
354.355	2403.06
354.583	2383.06
354.81	2425.06
355.037	2442.06
355.264	2435.06
355.491	2424.06
355.718	2465.06
355.945	2475.06
356.172	2453.06
356.399	2463.06
356.626	2476.06
356.853	2502.06
357.08	2476.06
357.307	2496.06
357.534	2607.06
357.761	2621.06
357.988	2604.06
358.215	2555.06
358.441	2547.06
358.668	2564.06
358.895	2569.06
359.122	2529.06
359.349	2587.06
359.576	2591.06
359.802	2546.06
360.029	2475.06
360.256	2538.06
360.483	2587.06
360.709	2594.06
360.936	2591.06
361.163	2573.06
361.39	2581.06
361.616	2576.06
361.843	2601.06
362.07	2559.06
362.296	2551.06
362.523	2549.06
362.749	2554.06
362.976	2572.06
363.203	2510.06
363.429	2531.06
363.656	2550.06
363.882	2485.06
364.109	2543.06
364.335	2523.06
364.562	2528.06
364.788	2563.06
365.015	2583.06
365.241	2675.06
365.468	2813.06
365.694	2934.06
365.92	2831.06
366.147	2635.06
366.373	2589.06
366.599	2609.06
366.826	2566.06
367.052	2592.06
367.278	2637.06
367.505	2637.06
367.731	2617.06
367.957	2592.06
368.184	2589.06
368.41	2730.06
368.636	2691.06
368.862	2649.06
369.089	2662.06
369.315	2648.06
369.541	2618.06
369.767	2655.06
369.993	2561.06
370.219	2591.06
370.445	2637.06
370.672	2701.06
370.898	2668.06
371.124	2722.06
371.35	2711.06
371.576	2733.06
371.802	2709.06
372.028	2754.06
372.254	2760.06
372.48	2746.06
372.706	2776.06
372.932	2759.06
373.158	2768.06
373.384	2796.06
373.61	2767.06
373.835	2796.06
374.061	2770.06
374.287	2827.06
374.513	2809.06
374.739	2896.06
374.965	2868.06
375.191	2929.06
375.416	2876.06
375.642	2830.06
375.868	2873.06
376.094	2822.06
376.319	2759.06
376.545	2698.06
376.771	2753.06
376.997	2743.06
377.222	2777.06
377.448	2694.06
377.674	2725.06
377.899	2705.06
378.125	2739.06
378.35	2693.06
378.576	2696.06
378.802	2734.06
379.027	2788.06
379.253	2907.06
379.478	3075.06
379.704	3580.06
379.929	5073.06
380.155	7857.06
380.38	8677.06
380.606	5369.06
380.831	3749.06
381.057	3207.06
381.282	3023.06
381.507	2890.06
381.733	2823.06
381.958	2778.06
382.184	2723.06
382.409	2715.06
382.634	2669.06
382.86	2697.06
383.085	2715.06
383.31	2678.06
383.535	2675.06
383.761	2675.06
383.986	2716.06
384.211	2779.06
384.436	2746.06
384.662	2745.06
384.887	2779.06
385.112	2758.06
385.337	2770.06
385.562	2836.06
385.787	2799.06
386.013	2795.06
386.238	2769.06
386.463	2789.06
386.688	2785.06
386.913	2748.06
387.138	2792.06
387.363	2748.06
387.588	2725.06
387.813	2764.06
388.038	2769.06
388.263	2701.06
388.488	2779.06
388.713	2761.06
388.938	2735.06
389.163	2693.06
389.387	2721.06
389.612	2708.06
389.837	2725.06
390.062	2749.06
390.287	2837.06
390.512	2821.06
390.736	2855.06
390.961	2855.06
391.186	2866.06
391.411	2907.06
391.636	2867.06
391.86	2931.06
392.085	2912.06
392.31	2893.06
392.534	2876.06
392.759	2889.06
392.984	2890.06
393.208	2843.06
393.433	2875.06
393.658	2839.06
393.882	2786.06
394.107	2830.06
394.331	2776.06
394.556	2793.06
394.78	2824.06
395.005	2847.06
395.229	2828.06
395.454	2882.06
395.678	2825.06
395.903	2872.06
396.127	2947.06
396.352	2829.06
396.576	2839.06
396.801	2863.06
397.025	2912.06
397.249	2911.06
397.474	2940.06
397.698	2922.06
397.922	2959.06
398.147	2891.06
398.371	2982.06
398.595	3001.06
398.82	3067.06
399.044	3246.06
399.268	3317.06
399.492	3543.06
399.717	3587.06
399.941	3629.06
400.165	3503.06
400.389	3353.06
400.613	3253.06
400.837	3138.06
401.062	3085.06
401.286	3069.06
401.51	3041.06
401.734	3006.06
401.958	3100.06
402.182	3091.06
402.406	3001.06
402.63	3029.06
402.854	3103.06
403.078	3123.06
403.302	3139.06
403.526	3126.06
403.75	3156.06
403.974	3135.06
404.198	3137.06
404.422	3163.06
404.645	3228.06
404.869	3200.06
405.093	3195.06
405.317	3155.06
405.541	3231.06
405.765	3204.06
405.988	3261.06
406.212	3315.06
406.436	3269.06
406.66	3343.06
406.883	3255.06
407.107	3354.06
407.331	3410.06
407.555	3473.06
407.778	3497.06
408.002	3394.06
408.226	3430.06
408.449	3409.06
408.673	3313.06
408.896	3241.06
409.12	3241.06
409.344	3233.06
409.567	3140.06
409.791	3185.06
410.014	3186.06
410.238	3191.06
410.461	3145.06
410.685	3152.06
410.908	3036.06
411.132	3082.06
411.355	3027.06
411.578	3041.06
411.802	3047.06
412.025	3039.06
412.249	3089.06
412.472	3034.06
412.695	3057.06
412.919	2943.06
413.142	2967.06
413.365	3013.06
413.589	2980.06
413.812	2951.06
414.035	3004.06
414.258	3003.06
414.482	3018.06
414.705	3029.06
414.928	3057.06
415.151	2977.06
415.374	3021.06
415.597	2964.06
415.821	2893.06
416.044	2865.06
416.267	2897.06
416.49	2870.06
416.713	2854.06
416.936	2932.06
417.159	2799.06
417.382	2781.06
417.605	2791.06
417.828	2865.06
418.051	2866.06
418.274	2922.06
418.497	2918.06
418.72	2975.06
418.943	2900.06
419.166	3060.06
419.389	3206.06
419.611	3127.06
419.834	3035.06
420.057	2942.06
420.28	2917.06
420.503	2891.06
420.726	2903.06
420.948	2826.06
421.171	2872.06
421.394	2911.06
421.617	2871.06
421.839	2835.06
422.062	2912.06
422.285	2851.06
422.507	2903.06
422.73	2921.06
422.953	2941.06
423.175	2983.06
423.398	2940.06
423.621	2868.06
423.843	2906.06
424.066	2892.06
424.288	2813.06
424.511	2880.06
424.733	2901.06
424.956	2831.06
425.178	2843.06
425.401	2825.06
425.623	2785.06
425.846	2804.06
426.068	2752.06
426.291	2738.06
426.513	2754.06
426.735	2737.06
426.958	2744.06
427.18	2715.06
427.402	2714.06
427.625	2751.06
427.847	2697.06
428.069	2674.06
428.292	2696.06
428.514	2679.06
428.736	2621.06
428.958	2670.06
429.181	2620.06
429.403	2641.06
429.625	2639.06
429.847	2672.06
430.069	2682.06
430.292	2795.06
430.514	2842.06
430.736	2856.06
430.958	2713.06
431.18	2661.06
431.402	2680.06
431.624	2607.06
431.846	2607.06
432.068	2585.06
432.29	2670.06
432.512	2627.06
432.734	2632.06
432.956	2601.06
433.178	2632.06
433.4	2679.06
433.622	2668.06
433.844	2650.06
434.066	2650.06
434.287	2656.06
434.509	2697.06
434.731	2685.06
434.953	2723.06
435.175	2753.06
435.397	2788.06
435.618	2665.06
435.84	2648.06
436.062	2632.06
436.284	2629.06
436.505	2644.06
436.727	2619.06
436.949	2583.06
437.17	2590.06
437.392	2566.06
437.614	2609.06
437.835	2522.06
438.057	2587.06
438.278	2529.06
438.5	2583.06
438.721	2623.06
438.943	2701.06
439.165	2725.06
439.386	2765.06
439.608	2743.06
439.829	2729.06
440.05	2789.06
440.272	2853.06
440.493	2778.06
440.715	2732.06
440.936	2703.06
441.158	2766.06
441.379	2768.06
441.6	2877.06
441.822	2879.06
442.043	3060.06
442.264	3173.06
442.486	2991.06
442.707	2853.06
442.928	2825.06
443.149	2804.06
443.371	2840.06
443.592	2829.06
443.813	2845.06
444.034	2848.06
444.255	2836.06
444.476	2920.06
444.698	2964.06
444.919	3008.06
445.14	3058.06
445.361	2946.06
445.582	2859.06
445.803	2848.06
446.024	2820.06
446.245	2830.06
446.466	2805.06
446.687	2773.06
446.908	2715.06
447.129	2714.06
447.35	2651.06
447.571	2709.06
447.792	2608.06
448.013	2611.06
448.234	2544.06
448.455	2572.06
448.675	2596.06
448.896	2684.06
449.117	2791.06
449.338	3003.06
449.559	3089.06
449.779	2786.06
450	2631.06
450.221	2534.06
450.442	2583.06
450.662	2565.06
450.883	2491.06
451.104	2535.06
451.324	2574.06
451.545	2549.06
451.766	2565.06
451.986	2601.06
452.207	2779.06
452.428	3624.06
452.648	5455.06
452.869	4588.06
453.089	3231.06
453.31	2987.06
453.53	2951.06
453.751	3069.06
453.971	3169.06
454.192	3105.06
454.412	2697.06
454.633	2572.06
454.853	2519.06
455.073	2477.06
455.294	2458.06
455.514	2435.06
455.734	2417.06
455.955	2428.06
456.175	2450.06
456.395	2447.06
456.616	2465.06
456.836	2433.06
457.056	2496.06
457.276	2453.06
457.497	2585.06
457.717	2674.06
457.937	2596.06
458.157	2547.06
458.377	2587.06
458.598	2599.06
458.818	2635.06
459.038	2591.06
459.258	2638.06
459.478	2706.06
459.698	2689.06
459.918	2657.06
460.138	2724.06
460.358	2809.06
460.578	2821.06
460.798	2853.06
461.018	2914.06
461.238	2883.06
461.458	2899.06
461.678	2895.06
461.898	2959.06
462.118	3007.06
462.338	3081.06
462.558	3056.06
462.777	3124.06
462.997	3259.06
463.217	3383.06
463.437	3519.06
463.657	3540.06
463.876	3544.06
464.096	3390.06
464.316	3205.06
464.536	3201.06
464.755	3080.06
464.975	2972.06
465.195	2914.06
465.414	2825.06
465.634	2778.06
465.854	2780.06
466.073	2701.06
466.293	2697.06
466.512	2734.06
466.732	2713.06
466.951	2807.06
467.171	2978.06
467.391	2972.06
467.61	2714.06
467.829	2687.06
468.049	2663.06
468.268	2576.06
468.488	2585.06
468.707	2594.06
468.927	2574.06
469.146	2609.06
469.365	2687.06
469.585	2640.06
469.804	2717.06
470.023	2771.06
470.243	2772.06
470.462	2859.06
470.681	3033.06
470.901	3328.06
471.12	3693.06
471.339	3735.06
471.558	3197.06
471.777	2933.06
471.997	2765.06
472.216	2751.06
472.435	2659.06
472.654	2627.06
472.873	2603.06
473.092	2629.06
473.311	2627.06
473.53	2617.06
473.749	2699.06
473.968	2830.06
474.187	2639.06
474.406	2587.06
474.625	2593.06
474.844	2631.06
475.063	2609.06
475.282	2592.06
475.501	2612.06
475.72	2644.06
475.939	2683.06
476.158	2728.06
476.377	2802.06
476.596	2763.06
476.814	2774.06
477.033	2778.06
477.252	2858.06
477.471	2849.06
477.69	2867.06
477.908	2931.06
478.127	2963.06
478.346	2965.06
478.564	3049.06
478.783	3009.06
479.002	3089.06
479.22	3121.06
479.439	3122.06
479.658	3101.06
479.876	3188.06
480.095	3201.06
480.313	3190.06
480.532	3211.06
480.751	3197.06
480.969	3183.06
481.188	3163.06
481.406	3156.06
481.624	3129.06
481.843	3201.06
482.061	3229.06
482.28	3198.06
482.498	3201.06
482.717	3153.06
482.935	3207.06
483.153	3259.06
483.372	3263.06
483.59	3359.06
483.808	3356.06
484.027	3467.06
484.245	3689.06
484.463	4052.06
484.681	4442.06
484.9	4102.06
485.118	3845.06
485.336	3824.06
485.554	3804.06
485.772	3986.06
485.99	4509.06
486.209	4811.06
486.427	4170.06
486.645	3732.06
486.863	3559.06
487.081	3425.06
487.299	3390.06
487.517	3370.06
487.735	3350.06
487.953	3382.06
488.171	3404.06
488.389	3367.06
488.607	3302.06
488.825	3295.06
489.043	3249.06
489.261	3213.06
489.479	3272.06
489.696	3233.06
489.914	3276.06
490.132	3252.06
490.35	3325.06
490.568	3321.06
490.786	3365.06
491.003	3321.06
491.221	3395.06
491.439	3383.06
491.657	3421.06
491.874	3399.06
492.092	3426.06
492.31	3425.06
492.527	3385.06
492.745	3380.06
492.963	3405.06
493.18	3377.06
493.398	3413.06
493.615	3396.06
493.833	3464.06
494.05	3429.06
494.268	3418.06
494.485	3453.06
494.703	3443.06
494.92	3451.06
495.138	3436.06
495.355	3440.06
495.573	3435.06
495.79	3436.06
496.008	3514.06
496.225	3559.06
496.442	3609.06
496.66	3699.06
496.877	3894.06
497.094	3835.06
497.312	3713.06
497.529	3717.06
497.746	3795.06
497.963	3795.06
498.181	3900.06
498.398	3932.06
498.615	4083.06
498.832	4219.06
499.049	4463.06
499.267	4779.06
499.484	5065.06
499.701	5083.06
499.918	5155.06
500.135	5490.06
500.352	5695.06
500.569	5734.06
500.786	5743.06
501.003	5534.06
501.22	5314.06
501.437	5011.06
501.654	4712.06
501.871	4567.06
502.088	4403.06
502.305	4215.06
502.522	4089.06
502.739	4020.06
502.956	3898.06
503.172	3788.06
503.389	3768.06
503.606	3665.06
503.823	3601.06
504.04	3572.06
504.256	3624.06
504.473	3607.06
504.69	3572.06
504.907	3490.06
505.123	3505.06
505.34	3401.06
505.557	3257.06
505.773	3213.06
505.99	3234.06
506.207	3160.06
506.423	3169.06
506.64	3144.06
506.856	3088.06
507.073	3089.06
507.289	3049.06
507.506	3020.06
507.722	3028.06
507.939	3031.06
508.155	2973.06
508.372	2983.06
508.588	2975.06
508.805	2976.06
509.021	2972.06
509.238	2995.06
509.454	3183.06
509.67	3353.06
509.887	3193.06
510.103	3048.06
510.319	2951.06
510.536	2919.06
510.752	2934.06
510.968	2916.06
511.184	2850.06
511.401	2892.06
511.617	2858.06
511.833	2819.06
512.049	2848.06
512.265	2845.06
512.481	2830.06
512.698	2833.06
512.914	2816.06
513.13	2845.06
513.346	2785.06
513.562	2829.06
513.778	2892.06
513.994	2900.06
514.21	2976.06
514.426	3163.06
514.642	3307.06
514.858	3008.06
515.074	2908.06
515.29	2893.06
515.506	2881.06
515.721	2939.06
515.937	2944.06
516.153	2944.06
516.369	2944.06
516.585	3010.06
516.801	3055.06
517.016	3151.06
517.232	3140.06
517.448	3222.06
517.664	3236.06
517.879	3225.06
518.095	3220.06
518.311	3211.06
518.527	3141.06
518.742	3119.06
518.958	3221.06
519.173	3308.06
519.389	3147.06
519.605	3034.06
519.82	2953.06
520.036	2944.06
520.251	2887.06
520.467	2860.06
520.682	2880.06
520.898	2800.06
521.113	2822.06
521.329	2799.06
521.544	2825.06
521.76	2764.06
521.975	2847.06
522.19	2834.06
522.406	2815.06
522.621	2688.06
522.836	2737.06
523.052	2730.06
523.267	2742.06
523.482	2731.06
523.698	2719.06
523.913	2697.06
524.128	2737.06
524.343	2719.06
524.559	2653.06
524.774	2735.06
524.989	2698.06
525.204	2739.06
525.419	2682.06
525.634	2692.06
525.849	2744.06
526.064	2757.06
526.28	2748.06
526.495	2735.06
526.71	2756.06
526.925	2745.06
527.14	2707.06
527.355	2688.06
527.57	2773.06
527.785	2728.06
527.999	2729.06
528.214	2750.06
528.429	2781.06
528.644	2844.06
528.859	2849.06
529.074	2881.06
529.289	2932.06
529.503	2853.06
529.718	2890.06
529.933	2913.06
530.148	2946.06
530.363	2886.06
530.577	2868.06
530.792	2908.06
531.007	2939.06
531.221	2921.06
531.436	3008.06
531.651	3036.06
531.865	3025.06
532.08	3095.06
532.295	3212.06
532.509	3421.06
532.724	3427.06
532.938	3436.06
533.153	3553.06
533.367	3812.06
533.582	4029.06
533.796	3905.06
534.011	3814.06
534.225	3607.06
534.44	3468.06
534.654	3435.06
534.868	3391.06
535.083	3267.06
535.297	3296.06
535.511	3187.06
535.726	3119.06
535.94	3123.06
536.154	3032.06
536.369	3010.06
536.583	2987.06
536.797	2945.06
537.011	2899.06
537.225	2867.06
537.44	2808.06
537.654	2853.06
537.868	2823.06
538.082	2737.06
538.296	2725.06
538.51	2704.06
538.724	2793.06
538.938	2726.06
539.153	2757.06
539.367	2701.06
539.581	2655.06
539.795	2645.06
540.009	2620.06
540.222	2600.06
540.436	2624.06
540.65	2631.06
540.864	2658.06
541.078	2730.06
541.292	2852.06
541.506	3285.06
541.72	3485.06
541.934	3028.06
542.147	2904.06
542.361	2784.06
542.575	2689.06
542.789	2641.06
543.002	2642.06
543.216	2560.06
543.43	2555.06
543.644	2492.06
543.857	2556.06
544.071	2605.06
544.285	2565.06
544.498	2534.06
544.712	2563.06
544.925	2570.06
545.139	2562.06
545.352	2553.06
545.566	2532.06
545.779	2565.06
545.993	2570.06
546.206	2579.06
546.42	2557.06
546.633	2551.06
546.847	2559.06
547.06	2559.06
547.274	2525.06
547.487	2561.06
547.7	2558.06
547.914	2565.06
548.127	2626.06
548.34	2548.06
548.554	2558.06
548.767	2580.06
548.98	2577.06
549.193	2579.06
549.407	2555.06
549.62	2593.06
549.833	2593.06
550.046	2585.06
550.259	2617.06
550.473	2548.06
550.686	2552.06
550.899	2567.06
551.112	2583.06
551.325	2571.06
551.538	2615.06
551.751	2595.06
551.964	2560.06
552.177	2611.06
552.39	2667.06
552.603	2680.06
552.816	2784.06
553.029	2774.06
553.242	2811.06
553.455	2774.06
553.667	2808.06
553.88	2847.06
554.093	2901.06
554.306	2953.06
554.519	2932.06
554.732	2952.06
554.944	3019.06
555.157	3073.06
555.37	3210.06
555.583	3306.06
555.795	3414.06
556.008	3753.06
556.221	4127.06
556.433	4430.06
556.646	4502.06
556.859	4268.06
557.071	4099.06
557.284	4080.06
557.496	3879.06
557.709	3811.06
557.921	3794.06
558.134	3807.06
558.346	3841.06
558.559	3906.06
558.771	4176.06
558.984	4549.06
559.196	4963.06
559.409	4646.06
559.621	4308.06
559.833	4089.06
560.046	3795.06
560.258	3528.06
560.47	3420.06
560.683	3293.06
560.895	3172.06
561.107	3043.06
561.32	3031.06
561.532	2938.06
561.744	2873.06
561.956	2773.06
562.168	2721.06
562.381	2710.06
562.593	2665.06
562.805	2685.06
563.017	2699.06
563.229	2794.06
563.441	3197.06
563.653	2716.06
563.865	2500.06
564.077	2483.06
564.289	2401.06
564.501	2376.06
564.713	2409.06
564.925	2391.06
565.137	2406.06
565.349	2397.06
565.561	2406.06
565.773	2389.06
565.985	2447.06
566.197	2449.06
566.408	2507.06
566.62	2556.06
566.832	2643.06
567.044	2604.06
567.255	2630.06
567.467	2707.06
567.679	2715.06
567.891	2833.06
568.102	3092.06
568.314	3519.06
568.526	3149.06
568.737	2738.06
568.949	2539.06
569.161	2367.06
569.372	2263.06
569.584	2241.06
569.795	2176.06
570.007	2170.06
570.218	2225.06
570.43	2255.06
570.641	2108.06
570.853	2019.06
571.064	1996.06
571.276	1979.06
571.487	1947.06
571.698	1904.06
571.91	1849.06
572.121	1888.06
572.333	1888.06
572.544	1869.06
572.755	2003.06
572.966	2272.06
573.178	2071.06
573.389	1923.06
573.6	1896.06
573.811	1811.06
574.023	1752.06
574.234	1735.06
574.445	1770.06
574.656	1775.06
574.867	1707.06
575.078	1729.06
575.289	1759.06
575.501	1731.06
575.712	1720.06
575.923	1701.06
576.134	1717.06
576.345	1738.06
576.556	1795.06
576.767	1721.06
576.978	1754.06
577.188	1750.06
577.399	1771.06
577.61	1767.06
577.821	1805.06
578.032	1789.06
578.243	1838.06
578.454	1869.06
578.665	1924.06
578.875	1967.06
579.086	1989.06
579.297	2122.06
579.508	2305.06
579.718	2428.06
579.929	2769.06
580.14	3272.06
580.35	3379.06
580.561	3073.06
580.772	2785.06
580.982	2601.06
581.193	2401.06
581.403	2213.06
581.614	2140.06
581.825	2103.06
582.035	1979.06
582.246	1889.06
582.456	1863.06
582.667	1819.06
582.877	1784.06
583.087	1702.06
583.298	1685.06
583.508	1627.06
583.719	1608.06
583.929	1550.06
584.139	1533.06
584.35	1496.06
584.56	1482.06
584.77	1463.06
584.981	1436.06
585.191	1405.06
585.401	1417.06
585.611	1403.06
585.821	1362.06
586.032	1359.06
586.242	1338.06
586.452	1353.06
586.662	1307.06
586.872	1307.06
587.082	1322.06
587.292	1297.06
587.502	1287.06
587.713	1257.06
587.923	1293.06
588.133	1254.06
588.343	1251.06
588.553	1246.06
588.762	1228.06
588.972	1223.06
589.182	1277.06
589.392	1254.06
589.602	1191.06
589.812	1226.06
590.022	1173.06
590.232	1190.06
590.441	1170.06
590.651	1183.06
590.861	1151.06
591.071	1174.06
591.281	1189.06
591.49	1163.06
591.7	1169.06
591.91	1211.06
592.119	1199.06
592.329	1206.06
592.539	1196.06
592.748	1196.06
592.958	1234.06
593.167	1207.06
593.377	1225.06
593.587	1235.06
593.796	1242.06
594.006	1213.06
594.215	1220.06
594.424	1217.06
594.634	1188.06
594.843	1177.06
595.053	1182.06
595.262	1139.06
595.472	1109.06
595.681	1100.06
595.89	1111.06
596.1	1074.06
596.309	1051.06
596.518	1059.06
596.727	1071.06
596.937	1043.06
597.146	1038.06
597.355	1036.06
597.564	1014.06
597.774	980.06
597.983	997.06
598.192	1001.06
598.401	987.06
598.61	1005.06
598.819	962.06
599.028	949.06
599.237	950.06
599.446	973.06
599.655	947.06
599.864	951.06
600.073	932.06
600.282	948.06
600.491	924.06
600.7	927.06
600.909	935.06
601.118	973.06
601.327	962.06
601.536	973.06
601.745	980.06
601.953	1073.06
602.162	1201.06
602.371	1087.06
602.58	979.06
602.789	987.06
602.997	957.06
603.206	957.06
603.415	932.06
603.623	901.06
603.832	906.06
604.041	894.06
604.249	934.06
604.458	872.06
604.666	881.06
604.875	880.06
605.084	864.06
605.292	893.06
605.501	917.06
605.709	919.06
605.918	896.06
606.126	917.06
606.334	920.06
606.543	943.06
606.751	977.06
606.96	1117.06
607.168	1215.06
607.376	1073.06
607.585	971.06
607.793	945.06
608.001	947.06
608.21	891.06
608.418	884.06
608.626	908.06
608.834	869.06
609.043	864.06
609.251	864.06
609.459	849.06
609.667	849.06
609.875	839.06
610.083	842.06
610.291	839.06
610.499	853.06
610.707	841.06
610.916	836.06
611.124	839.06
611.332	828.06
611.54	828.06
611.748	817.06
611.955	797.06
612.163	814.06
612.371	813.06
612.579	801.06
612.787	803.06
612.995	800.06
613.203	791.06
613.411	789.06
613.618	796.06
613.826	805.06
614.034	800.06
614.242	769.06
614.449	819.06
614.657	811.06
614.865	793.06
615.072	788.06
615.28	814.06
615.488	823.06
615.695	804.06
615.903	792.06
616.111	807.06
616.318	793.06
616.526	809.06
616.733	793.06
616.941	781.06
617.148	803.06
617.356	774.06
617.563	758.06
617.771	786.06
617.978	764.06
618.185	773.06
618.393	740.06
618.6	740.06
618.807	764.06
619.015	755.06
619.222	744.06
619.429	762.06
619.637	730.06
619.844	738.06
620.051	714.06
620.258	713.06
620.466	698.06
620.673	712.06
620.88	689.06
621.087	685.06
621.294	716.06
621.501	694.06
621.708	707.06
621.915	714.06
622.122	712.06
622.329	716.06
622.536	684.06
622.743	712.06
622.95	710.06
623.157	712.06
623.364	693.06
623.571	698.06
623.778	697.06
623.985	685.06
624.192	690.06
624.399	677.06
624.606	688.06
624.812	635.06
625.019	672.06
625.226	665.06
625.433	671.06
625.639	659.06
625.846	649.06
626.053	657.06
626.259	613.06
626.466	637.06
626.673	644.06
626.879	631.06
627.086	618.06
627.293	643.06
627.499	623.06
627.706	641.06
627.912	638.06
628.119	633.06
628.325	656.06
628.532	627.06
628.738	644.06
628.945	620.06
629.151	627.06
629.357	623.06
629.564	625.06
629.77	608.06
629.976	629.06
630.183	632.06
630.389	595.06
630.595	618.06
630.802	605.06
631.008	588.06
631.214	579.06
631.42	579.06
631.627	600.06
631.833	575.06
632.039	577.06
632.245	582.06
632.451	569.06
632.657	587.06
632.863	590.06
633.069	589.06
633.275	604.06
633.481	571.06
633.688	585.06
633.893	583.06
634.099	583.06
634.305	582.06
634.511	593.06
634.717	597.06
634.923	616.06
635.129	668.06
635.335	775.06
635.541	705.06
635.747	643.06
635.952	629.06
636.158	614.06
636.364	612.06
636.57	593.06
636.775	591.06
636.981	592.06
637.187	591.06
637.392	584.06
637.598	588.06
637.804	594.06
638.009	613.06
638.215	606.06
638.421	585.06
638.626	610.06
638.832	596.06
639.037	603.06
639.243	603.06
639.448	607.06
639.654	608.06
639.859	600.06
640.065	609.06
640.27	603.06
640.475	599.06
640.681	619.06
640.886	604.06
641.091	631.06
641.297	659.06
641.502	634.06
641.707	627.06
641.913	658.06
642.118	663.06
642.323	677.06
642.528	714.06
642.733	719.06
642.939	739.06
643.144	753.06
643.349	769.06
643.554	817.06
643.759	843.06
643.964	868.06
644.169	901.06
644.374	953.06
644.579	1084.06
644.784	1148.06
644.989	1307.06
645.194	1569.06
645.399	1855.06
645.604	2006.06
645.809	1493.06
646.014	1165.06
646.219	970.06
646.423	865.06
646.628	792.06
646.833	743.06
647.038	691.06
647.243	641.06
647.447	651.06
647.652	616.06
647.857	597.06
648.062	597.06
648.266	579.06
648.471	554.06
648.676	568.06
648.88	530.06
649.085	555.06
649.289	535.06
649.494	515.06
649.698	499.06
649.903	523.06
650.107	509.06
650.312	491.06
650.516	510.06
650.721	465.06
650.925	458.06
651.13	461.06
651.334	444.06
651.539	445.06
651.743	426.06
651.947	423.06
652.152	445.06
652.356	435.06
652.56	460.06
652.764	500.06
652.969	462.06
653.173	453.06
653.377	417.06
653.581	406.06
653.785	373.06
653.99	364.06
654.194	373.06
654.398	358.06
654.602	370.06
654.806	372.06
655.01	367.06
655.214	356.06
655.418	371.06
655.622	351.06
655.826	371.06
656.03	378.06
656.234	383.06
656.438	357.06
656.642	377.06
656.846	389.06
657.049	352.06
657.253	356.06
657.457	307.06
657.661	292.06
657.865	286.06
658.068	264.06
658.272	236.06
658.476	241.06
658.68	230.06
658.883	226.06
659.087	201.06
659.291	201.06
659.494	203.06
659.698	183.06
659.901	189.06
660.105	181.06
660.309	172.06
660.512	171.06
660.716	149.06
660.919	138.06
661.123	159.06
661.326	164.06
661.53	142.06
661.733	133.06
661.936	124.06
662.14	114.06
662.343	119.06
662.546	105.06
662.75	97.06
662.953	98.06
663.156	111.06
663.36	96.06
663.563	103.06
663.766	100.06
663.969	99.06
664.173	92.06
664.376	91.06
664.579	96.06
664.782	90.06
664.985	83.06
665.188	97.06
665.391	87.06
665.594	87.06
665.797	90.06
666	92.06
666.203	91.06
666.406	92.06
666.609	89.06
666.812	81.06
667.015	92.06
667.218	75.06
667.421	79.06
667.624	66.06
667.827	90.06
668.03	89.06
668.232	87.06
668.435	90.06
668.638	87.06
668.841	85.06
669.043	87.06
669.246	73.06
669.449	91.06
669.651	89.06
669.854	97.06
670.057	83.06
670.259	94.06
670.462	84.06
670.665	78.06
670.867	79.06
671.07	91.06
671.272	93.06
671.475	92.06
671.677	87.06
671.88	83.06
672.082	89.06
672.284	79.06
672.487	89.06
672.689	83.06
672.892	95.06
