Data from SnStandardFlinnAPT0064_QswitchEnergy10_LIBS07252019.E.O._I.C._HRD10591_15-28-48-974.txt Node
Date: Thu Jul 25 15:28:48 EDT 2019
User: cochatt
Spectrometer: HR+D1059
Trigger mode: 1
Integration Time (sec): 1.000000E-1
Scans to average: 1
Electric dark correction enabled: true
Nonlinearity correction enabled: false
Boxcar width: 0
XAxis mode: Wavelengths
Number of Pixels in Spectrum: 2048
>>>>>Begin Spectral Data<<<<<
223.165	-16.31
223.4	-16.31
223.635	-16.31
223.869	-20.31
224.104	-17.31
224.338	-18.31
224.573	-9.31
224.808	-16.31
225.042	0.69
225.277	-9.31
225.511	-1.31
225.746	-6.31
225.98	9.69
226.215	15.69
226.449	17.69
226.683	31.69
226.918	15.69
227.152	23.69
227.387	23.69
227.621	41.69
227.856	38.69
228.09	64.69
228.324	58.69
228.559	48.69
228.793	54.69
229.027	70.69
229.262	58.69
229.496	55.69
229.73	69.69
229.964	74.69
230.199	72.69
230.433	86.69
230.667	72.69
230.901	75.69
231.136	92.69
231.37	89.69
231.604	85.69
231.838	96.69
232.072	125.69
232.306	124.69
232.541	91.69
232.775	91.69
233.009	92.69
233.243	89.69
233.477	73.69
233.711	90.69
233.945	116.69
234.179	96.69
234.413	100.69
234.647	72.69
234.881	75.69
235.115	75.69
235.349	95.69
235.583	117.69
235.817	134.69
236.051	136.69
236.285	113.69
236.519	68.69
236.753	77.69
236.987	73.69
237.221	79.69
237.455	67.69
237.689	70.69
237.922	87.69
238.156	86.69
238.39	85.69
238.624	84.69
238.858	75.69
239.091	80.69
239.325	76.69
239.559	87.69
239.793	92.69
240.027	85.69
240.26	101.69
240.494	82.69
240.728	78.69
240.961	70.69
241.195	108.69
241.429	95.69
241.662	86.69
241.896	75.69
242.13	97.69
242.363	145.69
242.597	160.69
242.83	147.69
243.064	158.69
243.298	174.69
243.531	148.69
243.765	97.69
243.998	88.69
244.232	90.69
244.465	88.69
244.699	84.69
244.932	80.69
245.166	88.69
245.399	87.69
245.633	75.69
245.866	80.69
246.099	82.69
246.333	87.69
246.566	86.69
246.8	73.69
247.033	72.69
247.266	90.69
247.5	74.69
247.733	76.69
247.966	89.69
248.2	73.69
248.433	106.69
248.666	138.69
248.899	114.69
249.133	88.69
249.366	110.69
249.599	114.69
249.832	139.69
250.066	146.69
250.299	103.69
250.532	74.69
250.765	86.69
250.998	81.69
251.231	86.69
251.465	96.69
251.698	84.69
251.931	76.69
252.164	78.69
252.397	91.69
252.63	99.69
252.863	91.69
253.096	92.69
253.329	89.69
253.562	85.69
253.795	97.69
254.028	87.69
254.261	83.69
254.494	95.69
254.727	131.69
254.96	162.69
255.193	142.69
255.426	89.69
255.659	96.69
255.892	106.69
256.124	91.69
256.357	86.69
256.59	93.69
256.823	98.69
257.056	116.69
257.289	138.69
257.521	174.69
257.754	124.69
257.987	84.69
258.22	91.69
258.452	84.69
258.685	93.69
258.918	83.69
259.151	89.69
259.383	100.69
259.616	131.69
259.849	159.69
260.081	101.69
260.314	87.69
260.547	95.69
260.779	76.69
261.012	92.69
261.244	91.69
261.477	86.69
261.71	77.69
261.942	86.69
262.175	84.69
262.407	89.69
262.64	87.69
262.872	88.69
263.105	100.69
263.337	88.69
263.57	86.69
263.802	85.69
264.035	81.69
264.267	79.69
264.499	81.69
264.732	77.69
264.964	94.69
265.197	82.69
265.429	95.69
265.661	77.69
265.894	95.69
266.126	150.69
266.358	164.69
266.591	146.69
266.823	105.69
267.055	87.69
267.287	85.69
267.52	95.69
267.752	97.69
267.984	85.69
268.216	88.69
268.448	95.69
268.681	87.69
268.913	95.69
269.145	82.69
269.377	105.69
269.609	99.69
269.841	111.69
270.073	104.69
270.306	140.69
270.538	219.69
270.77	352.69
271.002	418.69
271.234	218.69
271.466	112.69
271.698	94.69
271.93	91.69
272.162	94.69
272.394	99.69
272.626	98.69
272.858	74.69
273.09	82.69
273.322	85.69
273.553	96.69
273.785	91.69
274.017	89.69
274.249	94.69
274.481	97.69
274.713	95.69
274.945	106.69
275.176	89.69
275.408	90.69
275.64	86.69
275.872	83.69
276.104	82.69
276.335	121.69
276.567	103.69
276.799	103.69
277.031	94.69
277.262	111.69
277.494	102.69
277.726	127.69
277.957	204.69
278.189	279.69
278.421	237.69
278.652	200.69
278.884	208.69
279.115	137.69
279.347	119.69
279.579	94.69
279.81	92.69
280.042	108.69
280.273	97.69
280.505	113.69
280.736	116.69
280.968	130.69
281.199	185.69
281.431	265.69
281.662	274.69
281.894	168.69
282.125	115.69
282.356	118.69
282.588	108.69
282.819	110.69
283.051	106.69
283.282	152.69
283.513	204.69
283.745	357.69
283.976	623.69
284.207	876.69
284.439	701.69
284.67	302.69
284.901	285.69
285.132	374.69
285.364	426.69
285.595	265.69
285.826	188.69
286.057	252.69
286.288	454.69
286.52	695.69
286.751	556.69
286.982	226.69
287.213	132.69
287.444	103.69
287.675	101.69
287.906	99.69
288.138	106.69
288.369	103.69
288.6	99.69
288.831	85.69
289.062	101.69
289.293	95.69
289.524	102.69
289.755	96.69
289.986	100.69
290.217	104.69
290.448	106.69
290.679	110.69
290.91	130.69
291.141	192.69
291.371	270.69
291.602	322.69
291.833	211.69
292.064	120.69
292.295	112.69
292.526	95.69
292.757	90.69
292.987	95.69
293.218	100.69
293.449	106.69
293.68	107.69
293.91	97.69
294.141	98.69
294.372	102.69
294.603	110.69
294.833	86.69
295.064	112.69
295.295	90.69
295.525	98.69
295.756	104.69
295.987	106.69
296.217	97.69
296.448	84.69
296.679	107.69
296.909	98.69
297.14	107.69
297.37	93.69
297.601	99.69
297.831	87.69
298.062	103.69
298.292	110.69
298.523	112.69
298.753	113.69
298.984	105.69
299.214	115.69
299.445	105.69
299.675	120.69
299.905	118.69
300.136	132.69
300.366	175.69
300.597	310.69
300.827	488.69
301.057	751.69
301.288	707.69
301.518	282.69
301.748	178.69
301.979	130.69
302.209	138.69
302.439	151.69
302.669	178.69
302.9	296.69
303.13	551.69
303.36	946.69
303.59	1362.69
303.82	958.69
304.051	336.69
304.281	170.69
304.511	130.69
304.741	119.69
304.971	127.69
305.201	127.69
305.431	102.69
305.661	107.69
305.891	106.69
306.121	104.69
306.352	113.69
306.582	92.69
306.812	113.69
307.042	116.69
307.272	116.69
307.502	115.69
307.731	115.69
307.961	111.69
308.191	116.69
308.421	109.69
308.651	107.69
308.881	116.69
309.111	107.69
309.341	104.69
309.571	108.69
309.8	110.69
310.03	99.69
310.26	101.69
310.49	120.69
310.72	119.69
310.949	119.69
311.179	116.69
311.409	117.69
311.639	118.69
311.868	113.69
312.098	106.69
312.328	117.69
312.557	118.69
312.787	129.69
313.017	130.69
313.246	134.69
313.476	119.69
313.706	125.69
313.935	171.69
314.165	204.69
314.394	241.69
314.624	202.69
314.853	140.69
315.083	141.69
315.312	134.69
315.542	137.69
315.771	147.69
316.001	128.69
316.23	150.69
316.46	169.69
316.689	196.69
316.919	276.69
317.148	542.69
317.377	985.69
317.607	1683.69
317.836	1585.69
318.065	579.69
318.295	243.69
318.524	170.69
318.753	153.69
318.983	144.69
319.212	139.69
319.441	129.69
319.67	113.69
319.9	131.69
320.129	122.69
320.358	124.69
320.587	134.69
320.816	136.69
321.046	142.69
321.275	142.69
321.504	132.69
321.733	144.69
321.962	169.69
322.191	163.69
322.42	141.69
322.649	144.69
322.878	143.69
323.108	131.69
323.337	141.69
323.566	134.69
323.795	139.69
324.024	153.69
324.253	156.69
324.482	189.69
324.71	254.69
324.939	299.69
325.168	266.69
325.397	223.69
325.626	304.69
325.855	537.69
326.084	1040.69
326.313	1802.69
326.542	1739.69
326.77	680.69
326.999	292.69
327.228	248.69
327.457	237.69
327.686	248.69
327.914	174.69
328.143	155.69
328.372	138.69
328.6	126.69
328.829	133.69
329.058	135.69
329.287	136.69
329.515	122.69
329.744	130.69
329.972	116.69
330.201	118.69
330.43	133.69
330.658	117.69
330.887	115.69
331.115	126.69
331.344	135.69
331.572	128.69
331.801	117.69
332.03	127.69
332.258	156.69
332.486	191.69
332.715	323.69
332.943	555.69
333.172	830.69
333.4	742.69
333.629	292.69
333.857	166.69
334.085	124.69
334.314	139.69
334.542	131.69
334.771	134.69
334.999	131.69
335.227	136.69
335.455	119.69
335.684	130.69
335.912	133.69
336.14	127.69
336.369	120.69
336.597	138.69
336.825	103.69
337.053	114.69
337.281	124.69
337.51	107.69
337.738	112.69
337.966	121.69
338.194	119.69
338.422	126.69
338.65	125.69
338.878	129.69
339.106	143.69
339.334	138.69
339.562	128.69
339.79	137.69
340.018	104.69
340.246	119.69
340.474	120.69
340.702	115.69
340.93	126.69
341.158	119.69
341.386	141.69
341.614	128.69
341.842	126.69
342.07	126.69
342.298	123.69
342.526	142.69
342.754	110.69
342.981	112.69
343.209	126.69
343.437	121.69
343.665	123.69
343.893	123.69
344.12	116.69
344.348	134.69
344.576	119.69
344.804	123.69
345.031	119.69
345.259	102.69
345.487	112.69
345.714	106.69
345.942	96.69
346.17	120.69
346.397	113.69
346.625	121.69
346.853	102.69
347.08	102.69
347.308	122.69
347.535	118.69
347.763	120.69
347.99	119.69
348.218	114.69
348.445	129.69
348.673	128.69
348.9	128.69
349.128	140.69
349.355	126.69
349.583	122.69
349.81	123.69
350.037	120.69
350.265	120.69
350.492	132.69
350.72	113.69
350.947	111.69
351.174	124.69
351.402	126.69
351.629	123.69
351.856	120.69
352.083	114.69
352.311	104.69
352.538	126.69
352.765	126.69
352.992	129.69
353.22	112.69
353.447	92.69
353.674	108.69
353.901	118.69
354.128	125.69
354.355	116.69
354.583	111.69
354.81	111.69
355.037	118.69
355.264	112.69
355.491	108.69
355.718	107.69
355.945	120.69
356.172	96.69
356.399	118.69
356.626	116.69
356.853	106.69
357.08	118.69
357.307	120.69
357.534	112.69
357.761	108.69
357.988	108.69
358.215	124.69
358.441	116.69
358.668	112.69
358.895	117.69
359.122	118.69
359.349	116.69
359.576	128.69
359.802	122.69
360.029	124.69
360.256	113.69
360.483	109.69
360.709	127.69
360.936	131.69
361.163	127.69
361.39	111.69
361.616	103.69
361.843	124.69
362.07	117.69
362.296	120.69
362.523	111.69
362.749	120.69
362.976	107.69
363.203	116.69
363.429	114.69
363.656	116.69
363.882	107.69
364.109	131.69
364.335	136.69
364.562	102.69
364.788	112.69
365.015	115.69
365.241	146.69
365.468	226.69
365.694	272.69
365.92	227.69
366.147	144.69
366.373	115.69
366.599	97.69
366.826	104.69
367.052	104.69
367.278	99.69
367.505	101.69
367.731	104.69
367.957	109.69
368.184	102.69
368.41	122.69
368.636	126.69
368.862	124.69
369.089	114.69
369.315	108.69
369.541	108.69
369.767	124.69
369.993	116.69
370.219	103.69
370.445	93.69
370.672	118.69
370.898	120.69
371.124	121.69
371.35	125.69
371.576	111.69
371.802	114.69
372.028	111.69
372.254	114.69
372.48	110.69
372.706	105.69
372.932	126.69
373.158	122.69
373.384	118.69
373.61	117.69
373.835	108.69
374.061	120.69
374.287	108.69
374.513	112.69
374.739	110.69
374.965	115.69
375.191	118.69
375.416	102.69
375.642	105.69
375.868	113.69
376.094	112.69
376.319	110.69
376.545	120.69
376.771	113.69
376.997	127.69
377.222	116.69
377.448	124.69
377.674	112.69
377.899	118.69
378.125	102.69
378.35	125.69
378.576	102.69
378.802	130.69
379.027	122.69
379.253	141.69
379.478	184.69
379.704	353.69
379.929	851.69
380.155	1795.69
380.38	1895.69
380.606	578.69
380.831	216.69
381.057	154.69
381.282	133.69
381.507	120.69
381.733	121.69
381.958	115.69
382.184	120.69
382.409	132.69
382.634	119.69
382.86	118.69
383.085	108.69
383.31	114.69
383.535	122.69
383.761	124.69
383.986	98.69
384.211	98.69
384.436	95.69
384.662	119.69
384.887	101.69
385.112	115.69
385.337	96.69
385.562	114.69
385.787	118.69
386.013	121.69
386.238	112.69
386.463	126.69
386.688	113.69
386.913	117.69
387.138	110.69
387.363	96.69
387.588	120.69
387.813	113.69
388.038	123.69
388.263	113.69
388.488	94.69
388.713	108.69
388.938	101.69
389.163	112.69
389.387	130.69
389.612	106.69
389.837	103.69
390.062	103.69
390.287	95.69
390.512	105.69
390.736	107.69
390.961	96.69
391.186	96.69
391.411	103.69
391.636	95.69
391.86	103.69
392.085	100.69
392.31	111.69
392.534	98.69
392.759	110.69
392.984	108.69
393.208	123.69
393.433	171.69
393.658	162.69
393.882	110.69
394.107	101.69
394.331	97.69
394.556	105.69
394.78	103.69
395.005	100.69
395.229	104.69
395.454	120.69
395.678	107.69
395.903	103.69
396.127	116.69
396.352	110.69
396.576	114.69
396.801	136.69
397.025	145.69
397.249	112.69
397.474	109.69
397.698	101.69
397.922	103.69
398.147	103.69
398.371	98.69
398.595	110.69
398.82	104.69
399.044	106.69
399.268	115.69
399.492	98.69
399.717	102.69
399.941	97.69
400.165	108.69
400.389	76.69
400.613	95.69
400.837	100.69
401.062	107.69
401.286	100.69
401.51	106.69
401.734	108.69
401.958	105.69
402.182	94.69
402.406	82.69
402.63	105.69
402.854	97.69
403.078	101.69
403.302	100.69
403.526	113.69
403.75	102.69
403.974	106.69
404.198	102.69
404.422	99.69
404.645	104.69
404.869	107.69
405.093	94.69
405.317	100.69
405.541	117.69
405.765	130.69
405.988	163.69
406.212	112.69
406.436	103.69
406.66	114.69
406.883	94.69
407.107	110.69
407.331	105.69
407.555	99.69
407.778	101.69
408.002	99.69
408.226	98.69
408.449	113.69
408.673	91.69
408.896	99.69
409.12	93.69
409.344	114.69
409.567	104.69
409.791	106.69
410.014	113.69
410.238	116.69
410.461	104.69
410.685	98.69
410.908	95.69
411.132	105.69
411.355	111.69
411.578	111.69
411.802	102.69
412.025	92.69
412.249	100.69
412.472	90.69
412.695	99.69
412.919	101.69
413.142	98.69
413.365	95.69
413.589	98.69
413.812	122.69
414.035	110.69
414.258	107.69
414.482	106.69
414.705	116.69
414.928	120.69
415.151	97.69
415.374	97.69
415.597	110.69
415.821	95.69
416.044	93.69
416.267	95.69
416.49	110.69
416.713	104.69
416.936	111.69
417.159	99.69
417.382	100.69
417.605	103.69
417.828	94.69
418.051	100.69
418.274	114.69
418.497	104.69
418.72	119.69
418.943	120.69
419.166	112.69
419.389	115.69
419.611	92.69
419.834	117.69
420.057	86.69
420.28	92.69
420.503	103.69
420.726	105.69
420.948	95.69
421.171	94.69
421.394	106.69
421.617	93.69
421.839	93.69
422.062	84.69
422.285	94.69
422.507	115.69
422.73	149.69
422.953	165.69
423.175	110.69
423.398	91.69
423.621	100.69
423.843	112.69
424.066	99.69
424.288	114.69
424.511	94.69
424.733	95.69
424.956	101.69
425.178	104.69
425.401	91.69
425.623	87.69
425.846	107.69
426.068	91.69
426.291	100.69
426.513	114.69
426.735	107.69
426.958	106.69
427.18	107.69
427.402	103.69
427.625	109.69
427.847	100.69
428.069	110.69
428.292	90.69
428.514	105.69
428.736	110.69
428.958	113.69
429.181	110.69
429.403	99.69
429.625	101.69
429.847	110.69
430.069	122.69
430.292	106.69
430.514	99.69
430.736	111.69
430.958	87.69
431.18	117.69
431.402	102.69
431.624	98.69
431.846	100.69
432.068	102.69
432.29	86.69
432.512	94.69
432.734	110.69
432.956	101.69
433.178	106.69
433.4	108.69
433.622	104.69
433.844	92.69
434.066	90.69
434.287	88.69
434.509	99.69
434.731	86.69
434.953	103.69
435.175	94.69
435.397	97.69
435.618	89.69
435.84	96.69
436.062	97.69
436.284	116.69
436.505	92.69
436.727	104.69
436.949	112.69
437.17	99.69
437.392	96.69
437.614	86.69
437.835	86.69
438.057	84.69
438.278	105.69
438.5	104.69
438.721	116.69
438.943	108.69
439.165	102.69
439.386	111.69
439.608	101.69
439.829	112.69
440.05	116.69
440.272	127.69
440.493	120.69
440.715	100.69
440.936	101.69
441.158	94.69
441.379	100.69
441.6	115.69
441.822	110.69
442.043	138.69
442.264	147.69
442.486	125.69
442.707	118.69
442.928	94.69
443.149	114.69
443.371	101.69
443.592	100.69
443.813	102.69
444.034	112.69
444.255	93.69
444.476	85.69
444.698	89.69
444.919	89.69
445.14	190.69
445.361	143.69
445.582	93.69
445.803	106.69
446.024	107.69
446.245	104.69
446.466	121.69
446.687	115.69
446.908	99.69
447.129	92.69
447.35	95.69
447.571	92.69
447.792	95.69
448.013	101.69
448.234	96.69
448.455	99.69
448.675	116.69
448.896	99.69
449.117	116.69
449.338	126.69
449.559	153.69
449.779	128.69
450	116.69
450.221	120.69
450.442	112.69
450.662	121.69
450.883	105.69
451.104	124.69
451.324	134.69
451.545	117.69
451.766	123.69
451.986	145.69
452.207	240.69
452.428	638.69
452.648	1510.69
452.869	855.69
453.089	222.69
453.31	126.69
453.53	115.69
453.751	157.69
453.971	179.69
454.192	157.69
454.412	114.69
454.633	105.69
454.853	97.69
455.073	90.69
455.294	101.69
455.514	101.69
455.734	100.69
455.955	101.69
456.175	113.69
456.395	86.69
456.616	97.69
456.836	119.69
457.056	93.69
457.276	94.69
457.497	132.69
457.717	130.69
457.937	101.69
458.157	101.69
458.377	101.69
458.598	95.69
458.818	105.69
459.038	97.69
459.258	91.69
459.478	101.69
459.698	86.69
459.918	93.69
460.138	99.69
460.358	88.69
460.578	118.69
460.798	94.69
461.018	97.69
461.238	95.69
461.458	89.69
461.678	96.69
461.898	96.69
462.118	109.69
462.338	96.69
462.558	104.69
462.777	87.69
462.997	105.69
463.217	115.69
463.437	135.69
463.657	210.69
463.876	195.69
464.096	127.69
464.316	83.69
464.536	99.69
464.755	107.69
464.975	89.69
465.195	110.69
465.414	103.69
465.634	94.69
465.854	83.69
466.073	95.69
466.293	93.69
466.512	96.69
466.732	103.69
466.951	125.69
467.171	153.69
467.391	150.69
467.61	105.69
467.829	96.69
468.049	103.69
468.268	92.69
468.488	91.69
468.707	115.69
468.927	84.69
469.146	101.69
469.365	94.69
469.585	104.69
469.804	91.69
470.023	103.69
470.243	118.69
470.462	97.69
470.681	116.69
470.901	120.69
471.12	206.69
471.339	216.69
471.558	130.69
471.777	117.69
471.997	114.69
472.216	116.69
472.435	112.69
472.654	88.69
472.873	90.69
473.092	86.69
473.311	92.69
473.53	105.69
473.749	110.69
473.968	102.69
474.187	92.69
474.406	98.69
474.625	112.69
474.844	88.69
475.063	96.69
475.282	89.69
475.501	88.69
475.72	98.69
475.939	102.69
476.158	102.69
476.377	115.69
476.596	110.69
476.814	89.69
477.033	107.69
477.252	94.69
477.471	98.69
477.69	102.69
477.908	101.69
478.127	100.69
478.346	89.69
478.564	106.69
478.783	94.69
479.002	104.69
479.22	91.69
479.439	107.69
479.658	91.69
479.876	110.69
480.095	101.69
480.313	109.69
480.532	105.69
480.751	103.69
480.969	90.69
481.188	89.69
481.406	101.69
481.624	100.69
481.843	115.69
482.061	113.69
482.28	99.69
482.498	94.69
482.717	91.69
482.935	95.69
483.153	100.69
483.372	105.69
483.59	90.69
483.808	108.69
484.027	116.69
484.245	127.69
484.463	192.69
484.681	247.69
484.9	148.69
485.118	104.69
485.336	101.69
485.554	118.69
485.772	126.69
485.99	204.69
486.209	262.69
486.427	182.69
486.645	131.69
486.863	118.69
487.081	93.69
487.299	115.69
487.517	110.69
487.735	104.69
487.953	110.69
488.171	114.69
488.389	105.69
488.607	106.69
488.825	104.69
489.043	93.69
489.261	105.69
489.479	98.69
489.696	108.69
489.914	114.69
490.132	96.69
490.35	122.69
490.568	105.69
490.786	102.69
491.003	101.69
491.221	121.69
491.439	113.69
491.657	133.69
491.874	115.69
492.092	107.69
492.31	99.69
492.527	95.69
492.745	100.69
492.963	107.69
493.18	114.69
493.398	117.69
493.615	122.69
493.833	105.69
494.05	113.69
494.268	112.69
494.485	100.69
494.703	111.69
494.92	108.69
495.138	99.69
495.355	103.69
495.573	120.69
495.79	112.69
496.008	106.69
496.225	115.69
496.442	107.69
496.66	122.69
496.877	160.69
497.094	172.69
497.312	121.69
497.529	100.69
497.746	117.69
497.963	96.69
498.181	99.69
498.398	105.69
498.615	114.69
498.832	105.69
499.049	115.69
499.267	158.69
499.484	167.69
499.701	117.69
499.918	103.69
500.135	97.69
500.352	105.69
500.569	100.69
500.786	96.69
501.003	101.69
501.22	105.69
501.437	104.69
501.654	100.69
501.871	109.69
502.088	106.69
502.305	102.69
502.522	99.69
502.739	104.69
502.956	100.69
503.172	102.69
503.389	92.69
503.606	103.69
503.823	90.69
504.04	104.69
504.256	98.69
504.473	109.69
504.69	114.69
504.907	119.69
505.123	121.69
505.34	115.69
505.557	99.69
505.773	107.69
505.99	117.69
506.207	99.69
506.423	104.69
506.64	100.69
506.856	121.69
507.073	92.69
507.289	87.69
507.506	105.69
507.722	100.69
507.939	108.69
508.155	96.69
508.372	100.69
508.588	94.69
508.805	98.69
509.021	99.69
509.238	121.69
509.454	155.69
509.67	171.69
509.887	119.69
510.103	107.69
510.319	99.69
510.536	90.69
510.752	114.69
510.968	105.69
511.184	95.69
511.401	88.69
511.617	88.69
511.833	99.69
512.049	94.69
512.265	90.69
512.481	94.69
512.698	108.69
512.914	96.69
513.13	94.69
513.346	92.69
513.562	105.69
513.778	111.69
513.994	114.69
514.21	107.69
514.426	160.69
514.642	202.69
514.858	130.69
515.074	106.69
515.29	100.69
515.506	111.69
515.721	100.69
515.937	104.69
516.153	94.69
516.369	106.69
516.585	105.69
516.801	109.69
517.016	104.69
517.232	110.69
517.448	119.69
517.664	116.69
517.879	101.69
518.095	105.69
518.311	95.69
518.527	115.69
518.742	114.69
518.958	126.69
519.173	158.69
519.389	112.69
519.605	110.69
519.82	107.69
520.036	103.69
520.251	95.69
520.467	85.69
520.682	95.69
520.898	108.69
521.113	110.69
521.329	91.69
521.544	103.69
521.76	106.69
521.975	106.69
522.19	98.69
522.406	101.69
522.621	118.69
522.836	97.69
523.052	98.69
523.267	96.69
523.482	88.69
523.698	97.69
523.913	100.69
524.128	99.69
524.343	102.69
524.559	107.69
524.774	85.69
524.989	98.69
525.204	98.69
525.419	99.69
525.634	91.69
525.849	97.69
526.064	86.69
526.28	97.69
526.495	110.69
526.71	105.69
526.925	92.69
527.14	88.69
527.355	98.69
527.57	96.69
527.785	99.69
527.999	117.69
528.214	110.69
528.429	94.69
528.644	102.69
528.859	88.69
529.074	97.69
529.289	104.69
529.503	102.69
529.718	88.69
529.933	87.69
530.148	98.69
530.363	101.69
530.577	107.69
530.792	100.69
531.007	99.69
531.221	88.69
531.436	124.69
531.651	111.69
531.865	107.69
532.08	105.69
532.295	124.69
532.509	136.69
532.724	107.69
532.938	100.69
533.153	110.69
533.367	108.69
533.582	108.69
533.796	94.69
534.011	96.69
534.225	98.69
534.44	92.69
534.654	114.69
534.868	102.69
535.083	118.69
535.297	94.69
535.511	110.69
535.726	108.69
535.94	102.69
536.154	86.69
536.369	98.69
536.583	96.69
536.797	79.69
537.011	89.69
537.225	96.69
537.44	102.69
537.654	103.69
537.868	117.69
538.082	104.69
538.296	103.69
538.51	106.69
538.724	97.69
538.938	98.69
539.153	89.69
539.367	106.69
539.581	111.69
539.795	114.69
540.009	109.69
540.222	98.69
540.436	105.69
540.65	119.69
540.864	96.69
541.078	118.69
541.292	126.69
541.506	220.69
541.72	215.69
541.934	111.69
542.147	122.69
542.361	90.69
542.575	114.69
542.789	121.69
543.002	100.69
543.216	99.69
543.43	105.69
543.644	102.69
543.857	100.69
544.071	93.69
544.285	112.69
544.498	104.69
544.712	117.69
544.925	88.69
545.139	118.69
545.352	114.69
545.566	100.69
545.779	102.69
545.993	106.69
546.206	113.69
546.42	105.69
546.633	111.69
546.847	100.69
547.06	91.69
547.274	100.69
547.487	104.69
547.7	103.69
547.914	107.69
548.127	101.69
548.34	96.69
548.554	113.69
548.767	126.69
548.98	106.69
549.193	103.69
549.407	95.69
549.62	108.69
549.833	96.69
550.046	108.69
550.259	117.69
550.473	109.69
550.686	105.69
550.899	105.69
551.112	120.69
551.325	97.69
551.538	100.69
551.751	109.69
551.964	97.69
552.177	119.69
552.39	109.69
552.603	102.69
552.816	106.69
553.029	112.69
553.242	96.69
553.455	112.69
553.667	112.69
553.88	115.69
554.093	87.69
554.306	113.69
554.519	98.69
554.732	104.69
554.944	120.69
555.157	96.69
555.37	105.69
555.583	108.69
555.795	106.69
556.008	129.69
556.221	165.69
556.433	126.69
556.646	117.69
556.859	112.69
557.071	95.69
557.284	130.69
557.496	99.69
557.709	122.69
557.921	120.69
558.134	116.69
558.346	110.69
558.559	89.69
558.771	90.69
558.984	96.69
559.196	115.69
559.409	110.69
559.621	108.69
559.833	110.69
560.046	104.69
560.258	91.69
560.47	98.69
560.683	103.69
560.895	91.69
561.107	99.69
561.32	101.69
561.532	95.69
561.744	111.69
561.956	113.69
562.168	101.69
562.381	107.69
562.593	118.69
562.805	135.69
563.017	193.69
563.229	291.69
563.441	690.69
563.653	219.69
563.865	113.69
564.077	111.69
564.289	100.69
564.501	111.69
564.713	96.69
564.925	105.69
565.137	114.69
565.349	104.69
565.561	107.69
565.773	98.69
565.985	100.69
566.197	95.69
566.408	102.69
566.62	90.69
566.832	99.69
567.044	102.69
567.255	97.69
567.467	100.69
567.679	120.69
567.891	123.69
568.102	185.69
568.314	257.69
568.526	165.69
568.737	127.69
568.949	107.69
569.161	100.69
569.372	90.69
569.584	104.69
569.795	95.69
570.007	92.69
570.218	129.69
570.43	152.69
570.641	115.69
570.853	102.69
571.064	114.69
571.276	90.69
571.487	96.69
571.698	101.69
571.91	94.69
572.121	98.69
572.333	86.69
572.544	125.69
572.755	150.69
572.966	207.69
573.178	142.69
573.389	116.69
573.6	95.69
573.811	100.69
574.023	98.69
574.234	86.69
574.445	97.69
574.656	96.69
574.867	102.69
575.078	98.69
575.289	85.69
575.501	92.69
575.712	107.69
575.923	104.69
576.134	104.69
576.345	110.69
576.556	105.69
576.767	107.69
576.978	101.69
577.188	97.69
577.399	103.69
577.61	90.69
577.821	81.69
578.032	100.69
578.243	109.69
578.454	96.69
578.665	93.69
578.875	99.69
579.086	91.69
579.297	92.69
579.508	90.69
579.718	97.69
579.929	98.69
580.14	111.69
580.35	114.69
580.561	100.69
580.772	103.69
580.982	102.69
581.193	83.69
581.403	80.69
581.614	107.69
581.825	82.69
582.035	98.69
582.246	114.69
582.456	110.69
582.667	113.69
582.877	134.69
583.087	135.69
583.298	121.69
583.508	90.69
583.719	98.69
583.929	92.69
584.139	101.69
584.35	105.69
584.56	100.69
584.77	106.69
584.981	98.69
585.191	91.69
585.401	77.69
585.611	104.69
585.821	85.69
586.032	76.69
586.242	93.69
586.452	86.69
586.662	105.69
586.872	84.69
587.082	96.69
587.292	79.69
587.502	87.69
587.713	104.69
587.923	98.69
588.133	93.69
588.343	99.69
588.553	97.69
588.762	105.69
588.972	95.69
589.182	133.69
589.392	122.69
589.602	102.69
589.812	114.69
590.022	101.69
590.232	100.69
590.441	99.69
590.651	95.69
590.861	87.69
591.071	89.69
591.281	91.69
591.49	97.69
591.7	89.69
591.91	93.69
592.119	82.69
592.329	99.69
592.539	96.69
592.748	98.69
592.958	91.69
593.167	92.69
593.377	104.69
593.587	96.69
593.796	96.69
594.006	111.69
594.215	107.69
594.424	86.69
594.634	98.69
594.843	96.69
595.053	95.69
595.262	84.69
595.472	91.69
595.681	80.69
595.89	88.69
596.1	99.69
596.309	95.69
596.518	84.69
596.727	105.69
596.937	87.69
597.146	104.69
597.355	100.69
597.564	84.69
597.774	102.69
597.983	90.69
598.192	91.69
598.401	90.69
598.61	97.69
598.819	95.69
599.028	91.69
599.237	100.69
599.446	98.69
599.655	101.69
599.864	97.69
600.073	87.69
600.282	97.69
600.491	116.69
600.7	104.69
600.909	100.69
601.118	96.69
601.327	90.69
601.536	87.69
601.745	96.69
601.953	128.69
602.162	161.69
602.371	111.69
602.58	106.69
602.789	101.69
602.997	104.69
603.206	100.69
603.415	91.69
603.623	91.69
603.832	100.69
604.041	116.69
604.249	107.69
604.458	101.69
604.666	94.69
604.875	97.69
605.084	114.69
605.292	89.69
605.501	85.69
605.709	116.69
605.918	98.69
606.126	97.69
606.334	105.69
606.543	114.69
606.751	121.69
606.96	167.69
607.168	162.69
607.376	122.69
607.585	105.69
607.793	107.69
608.001	96.69
608.21	100.69
608.418	95.69
608.626	103.69
608.834	97.69
609.043	99.69
609.251	87.69
609.459	85.69
609.667	99.69
609.875	102.69
610.083	87.69
610.291	89.69
610.499	87.69
610.707	97.69
610.916	92.69
611.124	89.69
611.332	94.69
611.54	98.69
611.748	84.69
611.955	99.69
612.163	101.69
612.371	88.69
612.579	94.69
612.787	90.69
612.995	104.69
613.203	94.69
613.411	84.69
613.618	89.69
613.826	98.69
614.034	87.69
614.242	101.69
614.449	92.69
614.657	90.69
614.865	95.69
615.072	123.69
615.28	127.69
615.488	105.69
615.695	92.69
615.903	103.69
616.111	117.69
616.318	103.69
616.526	87.69
616.733	93.69
616.941	106.69
617.148	79.69
617.356	79.69
617.563	82.69
617.771	98.69
617.978	91.69
618.185	104.69
618.393	97.69
618.6	95.69
618.807	102.69
619.015	85.69
619.222	87.69
619.429	101.69
619.637	107.69
619.844	96.69
620.051	102.69
620.258	98.69
620.466	85.69
620.673	85.69
620.88	81.69
621.087	96.69
621.294	91.69
621.501	89.69
621.708	106.69
621.915	95.69
622.122	91.69
622.329	79.69
622.536	92.69
622.743	99.69
622.95	100.69
623.157	113.69
623.364	82.69
623.571	88.69
623.778	88.69
623.985	103.69
624.192	90.69
624.399	80.69
624.606	90.69
624.812	96.69
625.019	88.69
625.226	87.69
625.433	90.69
625.639	75.69
625.846	87.69
626.053	88.69
626.259	88.69
626.466	86.69
626.673	92.69
626.879	90.69
627.086	101.69
627.293	79.69
627.499	89.69
627.706	88.69
627.912	83.69
628.119	100.69
628.325	87.69
628.532	98.69
628.738	84.69
628.945	94.69
629.151	84.69
629.357	71.69
629.564	86.69
629.77	87.69
629.976	90.69
630.183	94.69
630.389	106.69
630.595	75.69
630.802	88.69
631.008	92.69
631.214	92.69
631.42	94.69
631.627	96.69
631.833	91.69
632.039	93.69
632.245	97.69
632.451	82.69
632.657	102.69
632.863	89.69
633.069	86.69
633.275	88.69
633.481	95.69
633.688	84.69
633.893	85.69
634.099	96.69
634.305	77.69
634.511	106.69
634.717	103.69
634.923	97.69
635.129	117.69
635.335	123.69
635.541	100.69
635.747	101.69
635.952	87.69
636.158	84.69
636.364	95.69
636.57	79.69
636.775	90.69
636.981	99.69
637.187	81.69
637.392	95.69
637.598	101.69
637.804	69.69
638.009	93.69
638.215	87.69
638.421	85.69
638.626	91.69
638.832	96.69
639.037	90.69
639.243	77.69
639.448	94.69
639.654	102.69
639.859	103.69
640.065	96.69
640.27	97.69
640.475	83.69
640.681	77.69
640.886	76.69
641.091	104.69
641.297	86.69
641.502	81.69
641.707	86.69
641.913	75.69
642.118	94.69
642.323	76.69
642.528	87.69
642.733	82.69
642.939	95.69
643.144	87.69
643.349	70.69
643.554	87.69
643.759	82.69
643.964	91.69
644.169	95.69
644.374	75.69
644.579	77.69
644.784	87.69
644.989	74.69
645.194	87.69
645.399	100.69
645.604	107.69
645.809	106.69
646.014	81.69
646.219	79.69
646.423	83.69
646.628	100.69
646.833	88.69
647.038	98.69
647.243	92.69
647.447	82.69
647.652	98.69
647.857	86.69
648.062	86.69
648.266	88.69
648.471	91.69
648.676	83.69
648.88	87.69
649.085	84.69
649.289	99.69
649.494	86.69
649.698	91.69
649.903	86.69
650.107	96.69
650.312	115.69
650.516	74.69
650.721	96.69
650.925	77.69
651.13	76.69
651.334	79.69
651.539	103.69
651.743	87.69
651.947	70.69
652.152	91.69
652.356	91.69
652.56	111.69
652.764	102.69
652.969	83.69
653.173	70.69
653.377	60.69
653.581	82.69
653.785	73.69
653.99	82.69
654.194	88.69
654.398	86.69
654.602	95.69
654.806	97.69
655.01	88.69
655.214	79.69
655.418	83.69
655.622	76.69
655.826	94.69
656.03	87.69
656.234	89.69
656.438	85.69
656.642	74.69
656.846	92.69
657.049	75.69
657.253	79.69
657.457	74.69
657.661	77.69
657.865	93.69
658.068	87.69
658.272	87.69
658.476	79.69
658.68	81.69
658.883	76.69
659.087	90.69
659.291	87.69
659.494	77.69
659.698	81.69
659.901	90.69
660.105	82.69
660.309	85.69
660.512	84.69
660.716	82.69
660.919	97.69
661.123	88.69
661.326	93.69
661.53	77.69
661.733	81.69
661.936	92.69
662.14	83.69
662.343	96.69
662.546	86.69
662.75	74.69
662.953	100.69
663.156	77.69
663.36	70.69
663.563	87.69
663.766	78.69
663.969	83.69
664.173	73.69
664.376	85.69
664.579	84.69
664.782	82.69
664.985	72.69
665.188	80.69
665.391	97.69
665.594	94.69
665.797	91.69
666	83.69
666.203	103.69
666.406	80.69
666.609	89.69
666.812	90.69
667.015	79.69
667.218	87.69
667.421	81.69
667.624	76.69
667.827	92.69
668.03	84.69
668.232	74.69
668.435	78.69
668.638	68.69
668.841	91.69
669.043	84.69
669.246	82.69
669.449	80.69
669.651	77.69
669.854	79.69
670.057	80.69
670.259	89.69
670.462	87.69
670.665	87.69
670.867	76.69
671.07	68.69
671.272	74.69
671.475	90.69
671.677	71.69
671.88	82.69
672.082	94.69
672.284	80.69
672.487	97.69
672.689	79.69
672.892	51.69
