Data from SnStandardFlinnAPT0064_LampEnergy5.5_LIBS07252019.E.O._I.C._HRD10591_15-15-02-491.txt Node
Date: Thu Jul 25 15:15:02 EDT 2019
User: cochatt
Spectrometer: HR+D1059
Trigger mode: 1
Integration Time (sec): 1.000000E-1
Scans to average: 1
Electric dark correction enabled: true
Nonlinearity correction enabled: false
Boxcar width: 0
XAxis mode: Wavelengths
Number of Pixels in Spectrum: 2048
>>>>>Begin Spectral Data<<<<<
223.165	-9.44
223.4	-9.44
223.635	-9.44
223.869	-24.44
224.104	-15.44
224.338	-16.44
224.573	-16.44
224.808	-14.44
225.042	3.56
225.277	-13.44
225.511	-9.44
225.746	-3.44
225.98	7.56
226.215	7.56
226.449	22.56
226.683	22.56
226.918	25.56
227.152	33.56
227.387	34.56
227.621	46.56
227.856	47.56
228.09	41.56
228.324	63.56
228.559	60.56
228.793	85.56
229.027	138.56
229.262	145.56
229.496	146.56
229.73	140.56
229.964	159.56
230.199	153.56
230.433	151.56
230.667	156.56
230.901	165.56
231.136	178.56
231.37	177.56
231.604	172.56
231.838	198.56
232.072	223.56
232.306	206.56
232.541	187.56
232.775	193.56
233.009	193.56
233.243	201.56
233.477	198.56
233.711	223.56
233.945	241.56
234.179	218.56
234.413	207.56
234.647	200.56
234.881	192.56
235.115	214.56
235.349	255.56
235.583	299.56
235.817	378.56
236.051	363.56
236.285	281.56
236.519	219.56
236.753	224.56
236.987	204.56
237.221	236.56
237.455	225.56
237.689	203.56
237.922	202.56
238.156	215.56
238.39	226.56
238.624	246.56
238.858	207.56
239.091	239.56
239.325	231.56
239.559	229.56
239.793	212.56
240.027	228.56
240.26	227.56
240.494	249.56
240.728	241.56
240.961	264.56
241.195	266.56
241.429	273.56
241.662	279.56
241.896	334.56
242.13	371.56
242.363	439.56
242.597	517.56
242.83	537.56
243.064	551.56
243.298	644.56
243.531	520.56
243.765	367.56
243.998	328.56
244.232	316.56
244.465	297.56
244.699	278.56
244.932	283.56
245.166	282.56
245.399	281.56
245.633	294.56
245.866	306.56
246.099	290.56
246.333	284.56
246.566	299.56
246.8	291.56
247.033	280.56
247.266	292.56
247.5	286.56
247.733	276.56
247.966	307.56
248.2	300.56
248.433	335.56
248.666	369.56
248.899	360.56
249.133	326.56
249.366	333.56
249.599	367.56
249.832	397.56
250.066	401.56
250.299	352.56
250.532	328.56
250.765	339.56
250.998	307.56
251.231	308.56
251.465	316.56
251.698	321.56
251.931	331.56
252.164	329.56
252.397	317.56
252.63	311.56
252.863	339.56
253.096	345.56
253.329	328.56
253.562	323.56
253.795	351.56
254.028	346.56
254.261	345.56
254.494	354.56
254.727	402.56
254.96	454.56
255.193	444.56
255.426	376.56
255.659	372.56
255.892	368.56
256.124	364.56
256.357	358.56
256.59	360.56
256.823	374.56
257.056	440.56
257.289	510.56
257.521	537.56
257.754	456.56
257.987	404.56
258.22	386.56
258.452	391.56
258.685	399.56
258.918	401.56
259.151	402.56
259.383	433.56
259.616	473.56
259.849	476.56
260.081	442.56
260.314	415.56
260.547	413.56
260.779	399.56
261.012	396.56
261.244	419.56
261.477	432.56
261.71	433.56
261.942	426.56
262.175	445.56
262.407	454.56
262.64	445.56
262.872	458.56
263.105	479.56
263.337	512.56
263.57	525.56
263.802	547.56
264.035	553.56
264.267	572.56
264.499	601.56
264.732	628.56
264.964	618.56
265.197	614.56
265.429	600.56
265.661	621.56
265.894	639.56
266.126	691.56
266.358	745.56
266.591	711.56
266.823	659.56
267.055	610.56
267.287	567.56
267.52	567.56
267.752	562.56
267.984	524.56
268.216	534.56
268.448	523.56
268.681	531.56
268.913	539.56
269.145	511.56
269.377	499.56
269.609	525.56
269.841	517.56
270.073	535.56
270.306	617.56
270.538	786.56
270.77	1124.56
271.002	1318.56
271.234	959.56
271.466	680.56
271.698	583.56
271.93	578.56
272.162	545.56
272.394	538.56
272.626	523.56
272.858	528.56
273.09	503.56
273.322	501.56
273.553	491.56
273.785	527.56
274.017	500.56
274.249	509.56
274.481	527.56
274.713	500.56
274.945	507.56
275.176	512.56
275.408	535.56
275.64	502.56
275.872	509.56
276.104	521.56
276.335	523.56
276.567	508.56
276.799	522.56
277.031	555.56
277.262	525.56
277.494	549.56
277.726	580.56
277.957	651.56
278.189	723.56
278.421	701.56
278.652	645.56
278.884	625.56
279.115	591.56
279.347	576.56
279.579	567.56
279.81	567.56
280.042	539.56
280.273	582.56
280.505	567.56
280.736	581.56
280.968	631.56
281.199	643.56
281.431	709.56
281.662	732.56
281.894	681.56
282.125	643.56
282.356	652.56
282.588	651.56
282.819	656.56
283.051	691.56
283.282	757.56
283.513	895.56
283.745	1223.56
283.976	1883.56
284.207	2569.56
284.439	2353.56
284.67	1492.56
284.901	1212.56
285.132	1211.56
285.364	1101.56
285.595	934.56
285.826	859.56
286.057	1003.56
286.288	1278.56
286.52	1675.56
286.751	1574.56
286.982	1042.56
287.213	845.56
287.444	760.56
287.675	723.56
287.906	695.56
288.138	688.56
288.369	661.56
288.6	641.56
288.831	655.56
289.062	663.56
289.293	700.56
289.524	685.56
289.755	679.56
289.986	680.56
290.217	668.56
290.448	694.56
290.679	675.56
290.91	684.56
291.141	724.56
291.371	752.56
291.602	746.56
291.833	707.56
292.064	701.56
292.295	665.56
292.526	658.56
292.757	643.56
292.987	632.56
293.218	617.56
293.449	625.56
293.68	617.56
293.91	644.56
294.141	628.56
294.372	657.56
294.603	623.56
294.833	633.56
295.064	659.56
295.295	648.56
295.525	613.56
295.756	652.56
295.987	637.56
296.217	646.56
296.448	625.56
296.679	641.56
296.909	647.56
297.14	633.56
297.37	653.56
297.601	658.56
297.831	662.56
298.062	645.56
298.292	653.56
298.523	672.56
298.753	665.56
298.984	679.56
299.214	673.56
299.445	692.56
299.675	671.56
299.905	711.56
300.136	748.56
300.366	827.56
300.597	995.56
300.827	1299.56
301.057	1690.56
301.288	1669.56
301.518	1130.56
301.748	945.56
301.979	845.56
302.209	830.56
302.439	846.56
302.669	895.56
302.9	1017.56
303.13	1370.56
303.36	1908.56
303.59	2482.56
303.82	2229.56
304.051	1402.56
304.281	1023.56
304.511	916.56
304.741	868.56
304.971	829.56
305.201	806.56
305.431	787.56
305.661	748.56
305.891	761.56
306.121	742.56
306.352	736.56
306.582	760.56
306.812	735.56
307.042	747.56
307.272	743.56
307.502	740.56
307.731	740.56
307.961	731.56
308.191	738.56
308.421	715.56
308.651	714.56
308.881	719.56
309.111	746.56
309.341	751.56
309.571	753.56
309.8	727.56
310.03	753.56
310.26	748.56
310.49	741.56
310.72	752.56
310.949	759.56
311.179	773.56
311.409	767.56
311.639	782.56
311.868	766.56
312.098	799.56
312.328	798.56
312.557	789.56
312.787	797.56
313.017	794.56
313.246	788.56
313.476	790.56
313.706	831.56
313.935	828.56
314.165	865.56
314.394	872.56
314.624	868.56
314.853	829.56
315.083	851.56
315.312	827.56
315.542	875.56
315.771	853.56
316.001	843.56
316.23	888.56
316.46	909.56
316.689	980.56
316.919	1141.56
317.148	1578.56
317.377	2305.56
317.607	3346.56
317.836	3377.56
318.065	2102.56
318.295	1433.56
318.524	1225.56
318.753	1079.56
318.983	1011.56
319.212	992.56
319.441	967.56
319.67	930.56
319.9	939.56
320.129	906.56
320.358	905.56
320.587	897.56
320.816	903.56
321.046	915.56
321.275	911.56
321.504	923.56
321.733	925.56
321.962	944.56
322.191	961.56
322.42	960.56
322.649	962.56
322.878	968.56
323.108	987.56
323.337	999.56
323.566	981.56
323.795	996.56
324.024	1016.56
324.253	1020.56
324.482	1064.56
324.71	1094.56
324.939	1166.56
325.168	1208.56
325.397	1229.56
325.626	1397.56
325.855	1925.56
326.084	2820.56
326.313	4087.56
326.542	4320.56
326.77	2857.56
326.999	1992.56
327.228	1704.56
327.457	1649.56
327.686	1660.56
327.914	1761.56
328.143	2003.56
328.372	2346.56
328.6	2492.56
328.829	2367.56
329.058	2103.56
329.287	1848.56
329.515	1723.56
329.744	1626.56
329.972	1538.56
330.201	1455.56
330.43	1456.56
330.658	1371.56
330.887	1345.56
331.115	1328.56
331.344	1321.56
331.572	1307.56
331.801	1321.56
332.03	1338.56
332.258	1354.56
332.486	1394.56
332.715	1537.56
332.943	1831.56
333.172	2147.56
333.4	2129.56
333.629	1747.56
333.857	1653.56
334.085	1656.56
334.314	1721.56
334.542	1851.56
334.771	2125.56
334.999	2458.56
335.227	2977.56
335.455	3333.56
335.684	3075.56
335.912	2712.56
336.14	2364.56
336.369	2114.56
336.597	1948.56
336.825	1839.56
337.053	1706.56
337.281	1631.56
337.51	1594.56
337.738	1514.56
337.966	1425.56
338.194	1388.56
338.422	1365.56
338.65	1286.56
338.878	1307.56
339.106	1277.56
339.334	1290.56
339.562	1227.56
339.79	1216.56
340.018	1199.56
340.246	1194.56
340.474	1203.56
340.702	1178.56
340.93	1177.56
341.158	1169.56
341.386	1199.56
341.614	1152.56
341.842	1161.56
342.07	1122.56
342.298	1121.56
342.526	1076.56
342.754	1071.56
342.981	1098.56
343.209	1059.56
343.437	1100.56
343.665	1112.56
343.893	1093.56
344.12	1129.56
344.348	1099.56
344.576	1081.56
344.804	1074.56
345.031	1044.56
345.259	1044.56
345.487	1029.56
345.714	1018.56
345.942	980.56
346.17	1001.56
346.397	1001.56
346.625	1024.56
346.853	1002.56
347.08	993.56
347.308	995.56
347.535	984.56
347.763	1005.56
347.99	987.56
348.218	1014.56
348.445	997.56
348.673	963.56
348.9	948.56
349.128	962.56
349.355	979.56
349.583	968.56
349.81	977.56
350.037	966.56
350.265	973.56
350.492	980.56
350.72	963.56
350.947	969.56
351.174	973.56
351.402	974.56
351.629	975.56
351.856	968.56
352.083	970.56
352.311	960.56
352.538	945.56
352.765	958.56
352.992	970.56
353.22	951.56
353.447	929.56
353.674	948.56
353.901	929.56
354.128	957.56
354.355	952.56
354.583	981.56
354.81	981.56
355.037	963.56
355.264	967.56
355.491	1005.56
355.718	970.56
355.945	1011.56
356.172	984.56
356.399	994.56
356.626	1008.56
356.853	1016.56
357.08	986.56
357.307	1009.56
357.534	1009.56
357.761	1027.56
357.988	1023.56
358.215	1046.56
358.441	1021.56
358.668	1043.56
358.895	1011.56
359.122	1029.56
359.349	999.56
359.576	1026.56
359.802	995.56
360.029	1022.56
360.256	1013.56
360.483	1014.56
360.709	1040.56
360.936	1027.56
361.163	1015.56
361.39	1032.56
361.616	1046.56
361.843	1036.56
362.07	1047.56
362.296	1013.56
362.523	1049.56
362.749	1033.56
362.976	1012.56
363.203	1043.56
363.429	1023.56
363.656	1024.56
363.882	1016.56
364.109	1020.56
364.335	1041.56
364.562	1009.56
364.788	1022.56
365.015	1041.56
365.241	1027.56
365.468	1072.56
365.694	1108.56
365.92	1079.56
366.147	1054.56
366.373	1046.56
366.599	1064.56
366.826	1042.56
367.052	1025.56
367.278	1036.56
367.505	1066.56
367.731	1043.56
367.957	1043.56
368.184	1059.56
368.41	1056.56
368.636	1069.56
368.862	1038.56
369.089	1078.56
369.315	1059.56
369.541	1070.56
369.767	1060.56
369.993	1055.56
370.219	1047.56
370.445	1055.56
370.672	1076.56
370.898	1064.56
371.124	1076.56
371.35	1107.56
371.576	1106.56
371.802	1106.56
372.028	1114.56
372.254	1117.56
372.48	1098.56
372.706	1111.56
372.932	1141.56
373.158	1120.56
373.384	1123.56
373.61	1147.56
373.835	1132.56
374.061	1121.56
374.287	1150.56
374.513	1139.56
374.739	1146.56
374.965	1189.56
375.191	1135.56
375.416	1163.56
375.642	1155.56
375.868	1125.56
376.094	1137.56
376.319	1121.56
376.545	1089.56
376.771	1137.56
376.997	1134.56
377.222	1105.56
377.448	1089.56
377.674	1126.56
377.899	1075.56
378.125	1095.56
378.35	1111.56
378.576	1111.56
378.802	1084.56
379.027	1139.56
379.253	1158.56
379.478	1206.56
379.704	1337.56
379.929	1729.56
380.155	2487.56
380.38	2651.56
380.606	1772.56
380.831	1340.56
381.057	1254.56
381.282	1183.56
381.507	1128.56
381.733	1122.56
381.958	1116.56
382.184	1127.56
382.409	1091.56
382.634	1098.56
382.86	1057.56
383.085	1109.56
383.31	1114.56
383.535	1060.56
383.761	1100.56
383.986	1074.56
384.211	1110.56
384.436	1115.56
384.662	1137.56
384.887	1131.56
385.112	1104.56
385.337	1112.56
385.562	1125.56
385.787	1143.56
386.013	1145.56
386.238	1149.56
386.463	1138.56
386.688	1135.56
386.913	1119.56
387.138	1098.56
387.363	1123.56
387.588	1125.56
387.813	1145.56
388.038	1113.56
388.263	1127.56
388.488	1112.56
388.713	1128.56
388.938	1154.56
389.163	1109.56
389.387	1106.56
389.612	1113.56
389.837	1127.56
390.062	1136.56
390.287	1137.56
390.512	1169.56
390.736	1136.56
390.961	1167.56
391.186	1161.56
391.411	1160.56
391.636	1202.56
391.86	1161.56
392.085	1213.56
392.31	1200.56
392.534	1187.56
392.759	1133.56
392.984	1113.56
393.208	1165.56
393.433	1147.56
393.658	1119.56
393.882	1157.56
394.107	1150.56
394.331	1137.56
394.556	1166.56
394.78	1163.56
395.005	1162.56
395.229	1180.56
395.454	1171.56
395.678	1191.56
395.903	1184.56
396.127	1166.56
396.352	1175.56
396.576	1147.56
396.801	1148.56
397.025	1199.56
397.249	1203.56
397.474	1170.56
397.698	1191.56
397.922	1175.56
398.147	1194.56
398.371	1183.56
398.595	1231.56
398.82	1274.56
399.044	1318.56
399.268	1377.56
399.492	1449.56
399.717	1481.56
399.941	1504.56
400.165	1475.56
400.389	1384.56
400.613	1335.56
400.837	1307.56
401.062	1285.56
401.286	1265.56
401.51	1263.56
401.734	1263.56
401.958	1262.56
402.182	1251.56
402.406	1253.56
402.63	1248.56
402.854	1248.56
403.078	1253.56
403.302	1289.56
403.526	1294.56
403.75	1263.56
403.974	1322.56
404.198	1318.56
404.422	1316.56
404.645	1292.56
404.869	1275.56
405.093	1266.56
405.317	1296.56
405.541	1312.56
405.765	1280.56
405.988	1329.56
406.212	1369.56
406.436	1323.56
406.66	1336.56
406.883	1339.56
407.107	1388.56
407.331	1375.56
407.555	1399.56
407.778	1386.56
408.002	1391.56
408.226	1365.56
408.449	1382.56
408.673	1327.56
408.896	1332.56
409.12	1282.56
409.344	1312.56
409.567	1267.56
409.791	1299.56
410.014	1263.56
410.238	1251.56
410.461	1294.56
410.685	1299.56
410.908	1251.56
411.132	1268.56
411.355	1239.56
411.578	1231.56
411.802	1222.56
412.025	1255.56
412.249	1260.56
412.472	1243.56
412.695	1226.56
412.919	1223.56
413.142	1226.56
413.365	1242.56
413.589	1245.56
413.812	1252.56
414.035	1243.56
414.258	1217.56
414.482	1226.56
414.705	1235.56
414.928	1219.56
415.151	1258.56
415.374	1216.56
415.597	1211.56
415.821	1203.56
416.044	1178.56
416.267	1149.56
416.49	1150.56
416.713	1191.56
416.936	1188.56
417.159	1168.56
417.382	1148.56
417.605	1180.56
417.828	1173.56
418.051	1199.56
418.274	1182.56
418.497	1214.56
418.72	1243.56
418.943	1185.56
419.166	1258.56
419.389	1305.56
419.611	1280.56
419.834	1271.56
420.057	1249.56
420.28	1229.56
420.503	1180.56
420.726	1195.56
420.948	1161.56
421.171	1158.56
421.394	1199.56
421.617	1177.56
421.839	1213.56
422.062	1193.56
422.285	1171.56
422.507	1204.56
422.73	1202.56
422.953	1203.56
423.175	1253.56
423.398	1245.56
423.621	1207.56
423.843	1234.56
424.066	1179.56
424.288	1172.56
424.511	1220.56
424.733	1218.56
424.956	1184.56
425.178	1147.56
425.401	1175.56
425.623	1165.56
425.846	1155.56
426.068	1160.56
426.291	1157.56
426.513	1135.56
426.735	1145.56
426.958	1193.56
427.18	1150.56
427.402	1140.56
427.625	1106.56
427.847	1105.56
428.069	1104.56
428.292	1157.56
428.514	1129.56
428.736	1089.56
428.958	1107.56
429.181	1087.56
429.403	1072.56
429.625	1095.56
429.847	1093.56
430.069	1082.56
430.292	1149.56
430.514	1166.56
430.736	1132.56
430.958	1139.56
431.18	1109.56
431.402	1100.56
431.624	1088.56
431.846	1097.56
432.068	1061.56
432.29	1097.56
432.512	1074.56
432.734	1089.56
432.956	1096.56
433.178	1089.56
433.4	1076.56
433.622	1116.56
433.844	1119.56
434.066	1093.56
434.287	1073.56
434.509	1119.56
434.731	1129.56
434.953	1152.56
435.175	1139.56
435.397	1142.56
435.618	1101.56
435.84	1084.56
436.062	1071.56
436.284	1089.56
436.505	1112.56
436.727	1105.56
436.949	1080.56
437.17	1093.56
437.392	1077.56
437.614	1074.56
437.835	1046.56
438.057	1057.56
438.278	1033.56
438.5	1079.56
438.721	1068.56
438.943	1079.56
439.165	1107.56
439.386	1083.56
439.608	1137.56
439.829	1143.56
440.05	1174.56
440.272	1179.56
440.493	1140.56
440.715	1152.56
440.936	1132.56
441.158	1161.56
441.379	1150.56
441.6	1185.56
441.822	1188.56
442.043	1247.56
442.264	1253.56
442.486	1192.56
442.707	1167.56
442.928	1187.56
443.149	1173.56
443.371	1149.56
443.592	1166.56
443.813	1190.56
444.034	1173.56
444.255	1224.56
444.476	1241.56
444.698	1239.56
444.919	1257.56
445.14	1349.56
445.361	1257.56
445.582	1217.56
445.803	1184.56
446.024	1136.56
446.245	1157.56
446.466	1167.56
446.687	1147.56
446.908	1146.56
447.129	1153.56
447.35	1129.56
447.571	1108.56
447.792	1105.56
448.013	1064.56
448.234	1048.56
448.455	1081.56
448.675	1084.56
448.896	1140.56
449.117	1117.56
449.338	1206.56
449.559	1225.56
449.779	1123.56
450	1062.56
450.221	1083.56
450.442	1071.56
450.662	1045.56
450.883	1073.56
451.104	1040.56
451.324	1053.56
451.545	1051.56
451.766	1027.56
451.986	1053.56
452.207	1100.56
452.428	1251.56
452.648	1700.56
452.869	1474.56
453.089	1151.56
453.31	1156.56
453.53	1133.56
453.751	1148.56
453.971	1185.56
454.192	1189.56
454.412	1085.56
454.633	1017.56
454.853	1020.56
455.073	1030.56
455.294	1015.56
455.514	1004.56
455.734	1023.56
455.955	988.56
456.175	991.56
456.395	996.56
456.616	990.56
456.836	1008.56
457.056	1035.56
457.276	1008.56
457.497	1041.56
457.717	1068.56
457.937	1049.56
458.157	1058.56
458.377	1023.56
458.598	1038.56
458.818	1027.56
459.038	1081.56
459.258	1082.56
459.478	1094.56
459.698	1093.56
459.918	1102.56
460.138	1130.56
460.358	1152.56
460.578	1149.56
460.798	1170.56
461.018	1207.56
461.238	1211.56
461.458	1225.56
461.678	1190.56
461.898	1207.56
462.118	1224.56
462.338	1261.56
462.558	1260.56
462.777	1287.56
462.997	1364.56
463.217	1351.56
463.437	1395.56
463.657	1429.56
463.876	1385.56
464.096	1303.56
464.316	1269.56
464.536	1311.56
464.755	1244.56
464.975	1244.56
465.195	1204.56
465.414	1151.56
465.634	1122.56
465.854	1130.56
466.073	1111.56
466.293	1112.56
466.512	1118.56
466.732	1084.56
466.951	1135.56
467.171	1169.56
467.391	1153.56
467.61	1083.56
467.829	1085.56
468.049	1087.56
468.268	1056.56
468.488	1068.56
468.707	1108.56
468.927	1086.56
469.146	1065.56
469.365	1102.56
469.585	1089.56
469.804	1113.56
470.023	1136.56
470.243	1143.56
470.462	1155.56
470.681	1210.56
470.901	1303.56
471.12	1410.56
471.339	1448.56
471.558	1225.56
471.777	1168.56
471.997	1149.56
472.216	1092.56
472.435	1071.56
472.654	1073.56
472.873	1055.56
473.092	1104.56
473.311	1064.56
473.53	1097.56
473.749	1102.56
473.968	1155.56
474.187	1080.56
474.406	1063.56
474.625	1090.56
474.844	1083.56
475.063	1064.56
475.282	1073.56
475.501	1103.56
475.72	1090.56
475.939	1096.56
476.158	1117.56
476.377	1152.56
476.596	1123.56
476.814	1133.56
477.033	1099.56
477.252	1101.56
477.471	1169.56
477.69	1184.56
477.908	1192.56
478.127	1210.56
478.346	1232.56
478.564	1247.56
478.783	1225.56
479.002	1298.56
479.22	1278.56
479.439	1295.56
479.658	1284.56
479.876	1267.56
480.095	1294.56
480.313	1312.56
480.532	1300.56
480.751	1363.56
480.969	1285.56
481.188	1251.56
481.406	1247.56
481.624	1226.56
481.843	1255.56
482.061	1255.56
482.28	1293.56
482.498	1267.56
482.717	1265.56
482.935	1320.56
483.153	1327.56
483.372	1333.56
483.59	1364.56
483.808	1372.56
484.027	1335.56
484.245	1439.56
484.463	1571.56
484.681	1684.56
484.9	1587.56
485.118	1502.56
485.336	1482.56
485.554	1477.56
485.772	1547.56
485.99	1676.56
486.209	1823.56
486.427	1589.56
486.645	1449.56
486.863	1399.56
487.081	1370.56
487.299	1361.56
487.517	1357.56
487.735	1377.56
487.953	1395.56
488.171	1361.56
488.389	1385.56
488.607	1362.56
488.825	1357.56
489.043	1300.56
489.261	1327.56
489.479	1324.56
489.696	1337.56
489.914	1352.56
490.132	1360.56
490.35	1397.56
490.568	1378.56
490.786	1373.56
491.003	1410.56
491.221	1407.56
491.439	1433.56
491.657	1422.56
491.874	1429.56
492.092	1484.56
492.31	1512.56
492.527	1471.56
492.745	1427.56
492.963	1478.56
493.18	1451.56
493.398	1415.56
493.615	1409.56
493.833	1421.56
494.05	1412.56
494.268	1447.56
494.485	1455.56
494.703	1433.56
494.92	1448.56
495.138	1473.56
495.355	1455.56
495.573	1419.56
495.79	1448.56
496.008	1451.56
496.225	1452.56
496.442	1459.56
496.66	1502.56
496.877	1546.56
497.094	1562.56
497.312	1491.56
497.529	1535.56
497.746	1517.56
497.963	1555.56
498.181	1601.56
498.398	1617.56
498.615	1656.56
498.832	1672.56
499.049	1797.56
499.267	1883.56
499.484	2033.56
499.701	2053.56
499.918	2174.56
500.135	2279.56
500.352	2361.56
500.569	2415.56
500.786	2396.56
501.003	2341.56
501.22	2219.56
501.437	2104.56
501.654	1957.56
501.871	1886.56
502.088	1791.56
502.305	1755.56
502.522	1675.56
502.739	1689.56
502.956	1606.56
503.172	1587.56
503.389	1522.56
503.606	1477.56
503.823	1452.56
504.04	1472.56
504.256	1487.56
504.473	1438.56
504.69	1479.56
504.907	1424.56
505.123	1376.56
505.34	1345.56
505.557	1354.56
505.773	1351.56
505.99	1318.56
506.207	1296.56
506.423	1309.56
506.64	1292.56
506.856	1295.56
507.073	1271.56
507.289	1244.56
507.506	1267.56
507.722	1258.56
507.939	1239.56
508.155	1189.56
508.372	1219.56
508.588	1209.56
508.805	1197.56
509.021	1204.56
509.238	1209.56
509.454	1273.56
509.67	1298.56
509.887	1293.56
510.103	1215.56
510.319	1167.56
510.536	1201.56
510.752	1202.56
510.968	1198.56
511.184	1187.56
511.401	1162.56
511.617	1155.56
511.833	1157.56
512.049	1171.56
512.265	1136.56
512.481	1157.56
512.698	1146.56
512.914	1176.56
513.13	1163.56
513.346	1151.56
513.562	1186.56
513.778	1152.56
513.994	1162.56
514.21	1192.56
514.426	1223.56
514.642	1283.56
514.858	1192.56
515.074	1188.56
515.29	1168.56
515.506	1185.56
515.721	1175.56
515.937	1206.56
516.153	1226.56
516.369	1256.56
516.585	1221.56
516.801	1244.56
517.016	1243.56
517.232	1285.56
517.448	1275.56
517.664	1344.56
517.879	1313.56
518.095	1303.56
518.311	1291.56
518.527	1310.56
518.742	1297.56
518.958	1286.56
519.173	1298.56
519.389	1258.56
519.605	1222.56
519.82	1222.56
520.036	1223.56
520.251	1175.56
520.467	1191.56
520.682	1131.56
520.898	1131.56
521.113	1134.56
521.329	1123.56
521.544	1116.56
521.76	1155.56
521.975	1129.56
522.19	1100.56
522.406	1138.56
522.621	1104.56
522.836	1143.56
523.052	1144.56
523.267	1115.56
523.482	1135.56
523.698	1087.56
523.913	1096.56
524.128	1135.56
524.343	1142.56
524.559	1121.56
524.774	1135.56
524.989	1109.56
525.204	1135.56
525.419	1139.56
525.634	1116.56
525.849	1115.56
526.064	1128.56
526.28	1110.56
526.495	1093.56
526.71	1102.56
526.925	1123.56
527.14	1096.56
527.355	1127.56
527.57	1157.56
527.785	1139.56
527.999	1132.56
528.214	1141.56
528.429	1164.56
528.644	1203.56
528.859	1171.56
529.074	1171.56
529.289	1235.56
529.503	1214.56
529.718	1223.56
529.933	1194.56
530.148	1134.56
530.363	1159.56
530.577	1203.56
530.792	1192.56
531.007	1179.56
531.221	1176.56
531.436	1183.56
531.651	1173.56
531.865	1190.56
532.08	1220.56
532.295	1225.56
532.509	1298.56
532.724	1307.56
532.938	1301.56
533.153	1312.56
533.367	1385.56
533.582	1441.56
533.796	1431.56
534.011	1407.56
534.225	1382.56
534.44	1330.56
534.654	1318.56
534.868	1316.56
535.083	1299.56
535.297	1299.56
535.511	1289.56
535.726	1237.56
535.94	1231.56
536.154	1210.56
536.369	1186.56
536.583	1179.56
536.797	1189.56
537.011	1143.56
537.225	1119.56
537.44	1123.56
537.654	1135.56
537.868	1128.56
538.082	1123.56
538.296	1116.56
538.51	1093.56
538.724	1104.56
538.938	1123.56
539.153	1107.56
539.367	1115.56
539.581	1094.56
539.795	1052.56
540.009	1091.56
540.222	1049.56
540.436	1074.56
540.65	1080.56
540.864	1100.56
541.078	1117.56
541.292	1161.56
541.506	1291.56
541.72	1347.56
541.934	1250.56
542.147	1209.56
542.361	1181.56
542.575	1117.56
542.789	1096.56
543.002	1071.56
543.216	1049.56
543.43	1025.56
543.644	1047.56
543.857	1072.56
544.071	1071.56
544.285	1086.56
544.498	1091.56
544.712	1097.56
544.925	1119.56
545.139	1085.56
545.352	1106.56
545.566	1072.56
545.779	1090.56
545.993	1125.56
546.206	1123.56
546.42	1108.56
546.633	1081.56
546.847	1117.56
547.06	1061.56
547.274	1109.56
547.487	1107.56
547.7	1121.56
547.914	1068.56
548.127	1108.56
548.34	1122.56
548.554	1089.56
548.767	1102.56
548.98	1079.56
549.193	1095.56
549.407	1110.56
549.62	1086.56
549.833	1091.56
550.046	1106.56
550.259	1091.56
550.473	1100.56
550.686	1101.56
550.899	1105.56
551.112	1094.56
551.325	1079.56
551.538	1109.56
551.751	1080.56
551.964	1065.56
552.177	1110.56
552.39	1124.56
552.603	1114.56
552.816	1147.56
553.029	1148.56
553.242	1207.56
553.455	1214.56
553.667	1231.56
553.88	1163.56
554.093	1183.56
554.306	1175.56
554.519	1202.56
554.732	1209.56
554.944	1249.56
555.157	1248.56
555.37	1242.56
555.583	1336.56
555.795	1352.56
556.008	1406.56
556.221	1471.56
556.433	1542.56
556.646	1519.56
556.859	1545.56
557.071	1491.56
557.284	1528.56
557.496	1461.56
557.709	1420.56
557.921	1444.56
558.134	1442.56
558.346	1430.56
558.559	1481.56
558.771	1536.56
558.984	1601.56
559.196	1667.56
559.409	1661.56
559.621	1567.56
559.833	1485.56
560.046	1467.56
560.258	1365.56
560.47	1339.56
560.683	1293.56
560.895	1267.56
561.107	1230.56
561.32	1199.56
561.532	1179.56
561.744	1139.56
561.956	1124.56
562.168	1088.56
562.381	1104.56
562.593	1080.56
562.805	1107.56
563.017	1109.56
563.229	1104.56
563.441	1171.56
563.653	1103.56
563.865	1051.56
564.077	1048.56
564.289	1011.56
564.501	1001.56
564.713	1026.56
564.925	1000.56
565.137	995.56
565.349	978.56
565.561	1020.56
565.773	996.56
565.985	1035.56
566.197	1025.56
566.408	1041.56
566.62	1084.56
566.832	1095.56
567.044	1097.56
567.255	1117.56
567.467	1124.56
567.679	1145.56
567.891	1203.56
568.102	1282.56
568.314	1446.56
568.526	1264.56
568.737	1115.56
568.949	1034.56
569.161	981.56
569.372	926.56
569.584	901.56
569.795	897.56
570.007	877.56
570.218	881.56
570.43	903.56
570.641	863.56
570.853	869.56
571.064	874.56
571.276	844.56
571.487	834.56
571.698	807.56
571.91	807.56
572.121	829.56
572.333	789.56
572.544	801.56
572.755	819.56
572.966	933.56
573.178	844.56
573.389	767.56
573.6	779.56
573.811	767.56
574.023	744.56
574.234	723.56
574.445	743.56
574.656	721.56
574.867	729.56
575.078	729.56
575.289	739.56
575.501	709.56
575.712	725.56
575.923	726.56
576.134	712.56
576.345	737.56
576.556	705.56
576.767	734.56
576.978	733.56
577.188	753.56
577.399	764.56
577.61	734.56
577.821	751.56
578.032	758.56
578.243	765.56
578.454	766.56
578.665	772.56
578.875	754.56
579.086	789.56
579.297	838.56
579.508	878.56
579.718	931.56
579.929	1001.56
580.14	1090.56
580.35	1097.56
580.561	1076.56
580.772	1013.56
580.982	977.56
581.193	931.56
581.403	905.56
581.614	871.56
581.825	815.56
582.035	805.56
582.246	779.56
582.456	756.56
582.667	761.56
582.877	727.56
583.087	701.56
583.298	714.56
583.508	674.56
583.719	687.56
583.929	653.56
584.139	651.56
584.35	647.56
584.56	643.56
584.77	642.56
584.981	639.56
585.191	605.56
585.401	623.56
585.611	595.56
585.821	588.56
586.032	592.56
586.242	595.56
586.452	580.56
586.662	573.56
586.872	548.56
587.082	564.56
587.292	582.56
587.502	564.56
587.713	545.56
587.923	560.56
588.133	553.56
588.343	559.56
588.553	539.56
588.762	534.56
588.972	563.56
589.182	569.56
589.392	528.56
589.602	532.56
589.812	521.56
590.022	517.56
590.232	531.56
590.441	529.56
590.651	526.56
590.861	504.56
591.071	507.56
591.281	527.56
591.49	541.56
591.7	533.56
591.91	528.56
592.119	520.56
592.329	539.56
592.539	545.56
592.748	554.56
592.958	555.56
593.167	572.56
593.377	548.56
593.587	565.56
593.796	525.56
594.006	549.56
594.215	556.56
594.424	547.56
594.634	531.56
594.843	522.56
595.053	530.56
595.262	513.56
595.472	507.56
595.681	515.56
595.89	491.56
596.1	500.56
596.309	505.56
596.518	503.56
596.727	480.56
596.937	475.56
597.146	453.56
597.355	466.56
597.564	473.56
597.774	468.56
597.983	442.56
598.192	446.56
598.401	451.56
598.61	456.56
598.819	456.56
599.028	425.56
599.237	437.56
599.446	456.56
599.655	448.56
599.864	428.56
600.073	437.56
600.282	433.56
600.491	435.56
600.7	412.56
600.909	440.56
601.118	435.56
601.327	437.56
601.536	443.56
601.745	441.56
601.953	467.56
602.162	533.56
602.371	497.56
602.58	473.56
602.789	442.56
602.997	412.56
603.206	433.56
603.415	445.56
603.623	441.56
603.832	436.56
604.041	423.56
604.249	443.56
604.458	411.56
604.666	403.56
604.875	412.56
605.084	419.56
605.292	407.56
605.501	424.56
605.709	412.56
605.918	433.56
606.126	435.56
606.334	423.56
606.543	427.56
606.751	449.56
606.96	499.56
607.168	541.56
607.376	477.56
607.585	448.56
607.793	422.56
608.001	420.56
608.21	424.56
608.418	426.56
608.626	413.56
608.834	424.56
609.043	383.56
609.251	403.56
609.459	404.56
609.667	406.56
609.875	411.56
610.083	403.56
610.291	400.56
610.499	394.56
610.707	411.56
610.916	393.56
611.124	421.56
611.332	403.56
611.54	396.56
611.748	394.56
611.955	389.56
612.163	364.56
612.371	379.56
612.579	379.56
612.787	383.56
612.995	389.56
613.203	401.56
613.411	387.56
613.618	390.56
613.826	364.56
614.034	387.56
614.242	381.56
614.449	369.56
614.657	403.56
614.865	381.56
615.072	386.56
615.28	385.56
615.488	377.56
615.695	387.56
615.903	384.56
616.111	375.56
616.318	387.56
616.526	364.56
616.733	370.56
616.941	380.56
617.148	377.56
617.356	385.56
617.563	369.56
617.771	371.56
617.978	374.56
618.185	370.56
618.393	362.56
618.6	371.56
618.807	362.56
619.015	364.56
619.222	361.56
619.429	357.56
619.637	340.56
619.844	375.56
620.051	347.56
620.258	348.56
620.466	332.56
620.673	335.56
620.88	337.56
621.087	340.56
621.294	346.56
621.501	346.56
621.708	333.56
621.915	340.56
622.122	352.56
622.329	335.56
622.536	354.56
622.743	369.56
622.95	353.56
623.157	329.56
623.364	331.56
623.571	328.56
623.778	333.56
623.985	337.56
624.192	330.56
624.399	329.56
624.606	317.56
624.812	329.56
625.019	324.56
625.226	329.56
625.433	330.56
625.639	332.56
625.846	308.56
626.053	309.56
626.259	315.56
626.466	319.56
626.673	309.56
626.879	308.56
627.086	311.56
627.293	320.56
627.499	319.56
627.706	329.56
627.912	332.56
628.119	336.56
628.325	304.56
628.532	333.56
628.738	327.56
628.945	306.56
629.151	317.56
629.357	306.56
629.564	293.56
629.77	303.56
629.976	323.56
630.183	306.56
630.389	310.56
630.595	309.56
630.802	291.56
631.008	299.56
631.214	295.56
631.42	299.56
631.627	312.56
631.833	289.56
632.039	290.56
632.245	295.56
632.451	304.56
632.657	297.56
632.863	278.56
633.069	296.56
633.275	293.56
633.481	282.56
633.688	300.56
633.893	301.56
634.099	292.56
634.305	295.56
634.511	291.56
634.717	282.56
634.923	301.56
635.129	325.56
635.335	363.56
635.541	316.56
635.747	305.56
635.952	295.56
636.158	289.56
636.364	283.56
636.57	288.56
636.775	294.56
636.981	297.56
637.187	302.56
637.392	297.56
637.598	284.56
637.804	293.56
638.009	287.56
638.215	292.56
638.421	309.56
638.626	300.56
638.832	312.56
639.037	294.56
639.243	305.56
639.448	293.56
639.654	295.56
639.859	285.56
640.065	308.56
640.27	322.56
640.475	305.56
640.681	320.56
640.886	315.56
641.091	293.56
641.297	298.56
641.502	311.56
641.707	303.56
641.913	297.56
642.118	313.56
642.323	319.56
642.528	341.56
642.733	352.56
642.939	344.56
643.144	357.56
643.349	359.56
643.554	372.56
643.759	365.56
643.964	387.56
644.169	398.56
644.374	426.56
644.579	459.56
644.784	481.56
644.989	524.56
645.194	580.56
645.399	647.56
645.604	644.56
645.809	541.56
646.014	425.56
646.219	415.56
646.423	386.56
646.628	341.56
646.833	345.56
647.038	309.56
647.243	311.56
647.447	315.56
647.652	305.56
647.857	298.56
648.062	298.56
648.266	298.56
648.471	276.56
648.676	274.56
648.88	288.56
649.085	294.56
649.289	266.56
649.494	269.56
649.698	244.56
649.903	261.56
650.107	246.56
650.312	264.56
650.516	259.56
650.721	252.56
650.925	242.56
651.13	243.56
651.334	221.56
651.539	227.56
651.743	233.56
651.947	228.56
652.152	219.56
652.356	239.56
652.56	224.56
652.764	233.56
652.969	242.56
653.173	204.56
653.377	219.56
653.581	214.56
653.785	218.56
653.99	203.56
654.194	213.56
654.398	192.56
654.602	197.56
654.806	204.56
655.01	211.56
655.214	208.56
655.418	207.56
655.622	199.56
655.826	205.56
656.03	199.56
656.234	210.56
656.438	210.56
656.642	231.56
656.846	234.56
657.049	224.56
657.253	200.56
657.457	190.56
657.661	185.56
657.865	173.56
658.068	142.56
658.272	150.56
658.476	144.56
658.68	151.56
658.883	141.56
659.087	145.56
659.291	136.56
659.494	127.56
659.698	130.56
659.901	134.56
660.105	120.56
660.309	107.56
660.512	116.56
660.716	108.56
660.919	105.56
661.123	104.56
661.326	85.56
661.53	112.56
661.733	104.56
661.936	109.56
662.14	96.56
662.343	89.56
662.546	96.56
662.75	109.56
662.953	106.56
663.156	73.56
663.36	83.56
663.563	81.56
663.766	95.56
663.969	89.56
664.173	86.56
664.376	105.56
664.579	90.56
664.782	95.56
664.985	81.56
665.188	78.56
665.391	92.56
665.594	83.56
665.797	88.56
666	84.56
666.203	95.56
666.406	84.56
666.609	72.56
666.812	80.56
667.015	72.56
667.218	90.56
667.421	89.56
667.624	81.56
667.827	90.56
668.03	87.56
668.232	91.56
668.435	80.56
668.638	97.56
668.841	79.56
669.043	72.56
669.246	74.56
669.449	86.56
669.651	81.56
669.854	92.56
670.057	78.56
670.259	83.56
670.462	81.56
670.665	85.56
670.867	85.56
671.07	85.56
671.272	85.56
671.475	89.56
671.677	89.56
671.88	77.56
672.082	87.56
672.284	74.56
672.487	77.56
672.689	82.56
672.892	68.56
