Data from SnStandardFlinnAPT0064_LampEnergy5.5_LIBS07252019.E.O._I.C._HRD10591_15-17-41-492.txt Node
Date: Thu Jul 25 15:17:41 EDT 2019
User: cochatt
Spectrometer: HR+D1059
Trigger mode: 1
Integration Time (sec): 1.000000E-1
Scans to average: 1
Electric dark correction enabled: true
Nonlinearity correction enabled: false
Boxcar width: 0
XAxis mode: Wavelengths
Number of Pixels in Spectrum: 2048
>>>>>Begin Spectral Data<<<<<
223.165	-13.06
223.4	-13.06
223.635	-13.06
223.869	-25.06
224.104	-20.06
224.338	-2.06
224.573	-25.06
224.808	-17.06
225.042	-8.06
225.277	2.94
225.511	-7.06
225.746	-2.06
225.98	14.94
226.215	11.94
226.449	0.94
226.683	19.94
226.918	39.94
227.152	28.94
227.387	44.94
227.621	22.94
227.856	37.94
228.09	45.94
228.324	49.94
228.559	49.94
228.793	84.94
229.027	154.94
229.262	181.94
229.496	149.94
229.73	161.94
229.964	157.94
230.199	161.94
230.433	163.94
230.667	171.94
230.901	161.94
231.136	177.94
231.37	167.94
231.604	195.94
231.838	207.94
232.072	237.94
232.306	272.94
232.541	231.94
232.775	212.94
233.009	203.94
233.243	228.94
233.477	237.94
233.711	253.94
233.945	281.94
234.179	265.94
234.413	218.94
234.647	245.94
234.881	232.94
235.115	253.94
235.349	290.94
235.583	370.94
235.817	464.94
236.051	469.94
236.285	309.94
236.519	257.94
236.753	238.94
236.987	243.94
237.221	253.94
237.455	234.94
237.689	225.94
237.922	218.94
238.156	222.94
238.39	228.94
238.624	243.94
238.858	241.94
239.091	240.94
239.325	229.94
239.559	237.94
239.793	244.94
240.027	250.94
240.26	249.94
240.494	275.94
240.728	262.94
240.961	268.94
241.195	308.94
241.429	308.94
241.662	306.94
241.896	345.94
242.13	415.94
242.363	560.94
242.597	722.94
242.83	685.94
243.064	666.94
243.298	811.94
243.531	691.94
243.765	423.94
243.998	358.94
244.232	315.94
244.465	305.94
244.699	310.94
244.932	298.94
245.166	294.94
245.399	307.94
245.633	312.94
245.866	317.94
246.099	315.94
246.333	319.94
246.566	290.94
246.8	294.94
247.033	303.94
247.266	307.94
247.5	289.94
247.733	304.94
247.966	308.94
248.2	341.94
248.433	388.94
248.666	443.94
248.899	430.94
249.133	374.94
249.366	401.94
249.599	431.94
249.832	477.94
250.066	473.94
250.299	376.94
250.532	354.94
250.765	343.94
250.998	337.94
251.231	346.94
251.465	346.94
251.698	338.94
251.931	330.94
252.164	322.94
252.397	342.94
252.63	353.94
252.863	355.94
253.096	354.94
253.329	366.94
253.562	352.94
253.795	344.94
254.028	372.94
254.261	374.94
254.494	409.94
254.727	449.94
254.96	553.94
255.193	551.94
255.426	400.94
255.659	385.94
255.892	375.94
256.124	390.94
256.357	393.94
256.59	417.94
256.823	434.94
257.056	486.94
257.289	567.94
257.521	639.94
257.754	513.94
257.987	438.94
258.22	416.94
258.452	387.94
258.685	402.94
258.918	421.94
259.151	448.94
259.383	509.94
259.616	529.94
259.849	530.94
260.081	477.94
260.314	452.94
260.547	446.94
260.779	416.94
261.012	433.94
261.244	407.94
261.477	449.94
261.71	442.94
261.942	446.94
262.175	454.94
262.407	470.94
262.64	477.94
262.872	498.94
263.105	521.94
263.337	563.94
263.57	580.94
263.802	584.94
264.035	579.94
264.267	609.94
264.499	619.94
264.732	648.94
264.964	625.94
265.197	627.94
265.429	650.94
265.661	660.94
265.894	720.94
266.126	782.94
266.358	853.94
266.591	856.94
266.823	710.94
267.055	652.94
267.287	621.94
267.52	590.94
267.752	598.94
267.984	570.94
268.216	551.94
268.448	555.94
268.681	558.94
268.913	569.94
269.145	547.94
269.377	554.94
269.609	580.94
269.841	585.94
270.073	609.94
270.306	717.94
270.538	969.94
270.77	1400.94
271.002	1718.94
271.234	1177.94
271.466	769.94
271.698	631.94
271.93	596.94
272.162	557.94
272.394	573.94
272.626	539.94
272.858	541.94
273.09	532.94
273.322	559.94
273.553	525.94
273.785	544.94
274.017	537.94
274.249	535.94
274.481	550.94
274.713	551.94
274.945	550.94
275.176	551.94
275.408	563.94
275.64	552.94
275.872	513.94
276.104	545.94
276.335	577.94
276.567	550.94
276.799	550.94
277.031	555.94
277.262	560.94
277.494	592.94
277.726	661.94
277.957	780.94
278.189	850.94
278.421	813.94
278.652	720.94
278.884	698.94
279.115	640.94
279.347	648.94
279.579	614.94
279.81	605.94
280.042	612.94
280.273	604.94
280.505	625.94
280.736	650.94
280.968	681.94
281.199	743.94
281.431	851.94
281.662	829.94
281.894	771.94
282.125	719.94
282.356	706.94
282.588	720.94
282.819	735.94
283.051	773.94
283.282	850.94
283.513	1033.94
283.745	1547.94
283.976	2474.94
284.207	3536.94
284.439	3136.94
284.67	1835.94
284.901	1448.94
285.132	1473.94
285.364	1409.94
285.595	1107.94
285.826	1023.94
286.057	1208.94
286.288	1705.94
286.52	2280.94
286.751	2063.94
286.982	1236.94
287.213	929.94
287.444	807.94
287.675	754.94
287.906	780.94
288.138	751.94
288.369	720.94
288.6	723.94
288.831	716.94
289.062	715.94
289.293	722.94
289.524	718.94
289.755	763.94
289.986	715.94
290.217	745.94
290.448	737.94
290.679	741.94
290.91	746.94
291.141	788.94
291.371	839.94
291.602	850.94
291.833	806.94
292.064	740.94
292.295	743.94
292.526	726.94
292.757	687.94
292.987	688.94
293.218	696.94
293.449	670.94
293.68	688.94
293.91	665.94
294.141	676.94
294.372	689.94
294.603	676.94
294.833	674.94
295.064	690.94
295.295	679.94
295.525	672.94
295.756	676.94
295.987	670.94
296.217	687.94
296.448	650.94
296.679	687.94
296.909	687.94
297.14	682.94
297.37	685.94
297.601	710.94
297.831	707.94
298.062	705.94
298.292	698.94
298.523	733.94
298.753	727.94
298.984	731.94
299.214	753.94
299.445	752.94
299.675	754.94
299.905	774.94
300.136	814.94
300.366	933.94
300.597	1185.94
300.827	1652.94
301.057	2241.94
301.288	2201.94
301.518	1357.94
301.748	1058.94
301.979	967.94
302.209	925.94
302.439	961.94
302.669	1026.94
302.9	1258.94
303.13	1734.94
303.36	2596.94
303.59	3474.94
303.82	3008.94
304.051	1715.94
304.281	1205.94
304.511	999.94
304.741	904.94
304.971	891.94
305.201	848.94
305.431	885.94
305.661	821.94
305.891	816.94
306.121	802.94
306.352	820.94
306.582	825.94
306.812	804.94
307.042	793.94
307.272	794.94
307.502	805.94
307.731	773.94
307.961	779.94
308.191	780.94
308.421	769.94
308.651	809.94
308.881	784.94
309.111	779.94
309.341	782.94
309.571	773.94
309.8	801.94
310.03	811.94
310.26	801.94
310.49	800.94
310.72	807.94
310.949	809.94
311.179	809.94
311.409	813.94
311.639	831.94
311.868	833.94
312.098	843.94
312.328	842.94
312.557	819.94
312.787	837.94
313.017	862.94
313.246	849.94
313.476	859.94
313.706	860.94
313.935	922.94
314.165	969.94
314.394	1016.94
314.624	948.94
314.853	933.94
315.083	913.94
315.312	921.94
315.542	946.94
315.771	945.94
316.001	945.94
316.23	963.94
316.46	1015.94
316.689	1127.94
316.919	1375.94
317.148	1942.94
317.377	3103.94
317.607	4670.94
317.836	4814.94
318.065	2704.94
318.295	1691.94
318.524	1320.94
318.753	1176.94
318.983	1114.94
319.212	1058.94
319.441	1032.94
319.67	1002.94
319.9	1020.94
320.129	999.94
320.358	1021.94
320.587	994.94
320.816	980.94
321.046	979.94
321.275	1018.94
321.504	1001.94
321.733	1009.94
321.962	1044.94
322.191	1055.94
322.42	1055.94
322.649	1017.94
322.878	1032.94
323.108	1073.94
323.337	1056.94
323.566	1085.94
323.795	1077.94
324.024	1113.94
324.253	1129.94
324.482	1175.94
324.71	1266.94
324.939	1311.94
325.168	1350.94
325.397	1398.94
325.626	1651.94
325.855	2358.94
326.084	3676.94
326.313	5652.94
326.542	6020.94
326.77	3656.94
326.999	2300.94
327.228	1931.94
327.457	1816.94
327.686	1884.94
327.914	2015.94
328.143	2306.94
328.372	2596.94
328.6	2846.94
328.829	2607.94
329.058	2248.94
329.287	2007.94
329.515	1882.94
329.744	1724.94
329.972	1655.94
330.201	1555.94
330.43	1513.94
330.658	1470.94
330.887	1479.94
331.115	1460.94
331.344	1420.94
331.572	1404.94
331.801	1445.94
332.03	1431.94
332.258	1471.94
332.486	1545.94
332.715	1813.94
332.943	2194.94
333.172	2679.94
333.4	2648.94
333.629	1961.94
333.857	1781.94
334.085	1805.94
334.314	1899.94
334.542	2023.94
334.771	2336.94
334.999	2848.94
335.227	3459.94
335.455	3795.94
335.684	3483.94
335.912	2997.94
336.14	2595.94
336.369	2277.94
336.597	2093.94
336.825	1945.94
337.053	1822.94
337.281	1709.94
337.51	1638.94
337.738	1608.94
337.966	1517.94
338.194	1483.94
338.422	1441.94
338.65	1402.94
338.878	1375.94
339.106	1376.94
339.334	1353.94
339.562	1318.94
339.79	1287.94
340.018	1282.94
340.246	1302.94
340.474	1283.94
340.702	1283.94
340.93	1304.94
341.158	1289.94
341.386	1290.94
341.614	1259.94
341.842	1225.94
342.07	1182.94
342.298	1200.94
342.526	1183.94
342.754	1166.94
342.981	1160.94
343.209	1172.94
343.437	1170.94
343.665	1171.94
343.893	1189.94
344.12	1169.94
344.348	1198.94
344.576	1180.94
344.804	1154.94
345.031	1136.94
345.259	1126.94
345.487	1100.94
345.714	1089.94
345.942	1104.94
346.17	1129.94
346.397	1098.94
346.625	1114.94
346.853	1089.94
347.08	1057.94
347.308	1089.94
347.535	1071.94
347.763	1079.94
347.99	1065.94
348.218	1065.94
348.445	1057.94
348.673	1072.94
348.9	1055.94
349.128	1055.94
349.355	1064.94
349.583	1042.94
349.81	1047.94
350.037	1085.94
350.265	1028.94
350.492	1060.94
350.72	1057.94
350.947	1066.94
351.174	1035.94
351.402	1035.94
351.629	1060.94
351.856	1045.94
352.083	1029.94
352.311	1033.94
352.538	1015.94
352.765	1049.94
352.992	1009.94
353.22	1016.94
353.447	1022.94
353.674	1010.94
353.901	1040.94
354.128	1038.94
354.355	1002.94
354.583	1079.94
354.81	1061.94
355.037	1035.94
355.264	1041.94
355.491	1030.94
355.718	1042.94
355.945	1059.94
356.172	1062.94
356.399	1054.94
356.626	1085.94
356.853	1074.94
357.08	1067.94
357.307	1090.94
357.534	1082.94
357.761	1135.94
357.988	1121.94
358.215	1089.94
358.441	1072.94
358.668	1091.94
358.895	1095.94
359.122	1085.94
359.349	1094.94
359.576	1060.94
359.802	1085.94
360.029	1105.94
360.256	1106.94
360.483	1106.94
360.709	1083.94
360.936	1101.94
361.163	1111.94
361.39	1118.94
361.616	1085.94
361.843	1083.94
362.07	1091.94
362.296	1083.94
362.523	1090.94
362.749	1097.94
362.976	1090.94
363.203	1081.94
363.429	1096.94
363.656	1111.94
363.882	1074.94
364.109	1107.94
364.335	1091.94
364.562	1076.94
364.788	1103.94
365.015	1139.94
365.241	1149.94
365.468	1183.94
365.694	1239.94
365.92	1199.94
366.147	1106.94
366.373	1128.94
366.599	1143.94
366.826	1121.94
367.052	1121.94
367.278	1138.94
367.505	1144.94
367.731	1108.94
367.957	1119.94
368.184	1129.94
368.41	1171.94
368.636	1118.94
368.862	1174.94
369.089	1149.94
369.315	1149.94
369.541	1155.94
369.767	1130.94
369.993	1114.94
370.219	1122.94
370.445	1129.94
370.672	1155.94
370.898	1159.94
371.124	1169.94
371.35	1172.94
371.576	1169.94
371.802	1179.94
372.028	1188.94
372.254	1171.94
372.48	1162.94
372.706	1194.94
372.932	1166.94
373.158	1163.94
373.384	1203.94
373.61	1184.94
373.835	1186.94
374.061	1185.94
374.287	1216.94
374.513	1190.94
374.739	1239.94
374.965	1253.94
375.191	1217.94
375.416	1225.94
375.642	1213.94
375.868	1207.94
376.094	1202.94
376.319	1204.94
376.545	1178.94
376.771	1168.94
376.997	1161.94
377.222	1187.94
377.448	1173.94
377.674	1190.94
377.899	1166.94
378.125	1194.94
378.35	1214.94
378.576	1209.94
378.802	1190.94
379.027	1245.94
379.253	1252.94
379.478	1319.94
379.704	1502.94
379.929	2177.94
380.155	3369.94
380.38	3615.94
380.606	2182.94
380.831	1542.94
381.057	1364.94
381.282	1249.94
381.507	1231.94
381.733	1205.94
381.958	1209.94
382.184	1199.94
382.409	1216.94
382.634	1150.94
382.86	1185.94
383.085	1190.94
383.31	1189.94
383.535	1149.94
383.761	1138.94
383.986	1151.94
384.211	1194.94
384.436	1169.94
384.662	1173.94
384.887	1192.94
385.112	1211.94
385.337	1185.94
385.562	1192.94
385.787	1194.94
386.013	1210.94
386.238	1218.94
386.463	1206.94
386.688	1228.94
386.913	1197.94
387.138	1172.94
387.363	1192.94
387.588	1207.94
387.813	1223.94
388.038	1186.94
388.263	1210.94
388.488	1213.94
388.713	1217.94
388.938	1224.94
389.163	1205.94
389.387	1188.94
389.612	1174.94
389.837	1200.94
390.062	1193.94
390.287	1228.94
390.512	1212.94
390.736	1240.94
390.961	1235.94
391.186	1220.94
391.411	1221.94
391.636	1241.94
391.86	1248.94
392.085	1260.94
392.31	1259.94
392.534	1267.94
392.759	1280.94
392.984	1219.94
393.208	1264.94
393.433	1246.94
393.658	1234.94
393.882	1199.94
394.107	1199.94
394.331	1222.94
394.556	1218.94
394.78	1188.94
395.005	1234.94
395.229	1210.94
395.454	1236.94
395.678	1277.94
395.903	1236.94
396.127	1236.94
396.352	1268.94
396.576	1233.94
396.801	1209.94
397.025	1276.94
397.249	1257.94
397.474	1281.94
397.698	1267.94
397.922	1270.94
398.147	1275.94
398.371	1322.94
398.595	1302.94
398.82	1358.94
399.044	1399.94
399.268	1471.94
399.492	1517.94
399.717	1550.94
399.941	1589.94
400.165	1554.94
400.389	1444.94
400.613	1405.94
400.837	1381.94
401.062	1375.94
401.286	1353.94
401.51	1310.94
401.734	1344.94
401.958	1346.94
402.182	1334.94
402.406	1326.94
402.63	1334.94
402.854	1366.94
403.078	1359.94
403.302	1354.94
403.526	1357.94
403.75	1411.94
403.974	1354.94
404.198	1388.94
404.422	1379.94
404.645	1385.94
404.869	1366.94
405.093	1391.94
405.317	1336.94
405.541	1423.94
405.765	1389.94
405.988	1393.94
406.212	1423.94
406.436	1382.94
406.66	1409.94
406.883	1404.94
407.107	1411.94
407.331	1485.94
407.555	1506.94
407.778	1453.94
408.002	1497.94
408.226	1480.94
408.449	1432.94
408.673	1417.94
408.896	1373.94
409.12	1378.94
409.344	1384.94
409.567	1379.94
409.791	1378.94
410.014	1368.94
410.238	1365.94
410.461	1383.94
410.685	1343.94
410.908	1354.94
411.132	1351.94
411.355	1297.94
411.578	1334.94
411.802	1321.94
412.025	1317.94
412.249	1333.94
412.472	1335.94
412.695	1311.94
412.919	1294.94
413.142	1280.94
413.365	1295.94
413.589	1279.94
413.812	1326.94
414.035	1269.94
414.258	1289.94
414.482	1311.94
414.705	1303.94
414.928	1291.94
415.151	1300.94
415.374	1311.94
415.597	1276.94
415.821	1277.94
416.044	1266.94
416.267	1272.94
416.49	1281.94
416.713	1262.94
416.936	1243.94
417.159	1255.94
417.382	1261.94
417.605	1262.94
417.828	1240.94
418.051	1222.94
418.274	1283.94
418.497	1277.94
418.72	1310.94
418.943	1273.94
419.166	1322.94
419.389	1361.94
419.611	1391.94
419.834	1323.94
420.057	1301.94
420.28	1277.94
420.503	1256.94
420.726	1248.94
420.948	1261.94
421.171	1247.94
421.394	1270.94
421.617	1279.94
421.839	1279.94
422.062	1268.94
422.285	1255.94
422.507	1290.94
422.73	1309.94
422.953	1294.94
423.175	1307.94
423.398	1302.94
423.621	1265.94
423.843	1286.94
424.066	1286.94
424.288	1264.94
424.511	1267.94
424.733	1232.94
424.956	1227.94
425.178	1236.94
425.401	1253.94
425.623	1262.94
425.846	1233.94
426.068	1229.94
426.291	1218.94
426.513	1231.94
426.735	1192.94
426.958	1194.94
427.18	1183.94
427.402	1202.94
427.625	1197.94
427.847	1169.94
428.069	1165.94
428.292	1184.94
428.514	1183.94
428.736	1177.94
428.958	1185.94
429.181	1159.94
429.403	1154.94
429.625	1168.94
429.847	1145.94
430.069	1187.94
430.292	1195.94
430.514	1224.94
430.736	1266.94
430.958	1178.94
431.18	1141.94
431.402	1143.94
431.624	1158.94
431.846	1135.94
432.068	1134.94
432.29	1182.94
432.512	1119.94
432.734	1171.94
432.956	1187.94
433.178	1182.94
433.4	1150.94
433.622	1151.94
433.844	1164.94
434.066	1145.94
434.287	1158.94
434.509	1172.94
434.731	1161.94
434.953	1150.94
435.175	1219.94
435.397	1192.94
435.618	1142.94
435.84	1175.94
436.062	1166.94
436.284	1123.94
436.505	1134.94
436.727	1147.94
436.949	1161.94
437.17	1144.94
437.392	1118.94
437.614	1140.94
437.835	1104.94
438.057	1114.94
438.278	1082.94
438.5	1101.94
438.721	1139.94
438.943	1166.94
439.165	1149.94
439.386	1178.94
439.608	1204.94
439.829	1239.94
440.05	1221.94
440.272	1281.94
440.493	1219.94
440.715	1192.94
440.936	1202.94
441.158	1213.94
441.379	1205.94
441.6	1255.94
441.822	1280.94
442.043	1339.94
442.264	1388.94
442.486	1314.94
442.707	1239.94
442.928	1237.94
443.149	1217.94
443.371	1229.94
443.592	1237.94
443.813	1259.94
444.034	1305.94
444.255	1305.94
444.476	1323.94
444.698	1363.94
444.919	1352.94
445.14	1425.94
445.361	1305.94
445.582	1296.94
445.803	1248.94
446.024	1223.94
446.245	1253.94
446.466	1297.94
446.687	1233.94
446.908	1231.94
447.129	1166.94
447.35	1179.94
447.571	1161.94
447.792	1146.94
448.013	1181.94
448.234	1145.94
448.455	1140.94
448.675	1173.94
448.896	1186.94
449.117	1228.94
449.338	1338.94
449.559	1395.94
449.779	1255.94
450	1192.94
450.221	1113.94
450.442	1143.94
450.662	1123.94
450.883	1099.94
451.104	1109.94
451.324	1132.94
451.545	1115.94
451.766	1093.94
451.986	1155.94
452.207	1221.94
452.428	1485.94
452.648	2147.94
452.869	1843.94
453.089	1321.94
453.31	1243.94
453.53	1237.94
453.751	1281.94
453.971	1341.94
454.192	1337.94
454.412	1181.94
454.633	1119.94
454.853	1114.94
455.073	1068.94
455.294	1073.94
455.514	1056.94
455.734	1054.94
455.955	1059.94
456.175	1060.94
456.395	1049.94
456.616	1072.94
456.836	1091.94
457.056	1072.94
457.276	1087.94
457.497	1142.94
457.717	1153.94
457.937	1133.94
458.157	1115.94
458.377	1119.94
458.598	1126.94
458.818	1149.94
459.038	1142.94
459.258	1140.94
459.478	1149.94
459.698	1139.94
459.918	1189.94
460.138	1202.94
460.358	1224.94
460.578	1232.94
460.798	1284.94
461.018	1254.94
461.238	1266.94
461.458	1270.94
461.678	1257.94
461.898	1294.94
462.118	1308.94
462.338	1312.94
462.558	1349.94
462.777	1382.94
462.997	1417.94
463.217	1448.94
463.437	1504.94
463.657	1563.94
463.876	1520.94
464.096	1448.94
464.316	1380.94
464.536	1349.94
464.755	1332.94
464.975	1307.94
465.195	1285.94
465.414	1243.94
465.634	1181.94
465.854	1197.94
466.073	1168.94
466.293	1167.94
466.512	1167.94
466.732	1178.94
466.951	1231.94
467.171	1291.94
467.391	1312.94
467.61	1185.94
467.829	1157.94
468.049	1146.94
468.268	1157.94
468.488	1128.94
468.707	1126.94
468.927	1145.94
469.146	1162.94
469.365	1162.94
469.585	1141.94
469.804	1197.94
470.023	1217.94
470.243	1206.94
470.462	1235.94
470.681	1319.94
470.901	1430.94
471.12	1659.94
471.339	1693.94
471.558	1377.94
471.777	1257.94
471.997	1206.94
472.216	1187.94
472.435	1153.94
472.654	1136.94
472.873	1112.94
473.092	1130.94
473.311	1121.94
473.53	1129.94
473.749	1160.94
473.968	1216.94
474.187	1192.94
474.406	1145.94
474.625	1160.94
474.844	1161.94
475.063	1170.94
475.282	1164.94
475.501	1127.94
475.72	1167.94
475.939	1166.94
476.158	1174.94
476.377	1211.94
476.596	1191.94
476.814	1210.94
477.033	1183.94
477.252	1231.94
477.471	1231.94
477.69	1251.94
477.908	1293.94
478.127	1304.94
478.346	1305.94
478.564	1340.94
478.783	1337.94
479.002	1336.94
479.22	1336.94
479.439	1319.94
479.658	1317.94
479.876	1363.94
480.095	1335.94
480.313	1399.94
480.532	1392.94
480.751	1406.94
480.969	1353.94
481.188	1349.94
481.406	1354.94
481.624	1318.94
481.843	1331.94
482.061	1357.94
482.28	1402.94
482.498	1365.94
482.717	1335.94
482.935	1357.94
483.153	1393.94
483.372	1441.94
483.59	1431.94
483.808	1469.94
484.027	1498.94
484.245	1537.94
484.463	1766.94
484.681	1979.94
484.9	1729.94
485.118	1611.94
485.336	1602.94
485.554	1621.94
485.772	1729.94
485.99	1992.94
486.209	2173.94
486.427	1768.94
486.645	1574.94
486.863	1484.94
487.081	1475.94
487.299	1458.94
487.517	1472.94
487.735	1473.94
487.953	1532.94
488.171	1483.94
488.389	1441.94
488.607	1413.94
488.825	1433.94
489.043	1377.94
489.261	1390.94
489.479	1426.94
489.696	1394.94
489.914	1416.94
490.132	1426.94
490.35	1455.94
490.568	1464.94
490.786	1450.94
491.003	1511.94
491.221	1513.94
491.439	1497.94
491.657	1503.94
491.874	1523.94
492.092	1533.94
492.31	1548.94
492.527	1528.94
492.745	1535.94
492.963	1507.94
493.18	1508.94
493.398	1534.94
493.615	1530.94
493.833	1525.94
494.05	1502.94
494.268	1531.94
494.485	1528.94
494.703	1492.94
494.92	1500.94
495.138	1488.94
495.355	1497.94
495.573	1521.94
495.79	1535.94
496.008	1527.94
496.225	1536.94
496.442	1523.94
496.66	1593.94
496.877	1688.94
497.094	1661.94
497.312	1641.94
497.529	1601.94
497.746	1630.94
497.963	1629.94
498.181	1663.94
498.398	1666.94
498.615	1739.94
498.832	1802.94
499.049	1915.94
499.267	2043.94
499.484	2197.94
499.701	2143.94
499.918	2229.94
500.135	2371.94
500.352	2504.94
500.569	2543.94
500.786	2495.94
501.003	2408.94
501.22	2321.94
501.437	2186.94
501.654	2049.94
501.871	1999.94
502.088	1871.94
502.305	1840.94
502.522	1757.94
502.739	1746.94
502.956	1669.94
503.172	1636.94
503.389	1591.94
503.606	1553.94
503.823	1538.94
504.04	1542.94
504.256	1552.94
504.473	1544.94
504.69	1527.94
504.907	1517.94
505.123	1489.94
505.34	1448.94
505.557	1410.94
505.773	1396.94
505.99	1393.94
506.207	1373.94
506.423	1391.94
506.64	1379.94
506.856	1322.94
507.073	1320.94
507.289	1365.94
507.506	1298.94
507.722	1329.94
507.939	1306.94
508.155	1258.94
508.372	1281.94
508.588	1289.94
508.805	1298.94
509.021	1285.94
509.238	1291.94
509.454	1355.94
509.67	1447.94
509.887	1303.94
510.103	1312.94
510.319	1286.94
510.536	1297.94
510.752	1256.94
510.968	1248.94
511.184	1237.94
511.401	1248.94
511.617	1249.94
511.833	1227.94
512.049	1204.94
512.265	1216.94
512.481	1206.94
512.698	1225.94
512.914	1205.94
513.13	1235.94
513.346	1240.94
513.562	1193.94
513.778	1193.94
513.994	1256.94
514.21	1255.94
514.426	1315.94
514.642	1381.94
514.858	1295.94
515.074	1274.94
515.29	1245.94
515.506	1243.94
515.721	1243.94
515.937	1271.94
516.153	1286.94
516.369	1270.94
516.585	1292.94
516.801	1318.94
517.016	1311.94
517.232	1357.94
517.448	1403.94
517.664	1367.94
517.879	1366.94
518.095	1369.94
518.311	1389.94
518.527	1362.94
518.742	1346.94
518.958	1362.94
519.173	1397.94
519.389	1329.94
519.605	1307.94
519.82	1254.94
520.036	1274.94
520.251	1239.94
520.467	1216.94
520.682	1248.94
520.898	1213.94
521.113	1209.94
521.329	1186.94
521.544	1211.94
521.76	1229.94
521.975	1216.94
522.19	1233.94
522.406	1207.94
522.621	1189.94
522.836	1197.94
523.052	1222.94
523.267	1178.94
523.482	1166.94
523.698	1222.94
523.913	1177.94
524.128	1209.94
524.343	1176.94
524.559	1203.94
524.774	1153.94
524.989	1200.94
525.204	1177.94
525.419	1193.94
525.634	1185.94
525.849	1164.94
526.064	1195.94
526.28	1193.94
526.495	1173.94
526.71	1186.94
526.925	1185.94
527.14	1199.94
527.355	1210.94
527.57	1186.94
527.785	1166.94
527.999	1151.94
528.214	1231.94
528.429	1200.94
528.644	1219.94
528.859	1242.94
529.074	1312.94
529.289	1265.94
529.503	1270.94
529.718	1273.94
529.933	1277.94
530.148	1236.94
530.363	1275.94
530.577	1241.94
530.792	1265.94
531.007	1280.94
531.221	1262.94
531.436	1297.94
531.651	1270.94
531.865	1295.94
532.08	1313.94
532.295	1361.94
532.509	1412.94
532.724	1413.94
532.938	1425.94
533.153	1445.94
533.367	1523.94
533.582	1617.94
533.796	1577.94
534.011	1523.94
534.225	1493.94
534.44	1442.94
534.654	1430.94
534.868	1423.94
535.083	1367.94
535.297	1371.94
535.511	1386.94
535.726	1326.94
535.94	1302.94
536.154	1291.94
536.369	1305.94
536.583	1232.94
536.797	1222.94
537.011	1202.94
537.225	1231.94
537.44	1215.94
537.654	1192.94
537.868	1179.94
538.082	1175.94
538.296	1209.94
538.51	1150.94
538.724	1173.94
538.938	1159.94
539.153	1183.94
539.367	1164.94
539.581	1153.94
539.795	1139.94
540.009	1150.94
540.222	1126.94
540.436	1159.94
540.65	1143.94
540.864	1169.94
541.078	1167.94
541.292	1254.94
541.506	1478.94
541.72	1605.94
541.934	1385.94
542.147	1301.94
542.361	1218.94
542.575	1179.94
542.789	1169.94
543.002	1139.94
543.216	1111.94
543.43	1131.94
543.644	1101.94
543.857	1117.94
544.071	1154.94
544.285	1133.94
544.498	1135.94
544.712	1167.94
544.925	1174.94
545.139	1181.94
545.352	1148.94
545.566	1170.94
545.779	1160.94
545.993	1156.94
546.206	1153.94
546.42	1150.94
546.633	1170.94
546.847	1119.94
547.06	1171.94
547.274	1151.94
547.487	1171.94
547.7	1171.94
547.914	1166.94
548.127	1137.94
548.34	1164.94
548.554	1168.94
548.767	1156.94
548.98	1162.94
549.193	1107.94
549.407	1130.94
549.62	1159.94
549.833	1144.94
550.046	1182.94
550.259	1163.94
550.473	1121.94
550.686	1149.94
550.899	1145.94
551.112	1148.94
551.325	1121.94
551.538	1144.94
551.751	1137.94
551.964	1114.94
552.177	1165.94
552.39	1149.94
552.603	1214.94
552.816	1222.94
553.029	1207.94
553.242	1238.94
553.455	1289.94
553.667	1274.94
553.88	1254.94
554.093	1279.94
554.306	1242.94
554.519	1260.94
554.732	1282.94
554.944	1312.94
555.157	1313.94
555.37	1335.94
555.583	1368.94
555.795	1453.94
556.008	1521.94
556.221	1661.94
556.433	1740.94
556.646	1755.94
556.859	1736.94
557.071	1639.94
557.284	1625.94
557.496	1570.94
557.709	1556.94
557.921	1579.94
558.134	1569.94
558.346	1574.94
558.559	1571.94
558.771	1677.94
558.984	1787.94
559.196	1873.94
559.409	1830.94
559.621	1739.94
559.833	1628.94
560.046	1541.94
560.258	1473.94
560.47	1447.94
560.683	1388.94
560.895	1352.94
561.107	1307.94
561.32	1291.94
561.532	1230.94
561.744	1225.94
561.956	1226.94
562.168	1157.94
562.381	1205.94
562.593	1145.94
562.805	1162.94
563.017	1197.94
563.229	1163.94
563.441	1331.94
563.653	1151.94
563.865	1114.94
564.077	1075.94
564.289	1062.94
564.501	1071.94
564.713	1034.94
564.925	1069.94
565.137	1028.94
565.349	1059.94
565.561	1033.94
565.773	1079.94
565.985	1049.94
566.197	1092.94
566.408	1125.94
566.62	1138.94
566.832	1140.94
567.044	1172.94
567.255	1163.94
567.467	1199.94
567.679	1187.94
567.891	1289.94
568.102	1429.94
568.314	1663.94
568.526	1378.94
568.737	1167.94
568.949	1108.94
569.161	1029.94
569.372	1011.94
569.584	958.94
569.795	957.94
570.007	959.94
570.218	975.94
570.43	990.94
570.641	928.94
570.853	914.94
571.064	876.94
571.276	890.94
571.487	855.94
571.698	842.94
571.91	823.94
572.121	859.94
572.333	838.94
572.544	839.94
572.755	899.94
572.966	1094.94
573.178	954.94
573.389	842.94
573.6	833.94
573.811	795.94
574.023	786.94
574.234	768.94
574.445	766.94
574.656	769.94
574.867	765.94
575.078	741.94
575.289	779.94
575.501	770.94
575.712	744.94
575.923	750.94
576.134	745.94
576.345	747.94
576.556	784.94
576.767	799.94
576.978	775.94
577.188	765.94
577.399	758.94
577.61	787.94
577.821	777.94
578.032	783.94
578.243	806.94
578.454	825.94
578.665	831.94
578.875	831.94
579.086	859.94
579.297	918.94
579.508	949.94
579.718	994.94
579.929	1112.94
580.14	1233.94
580.35	1262.94
580.561	1220.94
580.772	1143.94
580.982	1063.94
581.193	1023.94
581.403	947.94
581.614	929.94
581.825	895.94
582.035	846.94
582.246	830.94
582.456	825.94
582.667	797.94
582.877	788.94
583.087	762.94
583.298	741.94
583.508	695.94
583.719	707.94
583.929	707.94
584.139	684.94
584.35	656.94
584.56	665.94
584.77	677.94
584.981	674.94
585.191	643.94
585.401	621.94
585.611	615.94
585.821	624.94
586.032	635.94
586.242	625.94
586.452	605.94
586.662	618.94
586.872	600.94
587.082	587.94
587.292	611.94
587.502	599.94
587.713	586.94
587.923	581.94
588.133	590.94
588.343	536.94
588.553	551.94
588.762	580.94
588.972	552.94
589.182	565.94
589.392	584.94
589.602	572.94
589.812	552.94
590.022	568.94
590.232	545.94
590.441	562.94
590.651	567.94
590.861	543.94
591.071	531.94
591.281	553.94
591.49	552.94
591.7	547.94
591.91	567.94
592.119	569.94
592.329	556.94
592.539	541.94
592.748	550.94
592.958	562.94
593.167	584.94
593.377	584.94
593.587	582.94
593.796	587.94
594.006	590.94
594.215	586.94
594.424	582.94
594.634	575.94
594.843	563.94
595.053	546.94
595.262	546.94
595.472	517.94
595.681	516.94
595.89	522.94
596.1	498.94
596.309	524.94
596.518	527.94
596.727	519.94
596.937	497.94
597.146	503.94
597.355	509.94
597.564	475.94
597.774	491.94
597.983	479.94
598.192	471.94
598.401	459.94
598.61	453.94
598.819	484.94
599.028	464.94
599.237	458.94
599.446	459.94
599.655	455.94
599.864	441.94
600.073	453.94
600.282	449.94
600.491	446.94
600.7	462.94
600.909	466.94
601.118	466.94
601.327	462.94
601.536	452.94
601.745	457.94
601.953	529.94
602.162	585.94
602.371	529.94
602.58	463.94
602.789	453.94
602.997	475.94
603.206	457.94
603.415	469.94
603.623	467.94
603.832	449.94
604.041	452.94
604.249	431.94
604.458	437.94
604.666	435.94
604.875	457.94
605.084	442.94
605.292	431.94
605.501	434.94
605.709	449.94
605.918	439.94
606.126	440.94
606.334	449.94
606.543	458.94
606.751	489.94
606.96	565.94
607.168	598.94
607.376	518.94
607.585	479.94
607.793	447.94
608.001	442.94
608.21	451.94
608.418	449.94
608.626	439.94
608.834	431.94
609.043	454.94
609.251	414.94
609.459	405.94
609.667	431.94
609.875	427.94
610.083	429.94
610.291	423.94
610.499	428.94
610.707	424.94
610.916	415.94
611.124	411.94
611.332	400.94
611.54	418.94
611.748	418.94
611.955	419.94
612.163	390.94
612.371	401.94
612.579	419.94
612.787	410.94
612.995	403.94
613.203	386.94
613.411	391.94
613.618	394.94
613.826	396.94
614.034	408.94
614.242	405.94
614.449	385.94
614.657	385.94
614.865	404.94
615.072	407.94
615.28	400.94
615.488	399.94
615.695	392.94
615.903	419.94
616.111	419.94
616.318	411.94
616.526	402.94
616.733	398.94
616.941	389.94
617.148	393.94
617.356	392.94
617.563	391.94
617.771	390.94
617.978	364.94
618.185	391.94
618.393	377.94
618.6	385.94
618.807	386.94
619.015	396.94
619.222	370.94
619.429	372.94
619.637	360.94
619.844	369.94
620.051	359.94
620.258	355.94
620.466	373.94
620.673	357.94
620.88	364.94
621.087	343.94
621.294	368.94
621.501	362.94
621.708	368.94
621.915	347.94
622.122	373.94
622.329	347.94
622.536	362.94
622.743	374.94
622.95	362.94
623.157	378.94
623.364	333.94
623.571	346.94
623.778	358.94
623.985	372.94
624.192	365.94
624.399	335.94
624.606	339.94
624.812	343.94
625.019	350.94
625.226	334.94
625.433	331.94
625.639	333.94
625.846	336.94
626.053	332.94
626.259	324.94
626.466	331.94
626.673	329.94
626.879	322.94
627.086	343.94
627.293	329.94
627.499	331.94
627.706	334.94
627.912	329.94
628.119	329.94
628.325	329.94
628.532	348.94
628.738	338.94
628.945	311.94
629.151	329.94
629.357	320.94
629.564	328.94
629.77	329.94
629.976	327.94
630.183	319.94
630.389	329.94
630.595	310.94
630.802	318.94
631.008	310.94
631.214	325.94
631.42	317.94
631.627	311.94
631.833	330.94
632.039	304.94
632.245	314.94
632.451	299.94
632.657	285.94
632.863	295.94
633.069	310.94
633.275	298.94
633.481	305.94
633.688	298.94
633.893	321.94
634.099	292.94
634.305	305.94
634.511	304.94
634.717	319.94
634.923	311.94
635.129	352.94
635.335	403.94
635.541	334.94
635.747	335.94
635.952	321.94
636.158	313.94
636.364	322.94
636.57	305.94
636.775	312.94
636.981	307.94
637.187	313.94
637.392	297.94
637.598	299.94
637.804	313.94
638.009	299.94
638.215	319.94
638.421	320.94
638.626	310.94
638.832	303.94
639.037	304.94
639.243	300.94
639.448	292.94
639.654	305.94
639.859	297.94
640.065	309.94
640.27	347.94
640.475	320.94
640.681	313.94
640.886	330.94
641.091	323.94
641.297	323.94
641.502	330.94
641.707	335.94
641.913	330.94
642.118	329.94
642.323	348.94
642.528	367.94
642.733	355.94
642.939	367.94
643.144	369.94
643.349	387.94
643.554	387.94
643.759	401.94
643.964	412.94
644.169	414.94
644.374	451.94
644.579	472.94
644.784	498.94
644.989	590.94
645.194	672.94
645.399	785.94
645.604	835.94
645.809	644.94
646.014	503.94
646.219	435.94
646.423	390.94
646.628	372.94
646.833	366.94
647.038	336.94
647.243	345.94
647.447	332.94
647.652	308.94
647.857	299.94
648.062	322.94
648.266	294.94
648.471	308.94
648.676	289.94
648.88	287.94
649.085	290.94
649.289	278.94
649.494	261.94
649.698	290.94
649.903	276.94
650.107	283.94
650.312	262.94
650.516	254.94
650.721	247.94
650.925	259.94
651.13	253.94
651.334	245.94
651.539	244.94
651.743	247.94
651.947	244.94
652.152	242.94
652.356	242.94
652.56	242.94
652.764	269.94
652.969	255.94
653.173	249.94
653.377	223.94
653.581	207.94
653.785	212.94
653.99	219.94
654.194	206.94
654.398	213.94
654.602	209.94
654.806	211.94
655.01	197.94
655.214	207.94
655.418	195.94
655.622	194.94
655.826	208.94
656.03	206.94
656.234	209.94
656.438	218.94
656.642	224.94
656.846	215.94
657.049	214.94
657.253	199.94
657.457	189.94
657.661	181.94
657.865	188.94
658.068	159.94
658.272	144.94
658.476	160.94
658.68	158.94
658.883	156.94
659.087	143.94
659.291	132.94
659.494	120.94
659.698	129.94
659.901	121.94
660.105	126.94
660.309	133.94
660.512	117.94
660.716	122.94
660.919	115.94
661.123	114.94
661.326	114.94
661.53	117.94
661.733	97.94
661.936	94.94
662.14	87.94
662.343	97.94
662.546	96.94
662.75	86.94
662.953	107.94
663.156	81.94
663.36	96.94
663.563	98.94
663.766	85.94
663.969	89.94
664.173	67.94
664.376	78.94
664.579	85.94
664.782	80.94
664.985	101.94
665.188	95.94
665.391	90.94
665.594	87.94
665.797	87.94
666	85.94
666.203	81.94
666.406	77.94
666.609	79.94
666.812	93.94
667.015	93.94
667.218	74.94
667.421	84.94
667.624	79.94
667.827	97.94
668.03	77.94
668.232	74.94
668.435	77.94
668.638	83.94
668.841	85.94
669.043	79.94
669.246	74.94
669.449	95.94
669.651	87.94
669.854	78.94
670.057	73.94
670.259	80.94
670.462	79.94
670.665	81.94
670.867	81.94
671.07	81.94
671.272	93.94
671.475	88.94
671.677	88.94
671.88	86.94
672.082	100.94
672.284	94.94
672.487	86.94
672.689	90.94
672.892	87.94
