Data from SnStandardFlinnAPT0064_LampEnergy10_LIBS07252019.E.O._I.C._HRD10591_15-22-29-494.txt Node
Date: Thu Jul 25 15:22:29 EDT 2019
User: cochatt
Spectrometer: HR+D1059
Trigger mode: 1
Integration Time (sec): 1.000000E-1
Scans to average: 1
Electric dark correction enabled: true
Nonlinearity correction enabled: false
Boxcar width: 0
XAxis mode: Wavelengths
Number of Pixels in Spectrum: 2048
>>>>>Begin Spectral Data<<<<<
223.165	-18.31
223.4	-18.31
223.635	-18.31
223.869	-8.31
224.104	-20.31
224.338	-18.31
224.573	-28.31
224.808	-14.31
225.042	-7.31
225.277	16.69
225.511	-4.31
225.746	-10.31
225.98	0.69
226.215	11.69
226.449	10.69
226.683	20.69
226.918	35.69
227.152	33.69
227.387	44.69
227.621	39.69
227.856	41.69
228.09	46.69
228.324	47.69
228.559	35.69
228.793	125.69
229.027	280.69
229.262	324.69
229.496	287.69
229.73	282.69
229.964	273.69
230.199	273.69
230.433	290.69
230.667	290.69
230.901	326.69
231.136	339.69
231.37	319.69
231.604	386.69
231.838	430.69
232.072	515.69
232.306	556.69
232.541	456.69
232.775	395.69
233.009	402.69
233.243	417.69
233.477	442.69
233.711	498.69
233.945	579.69
234.179	469.69
234.413	453.69
234.647	424.69
234.881	458.69
235.115	524.69
235.349	588.69
235.583	766.69
235.817	963.69
236.051	958.69
236.285	641.69
236.519	513.69
236.753	470.69
236.987	496.69
237.221	546.69
237.455	521.69
237.689	466.69
237.922	458.69
238.156	485.69
238.39	478.69
238.624	495.69
238.858	490.69
239.091	455.69
239.325	483.69
239.559	499.69
239.793	501.69
240.027	494.69
240.26	536.69
240.494	543.69
240.728	557.69
240.961	587.69
241.195	643.69
241.429	672.69
241.662	695.69
241.896	730.69
242.13	917.69
242.363	1189.69
242.597	1587.69
242.83	1506.69
243.064	1494.69
243.298	1749.69
243.531	1444.69
243.765	923.69
243.998	769.69
244.232	677.69
244.465	663.69
244.699	620.69
244.932	667.69
245.166	641.69
245.399	701.69
245.633	664.69
245.866	674.69
246.099	669.69
246.333	617.69
246.566	647.69
246.8	646.69
247.033	623.69
247.266	638.69
247.5	640.69
247.733	646.69
247.966	684.69
248.2	755.69
248.433	854.69
248.666	936.69
248.899	917.69
249.133	830.69
249.366	853.69
249.599	954.69
249.832	1073.69
250.066	1030.69
250.299	848.69
250.532	761.69
250.765	755.69
250.998	725.69
251.231	739.69
251.465	707.69
251.698	723.69
251.931	725.69
252.164	716.69
252.397	746.69
252.63	762.69
252.863	788.69
253.096	777.69
253.329	792.69
253.562	779.69
253.795	795.69
254.028	795.69
254.261	798.69
254.494	875.69
254.727	1007.69
254.96	1225.69
255.193	1185.69
255.426	967.69
255.659	879.69
255.892	833.69
256.124	869.69
256.357	866.69
256.59	901.69
256.823	961.69
257.056	1097.69
257.289	1318.69
257.521	1432.69
257.754	1161.69
257.987	955.69
258.22	902.69
258.452	901.69
258.685	899.69
258.918	927.69
259.151	994.69
259.383	1080.69
259.616	1201.69
259.849	1216.69
260.081	1066.69
260.314	961.69
260.547	969.69
260.779	945.69
261.012	931.69
261.244	949.69
261.477	938.69
261.71	964.69
261.942	1007.69
262.175	1015.69
262.407	1020.69
262.64	1036.69
262.872	1087.69
263.105	1143.69
263.337	1197.69
263.57	1271.69
263.802	1297.69
264.035	1301.69
264.267	1338.69
264.499	1350.69
264.732	1396.69
264.964	1427.69
265.197	1411.69
265.429	1463.69
265.661	1475.69
265.894	1554.69
266.126	1733.69
266.358	1927.69
266.591	1881.69
266.823	1593.69
267.055	1419.69
267.287	1378.69
267.52	1329.69
267.752	1261.69
267.984	1284.69
268.216	1263.69
268.448	1255.69
268.681	1228.69
268.913	1228.69
269.145	1235.69
269.377	1184.69
269.609	1225.69
269.841	1273.69
270.073	1323.69
270.306	1574.69
270.538	2111.69
270.77	3171.69
271.002	3806.69
271.234	2719.69
271.466	1818.69
271.698	1489.69
271.93	1378.69
272.162	1312.69
272.394	1277.69
272.626	1197.69
272.858	1193.69
273.09	1190.69
273.322	1207.69
273.553	1170.69
273.785	1199.69
274.017	1177.69
274.249	1205.69
274.481	1203.69
274.713	1193.69
274.945	1205.69
275.176	1182.69
275.408	1201.69
275.64	1200.69
275.872	1224.69
276.104	1240.69
276.335	1228.69
276.567	1265.69
276.799	1264.69
277.031	1290.69
277.262	1298.69
277.494	1360.69
277.726	1523.69
277.957	1802.69
278.189	2101.69
278.421	1912.69
278.652	1717.69
278.884	1656.69
279.115	1460.69
279.347	1379.69
279.579	1392.69
279.81	1347.69
280.042	1370.69
280.273	1403.69
280.505	1409.69
280.736	1483.69
280.968	1584.69
281.199	1714.69
281.431	1992.69
281.662	2042.69
281.894	1750.69
282.125	1597.69
282.356	1594.69
282.588	1631.69
282.819	1669.69
283.051	1758.69
283.282	1958.69
283.513	2390.69
283.745	3503.69
283.976	5553.69
284.207	7937.69
284.439	7077.69
284.67	4382.69
284.901	3603.69
285.132	3673.69
285.364	3457.69
285.595	2669.69
285.826	2385.69
286.057	2761.69
286.288	3842.69
286.52	5079.69
286.751	4773.69
286.982	2938.69
287.213	2250.69
287.444	1940.69
287.675	1815.69
287.906	1773.69
288.138	1723.69
288.369	1665.69
288.6	1651.69
288.831	1653.69
289.062	1637.69
289.293	1673.69
289.524	1690.69
289.755	1661.69
289.986	1665.69
290.217	1688.69
290.448	1693.69
290.679	1730.69
290.91	1751.69
291.141	1845.69
291.371	2002.69
291.602	2080.69
291.833	1890.69
292.064	1717.69
292.295	1662.69
292.526	1636.69
292.757	1570.69
292.987	1589.69
293.218	1546.69
293.449	1571.69
293.68	1585.69
293.91	1566.69
294.141	1554.69
294.372	1525.69
294.603	1531.69
294.833	1535.69
295.064	1524.69
295.295	1533.69
295.525	1555.69
295.756	1512.69
295.987	1513.69
296.217	1565.69
296.448	1523.69
296.679	1533.69
296.909	1540.69
297.14	1535.69
297.37	1591.69
297.601	1589.69
297.831	1594.69
298.062	1653.69
298.292	1609.69
298.523	1657.69
298.753	1673.69
298.984	1669.69
299.214	1705.69
299.445	1745.69
299.675	1730.69
299.905	1822.69
300.136	1891.69
300.366	2102.69
300.597	2726.69
300.827	3836.69
301.057	5143.69
301.288	5185.69
301.518	3295.69
301.748	2566.69
301.979	2319.69
302.209	2246.69
302.439	2272.69
302.669	2371.69
302.9	2895.69
303.13	4161.69
303.36	6114.69
303.59	8093.69
303.82	6870.69
304.051	4107.69
304.281	2946.69
304.511	2477.69
304.741	2266.69
304.971	2132.69
305.201	2073.69
305.431	1976.69
305.661	1935.69
305.891	1887.69
306.121	1863.69
306.352	1850.69
306.582	1797.69
306.812	1776.69
307.042	1822.69
307.272	1823.69
307.502	1789.69
307.731	1797.69
307.961	1829.69
308.191	1789.69
308.421	1786.69
308.651	1839.69
308.881	1776.69
309.111	1862.69
309.341	1801.69
309.571	1826.69
309.8	1843.69
310.03	1844.69
310.26	1878.69
310.49	1823.69
310.72	1869.69
310.949	1853.69
311.179	1902.69
311.409	1917.69
311.639	1902.69
311.868	1909.69
312.098	1904.69
312.328	1937.69
312.557	1958.69
312.787	1931.69
313.017	1930.69
313.246	2010.69
313.476	1976.69
313.706	2075.69
313.935	2129.69
314.165	2327.69
314.394	2445.69
314.624	2318.69
314.853	2191.69
315.083	2137.69
315.312	2173.69
315.542	2173.69
315.771	2180.69
316.001	2187.69
316.23	2280.69
316.46	2374.69
316.689	2652.69
316.919	3196.69
317.148	4601.69
317.377	6978.69
317.607	10242.69
317.836	10641.69
318.065	6431.69
318.295	4155.69
318.524	3348.69
318.753	2885.69
318.983	2658.69
319.212	2557.69
319.441	2407.69
319.67	2383.69
319.9	2342.69
320.129	2327.69
320.358	2309.69
320.587	2304.69
320.816	2353.69
321.046	2321.69
321.275	2339.69
321.504	2365.69
321.733	2401.69
321.962	2470.69
322.191	2513.69
322.42	2455.69
322.649	2444.69
322.878	2434.69
323.108	2495.69
323.337	2542.69
323.566	2546.69
323.795	2581.69
324.024	2627.69
324.253	2672.69
324.482	2821.69
324.71	2958.69
324.939	3136.69
325.168	3213.69
325.397	3331.69
325.626	3963.69
325.855	5517.69
326.084	8632.69
326.313	12518.69
326.542	13159.69
326.77	8853.69
326.999	5745.69
327.228	4779.69
327.457	4650.69
327.686	4655.69
327.914	4970.69
328.143	5701.69
328.372	6818.69
328.6	7331.69
328.829	6616.69
329.058	5640.69
329.287	4853.69
329.515	4520.69
329.744	4175.69
329.972	4003.69
330.201	3814.69
330.43	3679.69
330.658	3561.69
330.887	3504.69
331.115	3392.69
331.344	3433.69
331.572	3445.69
331.801	3455.69
332.03	3498.69
332.258	3489.69
332.486	3641.69
332.715	4237.69
332.943	5227.69
333.172	6461.69
333.4	6371.69
333.629	4873.69
333.857	4394.69
334.085	4364.69
334.314	4552.69
334.542	4960.69
334.771	5797.69
334.999	7065.69
335.227	8789.69
335.455	9917.69
335.684	8859.69
335.912	7425.69
336.14	6245.69
336.369	5423.69
336.597	5019.69
336.825	4717.69
337.053	4444.69
337.281	4155.69
337.51	3990.69
337.738	3822.69
337.966	3630.69
338.194	3579.69
338.422	3474.69
338.65	3352.69
338.878	3352.69
339.106	3222.69
339.334	3145.69
339.562	3098.69
339.79	3058.69
340.018	3103.69
340.246	3019.69
340.474	2967.69
340.702	3002.69
340.93	2921.69
341.158	3033.69
341.386	2969.69
341.614	2926.69
341.842	2911.69
342.07	2878.69
342.298	2751.69
342.526	2758.69
342.754	2709.69
342.981	2698.69
343.209	2731.69
343.437	2706.69
343.665	2788.69
343.893	2838.69
344.12	2797.69
344.348	2787.69
344.576	2748.69
344.804	2681.69
345.031	2609.69
345.259	2597.69
345.487	2579.69
345.714	2579.69
345.942	2541.69
346.17	2564.69
346.397	2475.69
346.625	2504.69
346.853	2505.69
347.08	2517.69
347.308	2467.69
347.535	2489.69
347.763	2455.69
347.99	2487.69
348.218	2478.69
348.445	2447.69
348.673	2464.69
348.9	2447.69
349.128	2407.69
349.355	2397.69
349.583	2481.69
349.81	2403.69
350.037	2417.69
350.265	2385.69
350.492	2450.69
350.72	2391.69
350.947	2355.69
351.174	2418.69
351.402	2417.69
351.629	2409.69
351.856	2351.69
352.083	2366.69
352.311	2335.69
352.538	2392.69
352.765	2388.69
352.992	2389.69
353.22	2341.69
353.447	2364.69
353.674	2362.69
353.901	2416.69
354.128	2380.69
354.355	2363.69
354.583	2401.69
354.81	2433.69
355.037	2423.69
355.264	2354.69
355.491	2420.69
355.718	2424.69
355.945	2430.69
356.172	2463.69
356.399	2414.69
356.626	2451.69
356.853	2542.69
357.08	2496.69
357.307	2561.69
357.534	2560.69
357.761	2593.69
357.988	2552.69
358.215	2566.69
358.441	2560.69
358.668	2512.69
358.895	2535.69
359.122	2533.69
359.349	2500.69
359.576	2510.69
359.802	2531.69
360.029	2501.69
360.256	2545.69
360.483	2482.69
360.709	2547.69
360.936	2532.69
361.163	2527.69
361.39	2519.69
361.616	2534.69
361.843	2556.69
362.07	2554.69
362.296	2566.69
362.523	2573.69
362.749	2571.69
362.976	2570.69
363.203	2515.69
363.429	2485.69
363.656	2512.69
363.882	2480.69
364.109	2552.69
364.335	2490.69
364.562	2527.69
364.788	2523.69
365.015	2530.69
365.241	2641.69
365.468	2792.69
365.694	2887.69
365.92	2751.69
366.147	2583.69
366.373	2579.69
366.599	2624.69
366.826	2572.69
367.052	2601.69
367.278	2624.69
367.505	2574.69
367.731	2532.69
367.957	2605.69
368.184	2620.69
368.41	2642.69
368.636	2650.69
368.862	2642.69
369.089	2613.69
369.315	2637.69
369.541	2625.69
369.767	2647.69
369.993	2586.69
370.219	2607.69
370.445	2623.69
370.672	2674.69
370.898	2655.69
371.124	2653.69
371.35	2730.69
371.576	2737.69
371.802	2712.69
372.028	2705.69
372.254	2712.69
372.48	2768.69
372.706	2736.69
372.932	2814.69
373.158	2793.69
373.384	2772.69
373.61	2737.69
373.835	2838.69
374.061	2763.69
374.287	2815.69
374.513	2815.69
374.739	2871.69
374.965	2880.69
375.191	2895.69
375.416	2918.69
375.642	2779.69
375.868	2822.69
376.094	2782.69
376.319	2775.69
376.545	2816.69
376.771	2757.69
376.997	2729.69
377.222	2737.69
377.448	2707.69
377.674	2710.69
377.899	2709.69
378.125	2745.69
378.35	2747.69
378.576	2764.69
378.802	2734.69
379.027	2839.69
379.253	2868.69
379.478	3027.69
379.704	3539.69
379.929	5146.69
380.155	7838.69
380.38	8480.69
380.606	5151.69
380.831	3595.69
381.057	3181.69
381.282	2962.69
381.507	2818.69
381.733	2763.69
381.958	2707.69
382.184	2726.69
382.409	2739.69
382.634	2697.69
382.86	2618.69
383.085	2661.69
383.31	2695.69
383.535	2699.69
383.761	2694.69
383.986	2709.69
384.211	2721.69
384.436	2733.69
384.662	2722.69
384.887	2786.69
385.112	2748.69
385.337	2736.69
385.562	2772.69
385.787	2727.69
386.013	2775.69
386.238	2767.69
386.463	2779.69
386.688	2774.69
386.913	2736.69
387.138	2737.69
387.363	2728.69
387.588	2743.69
387.813	2763.69
388.038	2736.69
388.263	2735.69
388.488	2791.69
388.713	2792.69
388.938	2777.69
389.163	2728.69
389.387	2815.69
389.612	2771.69
389.837	2780.69
390.062	2742.69
390.287	2815.69
390.512	2813.69
390.736	2835.69
390.961	2870.69
391.186	2858.69
391.411	2881.69
391.636	2932.69
391.86	2885.69
392.085	2956.69
392.31	2846.69
392.534	2878.69
392.759	2851.69
392.984	2841.69
393.208	2839.69
393.433	2857.69
393.658	2882.69
393.882	2805.69
394.107	2780.69
394.331	2869.69
394.556	2824.69
394.78	2840.69
395.005	2850.69
395.229	2802.69
395.454	2877.69
395.678	2885.69
395.903	2866.69
396.127	2825.69
396.352	2896.69
396.576	2890.69
396.801	2847.69
397.025	2916.69
397.249	2914.69
397.474	2936.69
397.698	2910.69
397.922	2916.69
398.147	2926.69
398.371	2961.69
398.595	3014.69
398.82	3087.69
399.044	3166.69
399.268	3347.69
399.492	3491.69
399.717	3641.69
399.941	3654.69
400.165	3486.69
400.389	3414.69
400.613	3216.69
400.837	3165.69
401.062	3117.69
401.286	3118.69
401.51	3058.69
401.734	3073.69
401.958	3087.69
402.182	3033.69
402.406	3079.69
402.63	3077.69
402.854	3125.69
403.078	3068.69
403.302	3118.69
403.526	3178.69
403.75	3146.69
403.974	3191.69
404.198	3111.69
404.422	3182.69
404.645	3171.69
404.869	3170.69
405.093	3150.69
405.317	3096.69
405.541	3208.69
405.765	3251.69
405.988	3301.69
406.212	3249.69
406.436	3255.69
406.66	3277.69
406.883	3238.69
407.107	3398.69
407.331	3406.69
407.555	3451.69
407.778	3426.69
408.002	3388.69
408.226	3369.69
408.449	3318.69
408.673	3355.69
408.896	3239.69
409.12	3202.69
409.344	3268.69
409.567	3166.69
409.791	3263.69
410.014	3181.69
410.238	3123.69
410.461	3169.69
410.685	3106.69
410.908	3103.69
411.132	3115.69
411.355	3033.69
411.578	3000.69
411.802	3037.69
412.025	3064.69
412.249	3037.69
412.472	3031.69
412.695	3039.69
412.919	2992.69
413.142	2986.69
413.365	2998.69
413.589	3021.69
413.812	2986.69
414.035	2938.69
414.258	3011.69
414.482	2977.69
414.705	2962.69
414.928	2975.69
415.151	3013.69
415.374	2943.69
415.597	2949.69
415.821	2894.69
416.044	2934.69
416.267	2901.69
416.49	2849.69
416.713	2850.69
416.936	2846.69
417.159	2814.69
417.382	2807.69
417.605	2791.69
417.828	2920.69
418.051	2880.69
418.274	2910.69
418.497	2886.69
418.72	2970.69
418.943	2844.69
419.166	3037.69
419.389	3198.69
419.611	3121.69
419.834	3030.69
420.057	3022.69
420.28	2942.69
420.503	2890.69
420.726	2906.69
420.948	2811.69
421.171	2868.69
421.394	2918.69
421.617	2851.69
421.839	2840.69
422.062	2903.69
422.285	2843.69
422.507	2996.69
422.73	2938.69
422.953	2898.69
423.175	2960.69
423.398	2934.69
423.621	2903.69
423.843	2911.69
424.066	2917.69
424.288	2865.69
424.511	2887.69
424.733	2847.69
424.956	2804.69
425.178	2853.69
425.401	2819.69
425.623	2821.69
425.846	2765.69
426.068	2771.69
426.291	2738.69
426.513	2781.69
426.735	2729.69
426.958	2710.69
427.18	2678.69
427.402	2699.69
427.625	2768.69
427.847	2655.69
428.069	2657.69
428.292	2708.69
428.514	2675.69
428.736	2604.69
428.958	2650.69
429.181	2607.69
429.403	2634.69
429.625	2616.69
429.847	2677.69
430.069	2666.69
430.292	2805.69
430.514	2859.69
430.736	2819.69
430.958	2694.69
431.18	2660.69
431.402	2666.69
431.624	2560.69
431.846	2581.69
432.068	2586.69
432.29	2686.69
432.512	2598.69
432.734	2615.69
432.956	2602.69
433.178	2623.69
433.4	2621.69
433.622	2664.69
433.844	2644.69
434.066	2624.69
434.287	2639.69
434.509	2674.69
434.731	2701.69
434.953	2691.69
435.175	2704.69
435.397	2774.69
435.618	2673.69
435.84	2656.69
436.062	2597.69
436.284	2619.69
436.505	2648.69
436.727	2636.69
436.949	2620.69
437.17	2598.69
437.392	2567.69
437.614	2568.69
437.835	2479.69
438.057	2562.69
438.278	2541.69
438.5	2545.69
438.721	2608.69
438.943	2719.69
439.165	2692.69
439.386	2701.69
439.608	2697.69
439.829	2696.69
440.05	2782.69
440.272	2847.69
440.493	2728.69
440.715	2689.69
440.936	2726.69
441.158	2731.69
441.379	2738.69
441.6	2851.69
441.822	2936.69
442.043	3082.69
442.264	3165.69
442.486	2955.69
442.707	2837.69
442.928	2835.69
443.149	2847.69
443.371	2783.69
443.592	2840.69
443.813	2832.69
444.034	2836.69
444.255	2895.69
444.476	2947.69
444.698	2966.69
444.919	2978.69
445.14	3083.69
445.361	2974.69
445.582	2846.69
445.803	2848.69
446.024	2775.69
446.245	2749.69
446.466	2759.69
446.687	2708.69
446.908	2731.69
447.129	2691.69
447.35	2653.69
447.571	2643.69
447.792	2563.69
448.013	2623.69
448.234	2624.69
448.455	2578.69
448.675	2618.69
448.896	2663.69
449.117	2785.69
449.338	2962.69
449.559	3053.69
449.779	2749.69
450	2619.69
450.221	2521.69
450.442	2599.69
450.662	2476.69
450.883	2530.69
451.104	2527.69
451.324	2508.69
451.545	2553.69
451.766	2525.69
451.986	2571.69
452.207	2804.69
452.428	3601.69
452.648	5373.69
452.869	4487.69
453.089	3106.69
453.31	2879.69
453.53	2933.69
453.751	2974.69
453.971	3108.69
454.192	3059.69
454.412	2713.69
454.633	2533.69
454.853	2442.69
455.073	2465.69
455.294	2417.69
455.514	2397.69
455.734	2377.69
455.955	2365.69
456.175	2404.69
456.395	2394.69
456.616	2456.69
456.836	2445.69
457.056	2464.69
457.276	2495.69
457.497	2584.69
457.717	2696.69
457.937	2544.69
458.157	2501.69
458.377	2544.69
458.598	2589.69
458.818	2584.69
459.038	2581.69
459.258	2628.69
459.478	2642.69
459.698	2678.69
459.918	2683.69
460.138	2708.69
460.358	2759.69
460.578	2859.69
460.798	2889.69
461.018	2869.69
461.238	2807.69
461.458	2909.69
461.678	2897.69
461.898	2979.69
462.118	2956.69
462.338	3050.69
462.558	3042.69
462.777	3120.69
462.997	3221.69
463.217	3379.69
463.437	3455.69
463.657	3609.69
463.876	3529.69
464.096	3281.69
464.316	3180.69
464.536	3165.69
464.755	3104.69
464.975	2990.69
465.195	2921.69
465.414	2806.69
465.634	2737.69
465.854	2750.69
466.073	2712.69
466.293	2677.69
466.512	2645.69
466.732	2685.69
466.951	2817.69
467.171	2967.69
467.391	2953.69
467.61	2699.69
467.829	2629.69
468.049	2583.69
468.268	2523.69
468.488	2515.69
468.707	2537.69
468.927	2589.69
469.146	2521.69
469.365	2618.69
469.585	2645.69
469.804	2646.69
470.023	2679.69
470.243	2766.69
470.462	2859.69
470.681	2977.69
470.901	3258.69
471.12	3697.69
471.339	3711.69
471.558	3138.69
471.777	2896.69
471.997	2664.69
472.216	2619.69
472.435	2629.69
472.654	2600.69
472.873	2530.69
473.092	2550.69
473.311	2615.69
473.53	2624.69
473.749	2687.69
473.968	2753.69
474.187	2669.69
474.406	2584.69
474.625	2601.69
474.844	2558.69
475.063	2584.69
475.282	2582.69
475.501	2597.69
475.72	2657.69
475.939	2661.69
476.158	2735.69
476.377	2790.69
476.596	2750.69
476.814	2781.69
477.033	2715.69
477.252	2701.69
477.471	2854.69
477.69	2877.69
477.908	2905.69
478.127	2926.69
478.346	2931.69
478.564	2989.69
478.783	2963.69
479.002	3104.69
479.22	3087.69
479.439	3089.69
479.658	3106.69
479.876	3142.69
480.095	3149.69
480.313	3190.69
480.532	3240.69
480.751	3187.69
480.969	3117.69
481.188	3097.69
481.406	3142.69
481.624	3131.69
481.843	3151.69
482.061	3168.69
482.28	3187.69
482.498	3092.69
482.717	3091.69
482.935	3217.69
483.153	3198.69
483.372	3224.69
483.59	3319.69
483.808	3334.69
484.027	3424.69
484.245	3603.69
484.463	3956.69
484.681	4471.69
484.9	4115.69
485.118	3795.69
485.336	3668.69
485.554	3739.69
485.772	3955.69
485.99	4525.69
486.209	4821.69
486.427	4067.69
486.645	3649.69
486.863	3512.69
487.081	3433.69
487.299	3340.69
487.517	3329.69
487.735	3345.69
487.953	3361.69
488.171	3317.69
488.389	3320.69
488.607	3295.69
488.825	3294.69
489.043	3175.69
489.261	3221.69
489.479	3249.69
489.696	3233.69
489.914	3285.69
490.132	3299.69
490.35	3300.69
490.568	3318.69
490.786	3341.69
491.003	3332.69
491.221	3346.69
491.439	3363.69
491.657	3394.69
491.874	3392.69
492.092	3404.69
492.31	3421.69
492.527	3399.69
492.745	3438.69
492.963	3351.69
493.18	3334.69
493.398	3423.69
493.615	3386.69
493.833	3411.69
494.05	3406.69
494.268	3414.69
494.485	3455.69
494.703	3442.69
494.92	3406.69
495.138	3445.69
495.355	3387.69
495.573	3517.69
495.79	3407.69
496.008	3492.69
496.225	3513.69
496.442	3507.69
496.66	3649.69
496.877	3865.69
497.094	3848.69
497.312	3686.69
497.529	3689.69
497.746	3720.69
497.963	3815.69
498.181	3901.69
498.398	3969.69
498.615	4097.69
498.832	4264.69
499.049	4389.69
499.267	4756.69
499.484	5089.69
499.701	5085.69
499.918	5183.69
500.135	5461.69
500.352	5633.69
500.569	5717.69
500.786	5658.69
501.003	5564.69
501.22	5285.69
501.437	5041.69
501.654	4732.69
501.871	4551.69
502.088	4395.69
502.305	4192.69
502.522	4133.69
502.739	3978.69
502.956	3904.69
503.172	3838.69
503.389	3688.69
503.606	3602.69
503.823	3636.69
504.04	3613.69
504.256	3611.69
504.473	3553.69
504.69	3584.69
504.907	3528.69
505.123	3480.69
505.34	3365.69
505.557	3269.69
505.773	3237.69
505.99	3220.69
506.207	3145.69
506.423	3123.69
506.64	3102.69
506.856	3080.69
507.073	3022.69
507.289	3026.69
507.506	3028.69
507.722	2979.69
507.939	2986.69
508.155	2978.69
508.372	2982.69
508.588	2943.69
508.805	2978.69
509.021	2969.69
509.238	3009.69
509.454	3117.69
509.67	3353.69
509.887	3085.69
510.103	2992.69
510.319	2966.69
510.536	2958.69
510.752	2920.69
510.968	2914.69
511.184	2878.69
511.401	2904.69
511.617	2814.69
511.833	2861.69
512.049	2824.69
512.265	2817.69
512.481	2778.69
512.698	2829.69
512.914	2839.69
513.13	2867.69
513.346	2828.69
513.562	2840.69
513.778	2873.69
513.994	2878.69
514.21	2935.69
514.426	3111.69
514.642	3256.69
514.858	3000.69
515.074	2902.69
515.29	2883.69
515.506	2902.69
515.721	2941.69
515.937	2918.69
516.153	2943.69
516.369	2904.69
516.585	2959.69
516.801	3018.69
517.016	3082.69
517.232	3123.69
517.448	3163.69
517.664	3182.69
517.879	3175.69
518.095	3205.69
518.311	3240.69
518.527	3139.69
518.742	3111.69
518.958	3169.69
519.173	3224.69
519.389	3142.69
519.605	2945.69
519.82	2928.69
520.036	2913.69
520.251	2853.69
520.467	2834.69
520.682	2849.69
520.898	2847.69
521.113	2849.69
521.329	2760.69
521.544	2777.69
521.76	2775.69
521.975	2814.69
522.19	2746.69
522.406	2768.69
522.621	2765.69
522.836	2737.69
523.052	2735.69
523.267	2741.69
523.482	2684.69
523.698	2727.69
523.913	2743.69
524.128	2764.69
524.343	2687.69
524.559	2736.69
524.774	2708.69
524.989	2708.69
525.204	2674.69
525.419	2692.69
525.634	2663.69
525.849	2650.69
526.064	2686.69
526.28	2696.69
526.495	2713.69
526.71	2699.69
526.925	2699.69
527.14	2736.69
527.355	2677.69
527.57	2672.69
527.785	2735.69
527.999	2698.69
528.214	2751.69
528.429	2795.69
528.644	2832.69
528.859	2839.69
529.074	2853.69
529.289	2834.69
529.503	2915.69
529.718	2875.69
529.933	2844.69
530.148	2861.69
530.363	2895.69
530.577	2854.69
530.792	2865.69
531.007	2893.69
531.221	2930.69
531.436	2953.69
531.651	2956.69
531.865	2997.69
532.08	3061.69
532.295	3131.69
532.509	3371.69
532.724	3337.69
532.938	3352.69
533.153	3431.69
533.367	3667.69
533.582	3887.69
533.796	3791.69
534.011	3651.69
534.225	3532.69
534.44	3406.69
534.654	3328.69
534.868	3250.69
535.083	3224.69
535.297	3201.69
535.511	3153.69
535.726	3063.69
535.94	3056.69
536.154	2934.69
536.369	2937.69
536.583	2888.69
536.797	2853.69
537.011	2820.69
537.225	2830.69
537.44	2761.69
537.654	2799.69
537.868	2731.69
538.082	2717.69
538.296	2692.69
538.51	2669.69
538.724	2722.69
538.938	2681.69
539.153	2657.69
539.367	2648.69
539.581	2610.69
539.795	2580.69
540.009	2592.69
540.222	2593.69
540.436	2647.69
540.65	2615.69
540.864	2579.69
541.078	2627.69
541.292	2806.69
541.506	3239.69
541.72	3471.69
541.934	3014.69
542.147	2865.69
542.361	2761.69
542.575	2617.69
542.789	2585.69
543.002	2507.69
543.216	2519.69
543.43	2524.69
543.644	2473.69
543.857	2509.69
544.071	2502.69
544.285	2514.69
544.498	2506.69
544.712	2519.69
544.925	2532.69
545.139	2571.69
545.352	2490.69
545.566	2531.69
545.779	2544.69
545.993	2543.69
546.206	2569.69
546.42	2522.69
546.633	2511.69
546.847	2507.69
547.06	2520.69
547.274	2457.69
547.487	2499.69
547.7	2520.69
547.914	2484.69
548.127	2542.69
548.34	2533.69
548.554	2544.69
548.767	2504.69
548.98	2544.69
549.193	2531.69
549.407	2534.69
549.62	2530.69
549.833	2569.69
550.046	2567.69
550.259	2525.69
550.473	2468.69
550.686	2538.69
550.899	2526.69
551.112	2531.69
551.325	2490.69
551.538	2565.69
551.751	2506.69
551.964	2531.69
552.177	2525.69
552.39	2562.69
552.603	2680.69
552.816	2677.69
553.029	2727.69
553.242	2751.69
553.455	2741.69
553.667	2833.69
553.88	2818.69
554.093	2832.69
554.306	2831.69
554.519	2857.69
554.732	2854.69
554.944	2947.69
555.157	3005.69
555.37	3103.69
555.583	3184.69
555.795	3353.69
556.008	3555.69
556.221	3987.69
556.433	4273.69
556.646	4287.69
556.859	3998.69
557.071	3972.69
557.284	3815.69
557.496	3699.69
557.709	3652.69
557.921	3595.69
558.134	3525.69
558.346	3578.69
558.559	3723.69
558.771	3950.69
558.984	4324.69
559.196	4644.69
559.409	4369.69
559.621	4040.69
559.833	3885.69
560.046	3594.69
560.258	3397.69
560.47	3241.69
560.683	3146.69
560.895	3013.69
561.107	2945.69
561.32	2865.69
561.532	2773.69
561.744	2734.69
561.956	2721.69
562.168	2705.69
562.381	2653.69
562.593	2579.69
562.805	2646.69
563.017	2643.69
563.229	2713.69
563.441	3104.69
563.653	2673.69
563.865	2471.69
564.077	2373.69
564.289	2360.69
564.501	2349.69
564.713	2353.69
564.925	2351.69
565.137	2315.69
565.349	2319.69
565.561	2342.69
565.773	2365.69
565.985	2417.69
566.197	2404.69
566.408	2442.69
566.62	2509.69
566.832	2599.69
567.044	2606.69
567.255	2583.69
567.467	2623.69
567.679	2658.69
567.891	2834.69
568.102	3162.69
568.314	3530.69
568.526	3034.69
568.737	2665.69
568.949	2457.69
569.161	2280.69
569.372	2229.69
569.584	2127.69
569.795	2081.69
570.007	2091.69
570.218	2209.69
570.43	2205.69
570.641	2046.69
570.853	1952.69
571.064	1936.69
571.276	1974.69
571.487	1897.69
571.698	1849.69
571.91	1883.69
572.121	1871.69
572.333	1881.69
572.544	1853.69
572.755	1992.69
572.966	2267.69
573.178	2105.69
573.389	1887.69
573.6	1837.69
573.811	1755.69
574.023	1749.69
574.234	1717.69
574.445	1725.69
574.656	1730.69
574.867	1694.69
575.078	1681.69
575.289	1711.69
575.501	1715.69
575.712	1682.69
575.923	1684.69
576.134	1713.69
576.345	1671.69
576.556	1675.69
576.767	1672.69
576.978	1698.69
577.188	1678.69
577.399	1718.69
577.61	1682.69
577.821	1759.69
578.032	1765.69
578.243	1783.69
578.454	1805.69
578.665	1858.69
578.875	1888.69
579.086	1974.69
579.297	2072.69
579.508	2183.69
579.718	2319.69
579.929	2639.69
580.14	3114.69
580.35	3163.69
580.561	2929.69
580.772	2664.69
580.982	2422.69
581.193	2296.69
581.403	2113.69
581.614	2063.69
581.825	1962.69
582.035	1894.69
582.246	1846.69
582.456	1744.69
582.667	1754.69
582.877	1714.69
583.087	1699.69
583.298	1581.69
583.508	1629.69
583.719	1564.69
583.929	1533.69
584.139	1466.69
584.35	1478.69
584.56	1459.69
584.77	1466.69
584.981	1402.69
585.191	1414.69
585.401	1393.69
585.611	1354.69
585.821	1355.69
586.032	1343.69
586.242	1344.69
586.452	1307.69
586.662	1310.69
586.872	1300.69
587.082	1277.69
587.292	1291.69
587.502	1288.69
587.713	1281.69
587.923	1207.69
588.133	1250.69
588.343	1241.69
588.553	1229.69
588.762	1203.69
588.972	1209.69
589.182	1229.69
589.392	1217.69
589.602	1189.69
589.812	1171.69
590.022	1177.69
590.232	1205.69
590.441	1160.69
590.651	1177.69
590.861	1193.69
591.071	1199.69
591.281	1185.69
591.49	1190.69
591.7	1174.69
591.91	1175.69
592.119	1193.69
592.329	1184.69
592.539	1195.69
592.748	1187.69
592.958	1190.69
593.167	1232.69
593.377	1219.69
593.587	1235.69
593.796	1217.69
594.006	1230.69
594.215	1225.69
594.424	1215.69
594.634	1211.69
594.843	1169.69
595.053	1171.69
595.262	1152.69
595.472	1131.69
595.681	1092.69
595.89	1075.69
596.1	1071.69
596.309	1065.69
596.518	1066.69
596.727	1042.69
596.937	1072.69
597.146	1015.69
597.355	1030.69
597.564	1013.69
597.774	1017.69
597.983	1024.69
598.192	998.69
598.401	982.69
598.61	982.69
598.819	962.69
599.028	947.69
599.237	976.69
599.446	973.69
599.655	963.69
599.864	969.69
600.073	948.69
600.282	941.69
600.491	931.69
600.7	921.69
600.909	917.69
601.118	899.69
601.327	915.69
601.536	934.69
601.745	941.69
601.953	1058.69
602.162	1169.69
602.371	1086.69
602.58	980.69
602.789	935.69
602.997	967.69
603.206	968.69
603.415	943.69
603.623	927.69
603.832	913.69
604.041	911.69
604.249	917.69
604.458	900.69
604.666	883.69
604.875	866.69
605.084	862.69
605.292	916.69
605.501	897.69
605.709	930.69
605.918	901.69
606.126	880.69
606.334	933.69
606.543	901.69
606.751	985.69
606.96	1096.69
607.168	1227.69
607.376	1033.69
607.585	953.69
607.793	938.69
608.001	907.69
608.21	887.69
608.418	866.69
608.626	853.69
608.834	869.69
609.043	870.69
609.251	859.69
609.459	854.69
609.667	807.69
609.875	850.69
610.083	813.69
610.291	854.69
610.499	829.69
610.707	807.69
610.916	810.69
611.124	807.69
611.332	822.69
611.54	830.69
611.748	824.69
611.955	805.69
612.163	805.69
612.371	796.69
612.579	797.69
612.787	798.69
612.995	778.69
613.203	787.69
613.411	770.69
613.618	793.69
613.826	813.69
614.034	789.69
614.242	778.69
614.449	777.69
614.657	785.69
614.865	781.69
615.072	810.69
615.28	785.69
615.488	811.69
615.695	795.69
615.903	800.69
616.111	819.69
616.318	783.69
616.526	812.69
616.733	818.69
616.941	767.69
617.148	763.69
617.356	791.69
617.563	777.69
617.771	744.69
617.978	755.69
618.185	763.69
618.393	751.69
618.6	755.69
618.807	753.69
619.015	747.69
619.222	746.69
619.429	740.69
619.637	722.69
619.844	731.69
620.051	718.69
620.258	717.69
620.466	727.69
620.673	682.69
620.88	682.69
621.087	669.69
621.294	681.69
621.501	685.69
621.708	704.69
621.915	710.69
622.122	707.69
622.329	690.69
622.536	691.69
622.743	691.69
622.95	709.69
623.157	675.69
623.364	691.69
623.571	693.69
623.778	698.69
623.985	688.69
624.192	681.69
624.399	683.69
624.606	677.69
624.812	664.69
625.019	665.69
625.226	653.69
625.433	650.69
625.639	630.69
625.846	635.69
626.053	627.69
626.259	632.69
626.466	615.69
626.673	623.69
626.879	609.69
627.086	632.69
627.293	619.69
627.499	641.69
627.706	628.69
627.912	639.69
628.119	633.69
628.325	645.69
628.532	628.69
628.738	613.69
628.945	616.69
629.151	616.69
629.357	613.69
629.564	597.69
629.77	595.69
629.976	593.69
630.183	614.69
630.389	621.69
630.595	579.69
630.802	606.69
631.008	604.69
631.214	590.69
631.42	599.69
631.627	578.69
631.833	580.69
632.039	592.69
632.245	601.69
632.451	593.69
632.657	582.69
632.863	594.69
633.069	567.69
633.275	565.69
633.481	566.69
633.688	567.69
633.893	561.69
634.099	594.69
634.305	594.69
634.511	581.69
634.717	593.69
634.923	598.69
635.129	707.69
635.335	772.69
635.541	671.69
635.747	607.69
635.952	613.69
636.158	578.69
636.364	582.69
636.57	570.69
636.775	594.69
636.981	602.69
637.187	579.69
637.392	591.69
637.598	579.69
637.804	597.69
638.009	574.69
638.215	555.69
638.421	574.69
638.626	589.69
638.832	559.69
639.037	574.69
639.243	568.69
639.448	594.69
639.654	583.69
639.859	587.69
640.065	593.69
640.27	602.69
640.475	599.69
640.681	615.69
640.886	600.69
641.091	629.69
641.297	623.69
641.502	617.69
641.707	614.69
641.913	660.69
642.118	636.69
642.323	665.69
642.528	663.69
642.733	670.69
642.939	682.69
643.144	724.69
643.349	742.69
643.554	751.69
643.759	811.69
643.964	830.69
644.169	864.69
644.374	928.69
644.579	1006.69
644.784	1095.69
644.989	1235.69
645.194	1441.69
645.399	1768.69
645.604	1884.69
645.809	1407.69
646.014	1121.69
646.219	925.69
646.423	825.69
646.628	756.69
646.833	703.69
647.038	646.69
647.243	625.69
647.447	614.69
647.652	585.69
647.857	599.69
648.062	562.69
648.266	552.69
648.471	552.69
648.676	537.69
648.88	524.69
649.085	538.69
649.289	524.69
649.494	518.69
649.698	513.69
649.903	482.69
650.107	486.69
650.312	490.69
650.516	466.69
650.721	446.69
650.925	449.69
651.13	451.69
651.334	426.69
651.539	433.69
651.743	419.69
651.947	420.69
652.152	409.69
652.356	422.69
652.56	419.69
652.764	490.69
652.969	452.69
653.173	435.69
653.377	395.69
653.581	389.69
653.785	382.69
653.99	376.69
654.194	369.69
654.398	355.69
654.602	357.69
654.806	348.69
655.01	354.69
655.214	365.69
655.418	338.69
655.622	357.69
655.826	354.69
656.03	367.69
656.234	365.69
656.438	385.69
656.642	379.69
656.846	358.69
657.049	355.69
657.253	320.69
657.457	299.69
657.661	284.69
657.865	275.69
658.068	256.69
658.272	249.69
658.476	231.69
658.68	214.69
658.883	211.69
659.087	213.69
659.291	202.69
659.494	198.69
659.698	178.69
659.901	185.69
660.105	173.69
660.309	165.69
660.512	163.69
660.716	170.69
660.919	148.69
661.123	143.69
661.326	131.69
661.53	116.69
661.733	129.69
661.936	119.69
662.14	117.69
662.343	119.69
662.546	121.69
662.75	102.69
662.953	114.69
663.156	91.69
663.36	94.69
663.563	90.69
663.766	83.69
663.969	83.69
664.173	83.69
664.376	97.69
664.579	90.69
664.782	82.69
664.985	79.69
665.188	84.69
665.391	68.69
665.594	80.69
665.797	97.69
666	88.69
666.203	88.69
666.406	79.69
666.609	75.69
666.812	91.69
667.015	81.69
667.218	85.69
667.421	75.69
667.624	86.69
667.827	88.69
668.03	86.69
668.232	85.69
668.435	74.69
668.638	71.69
668.841	87.69
669.043	80.69
669.246	89.69
669.449	79.69
669.651	86.69
669.854	76.69
670.057	80.69
670.259	80.69
670.462	91.69
670.665	84.69
670.867	70.69
671.07	82.69
671.272	90.69
671.475	98.69
671.677	69.69
671.88	79.69
672.082	92.69
672.284	92.69
672.487	72.69
672.689	87.69
672.892	88.69
