Data from SnStandardFlinnAPT0064_LampEnergy10_LIBS07252019.E.O._I.C._HRD10591_15-21-00-494.txt Node
Date: Thu Jul 25 15:21:00 EDT 2019
User: cochatt
Spectrometer: HR+D1059
Trigger mode: 1
Integration Time (sec): 1.000000E-1
Scans to average: 1
Electric dark correction enabled: true
Nonlinearity correction enabled: false
Boxcar width: 0
XAxis mode: Wavelengths
Number of Pixels in Spectrum: 2048
>>>>>Begin Spectral Data<<<<<
223.165	-22.19
223.4	-22.19
223.635	-22.19
223.869	-25.19
224.104	-17.19
224.338	-9.19
224.573	-7.19
224.808	-17.19
225.042	-11.19
225.277	8.81
225.511	-2.19
225.746	13.81
225.98	-9.19
226.215	-5.19
226.449	14.81
226.683	21.81
226.918	31.81
227.152	34.81
227.387	30.81
227.621	40.81
227.856	51.81
228.09	40.81
228.324	52.81
228.559	59.81
228.793	123.81
229.027	330.81
229.262	326.81
229.496	310.81
229.73	296.81
229.964	308.81
230.199	301.81
230.433	294.81
230.667	301.81
230.901	323.81
231.136	352.81
231.37	350.81
231.604	377.81
231.838	466.81
232.072	516.81
232.306	568.81
232.541	469.81
232.775	442.81
233.009	420.81
233.243	423.81
233.477	472.81
233.711	523.81
233.945	582.81
234.179	518.81
234.413	459.81
234.647	457.81
234.881	478.81
235.115	524.81
235.349	625.81
235.583	757.81
235.817	980.81
236.051	956.81
236.285	674.81
236.519	550.81
236.753	506.81
236.987	503.81
237.221	552.81
237.455	515.81
237.689	475.81
237.922	468.81
238.156	493.81
238.39	468.81
238.624	490.81
238.858	485.81
239.091	493.81
239.325	502.81
239.559	512.81
239.793	532.81
240.027	522.81
240.26	544.81
240.494	554.81
240.728	586.81
240.961	616.81
241.195	659.81
241.429	677.81
241.662	711.81
241.896	790.81
242.13	950.81
242.363	1219.81
242.597	1546.81
242.83	1497.81
243.064	1527.81
243.298	1757.81
243.531	1479.81
243.765	975.81
243.998	815.81
244.232	716.81
244.465	664.81
244.699	652.81
244.932	663.81
245.166	661.81
245.399	691.81
245.633	686.81
245.866	700.81
246.099	656.81
246.333	662.81
246.566	644.81
246.8	631.81
247.033	666.81
247.266	662.81
247.5	662.81
247.733	677.81
247.966	746.81
248.2	781.81
248.433	894.81
248.666	982.81
248.899	949.81
249.133	864.81
249.366	883.81
249.599	951.81
249.832	1103.81
250.066	1053.81
250.299	854.81
250.532	787.81
250.765	749.81
250.998	752.81
251.231	735.81
251.465	731.81
251.698	743.81
251.931	748.81
252.164	784.81
252.397	792.81
252.63	796.81
252.863	810.81
253.096	801.81
253.329	820.81
253.562	803.81
253.795	783.81
254.028	832.81
254.261	836.81
254.494	886.81
254.727	1038.81
254.96	1225.81
255.193	1196.81
255.426	970.81
255.659	878.81
255.892	880.81
256.124	883.81
256.357	891.81
256.59	917.81
256.823	986.81
257.056	1136.81
257.289	1341.81
257.521	1511.81
257.754	1234.81
257.987	1015.81
258.22	952.81
258.452	941.81
258.685	935.81
258.918	980.81
259.151	1017.81
259.383	1120.81
259.616	1229.81
259.849	1258.81
260.081	1088.81
260.314	1010.81
260.547	944.81
260.779	981.81
261.012	968.81
261.244	976.81
261.477	989.81
261.71	1021.81
261.942	1018.81
262.175	1028.81
262.407	1051.81
262.64	1067.81
262.872	1122.81
263.105	1169.81
263.337	1189.81
263.57	1282.81
263.802	1298.81
264.035	1363.81
264.267	1346.81
264.499	1423.81
264.732	1442.81
264.964	1485.81
265.197	1456.81
265.429	1451.81
265.661	1466.81
265.894	1606.81
266.126	1756.81
266.358	2011.81
266.591	1915.81
266.823	1623.81
267.055	1445.81
267.287	1421.81
267.52	1359.81
267.752	1284.81
267.984	1294.81
268.216	1272.81
268.448	1207.81
268.681	1254.81
268.913	1230.81
269.145	1246.81
269.377	1255.81
269.609	1259.81
269.841	1296.81
270.073	1392.81
270.306	1580.81
270.538	2151.81
270.77	3159.81
271.002	3855.81
271.234	2790.81
271.466	1909.81
271.698	1517.81
271.93	1423.81
272.162	1321.81
272.394	1327.81
272.626	1255.81
272.858	1272.81
273.09	1248.81
273.322	1228.81
273.553	1234.81
273.785	1222.81
274.017	1207.81
274.249	1206.81
274.481	1227.81
274.713	1232.81
274.945	1204.81
275.176	1221.81
275.408	1223.81
275.64	1224.81
275.872	1238.81
276.104	1251.81
276.335	1286.81
276.567	1307.81
276.799	1284.81
277.031	1328.81
277.262	1340.81
277.494	1422.81
277.726	1562.81
277.957	1852.81
278.189	2126.81
278.421	1958.81
278.652	1782.81
278.884	1716.81
279.115	1532.81
279.347	1431.81
279.579	1434.81
279.81	1415.81
280.042	1435.81
280.273	1423.81
280.505	1440.81
280.736	1483.81
280.968	1604.81
281.199	1775.81
281.431	2010.81
281.662	2116.81
281.894	1802.81
282.125	1645.81
282.356	1686.81
282.588	1702.81
282.819	1701.81
283.051	1816.81
283.282	2029.81
283.513	2472.81
283.745	3555.81
283.976	5483.81
284.207	7781.81
284.439	7111.81
284.67	4509.81
284.901	3689.81
285.132	3770.81
285.364	3557.81
285.595	2730.81
285.826	2430.81
286.057	2857.81
286.288	3833.81
286.52	5127.81
286.751	4786.81
286.982	3035.81
287.213	2276.81
287.444	2031.81
287.675	1896.81
287.906	1806.81
288.138	1750.81
288.369	1726.81
288.6	1652.81
288.831	1704.81
289.062	1695.81
289.293	1690.81
289.524	1717.81
289.755	1753.81
289.986	1739.81
290.217	1705.81
290.448	1735.81
290.679	1755.81
290.91	1835.81
291.141	1942.81
291.371	2043.81
291.602	2128.81
291.833	1935.81
292.064	1748.81
292.295	1684.81
292.526	1639.81
292.757	1639.81
292.987	1634.81
293.218	1631.81
293.449	1645.81
293.68	1616.81
293.91	1616.81
294.141	1586.81
294.372	1593.81
294.603	1598.81
294.833	1578.81
295.064	1595.81
295.295	1575.81
295.525	1576.81
295.756	1616.81
295.987	1573.81
296.217	1582.81
296.448	1572.81
296.679	1567.81
296.909	1597.81
297.14	1592.81
297.37	1639.81
297.601	1674.81
297.831	1670.81
298.062	1633.81
298.292	1654.81
298.523	1683.81
298.753	1721.81
298.984	1723.81
299.214	1715.81
299.445	1716.81
299.675	1786.81
299.905	1869.81
300.136	1928.81
300.366	2170.81
300.597	2677.81
300.827	3770.81
301.057	5173.81
301.288	5124.81
301.518	3412.81
301.748	2635.81
301.979	2386.81
302.209	2311.81
302.439	2315.81
302.669	2484.81
302.9	2960.81
303.13	4155.81
303.36	6015.81
303.59	8040.81
303.82	6950.81
304.051	4221.81
304.281	3066.81
304.511	2542.81
304.741	2342.81
304.971	2235.81
305.201	2104.81
305.431	2105.81
305.661	1974.81
305.891	1934.81
306.121	1870.81
306.352	1900.81
306.582	1807.81
306.812	1855.81
307.042	1876.81
307.272	1856.81
307.502	1842.81
307.731	1849.81
307.961	1816.81
308.191	1808.81
308.421	1872.81
308.651	1831.81
308.881	1828.81
309.111	1843.81
309.341	1819.81
309.571	1832.81
309.8	1868.81
310.03	1875.81
310.26	1887.81
310.49	1851.81
310.72	1918.81
310.949	1878.81
311.179	1916.81
311.409	1928.81
311.639	1937.81
311.868	1949.81
312.098	1950.81
312.328	1988.81
312.557	1977.81
312.787	1988.81
313.017	1942.81
313.246	1990.81
313.476	2026.81
313.706	2098.81
313.935	2265.81
314.165	2407.81
314.394	2470.81
314.624	2390.81
314.853	2198.81
315.083	2179.81
315.312	2217.81
315.542	2222.81
315.771	2223.81
316.001	2297.81
316.23	2347.81
316.46	2454.81
316.689	2699.81
316.919	3228.81
317.148	4601.81
317.377	6938.81
317.607	10109.81
317.836	10500.81
318.065	6604.81
318.295	4270.81
318.524	3488.81
318.753	3053.81
318.983	2772.81
319.212	2605.81
319.441	2493.81
319.67	2457.81
319.9	2389.81
320.129	2406.81
320.358	2385.81
320.587	2350.81
320.816	2360.81
321.046	2354.81
321.275	2347.81
321.504	2374.81
321.733	2474.81
321.962	2520.81
322.191	2566.81
322.42	2534.81
322.649	2543.81
322.878	2508.81
323.108	2504.81
323.337	2573.81
323.566	2573.81
323.795	2646.81
324.024	2671.81
324.253	2746.81
324.482	2857.81
324.71	2966.81
324.939	3257.81
325.168	3293.81
325.397	3456.81
325.626	4006.81
325.855	5570.81
326.084	8595.81
326.313	12391.81
326.542	13245.81
326.77	8991.81
326.999	5988.81
327.228	5031.81
327.457	4767.81
327.686	4821.81
327.914	5162.81
328.143	6019.81
328.372	7156.81
328.6	7721.81
328.829	7012.81
329.058	5892.81
329.287	5132.81
329.515	4682.81
329.744	4368.81
329.972	4150.81
330.201	3919.81
330.43	3756.81
330.658	3668.81
330.887	3572.81
331.115	3522.81
331.344	3494.81
331.572	3495.81
331.801	3561.81
332.03	3563.81
332.258	3573.81
332.486	3788.81
332.715	4299.81
332.943	5292.81
333.172	6541.81
333.4	6590.81
333.629	5007.81
333.857	4474.81
334.085	4519.81
334.314	4716.81
334.542	5130.81
334.771	6029.81
334.999	7359.81
335.227	9255.81
335.455	10390.81
335.684	9343.81
335.912	7708.81
336.14	6546.81
336.369	5717.81
336.597	5327.81
336.825	4905.81
337.053	4600.81
337.281	4270.81
337.51	4059.81
337.738	3971.81
337.966	3749.81
338.194	3589.81
338.422	3510.81
338.65	3386.81
338.878	3356.81
339.106	3261.81
339.334	3232.81
339.562	3208.81
339.79	3112.81
340.018	3086.81
340.246	3073.81
340.474	3063.81
340.702	2972.81
340.93	3038.81
341.158	3004.81
341.386	3059.81
341.614	2982.81
341.842	2946.81
342.07	2857.81
342.298	2861.81
342.526	2788.81
342.754	2762.81
342.981	2764.81
343.209	2745.81
343.437	2760.81
343.665	2855.81
343.893	2854.81
344.12	2863.81
344.348	2854.81
344.576	2742.81
344.804	2722.81
345.031	2697.81
345.259	2662.81
345.487	2661.81
345.714	2568.81
345.942	2566.81
346.17	2579.81
346.397	2527.81
346.625	2607.81
346.853	2533.81
347.08	2552.81
347.308	2563.81
347.535	2555.81
347.763	2535.81
347.99	2510.81
348.218	2502.81
348.445	2468.81
348.673	2496.81
348.9	2462.81
349.128	2473.81
349.355	2462.81
349.583	2447.81
349.81	2437.81
350.037	2430.81
350.265	2454.81
350.492	2473.81
350.72	2452.81
350.947	2398.81
351.174	2404.81
351.402	2393.81
351.629	2386.81
351.856	2433.81
352.083	2464.81
352.311	2428.81
352.538	2429.81
352.765	2419.81
352.992	2378.81
353.22	2386.81
353.447	2407.81
353.674	2317.81
353.901	2375.81
354.128	2406.81
354.355	2404.81
354.583	2444.81
354.81	2422.81
355.037	2430.81
355.264	2401.81
355.491	2508.81
355.718	2500.81
355.945	2471.81
356.172	2468.81
356.399	2499.81
356.626	2460.81
356.853	2546.81
357.08	2531.81
357.307	2569.81
357.534	2582.81
357.761	2592.81
357.988	2583.81
358.215	2572.81
358.441	2595.81
358.668	2562.81
358.895	2565.81
359.122	2535.81
359.349	2518.81
359.576	2524.81
359.802	2550.81
360.029	2537.81
360.256	2570.81
360.483	2630.81
360.709	2597.81
360.936	2628.81
361.163	2588.81
361.39	2571.81
361.616	2573.81
361.843	2590.81
362.07	2616.81
362.296	2572.81
362.523	2574.81
362.749	2603.81
362.976	2589.81
363.203	2585.81
363.429	2494.81
363.656	2576.81
363.882	2571.81
364.109	2520.81
364.335	2508.81
364.562	2525.81
364.788	2572.81
365.015	2601.81
365.241	2678.81
365.468	2823.81
365.694	2961.81
365.92	2856.81
366.147	2683.81
366.373	2663.81
366.599	2630.81
366.826	2631.81
367.052	2577.81
367.278	2680.81
367.505	2662.81
367.731	2675.81
367.957	2634.81
368.184	2682.81
368.41	2674.81
368.636	2700.81
368.862	2677.81
369.089	2723.81
369.315	2708.81
369.541	2668.81
369.767	2582.81
369.993	2666.81
370.219	2630.81
370.445	2674.81
370.672	2707.81
370.898	2725.81
371.124	2722.81
371.35	2714.81
371.576	2723.81
371.802	2699.81
372.028	2825.81
372.254	2789.81
372.48	2748.81
372.706	2811.81
372.932	2774.81
373.158	2822.81
373.384	2799.81
373.61	2860.81
373.835	2767.81
374.061	2787.81
374.287	2890.81
374.513	2878.81
374.739	2906.81
374.965	2952.81
375.191	2923.81
375.416	2904.81
375.642	2898.81
375.868	2874.81
376.094	2877.81
376.319	2839.81
376.545	2802.81
376.771	2771.81
376.997	2810.81
377.222	2762.81
377.448	2719.81
377.674	2776.81
377.899	2712.81
378.125	2727.81
378.35	2725.81
378.576	2760.81
378.802	2806.81
379.027	2809.81
379.253	2907.81
379.478	3058.81
379.704	3590.81
379.929	5096.81
380.155	7819.81
380.38	8514.81
380.606	5293.81
380.831	3758.81
381.057	3250.81
381.282	3013.81
381.507	2931.81
381.733	2839.81
381.958	2791.81
382.184	2759.81
382.409	2693.81
382.634	2723.81
382.86	2700.81
383.085	2692.81
383.31	2698.81
383.535	2719.81
383.761	2719.81
383.986	2739.81
384.211	2791.81
384.436	2759.81
384.662	2763.81
384.887	2795.81
385.112	2841.81
385.337	2769.81
385.562	2773.81
385.787	2789.81
386.013	2756.81
386.238	2821.81
386.463	2771.81
386.688	2776.81
386.913	2726.81
387.138	2840.81
387.363	2748.81
387.588	2746.81
387.813	2804.81
388.038	2780.81
388.263	2798.81
388.488	2753.81
388.713	2808.81
388.938	2761.81
389.163	2775.81
389.387	2818.81
389.612	2743.81
389.837	2797.81
390.062	2783.81
390.287	2837.81
390.512	2874.81
390.736	2852.81
390.961	2855.81
391.186	2903.81
391.411	2918.81
391.636	2915.81
391.86	2963.81
392.085	2983.81
392.31	2947.81
392.534	2915.81
392.759	2866.81
392.984	2868.81
393.208	2847.81
393.433	2814.81
393.658	2854.81
393.882	2825.81
394.107	2800.81
394.331	2785.81
394.556	2844.81
394.78	2790.81
395.005	2874.81
395.229	2889.81
395.454	2912.81
395.678	2900.81
395.903	2944.81
396.127	2942.81
396.352	2885.81
396.576	2880.81
396.801	2883.81
397.025	2943.81
397.249	2930.81
397.474	2908.81
397.698	2952.81
397.922	2978.81
398.147	2956.81
398.371	2984.81
398.595	3011.81
398.82	3092.81
399.044	3214.81
399.268	3388.81
399.492	3518.81
399.717	3694.81
399.941	3654.81
400.165	3596.81
400.389	3380.81
400.613	3270.81
400.837	3159.81
401.062	3138.81
401.286	3094.81
401.51	3053.81
401.734	3050.81
401.958	3138.81
402.182	3052.81
402.406	3068.81
402.63	3071.81
402.854	3149.81
403.078	3130.81
403.302	3192.81
403.526	3167.81
403.75	3138.81
403.974	3157.81
404.198	3149.81
404.422	3212.81
404.645	3209.81
404.869	3161.81
405.093	3219.81
405.317	3171.81
405.541	3229.81
405.765	3248.81
405.988	3362.81
406.212	3276.81
406.436	3240.81
406.66	3331.81
406.883	3302.81
407.107	3436.81
407.331	3454.81
407.555	3544.81
407.778	3441.81
408.002	3452.81
408.226	3415.81
408.449	3395.81
408.673	3353.81
408.896	3291.81
409.12	3260.81
409.344	3216.81
409.567	3236.81
409.791	3259.81
410.014	3173.81
410.238	3169.81
410.461	3133.81
410.685	3133.81
410.908	3142.81
411.132	3085.81
411.355	3005.81
411.578	3082.81
411.802	3048.81
412.025	3079.81
412.249	3085.81
412.472	3032.81
412.695	3086.81
412.919	2988.81
413.142	2979.81
413.365	2985.81
413.589	3039.81
413.812	3024.81
414.035	3044.81
414.258	3041.81
414.482	3080.81
414.705	3054.81
414.928	2950.81
415.151	3028.81
415.374	2993.81
415.597	2940.81
415.821	2904.81
416.044	2900.81
416.267	2924.81
416.49	2889.81
416.713	2871.81
416.936	2851.81
417.159	2925.81
417.382	2875.81
417.605	2846.81
417.828	2895.81
418.051	2898.81
418.274	2895.81
418.497	2947.81
418.72	2995.81
418.943	2938.81
419.166	3058.81
419.389	3234.81
419.611	3204.81
419.834	3082.81
420.057	2990.81
420.28	2960.81
420.503	2886.81
420.726	2854.81
420.948	2893.81
421.171	2912.81
421.394	2922.81
421.617	2882.81
421.839	2880.81
422.062	2922.81
422.285	2871.81
422.507	2960.81
422.73	2953.81
422.953	2987.81
423.175	3020.81
423.398	2969.81
423.621	2882.81
423.843	2964.81
424.066	2903.81
424.288	2894.81
424.511	2874.81
424.733	2900.81
424.956	2851.81
425.178	2849.81
425.401	2777.81
425.623	2843.81
425.846	2787.81
426.068	2808.81
426.291	2798.81
426.513	2782.81
426.735	2743.81
426.958	2779.81
427.18	2685.81
427.402	2745.81
427.625	2710.81
427.847	2687.81
428.069	2708.81
428.292	2694.81
428.514	2695.81
428.736	2708.81
428.958	2733.81
429.181	2636.81
429.403	2649.81
429.625	2661.81
429.847	2692.81
430.069	2757.81
430.292	2824.81
430.514	2848.81
430.736	2884.81
430.958	2718.81
431.18	2658.81
431.402	2686.81
431.624	2648.81
431.846	2636.81
432.068	2595.81
432.29	2636.81
432.512	2582.81
432.734	2681.81
432.956	2682.81
433.178	2645.81
433.4	2628.81
433.622	2678.81
433.844	2674.81
434.066	2674.81
434.287	2678.81
434.509	2716.81
434.731	2771.81
434.953	2752.81
435.175	2757.81
435.397	2786.81
435.618	2666.81
435.84	2692.81
436.062	2607.81
436.284	2684.81
436.505	2632.81
436.727	2641.81
436.949	2586.81
437.17	2682.81
437.392	2582.81
437.614	2603.81
437.835	2556.81
438.057	2583.81
438.278	2549.81
438.5	2595.81
438.721	2626.81
438.943	2621.81
439.165	2771.81
439.386	2728.81
439.608	2744.81
439.829	2720.81
440.05	2826.81
440.272	2862.81
440.493	2813.81
440.715	2720.81
440.936	2743.81
441.158	2791.81
441.379	2829.81
441.6	2828.81
441.822	2914.81
442.043	3062.81
442.264	3164.81
442.486	2998.81
442.707	2904.81
442.928	2837.81
443.149	2863.81
443.371	2854.81
443.592	2863.81
443.813	2833.81
444.034	2866.81
444.255	2888.81
444.476	2926.81
444.698	3029.81
444.919	3042.81
445.14	3064.81
445.361	3025.81
445.582	2923.81
445.803	2851.81
446.024	2825.81
446.245	2783.81
446.466	2827.81
446.687	2773.81
446.908	2783.81
447.129	2695.81
447.35	2740.81
447.571	2694.81
447.792	2615.81
448.013	2637.81
448.234	2586.81
448.455	2642.81
448.675	2676.81
448.896	2710.81
449.117	2811.81
449.338	3020.81
449.559	3117.81
449.779	2761.81
450	2668.81
450.221	2594.81
450.442	2590.81
450.662	2590.81
450.883	2515.81
451.104	2543.81
451.324	2538.81
451.545	2579.81
451.766	2635.81
451.986	2591.81
452.207	2795.81
452.428	3602.81
452.648	5502.81
452.869	4606.81
453.089	3226.81
453.31	3011.81
453.53	2956.81
453.751	3032.81
453.971	3230.81
454.192	3116.81
454.412	2726.81
454.633	2614.81
454.853	2468.81
455.073	2470.81
455.294	2501.81
455.514	2461.81
455.734	2440.81
455.955	2436.81
456.175	2462.81
456.395	2452.81
456.616	2425.81
456.836	2513.81
457.056	2499.81
457.276	2546.81
457.497	2634.81
457.717	2688.81
457.937	2604.81
458.157	2580.81
458.377	2582.81
458.598	2637.81
458.818	2665.81
459.038	2607.81
459.258	2632.81
459.478	2676.81
459.698	2700.81
459.918	2730.81
460.138	2780.81
460.358	2823.81
460.578	2840.81
460.798	2926.81
461.018	2847.81
461.238	2858.81
461.458	2926.81
461.678	2922.81
461.898	2991.81
462.118	2972.81
462.338	3047.81
462.558	3090.81
462.777	3148.81
462.997	3228.81
463.217	3378.81
463.437	3501.81
463.657	3546.81
463.876	3543.81
464.096	3386.81
464.316	3224.81
464.536	3182.81
464.755	3103.81
464.975	3023.81
465.195	2903.81
465.414	2851.81
465.634	2744.81
465.854	2709.81
466.073	2706.81
466.293	2641.81
466.512	2729.81
466.732	2684.81
466.951	2840.81
467.171	2991.81
467.391	2959.81
467.61	2754.81
467.829	2639.81
468.049	2641.81
468.268	2573.81
468.488	2593.81
468.707	2574.81
468.927	2604.81
469.146	2603.81
469.365	2631.81
469.585	2652.81
469.804	2726.81
470.023	2764.81
470.243	2789.81
470.462	2866.81
470.681	2996.81
470.901	3289.81
471.12	3784.81
471.339	3775.81
471.558	3168.81
471.777	2860.81
471.997	2799.81
472.216	2759.81
472.435	2706.81
472.654	2610.81
472.873	2586.81
473.092	2626.81
473.311	2662.81
473.53	2615.81
473.749	2677.81
473.968	2774.81
474.187	2658.81
474.406	2595.81
474.625	2623.81
474.844	2602.81
475.063	2628.81
475.282	2661.81
475.501	2639.81
475.72	2634.81
475.939	2636.81
476.158	2712.81
476.377	2780.81
476.596	2762.81
476.814	2784.81
477.033	2750.81
477.252	2798.81
477.471	2874.81
477.69	2946.81
477.908	2933.81
478.127	2969.81
478.346	3006.81
478.564	3021.81
478.783	3080.81
479.002	3099.81
479.22	3123.81
479.439	3094.81
479.658	3110.81
479.876	3119.81
480.095	3181.81
480.313	3220.81
480.532	3274.81
480.751	3264.81
480.969	3220.81
481.188	3193.81
481.406	3144.81
481.624	3183.81
481.843	3225.81
482.061	3187.81
482.28	3194.81
482.498	3198.81
482.717	3201.81
482.935	3240.81
483.153	3268.81
483.372	3279.81
483.59	3340.81
483.808	3338.81
484.027	3449.81
484.245	3690.81
484.463	4012.81
484.681	4498.81
484.9	4054.81
485.118	3802.81
485.336	3699.81
485.554	3818.81
485.772	4039.81
485.99	4450.81
486.209	4852.81
486.427	4158.81
486.645	3726.81
486.863	3563.81
487.081	3455.81
487.299	3373.81
487.517	3351.81
487.735	3338.81
487.953	3401.81
488.171	3321.81
488.389	3307.81
488.607	3290.81
488.825	3282.81
489.043	3234.81
489.261	3282.81
489.479	3308.81
489.696	3270.81
489.914	3284.81
490.132	3319.81
490.35	3319.81
490.568	3316.81
490.786	3357.81
491.003	3394.81
491.221	3420.81
491.439	3406.81
491.657	3388.81
491.874	3394.81
492.092	3440.81
492.31	3456.81
492.527	3411.81
492.745	3450.81
492.963	3423.81
493.18	3414.81
493.398	3397.81
493.615	3431.81
493.833	3418.81
494.05	3403.81
494.268	3455.81
494.485	3422.81
494.703	3433.81
494.92	3503.81
495.138	3444.81
495.355	3493.81
495.573	3424.81
495.79	3488.81
496.008	3507.81
496.225	3563.81
496.442	3544.81
496.66	3676.81
496.877	3874.81
497.094	3867.81
497.312	3726.81
497.529	3714.81
497.746	3779.81
497.963	3823.81
498.181	3881.81
498.398	3965.81
498.615	4152.81
498.832	4325.81
499.049	4477.81
499.267	4798.81
499.484	5087.81
499.701	5029.81
499.918	5248.81
500.135	5413.81
500.352	5764.81
500.569	5805.81
500.786	5737.81
501.003	5636.81
501.22	5339.81
501.437	5120.81
501.654	4738.81
501.871	4536.81
502.088	4347.81
502.305	4303.81
502.522	4143.81
502.739	4033.81
502.956	3844.81
503.172	3830.81
503.389	3683.81
503.606	3764.81
503.823	3606.81
504.04	3618.81
504.256	3619.81
504.473	3640.81
504.69	3629.81
504.907	3537.81
505.123	3469.81
505.34	3394.81
505.557	3299.81
505.773	3278.81
505.99	3291.81
506.207	3226.81
506.423	3125.81
506.64	3140.81
506.856	3081.81
507.073	3134.81
507.289	3066.81
507.506	3028.81
507.722	3035.81
507.939	3020.81
508.155	3009.81
508.372	2966.81
508.588	2957.81
508.805	2970.81
509.021	2971.81
509.238	3028.81
509.454	3171.81
509.67	3347.81
509.887	3148.81
510.103	3029.81
510.319	2950.81
510.536	2947.81
510.752	2886.81
510.968	2956.81
511.184	2888.81
511.401	2901.81
511.617	2875.81
511.833	2910.81
512.049	2849.81
512.265	2827.81
512.481	2844.81
512.698	2792.81
512.914	2839.81
513.13	2880.81
513.346	2862.81
513.562	2866.81
513.778	2872.81
513.994	2914.81
514.21	3002.81
514.426	3134.81
514.642	3279.81
514.858	3053.81
515.074	2924.81
515.29	2948.81
515.506	2889.81
515.721	2964.81
515.937	2943.81
516.153	2952.81
516.369	2991.81
516.585	2998.81
516.801	3028.81
517.016	3046.81
517.232	3160.81
517.448	3190.81
517.664	3262.81
517.879	3271.81
518.095	3287.81
518.311	3206.81
518.527	3133.81
518.742	3170.81
518.958	3149.81
519.173	3220.81
519.389	3135.81
519.605	3029.81
519.82	2972.81
520.036	2938.81
520.251	2905.81
520.467	2847.81
520.682	2842.81
520.898	2845.81
521.113	2815.81
521.329	2825.81
521.544	2859.81
521.76	2817.81
521.975	2813.81
522.19	2793.81
522.406	2806.81
522.621	2783.81
522.836	2761.81
523.052	2731.81
523.267	2686.81
523.482	2732.81
523.698	2742.81
523.913	2735.81
524.128	2748.81
524.343	2738.81
524.559	2726.81
524.774	2741.81
524.989	2730.81
525.204	2766.81
525.419	2692.81
525.634	2727.81
525.849	2718.81
526.064	2699.81
526.28	2698.81
526.495	2730.81
526.71	2767.81
526.925	2779.81
527.14	2695.81
527.355	2730.81
527.57	2777.81
527.785	2786.81
527.999	2710.81
528.214	2766.81
528.429	2847.81
528.644	2878.81
528.859	2796.81
529.074	2869.81
529.289	2954.81
529.503	2930.81
529.718	2904.81
529.933	2890.81
530.148	2895.81
530.363	2923.81
530.577	2890.81
530.792	2921.81
531.007	2946.81
531.221	2986.81
531.436	2999.81
531.651	3015.81
531.865	3051.81
532.08	3105.81
532.295	3257.81
532.509	3430.81
532.724	3408.81
532.938	3442.81
533.153	3570.81
533.367	3794.81
533.582	4002.81
533.796	3905.81
534.011	3810.81
534.225	3663.81
534.44	3516.81
534.654	3456.81
534.868	3388.81
535.083	3309.81
535.297	3258.81
535.511	3206.81
535.726	3130.81
535.94	3077.81
536.154	3012.81
536.369	3036.81
536.583	2948.81
536.797	2943.81
537.011	2902.81
537.225	2896.81
537.44	2822.81
537.654	2847.81
537.868	2795.81
538.082	2745.81
538.296	2764.81
538.51	2690.81
538.724	2773.81
538.938	2705.81
539.153	2723.81
539.367	2702.81
539.581	2666.81
539.795	2654.81
540.009	2631.81
540.222	2630.81
540.436	2639.81
540.65	2590.81
540.864	2646.81
541.078	2698.81
541.292	2840.81
541.506	3310.81
541.72	3431.81
541.934	3025.81
542.147	2872.81
542.361	2780.81
542.575	2646.81
542.789	2655.81
543.002	2594.81
543.216	2572.81
543.43	2532.81
543.644	2551.81
543.857	2529.81
544.071	2576.81
544.285	2611.81
544.498	2522.81
544.712	2547.81
544.925	2542.81
545.139	2592.81
545.352	2544.81
545.566	2535.81
545.779	2524.81
545.993	2566.81
546.206	2564.81
546.42	2580.81
546.633	2565.81
546.847	2590.81
547.06	2535.81
547.274	2518.81
547.487	2559.81
547.7	2589.81
547.914	2580.81
548.127	2583.81
548.34	2597.81
548.554	2519.81
548.767	2579.81
548.98	2571.81
549.193	2561.81
549.407	2571.81
549.62	2541.81
549.833	2513.81
550.046	2555.81
550.259	2583.81
550.473	2524.81
550.686	2589.81
550.899	2597.81
551.112	2541.81
551.325	2570.81
551.538	2557.81
551.751	2534.81
551.964	2557.81
552.177	2641.81
552.39	2660.81
552.603	2696.81
552.816	2768.81
553.029	2745.81
553.242	2796.81
553.455	2812.81
553.667	2840.81
553.88	2850.81
554.093	2875.81
554.306	2892.81
554.519	2900.81
554.732	2981.81
554.944	2998.81
555.157	3066.81
555.37	3180.81
555.583	3223.81
555.795	3432.81
556.008	3710.81
556.221	4104.81
556.433	4436.81
556.646	4470.81
556.859	4290.81
557.071	4114.81
557.284	3968.81
557.496	3899.81
557.709	3741.81
557.921	3706.81
558.134	3711.81
558.346	3742.81
558.559	3910.81
558.771	4118.81
558.984	4483.81
559.196	4830.81
559.409	4644.81
559.621	4250.81
559.833	4004.81
560.046	3755.81
560.258	3565.81
560.47	3426.81
560.683	3260.81
560.895	3144.81
561.107	3024.81
561.32	2954.81
561.532	2874.81
561.744	2802.81
561.956	2803.81
562.168	2730.81
562.381	2665.81
562.593	2624.81
562.805	2726.81
563.017	2686.81
563.229	2767.81
563.441	3207.81
563.653	2678.81
563.865	2499.81
564.077	2491.81
564.289	2460.81
564.501	2387.81
564.713	2407.81
564.925	2380.81
565.137	2378.81
565.349	2362.81
565.561	2355.81
565.773	2404.81
565.985	2439.81
566.197	2466.81
566.408	2487.81
566.62	2551.81
566.832	2583.81
567.044	2622.81
567.255	2616.81
567.467	2696.81
567.679	2708.81
567.891	2862.81
568.102	3122.81
568.314	3578.81
568.526	3124.81
568.737	2740.81
568.949	2494.81
569.161	2353.81
569.372	2245.81
569.584	2198.81
569.795	2139.81
570.007	2162.81
570.218	2186.81
570.43	2245.81
570.641	2114.81
570.853	2013.81
571.064	2012.81
571.276	2002.81
571.487	1946.81
571.698	1910.81
571.91	1879.81
572.121	1903.81
572.333	1875.81
572.544	1888.81
572.755	1961.81
572.966	2261.81
573.178	2112.81
573.389	1912.81
573.6	1864.81
573.811	1806.81
574.023	1804.81
574.234	1754.81
574.445	1734.81
574.656	1732.81
574.867	1721.81
575.078	1701.81
575.289	1708.81
575.501	1740.81
575.712	1673.81
575.923	1706.81
576.134	1747.81
576.345	1757.81
576.556	1744.81
576.767	1720.81
576.978	1754.81
577.188	1808.81
577.399	1749.81
577.61	1734.81
577.821	1778.81
578.032	1811.81
578.243	1815.81
578.454	1883.81
578.665	1906.81
578.875	1936.81
579.086	1988.81
579.297	2131.81
579.508	2274.81
579.718	2436.81
579.929	2784.81
580.14	3241.81
580.35	3307.81
580.561	2969.81
580.772	2712.81
580.982	2522.81
581.193	2343.81
581.403	2243.81
581.614	2112.81
581.825	2050.81
582.035	1941.81
582.246	1898.81
582.456	1820.81
582.667	1828.81
582.877	1812.81
583.087	1721.81
583.298	1698.81
583.508	1630.81
583.719	1599.81
583.929	1606.81
584.139	1532.81
584.35	1498.81
584.56	1471.81
584.77	1458.81
584.981	1461.81
585.191	1456.81
585.401	1423.81
585.611	1389.81
585.821	1370.81
586.032	1372.81
586.242	1377.81
586.452	1330.81
586.662	1316.81
586.872	1320.81
587.082	1305.81
587.292	1285.81
587.502	1244.81
587.713	1298.81
587.923	1274.81
588.133	1256.81
588.343	1257.81
588.553	1244.81
588.762	1236.81
588.972	1207.81
589.182	1210.81
589.392	1249.81
589.602	1240.81
589.812	1193.81
590.022	1188.81
590.232	1190.81
590.441	1202.81
590.651	1180.81
590.861	1190.81
591.071	1208.81
591.281	1167.81
591.49	1203.81
591.7	1182.81
591.91	1199.81
592.119	1166.81
592.329	1198.81
592.539	1211.81
592.748	1216.81
592.958	1219.81
593.167	1222.81
593.377	1227.81
593.587	1231.81
593.796	1218.81
594.006	1247.81
594.215	1210.81
594.424	1225.81
594.634	1214.81
594.843	1206.81
595.053	1176.81
595.262	1166.81
595.472	1141.81
595.681	1127.81
595.89	1083.81
596.1	1099.81
596.309	1089.81
596.518	1101.81
596.727	1079.81
596.937	1038.81
597.146	1041.81
597.355	1035.81
597.564	986.81
597.774	994.81
597.983	1010.81
598.192	982.81
598.401	1007.81
598.61	968.81
598.819	949.81
599.028	984.81
599.237	970.81
599.446	979.81
599.655	970.81
599.864	973.81
600.073	966.81
600.282	956.81
600.491	940.81
600.7	984.81
600.909	987.81
601.118	956.81
601.327	936.81
601.536	935.81
601.745	997.81
601.953	1064.81
602.162	1193.81
602.371	1030.81
602.58	988.81
602.789	947.81
602.997	957.81
603.206	967.81
603.415	962.81
603.623	963.81
603.832	914.81
604.041	926.81
604.249	923.81
604.458	911.81
604.666	892.81
604.875	894.81
605.084	889.81
605.292	882.81
605.501	906.81
605.709	911.81
605.918	899.81
606.126	908.81
606.334	908.81
606.543	944.81
606.751	975.81
606.96	1109.81
607.168	1197.81
607.376	1058.81
607.585	968.81
607.793	938.81
608.001	920.81
608.21	902.81
608.418	894.81
608.626	882.81
608.834	867.81
609.043	877.81
609.251	854.81
609.459	843.81
609.667	865.81
609.875	838.81
610.083	828.81
610.291	838.81
610.499	858.81
610.707	847.81
610.916	834.81
611.124	837.81
611.332	823.81
611.54	807.81
611.748	818.81
611.955	790.81
612.163	822.81
612.371	825.81
612.579	824.81
612.787	824.81
612.995	804.81
613.203	794.81
613.411	768.81
613.618	795.81
613.826	794.81
614.034	773.81
614.242	786.81
614.449	783.81
614.657	822.81
614.865	775.81
615.072	780.81
615.28	811.81
615.488	812.81
615.695	802.81
615.903	779.81
616.111	784.81
616.318	798.81
616.526	806.81
616.733	784.81
616.941	777.81
617.148	799.81
617.356	784.81
617.563	762.81
617.771	768.81
617.978	757.81
618.185	758.81
618.393	758.81
618.6	734.81
618.807	766.81
619.015	772.81
619.222	747.81
619.429	763.81
619.637	718.81
619.844	742.81
620.051	709.81
620.258	730.81
620.466	710.81
620.673	698.81
620.88	691.81
621.087	682.81
621.294	682.81
621.501	670.81
621.708	707.81
621.915	691.81
622.122	687.81
622.329	714.81
622.536	707.81
622.743	706.81
622.95	706.81
623.157	694.81
623.364	703.81
623.571	699.81
623.778	673.81
623.985	670.81
624.192	673.81
624.399	677.81
624.606	693.81
624.812	683.81
625.019	708.81
625.226	671.81
625.433	675.81
625.639	652.81
625.846	622.81
626.053	623.81
626.259	634.81
626.466	648.81
626.673	638.81
626.879	648.81
627.086	626.81
627.293	638.81
627.499	618.81
627.706	642.81
627.912	643.81
628.119	640.81
628.325	644.81
628.532	644.81
628.738	640.81
628.945	647.81
629.151	630.81
629.357	623.81
629.564	640.81
629.77	632.81
629.976	601.81
630.183	580.81
630.389	591.81
630.595	628.81
630.802	610.81
631.008	593.81
631.214	603.81
631.42	598.81
631.627	620.81
631.833	614.81
632.039	602.81
632.245	584.81
632.451	574.81
632.657	595.81
632.863	591.81
633.069	594.81
633.275	596.81
633.481	566.81
633.688	596.81
633.893	594.81
634.099	591.81
634.305	611.81
634.511	589.81
634.717	590.81
634.923	605.81
635.129	680.81
635.335	727.81
635.541	713.81
635.747	642.81
635.952	599.81
636.158	640.81
636.364	622.81
636.57	613.81
636.775	605.81
636.981	602.81
637.187	572.81
637.392	583.81
637.598	562.81
637.804	595.81
638.009	595.81
638.215	603.81
638.421	573.81
638.626	588.81
638.832	594.81
639.037	600.81
639.243	605.81
639.448	593.81
639.654	596.81
639.859	611.81
640.065	621.81
640.27	612.81
640.475	626.81
640.681	607.81
640.886	646.81
641.091	632.81
641.297	630.81
641.502	646.81
641.707	647.81
641.913	655.81
642.118	646.81
642.323	681.81
642.528	678.81
642.733	706.81
642.939	729.81
643.144	742.81
643.349	752.81
643.554	774.81
643.759	823.81
643.964	848.81
644.169	906.81
644.374	959.81
644.579	1031.81
644.784	1162.81
644.989	1319.81
645.194	1537.81
645.399	1887.81
645.604	1994.81
645.809	1468.81
646.014	1150.81
646.219	981.81
646.423	871.81
646.628	774.81
646.833	740.81
647.038	692.81
647.243	626.81
647.447	600.81
647.652	611.81
647.857	601.81
648.062	592.81
648.266	591.81
648.471	560.81
648.676	553.81
648.88	530.81
649.085	554.81
649.289	533.81
649.494	530.81
649.698	529.81
649.903	496.81
650.107	508.81
650.312	475.81
650.516	472.81
650.721	480.81
650.925	467.81
651.13	464.81
651.334	457.81
651.539	453.81
651.743	430.81
651.947	427.81
652.152	412.81
652.356	422.81
652.56	438.81
652.764	501.81
652.969	457.81
653.173	435.81
653.377	395.81
653.581	391.81
653.785	385.81
653.99	374.81
654.194	372.81
654.398	355.81
654.602	367.81
654.806	343.81
655.01	358.81
655.214	356.81
655.418	371.81
655.622	361.81
655.826	357.81
656.03	365.81
656.234	358.81
656.438	383.81
656.642	390.81
656.846	380.81
657.049	354.81
657.253	331.81
657.457	312.81
657.661	301.81
657.865	278.81
658.068	280.81
658.272	253.81
658.476	255.81
658.68	234.81
658.883	226.81
659.087	206.81
659.291	199.81
659.494	190.81
659.698	181.81
659.901	186.81
660.105	177.81
660.309	167.81
660.512	166.81
660.716	158.81
660.919	158.81
661.123	152.81
661.326	142.81
661.53	128.81
661.733	134.81
661.936	126.81
662.14	128.81
662.343	114.81
662.546	111.81
662.75	100.81
662.953	120.81
663.156	109.81
663.36	107.81
663.563	85.81
663.766	87.81
663.969	90.81
664.173	84.81
664.376	81.81
664.579	78.81
664.782	86.81
664.985	105.81
665.188	87.81
665.391	98.81
665.594	93.81
665.797	99.81
666	80.81
666.203	90.81
666.406	85.81
666.609	82.81
666.812	90.81
667.015	95.81
667.218	98.81
667.421	82.81
667.624	91.81
667.827	89.81
668.03	86.81
668.232	93.81
668.435	87.81
668.638	78.81
668.841	80.81
669.043	79.81
669.246	91.81
669.449	92.81
669.651	92.81
669.854	84.81
670.057	86.81
670.259	81.81
670.462	76.81
670.665	92.81
670.867	85.81
671.07	81.81
671.272	94.81
671.475	81.81
671.677	85.81
671.88	91.81
672.082	87.81
672.284	90.81
672.487	90.81
672.689	69.81
672.892	87.81
