Data from SnStandardFlinnAPT0064_QswitchEnergy10_LIBS07252019.E.O._I.C._HRD10591_15-27-15-974.txt Node
Date: Thu Jul 25 15:27:15 EDT 2019
User: cochatt
Spectrometer: HR+D1059
Trigger mode: 1
Integration Time (sec): 1.000000E-1
Scans to average: 1
Electric dark correction enabled: true
Nonlinearity correction enabled: false
Boxcar width: 0
XAxis mode: Wavelengths
Number of Pixels in Spectrum: 2048
>>>>>Begin Spectral Data<<<<<
223.165	-7.25
223.4	-7.25
223.635	-7.25
223.869	-16.25
224.104	-15.25
224.338	-20.25
224.573	-19.25
224.808	-11.25
225.042	-22.25
225.277	-9.25
225.511	1.75
225.746	7.75
225.98	6.75
226.215	7.75
226.449	12.75
226.683	23.75
226.918	28.75
227.152	31.75
227.387	46.75
227.621	36.75
227.856	54.75
228.09	57.75
228.324	49.75
228.559	38.75
228.793	42.75
229.027	72.75
229.262	76.75
229.496	69.75
229.73	79.75
229.964	74.75
230.199	70.75
230.433	74.75
230.667	71.75
230.901	80.75
231.136	74.75
231.37	84.75
231.604	77.75
231.838	83.75
232.072	103.75
232.306	102.75
232.541	98.75
232.775	72.75
233.009	69.75
233.243	82.75
233.477	84.75
233.711	100.75
233.945	82.75
234.179	84.75
234.413	86.75
234.647	82.75
234.881	89.75
235.115	88.75
235.349	87.75
235.583	106.75
235.817	118.75
236.051	122.75
236.285	99.75
236.519	75.75
236.753	94.75
236.987	79.75
237.221	80.75
237.455	77.75
237.689	70.75
237.922	80.75
238.156	82.75
238.39	69.75
238.624	72.75
238.858	88.75
239.091	91.75
239.325	87.75
239.559	72.75
239.793	80.75
240.027	66.75
240.26	74.75
240.494	85.75
240.728	75.75
240.961	71.75
241.195	79.75
241.429	84.75
241.662	75.75
241.896	84.75
242.13	103.75
242.363	125.75
242.597	158.75
242.83	142.75
243.064	129.75
243.298	163.75
243.531	142.75
243.765	107.75
243.998	80.75
244.232	74.75
244.465	73.75
244.699	83.75
244.932	80.75
245.166	89.75
245.399	70.75
245.633	80.75
245.866	74.75
246.099	82.75
246.333	77.75
246.566	86.75
246.8	72.75
247.033	62.75
247.266	74.75
247.5	66.75
247.733	87.75
247.966	90.75
248.2	76.75
248.433	110.75
248.666	126.75
248.899	106.75
249.133	90.75
249.366	96.75
249.599	97.75
249.832	97.75
250.066	119.75
250.299	97.75
250.532	87.75
250.765	90.75
250.998	86.75
251.231	89.75
251.465	82.75
251.698	102.75
251.931	76.75
252.164	82.75
252.397	92.75
252.63	91.75
252.863	105.75
253.096	84.75
253.329	99.75
253.562	88.75
253.795	93.75
254.028	73.75
254.261	88.75
254.494	116.75
254.727	119.75
254.96	148.75
255.193	114.75
255.426	76.75
255.659	106.75
255.892	85.75
256.124	89.75
256.357	97.75
256.59	86.75
256.823	92.75
257.056	111.75
257.289	145.75
257.521	176.75
257.754	130.75
257.987	90.75
258.22	93.75
258.452	87.75
258.685	88.75
258.918	76.75
259.151	92.75
259.383	116.75
259.616	117.75
259.849	144.75
260.081	102.75
260.314	91.75
260.547	86.75
260.779	81.75
261.012	74.75
261.244	69.75
261.477	91.75
261.71	88.75
261.942	89.75
262.175	81.75
262.407	95.75
262.64	91.75
262.872	88.75
263.105	78.75
263.337	96.75
263.57	80.75
263.802	92.75
264.035	83.75
264.267	75.75
264.499	90.75
264.732	90.75
264.964	78.75
265.197	95.75
265.429	82.75
265.661	87.75
265.894	103.75
266.126	126.75
266.358	162.75
266.591	148.75
266.823	111.75
267.055	96.75
267.287	89.75
267.52	82.75
267.752	81.75
267.984	84.75
268.216	71.75
268.448	91.75
268.681	82.75
268.913	85.75
269.145	92.75
269.377	90.75
269.609	93.75
269.841	114.75
270.073	85.75
270.306	122.75
270.538	178.75
270.77	304.75
271.002	367.75
271.234	187.75
271.466	106.75
271.698	99.75
271.93	97.75
272.162	78.75
272.394	90.75
272.626	86.75
272.858	81.75
273.09	83.75
273.322	85.75
273.553	96.75
273.785	91.75
274.017	78.75
274.249	85.75
274.481	90.75
274.713	93.75
274.945	79.75
275.176	87.75
275.408	75.75
275.64	91.75
275.872	89.75
276.104	88.75
276.335	82.75
276.567	94.75
276.799	83.75
277.031	90.75
277.262	99.75
277.494	98.75
277.726	112.75
277.957	160.75
278.189	230.75
278.421	220.75
278.652	173.75
278.884	172.75
279.115	117.75
279.347	98.75
279.579	105.75
279.81	78.75
280.042	89.75
280.273	95.75
280.505	100.75
280.736	108.75
280.968	113.75
281.199	161.75
281.431	218.75
281.662	240.75
281.894	143.75
282.125	110.75
282.356	107.75
282.588	100.75
282.819	122.75
283.051	122.75
283.282	134.75
283.513	174.75
283.745	291.75
283.976	516.75
284.207	774.75
284.439	567.75
284.67	245.75
284.901	241.75
285.132	312.75
285.364	354.75
285.595	210.75
285.826	169.75
286.057	234.75
286.288	386.75
286.52	578.75
286.751	456.75
286.982	188.75
287.213	120.75
287.444	103.75
287.675	87.75
287.906	106.75
288.138	95.75
288.369	98.75
288.6	101.75
288.831	85.75
289.062	98.75
289.293	88.75
289.524	94.75
289.755	89.75
289.986	101.75
290.217	95.75
290.448	93.75
290.679	110.75
290.91	122.75
291.141	150.75
291.371	215.75
291.602	254.75
291.833	179.75
292.064	110.75
292.295	100.75
292.526	98.75
292.757	106.75
292.987	94.75
293.218	84.75
293.449	92.75
293.68	89.75
293.91	90.75
294.141	84.75
294.372	94.75
294.603	80.75
294.833	96.75
295.064	94.75
295.295	99.75
295.525	101.75
295.756	88.75
295.987	78.75
296.217	94.75
296.448	86.75
296.679	90.75
296.909	102.75
297.14	87.75
297.37	94.75
297.601	104.75
297.831	96.75
298.062	107.75
298.292	104.75
298.523	98.75
298.753	96.75
298.984	99.75
299.214	97.75
299.445	111.75
299.675	116.75
299.905	114.75
300.136	122.75
300.366	158.75
300.597	258.75
300.827	424.75
301.057	660.75
301.288	599.75
301.518	254.75
301.748	148.75
301.979	142.75
302.209	114.75
302.439	143.75
302.669	175.75
302.9	242.75
303.13	453.75
303.36	798.75
303.59	1142.75
303.82	799.75
304.051	283.75
304.281	156.75
304.511	122.75
304.741	111.75
304.971	120.75
305.201	110.75
305.431	116.75
305.661	100.75
305.891	110.75
306.121	108.75
306.352	102.75
306.582	117.75
306.812	103.75
307.042	92.75
307.272	91.75
307.502	101.75
307.731	99.75
307.961	100.75
308.191	114.75
308.421	96.75
308.651	108.75
308.881	103.75
309.111	113.75
309.341	120.75
309.571	120.75
309.8	113.75
310.03	98.75
310.26	110.75
310.49	107.75
310.72	97.75
310.949	105.75
311.179	93.75
311.409	107.75
311.639	107.75
311.868	117.75
312.098	102.75
312.328	104.75
312.557	91.75
312.787	101.75
313.017	120.75
313.246	112.75
313.476	114.75
313.706	116.75
313.935	143.75
314.165	174.75
314.394	221.75
314.624	160.75
314.853	131.75
315.083	121.75
315.312	118.75
315.542	114.75
315.771	127.75
316.001	129.75
316.23	139.75
316.46	147.75
316.689	179.75
316.919	234.75
317.148	473.75
317.377	854.75
317.607	1380.75
317.836	1314.75
318.065	488.75
318.295	215.75
318.524	162.75
318.753	121.75
318.983	124.75
319.212	130.75
319.441	118.75
319.67	131.75
319.9	120.75
320.129	116.75
320.358	110.75
320.587	112.75
320.816	113.75
321.046	126.75
321.275	120.75
321.504	102.75
321.733	121.75
321.962	153.75
322.191	149.75
322.42	127.75
322.649	115.75
322.878	126.75
323.108	122.75
323.337	132.75
323.566	119.75
323.795	119.75
324.024	124.75
324.253	130.75
324.482	180.75
324.71	236.75
324.939	274.75
325.168	210.75
325.397	196.75
325.626	249.75
325.855	455.75
326.084	866.75
326.313	1495.75
326.542	1454.75
326.77	540.75
326.999	258.75
327.228	199.75
327.457	211.75
327.686	211.75
327.914	151.75
328.143	128.75
328.372	122.75
328.6	115.75
328.829	125.75
329.058	111.75
329.287	99.75
329.515	121.75
329.744	128.75
329.972	102.75
330.201	134.75
330.43	122.75
330.658	108.75
330.887	117.75
331.115	102.75
331.344	100.75
331.572	115.75
331.801	121.75
332.03	113.75
332.258	131.75
332.486	178.75
332.715	282.75
332.943	466.75
333.172	695.75
333.4	601.75
333.629	238.75
333.857	134.75
334.085	120.75
334.314	112.75
334.542	122.75
334.771	99.75
334.999	119.75
335.227	118.75
335.455	116.75
335.684	124.75
335.912	116.75
336.14	112.75
336.369	104.75
336.597	122.75
336.825	116.75
337.053	119.75
337.281	115.75
337.51	94.75
337.738	106.75
337.966	105.75
338.194	107.75
338.422	111.75
338.65	115.75
338.878	99.75
339.106	118.75
339.334	126.75
339.562	115.75
339.79	112.75
340.018	105.75
340.246	104.75
340.474	107.75
340.702	111.75
340.93	108.75
341.158	108.75
341.386	114.75
341.614	123.75
341.842	115.75
342.07	112.75
342.298	115.75
342.526	101.75
342.754	107.75
342.981	106.75
343.209	117.75
343.437	104.75
343.665	88.75
343.893	104.75
344.12	108.75
344.348	99.75
344.576	99.75
344.804	122.75
345.031	116.75
345.259	112.75
345.487	111.75
345.714	110.75
345.942	103.75
346.17	111.75
346.397	102.75
346.625	101.75
346.853	99.75
347.08	99.75
347.308	113.75
347.535	87.75
347.763	102.75
347.99	102.75
348.218	103.75
348.445	108.75
348.673	107.75
348.9	111.75
349.128	117.75
349.355	124.75
349.583	114.75
349.81	113.75
350.037	112.75
350.265	114.75
350.492	110.75
350.72	110.75
350.947	114.75
351.174	106.75
351.402	100.75
351.629	115.75
351.856	102.75
352.083	93.75
352.311	106.75
352.538	94.75
352.765	104.75
352.992	108.75
353.22	97.75
353.447	104.75
353.674	106.75
353.901	98.75
354.128	107.75
354.355	107.75
354.583	102.75
354.81	113.75
355.037	100.75
355.264	108.75
355.491	100.75
355.718	110.75
355.945	98.75
356.172	106.75
356.399	103.75
356.626	114.75
356.853	90.75
357.08	117.75
357.307	106.75
357.534	95.75
357.761	116.75
357.988	111.75
358.215	108.75
358.441	119.75
358.668	108.75
358.895	106.75
359.122	118.75
359.349	115.75
359.576	97.75
359.802	112.75
360.029	115.75
360.256	119.75
360.483	104.75
360.709	128.75
360.936	114.75
361.163	103.75
361.39	106.75
361.616	110.75
361.843	118.75
362.07	110.75
362.296	115.75
362.523	101.75
362.749	109.75
362.976	105.75
363.203	114.75
363.429	101.75
363.656	91.75
363.882	110.75
364.109	106.75
364.335	93.75
364.562	110.75
364.788	107.75
365.015	102.75
365.241	124.75
365.468	181.75
365.694	199.75
365.92	183.75
366.147	125.75
366.373	98.75
366.599	115.75
366.826	90.75
367.052	101.75
367.278	96.75
367.505	100.75
367.731	98.75
367.957	114.75
368.184	106.75
368.41	121.75
368.636	103.75
368.862	116.75
369.089	96.75
369.315	84.75
369.541	112.75
369.767	102.75
369.993	118.75
370.219	88.75
370.445	94.75
370.672	102.75
370.898	102.75
371.124	114.75
371.35	105.75
371.576	114.75
371.802	96.75
372.028	105.75
372.254	100.75
372.48	100.75
372.706	105.75
372.932	115.75
373.158	112.75
373.384	109.75
373.61	115.75
373.835	114.75
374.061	110.75
374.287	124.75
374.513	112.75
374.739	94.75
374.965	115.75
375.191	105.75
375.416	89.75
375.642	104.75
375.868	98.75
376.094	117.75
376.319	100.75
376.545	111.75
376.771	107.75
376.997	106.75
377.222	91.75
377.448	102.75
377.674	100.75
377.899	105.75
378.125	91.75
378.35	117.75
378.576	99.75
378.802	114.75
379.027	130.75
379.253	137.75
379.478	162.75
379.704	292.75
379.929	713.75
380.155	1422.75
380.38	1458.75
380.606	491.75
380.831	188.75
381.057	142.75
381.282	128.75
381.507	108.75
381.733	121.75
381.958	104.75
382.184	108.75
382.409	92.75
382.634	99.75
382.86	100.75
383.085	100.75
383.31	119.75
383.535	94.75
383.761	108.75
383.986	119.75
384.211	100.75
384.436	112.75
384.662	90.75
384.887	91.75
385.112	95.75
385.337	95.75
385.562	100.75
385.787	98.75
386.013	97.75
386.238	93.75
386.463	103.75
386.688	102.75
386.913	93.75
387.138	110.75
387.363	108.75
387.588	104.75
387.813	87.75
388.038	100.75
388.263	109.75
388.488	95.75
388.713	100.75
388.938	96.75
389.163	79.75
389.387	97.75
389.612	100.75
389.837	102.75
390.062	101.75
390.287	109.75
390.512	113.75
390.736	112.75
390.961	104.75
391.186	80.75
391.411	90.75
391.636	116.75
391.86	104.75
392.085	98.75
392.31	92.75
392.534	103.75
392.759	92.75
392.984	114.75
393.208	119.75
393.433	117.75
393.658	107.75
393.882	102.75
394.107	104.75
394.331	97.75
394.556	101.75
394.78	91.75
395.005	88.75
395.229	104.75
395.454	95.75
395.678	95.75
395.903	98.75
396.127	110.75
396.352	91.75
396.576	89.75
396.801	94.75
397.025	108.75
397.249	102.75
397.474	88.75
397.698	92.75
397.922	93.75
398.147	93.75
398.371	91.75
398.595	107.75
398.82	108.75
399.044	103.75
399.268	97.75
399.492	93.75
399.717	106.75
399.941	106.75
400.165	91.75
400.389	102.75
400.613	84.75
400.837	92.75
401.062	87.75
401.286	82.75
401.51	98.75
401.734	92.75
401.958	99.75
402.182	102.75
402.406	98.75
402.63	95.75
402.854	100.75
403.078	90.75
403.302	89.75
403.526	99.75
403.75	99.75
403.974	101.75
404.198	100.75
404.422	86.75
404.645	93.75
404.869	97.75
405.093	94.75
405.317	99.75
405.541	111.75
405.765	128.75
405.988	126.75
406.212	98.75
406.436	110.75
406.66	104.75
406.883	92.75
407.107	86.75
407.331	96.75
407.555	103.75
407.778	84.75
408.002	98.75
408.226	83.75
408.449	104.75
408.673	95.75
408.896	89.75
409.12	102.75
409.344	87.75
409.567	87.75
409.791	100.75
410.014	101.75
410.238	95.75
410.461	93.75
410.685	100.75
410.908	101.75
411.132	103.75
411.355	95.75
411.578	93.75
411.802	112.75
412.025	79.75
412.249	80.75
412.472	98.75
412.695	97.75
412.919	104.75
413.142	91.75
413.365	99.75
413.589	111.75
413.812	107.75
414.035	108.75
414.258	105.75
414.482	110.75
414.705	106.75
414.928	103.75
415.151	102.75
415.374	87.75
415.597	90.75
415.821	90.75
416.044	94.75
416.267	91.75
416.49	90.75
416.713	105.75
416.936	107.75
417.159	88.75
417.382	89.75
417.605	85.75
417.828	94.75
418.051	90.75
418.274	105.75
418.497	84.75
418.72	99.75
418.943	89.75
419.166	110.75
419.389	92.75
419.611	95.75
419.834	94.75
420.057	106.75
420.28	110.75
420.503	112.75
420.726	73.75
420.948	89.75
421.171	96.75
421.394	85.75
421.617	98.75
421.839	92.75
422.062	100.75
422.285	99.75
422.507	104.75
422.73	114.75
422.953	132.75
423.175	102.75
423.398	81.75
423.621	90.75
423.843	84.75
424.066	92.75
424.288	83.75
424.511	98.75
424.733	90.75
424.956	93.75
425.178	97.75
425.401	98.75
425.623	92.75
425.846	94.75
426.068	91.75
426.291	93.75
426.513	86.75
426.735	99.75
426.958	97.75
427.18	85.75
427.402	96.75
427.625	91.75
427.847	84.75
428.069	98.75
428.292	88.75
428.514	80.75
428.736	116.75
428.958	86.75
429.181	80.75
429.403	94.75
429.625	102.75
429.847	104.75
430.069	92.75
430.292	114.75
430.514	96.75
430.736	84.75
430.958	88.75
431.18	82.75
431.402	83.75
431.624	102.75
431.846	82.75
432.068	86.75
432.29	94.75
432.512	88.75
432.734	91.75
432.956	82.75
433.178	94.75
433.4	107.75
433.622	86.75
433.844	105.75
434.066	96.75
434.287	102.75
434.509	89.75
434.731	94.75
434.953	94.75
435.175	92.75
435.397	87.75
435.618	89.75
435.84	83.75
436.062	86.75
436.284	83.75
436.505	106.75
436.727	93.75
436.949	96.75
437.17	79.75
437.392	82.75
437.614	90.75
437.835	101.75
438.057	90.75
438.278	96.75
438.5	88.75
438.721	97.75
438.943	104.75
439.165	115.75
439.386	102.75
439.608	93.75
439.829	97.75
440.05	115.75
440.272	120.75
440.493	107.75
440.715	97.75
440.936	99.75
441.158	92.75
441.379	103.75
441.6	81.75
441.822	96.75
442.043	101.75
442.264	112.75
442.486	102.75
442.707	93.75
442.928	98.75
443.149	104.75
443.371	83.75
443.592	98.75
443.813	77.75
444.034	88.75
444.255	103.75
444.476	87.75
444.698	114.75
444.919	90.75
445.14	212.75
445.361	153.75
445.582	88.75
445.803	95.75
446.024	86.75
446.245	84.75
446.466	94.75
446.687	113.75
446.908	94.75
447.129	95.75
447.35	91.75
447.571	95.75
447.792	98.75
448.013	98.75
448.234	81.75
448.455	93.75
448.675	91.75
448.896	92.75
449.117	107.75
449.338	126.75
449.559	147.75
449.779	121.75
450	113.75
450.221	106.75
450.442	114.75
450.662	122.75
450.883	93.75
451.104	112.75
451.324	115.75
451.545	121.75
451.766	108.75
451.986	122.75
452.207	210.75
452.428	490.75
452.648	1183.75
452.869	636.75
453.089	174.75
453.31	123.75
453.53	121.75
453.751	143.75
453.971	149.75
454.192	162.75
454.412	102.75
454.633	105.75
454.853	89.75
455.073	92.75
455.294	87.75
455.514	94.75
455.734	83.75
455.955	87.75
456.175	91.75
456.395	88.75
456.616	90.75
456.836	89.75
457.056	98.75
457.276	99.75
457.497	116.75
457.717	122.75
457.937	110.75
458.157	88.75
458.377	78.75
458.598	95.75
458.818	86.75
459.038	83.75
459.258	81.75
459.478	79.75
459.698	87.75
459.918	72.75
460.138	102.75
460.358	95.75
460.578	76.75
460.798	84.75
461.018	86.75
461.238	99.75
461.458	88.75
461.678	96.75
461.898	95.75
462.118	94.75
462.338	74.75
462.558	95.75
462.777	76.75
462.997	94.75
463.217	91.75
463.437	126.75
463.657	178.75
463.876	172.75
464.096	125.75
464.316	96.75
464.536	87.75
464.755	97.75
464.975	95.75
465.195	87.75
465.414	80.75
465.634	83.75
465.854	83.75
466.073	72.75
466.293	97.75
466.512	95.75
466.732	97.75
466.951	115.75
467.171	130.75
467.391	132.75
467.61	99.75
467.829	97.75
468.049	92.75
468.268	91.75
468.488	99.75
468.707	93.75
468.927	109.75
469.146	87.75
469.365	100.75
469.585	99.75
469.804	97.75
470.023	99.75
470.243	94.75
470.462	122.75
470.681	100.75
470.901	126.75
471.12	188.75
471.339	207.75
471.558	118.75
471.777	108.75
471.997	110.75
472.216	109.75
472.435	101.75
472.654	90.75
472.873	101.75
473.092	82.75
473.311	98.75
473.53	89.75
473.749	108.75
473.968	87.75
474.187	78.75
474.406	89.75
474.625	93.75
474.844	99.75
475.063	75.75
475.282	94.75
475.501	94.75
475.72	98.75
475.939	87.75
476.158	103.75
476.377	105.75
476.596	112.75
476.814	112.75
477.033	101.75
477.252	86.75
477.471	104.75
477.69	121.75
477.908	96.75
478.127	94.75
478.346	99.75
478.564	96.75
478.783	102.75
479.002	103.75
479.22	97.75
479.439	100.75
479.658	94.75
479.876	91.75
480.095	84.75
480.313	98.75
480.532	75.75
480.751	98.75
480.969	102.75
481.188	101.75
481.406	91.75
481.624	105.75
481.843	107.75
482.061	92.75
482.28	109.75
482.498	105.75
482.717	101.75
482.935	99.75
483.153	93.75
483.372	76.75
483.59	102.75
483.808	95.75
484.027	93.75
484.245	124.75
484.463	185.75
484.681	224.75
484.9	139.75
485.118	126.75
485.336	105.75
485.554	101.75
485.772	117.75
485.99	161.75
486.209	248.75
486.427	158.75
486.645	112.75
486.863	92.75
487.081	102.75
487.299	94.75
487.517	108.75
487.735	97.75
487.953	97.75
488.171	87.75
488.389	98.75
488.607	94.75
488.825	83.75
489.043	97.75
489.261	91.75
489.479	98.75
489.696	99.75
489.914	89.75
490.132	84.75
490.35	100.75
490.568	101.75
490.786	89.75
491.003	104.75
491.221	102.75
491.439	119.75
491.657	105.75
491.874	105.75
492.092	114.75
492.31	112.75
492.527	111.75
492.745	94.75
492.963	115.75
493.18	104.75
493.398	110.75
493.615	105.75
493.833	98.75
494.05	95.75
494.268	91.75
494.485	91.75
494.703	98.75
494.92	100.75
495.138	97.75
495.355	99.75
495.573	117.75
495.79	88.75
496.008	111.75
496.225	96.75
496.442	105.75
496.66	121.75
496.877	164.75
497.094	144.75
497.312	107.75
497.529	104.75
497.746	100.75
497.963	103.75
498.181	96.75
498.398	95.75
498.615	99.75
498.832	92.75
499.049	110.75
499.267	130.75
499.484	150.75
499.701	111.75
499.918	104.75
500.135	113.75
500.352	94.75
500.569	98.75
500.786	99.75
501.003	102.75
501.22	84.75
501.437	93.75
501.654	103.75
501.871	91.75
502.088	87.75
502.305	94.75
502.522	102.75
502.739	106.75
502.956	87.75
503.172	94.75
503.389	101.75
503.606	96.75
503.823	108.75
504.04	97.75
504.256	98.75
504.473	83.75
504.69	95.75
504.907	99.75
505.123	115.75
505.34	122.75
505.557	111.75
505.773	106.75
505.99	92.75
506.207	110.75
506.423	81.75
506.64	89.75
506.856	90.75
507.073	103.75
507.289	92.75
507.506	70.75
507.722	94.75
507.939	103.75
508.155	87.75
508.372	102.75
508.588	95.75
508.805	102.75
509.021	104.75
509.238	95.75
509.454	141.75
509.67	166.75
509.887	120.75
510.103	100.75
510.319	92.75
510.536	102.75
510.752	115.75
510.968	86.75
511.184	88.75
511.401	85.75
511.617	101.75
511.833	89.75
512.049	94.75
512.265	82.75
512.481	93.75
512.698	103.75
512.914	81.75
513.13	98.75
513.346	96.75
513.562	90.75
513.778	100.75
513.994	94.75
514.21	115.75
514.426	128.75
514.642	176.75
514.858	99.75
515.074	87.75
515.29	85.75
515.506	111.75
515.721	106.75
515.937	89.75
516.153	115.75
516.369	96.75
516.585	106.75
516.801	103.75
517.016	101.75
517.232	96.75
517.448	116.75
517.664	97.75
517.879	104.75
518.095	115.75
518.311	97.75
518.527	84.75
518.742	62.75
518.958	110.75
519.173	147.75
519.389	128.75
519.605	90.75
519.82	97.75
520.036	99.75
520.251	112.75
520.467	93.75
520.682	104.75
520.898	101.75
521.113	85.75
521.329	98.75
521.544	84.75
521.76	94.75
521.975	100.75
522.19	101.75
522.406	99.75
522.621	84.75
522.836	86.75
523.052	94.75
523.267	78.75
523.482	90.75
523.698	107.75
523.913	97.75
524.128	100.75
524.343	88.75
524.559	95.75
524.774	80.75
524.989	103.75
525.204	94.75
525.419	120.75
525.634	105.75
525.849	92.75
526.064	79.75
526.28	96.75
526.495	89.75
526.71	92.75
526.925	103.75
527.14	95.75
527.355	84.75
527.57	107.75
527.785	86.75
527.999	106.75
528.214	96.75
528.429	94.75
528.644	86.75
528.859	92.75
529.074	94.75
529.289	92.75
529.503	107.75
529.718	103.75
529.933	92.75
530.148	89.75
530.363	106.75
530.577	81.75
530.792	100.75
531.007	94.75
531.221	112.75
531.436	103.75
531.651	93.75
531.865	89.75
532.08	98.75
532.295	104.75
532.509	137.75
532.724	110.75
532.938	90.75
533.153	88.75
533.367	82.75
533.582	111.75
533.796	96.75
534.011	92.75
534.225	105.75
534.44	90.75
534.654	103.75
534.868	103.75
535.083	98.75
535.297	92.75
535.511	97.75
535.726	105.75
535.94	90.75
536.154	106.75
536.369	95.75
536.583	96.75
536.797	94.75
537.011	92.75
537.225	88.75
537.44	83.75
537.654	80.75
537.868	104.75
538.082	98.75
538.296	93.75
538.51	102.75
538.724	91.75
538.938	84.75
539.153	119.75
539.367	100.75
539.581	87.75
539.795	95.75
540.009	90.75
540.222	98.75
540.436	108.75
540.65	94.75
540.864	100.75
541.078	108.75
541.292	112.75
541.506	196.75
541.72	193.75
541.934	133.75
542.147	110.75
542.361	105.75
542.575	109.75
542.789	95.75
543.002	99.75
543.216	92.75
543.43	91.75
543.644	95.75
543.857	112.75
544.071	103.75
544.285	103.75
544.498	113.75
544.712	116.75
544.925	99.75
545.139	110.75
545.352	92.75
545.566	96.75
545.779	104.75
545.993	110.75
546.206	92.75
546.42	113.75
546.633	110.75
546.847	85.75
547.06	106.75
547.274	96.75
547.487	112.75
547.7	112.75
547.914	95.75
548.127	96.75
548.34	94.75
548.554	97.75
548.767	109.75
548.98	97.75
549.193	101.75
549.407	99.75
549.62	98.75
549.833	94.75
550.046	103.75
550.259	110.75
550.473	95.75
550.686	106.75
550.899	104.75
551.112	91.75
551.325	96.75
551.538	98.75
551.751	103.75
551.964	102.75
552.177	91.75
552.39	100.75
552.603	105.75
552.816	99.75
553.029	92.75
553.242	102.75
553.455	90.75
553.667	110.75
553.88	92.75
554.093	105.75
554.306	97.75
554.519	97.75
554.732	103.75
554.944	99.75
555.157	101.75
555.37	99.75
555.583	96.75
555.795	114.75
556.008	116.75
556.221	148.75
556.433	126.75
556.646	122.75
556.859	99.75
557.071	116.75
557.284	109.75
557.496	96.75
557.709	103.75
557.921	110.75
558.134	95.75
558.346	98.75
558.559	78.75
558.771	106.75
558.984	96.75
559.196	118.75
559.409	106.75
559.621	102.75
559.833	103.75
560.046	86.75
560.258	90.75
560.47	110.75
560.683	97.75
560.895	90.75
561.107	99.75
561.32	105.75
561.532	102.75
561.744	98.75
561.956	112.75
562.168	96.75
562.381	103.75
562.593	95.75
562.805	132.75
563.017	158.75
563.229	232.75
563.441	508.75
563.653	190.75
563.865	125.75
564.077	106.75
564.289	104.75
564.501	92.75
564.713	95.75
564.925	98.75
565.137	100.75
565.349	102.75
565.561	100.75
565.773	94.75
565.985	104.75
566.197	101.75
566.408	98.75
566.62	97.75
566.832	93.75
567.044	94.75
567.255	101.75
567.467	112.75
567.679	98.75
567.891	110.75
568.102	160.75
568.314	235.75
568.526	132.75
568.737	104.75
568.949	95.75
569.161	85.75
569.372	88.75
569.584	101.75
569.795	100.75
570.007	86.75
570.218	126.75
570.43	147.75
570.641	123.75
570.853	106.75
571.064	92.75
571.276	83.75
571.487	97.75
571.698	90.75
571.91	96.75
572.121	97.75
572.333	99.75
572.544	91.75
572.755	137.75
572.966	206.75
573.178	145.75
573.389	92.75
573.6	93.75
573.811	91.75
574.023	76.75
574.234	74.75
574.445	103.75
574.656	104.75
574.867	90.75
575.078	90.75
575.289	80.75
575.501	99.75
575.712	101.75
575.923	94.75
576.134	94.75
576.345	98.75
576.556	104.75
576.767	89.75
576.978	83.75
577.188	100.75
577.399	94.75
577.61	85.75
577.821	91.75
578.032	87.75
578.243	92.75
578.454	98.75
578.665	101.75
578.875	90.75
579.086	83.75
579.297	88.75
579.508	95.75
579.718	91.75
579.929	112.75
580.14	96.75
580.35	84.75
580.561	96.75
580.772	102.75
580.982	83.75
581.193	98.75
581.403	87.75
581.614	91.75
581.825	100.75
582.035	94.75
582.246	108.75
582.456	115.75
582.667	98.75
582.877	109.75
583.087	110.75
583.298	98.75
583.508	98.75
583.719	100.75
583.929	96.75
584.139	99.75
584.35	96.75
584.56	96.75
584.77	107.75
584.981	98.75
585.191	91.75
585.401	89.75
585.611	83.75
585.821	96.75
586.032	114.75
586.242	100.75
586.452	76.75
586.662	100.75
586.872	92.75
587.082	92.75
587.292	86.75
587.502	94.75
587.713	102.75
587.923	104.75
588.133	94.75
588.343	80.75
588.553	84.75
588.762	87.75
588.972	88.75
589.182	101.75
589.392	100.75
589.602	98.75
589.812	107.75
590.022	103.75
590.232	78.75
590.441	79.75
590.651	76.75
590.861	90.75
591.071	86.75
591.281	94.75
591.49	83.75
591.7	108.75
591.91	95.75
592.119	103.75
592.329	95.75
592.539	82.75
592.748	94.75
592.958	103.75
593.167	90.75
593.377	96.75
593.587	96.75
593.796	98.75
594.006	89.75
594.215	99.75
594.424	87.75
594.634	91.75
594.843	87.75
595.053	96.75
595.262	100.75
595.472	100.75
595.681	103.75
595.89	73.75
596.1	85.75
596.309	85.75
596.518	96.75
596.727	95.75
596.937	95.75
597.146	97.75
597.355	98.75
597.564	107.75
597.774	90.75
597.983	84.75
598.192	101.75
598.401	104.75
598.61	103.75
598.819	92.75
599.028	81.75
599.237	87.75
599.446	87.75
599.655	100.75
599.864	90.75
600.073	92.75
600.282	94.75
600.491	90.75
600.7	100.75
600.909	92.75
601.118	96.75
601.327	92.75
601.536	94.75
601.745	103.75
601.953	123.75
602.162	153.75
602.371	106.75
602.58	93.75
602.789	97.75
602.997	82.75
603.206	94.75
603.415	76.75
603.623	110.75
603.832	86.75
604.041	102.75
604.249	90.75
604.458	102.75
604.666	82.75
604.875	106.75
605.084	90.75
605.292	86.75
605.501	103.75
605.709	104.75
605.918	99.75
606.126	90.75
606.334	96.75
606.543	86.75
606.751	136.75
606.96	164.75
607.168	163.75
607.376	119.75
607.585	95.75
607.793	83.75
608.001	98.75
608.21	98.75
608.418	89.75
608.626	99.75
608.834	109.75
609.043	77.75
609.251	92.75
609.459	106.75
609.667	103.75
609.875	75.75
610.083	98.75
610.291	83.75
610.499	84.75
610.707	109.75
610.916	79.75
611.124	103.75
611.332	87.75
611.54	98.75
611.748	85.75
611.955	94.75
612.163	85.75
612.371	96.75
612.579	79.75
612.787	110.75
612.995	88.75
613.203	97.75
613.411	101.75
613.618	99.75
613.826	95.75
614.034	95.75
614.242	100.75
614.449	99.75
614.657	89.75
614.865	104.75
615.072	100.75
615.28	104.75
615.488	97.75
615.695	104.75
615.903	101.75
616.111	103.75
616.318	92.75
616.526	82.75
616.733	98.75
616.941	100.75
617.148	101.75
617.356	89.75
617.563	86.75
617.771	94.75
617.978	93.75
618.185	99.75
618.393	86.75
618.6	103.75
618.807	91.75
619.015	91.75
619.222	106.75
619.429	103.75
619.637	94.75
619.844	73.75
620.051	84.75
620.258	88.75
620.466	82.75
620.673	99.75
620.88	100.75
621.087	103.75
621.294	87.75
621.501	83.75
621.708	83.75
621.915	76.75
622.122	83.75
622.329	86.75
622.536	86.75
622.743	86.75
622.95	87.75
623.157	89.75
623.364	83.75
623.571	82.75
623.778	79.75
623.985	90.75
624.192	87.75
624.399	101.75
624.606	92.75
624.812	97.75
625.019	86.75
625.226	86.75
625.433	96.75
625.639	104.75
625.846	94.75
626.053	94.75
626.259	91.75
626.466	99.75
626.673	100.75
626.879	81.75
627.086	99.75
627.293	83.75
627.499	89.75
627.706	87.75
627.912	100.75
628.119	102.75
628.325	86.75
628.532	84.75
628.738	92.75
628.945	94.75
629.151	80.75
629.357	90.75
629.564	81.75
629.77	82.75
629.976	77.75
630.183	94.75
630.389	89.75
630.595	91.75
630.802	88.75
631.008	72.75
631.214	90.75
631.42	90.75
631.627	85.75
631.833	79.75
632.039	86.75
632.245	92.75
632.451	89.75
632.657	84.75
632.863	92.75
633.069	95.75
633.275	77.75
633.481	73.75
633.688	91.75
633.893	91.75
634.099	82.75
634.305	77.75
634.511	89.75
634.717	82.75
634.923	76.75
635.129	97.75
635.335	124.75
635.541	104.75
635.747	91.75
635.952	93.75
636.158	83.75
636.364	82.75
636.57	79.75
636.775	81.75
636.981	90.75
637.187	83.75
637.392	68.75
637.598	86.75
637.804	98.75
638.009	88.75
638.215	91.75
638.421	70.75
638.626	83.75
638.832	96.75
639.037	83.75
639.243	88.75
639.448	85.75
639.654	83.75
639.859	93.75
640.065	83.75
640.27	100.75
640.475	90.75
640.681	95.75
640.886	81.75
641.091	80.75
641.297	95.75
641.502	92.75
641.707	82.75
641.913	97.75
642.118	93.75
642.323	80.75
642.528	80.75
642.733	88.75
642.939	85.75
643.144	96.75
643.349	77.75
643.554	82.75
643.759	92.75
643.964	73.75
644.169	84.75
644.374	83.75
644.579	88.75
644.784	88.75
644.989	95.75
645.194	83.75
645.399	105.75
645.604	97.75
645.809	96.75
646.014	89.75
646.219	73.75
646.423	94.75
646.628	80.75
646.833	85.75
647.038	91.75
647.243	82.75
647.447	104.75
647.652	93.75
647.857	90.75
648.062	94.75
648.266	83.75
648.471	88.75
648.676	91.75
648.88	72.75
649.085	91.75
649.289	77.75
649.494	76.75
649.698	80.75
649.903	88.75
650.107	81.75
650.312	80.75
650.516	93.75
650.721	93.75
650.925	84.75
651.13	88.75
651.334	83.75
651.539	84.75
651.743	89.75
651.947	82.75
652.152	79.75
652.356	89.75
652.56	98.75
652.764	100.75
652.969	89.75
653.173	92.75
653.377	67.75
653.581	90.75
653.785	83.75
653.99	102.75
654.194	81.75
654.398	87.75
654.602	85.75
654.806	86.75
655.01	89.75
655.214	84.75
655.418	71.75
655.622	74.75
655.826	85.75
656.03	92.75
656.234	84.75
656.438	91.75
656.642	94.75
656.846	86.75
657.049	74.75
657.253	89.75
657.457	87.75
657.661	87.75
657.865	81.75
658.068	78.75
658.272	78.75
658.476	82.75
658.68	81.75
658.883	85.75
659.087	98.75
659.291	85.75
659.494	78.75
659.698	88.75
659.901	77.75
660.105	85.75
660.309	94.75
660.512	84.75
660.716	83.75
660.919	101.75
661.123	77.75
661.326	94.75
661.53	86.75
661.733	92.75
661.936	66.75
662.14	92.75
662.343	70.75
662.546	82.75
662.75	97.75
662.953	92.75
663.156	90.75
663.36	69.75
663.563	92.75
663.766	87.75
663.969	86.75
664.173	96.75
664.376	84.75
664.579	72.75
664.782	96.75
664.985	91.75
665.188	87.75
665.391	85.75
665.594	78.75
665.797	87.75
666	74.75
666.203	86.75
666.406	72.75
666.609	82.75
666.812	66.75
667.015	82.75
667.218	96.75
667.421	73.75
667.624	71.75
667.827	80.75
668.03	81.75
668.232	78.75
668.435	89.75
668.638	84.75
668.841	79.75
669.043	86.75
669.246	71.75
669.449	81.75
669.651	80.75
669.854	85.75
670.057	84.75
670.259	71.75
670.462	84.75
670.665	80.75
670.867	82.75
671.07	88.75
671.272	82.75
671.475	89.75
671.677	79.75
671.88	71.75
672.082	71.75
672.284	79.75
672.487	87.75
672.689	83.75
672.892	75.75
