Data from SnStandardFlinnAPT0064_LampEnergy5.5_LIBS07252019.E.O._I.C._HRD10591_15-15-21-491.txt Node
Date: Thu Jul 25 15:15:21 EDT 2019
User: cochatt
Spectrometer: HR+D1059
Trigger mode: 1
Integration Time (sec): 1.000000E-1
Scans to average: 1
Electric dark correction enabled: true
Nonlinearity correction enabled: false
Boxcar width: 0
XAxis mode: Wavelengths
Number of Pixels in Spectrum: 2048
>>>>>Begin Spectral Data<<<<<
223.165	-23.31
223.4	-23.31
223.635	-23.31
223.869	-7.31
224.104	-21.31
224.338	-22.31
224.573	-22.31
224.808	-12.31
225.042	-12.31
225.277	-0.31
225.511	2.69
225.746	8.69
225.98	12.69
226.215	14.69
226.449	14.69
226.683	13.69
226.918	19.69
227.152	34.69
227.387	32.69
227.621	39.69
227.856	37.69
228.09	52.69
228.324	55.69
228.559	61.69
228.793	84.69
229.027	152.69
229.262	145.69
229.496	153.69
229.73	165.69
229.964	157.69
230.199	160.69
230.433	163.69
230.667	162.69
230.901	160.69
231.136	159.69
231.37	183.69
231.604	187.69
231.838	201.69
232.072	221.69
232.306	225.69
232.541	204.69
232.775	216.69
233.009	197.69
233.243	206.69
233.477	210.69
233.711	221.69
233.945	244.69
234.179	237.69
234.413	212.69
234.647	204.69
234.881	213.69
235.115	243.69
235.349	270.69
235.583	313.69
235.817	382.69
236.051	370.69
236.285	276.69
236.519	233.69
236.753	240.69
236.987	230.69
237.221	245.69
237.455	237.69
237.689	215.69
237.922	218.69
238.156	210.69
238.39	237.69
238.624	223.69
238.858	220.69
239.091	230.69
239.325	210.69
239.559	218.69
239.793	245.69
240.027	246.69
240.26	242.69
240.494	233.69
240.728	249.69
240.961	274.69
241.195	274.69
241.429	293.69
241.662	311.69
241.896	314.69
242.13	363.69
242.363	451.69
242.597	555.69
242.83	531.69
243.064	571.69
243.298	636.69
243.531	546.69
243.765	382.69
243.998	321.69
244.232	318.69
244.465	304.69
244.699	288.69
244.932	284.69
245.166	302.69
245.399	295.69
245.633	310.69
245.866	310.69
246.099	303.69
246.333	296.69
246.566	307.69
246.8	289.69
247.033	265.69
247.266	302.69
247.5	280.69
247.733	290.69
247.966	310.69
248.2	317.69
248.433	331.69
248.666	378.69
248.899	371.69
249.133	361.69
249.366	350.69
249.599	387.69
249.832	414.69
250.066	422.69
250.299	371.69
250.532	359.69
250.765	334.69
250.998	321.69
251.231	320.69
251.465	329.69
251.698	315.69
251.931	323.69
252.164	330.69
252.397	350.69
252.63	328.69
252.863	343.69
253.096	339.69
253.329	348.69
253.562	337.69
253.795	348.69
254.028	353.69
254.261	350.69
254.494	381.69
254.727	428.69
254.96	479.69
255.193	492.69
255.426	408.69
255.659	369.69
255.892	384.69
256.124	368.69
256.357	374.69
256.59	401.69
256.823	416.69
257.056	452.69
257.289	493.69
257.521	546.69
257.754	468.69
257.987	403.69
258.22	382.69
258.452	395.69
258.685	397.69
258.918	395.69
259.151	418.69
259.383	440.69
259.616	468.69
259.849	491.69
260.081	466.69
260.314	410.69
260.547	414.69
260.779	422.69
261.012	409.69
261.244	450.69
261.477	433.69
261.71	449.69
261.942	445.69
262.175	438.69
262.407	441.69
262.64	479.69
262.872	496.69
263.105	502.69
263.337	521.69
263.57	559.69
263.802	574.69
264.035	571.69
264.267	615.69
264.499	596.69
264.732	619.69
264.964	620.69
265.197	604.69
265.429	605.69
265.661	599.69
265.894	683.69
266.126	708.69
266.358	753.69
266.591	755.69
266.823	669.69
267.055	628.69
267.287	608.69
267.52	592.69
267.752	542.69
267.984	567.69
268.216	556.69
268.448	564.69
268.681	560.69
268.913	535.69
269.145	557.69
269.377	530.69
269.609	553.69
269.841	540.69
270.073	552.69
270.306	627.69
270.538	821.69
270.77	1151.69
271.002	1357.69
271.234	974.69
271.466	705.69
271.698	632.69
271.93	572.69
272.162	567.69
272.394	526.69
272.626	520.69
272.858	530.69
273.09	526.69
273.322	528.69
273.553	503.69
273.785	518.69
274.017	518.69
274.249	515.69
274.481	505.69
274.713	505.69
274.945	532.69
275.176	520.69
275.408	528.69
275.64	514.69
275.872	516.69
276.104	556.69
276.335	525.69
276.567	561.69
276.799	521.69
277.031	552.69
277.262	549.69
277.494	581.69
277.726	617.69
277.957	704.69
278.189	763.69
278.421	708.69
278.652	653.69
278.884	630.69
279.115	611.69
279.347	590.69
279.579	566.69
279.81	588.69
280.042	577.69
280.273	567.69
280.505	589.69
280.736	608.69
280.968	655.69
281.199	674.69
281.431	740.69
281.662	749.69
281.894	676.69
282.125	653.69
282.356	670.69
282.588	666.69
282.819	702.69
283.051	746.69
283.282	772.69
283.513	912.69
283.745	1280.69
283.976	1974.69
284.207	2736.69
284.439	2456.69
284.67	1544.69
284.901	1280.69
285.132	1232.69
285.364	1178.69
285.595	972.69
285.826	894.69
286.057	1036.69
286.288	1364.69
286.52	1721.69
286.751	1618.69
286.982	1093.69
287.213	872.69
287.444	779.69
287.675	739.69
287.906	723.69
288.138	715.69
288.369	698.69
288.6	690.69
288.831	677.69
289.062	692.69
289.293	707.69
289.524	699.69
289.755	723.69
289.986	728.69
290.217	722.69
290.448	693.69
290.679	708.69
290.91	676.69
291.141	723.69
291.371	763.69
291.602	794.69
291.833	757.69
292.064	674.69
292.295	674.69
292.526	695.69
292.757	652.69
292.987	672.69
293.218	651.69
293.449	664.69
293.68	666.69
293.91	651.69
294.141	635.69
294.372	665.69
294.603	661.69
294.833	650.69
295.064	634.69
295.295	652.69
295.525	653.69
295.756	661.69
295.987	651.69
296.217	660.69
296.448	641.69
296.679	642.69
296.909	669.69
297.14	676.69
297.37	665.69
297.601	669.69
297.831	664.69
298.062	674.69
298.292	666.69
298.523	696.69
298.753	708.69
298.984	710.69
299.214	707.69
299.445	714.69
299.675	711.69
299.905	746.69
300.136	778.69
300.366	839.69
300.597	1036.69
300.827	1320.69
301.057	1724.69
301.288	1748.69
301.518	1195.69
301.748	953.69
301.979	902.69
302.209	881.69
302.439	873.69
302.669	912.69
302.9	1068.69
303.13	1415.69
303.36	2010.69
303.59	2653.69
303.82	2345.69
304.051	1459.69
304.281	1096.69
304.511	977.69
304.741	908.69
304.971	841.69
305.201	820.69
305.431	795.69
305.661	805.69
305.891	753.69
306.121	775.69
306.352	765.69
306.582	762.69
306.812	744.69
307.042	758.69
307.272	776.69
307.502	736.69
307.731	728.69
307.961	769.69
308.191	766.69
308.421	756.69
308.651	771.69
308.881	721.69
309.111	749.69
309.341	765.69
309.571	744.69
309.8	755.69
310.03	768.69
310.26	769.69
310.49	761.69
310.72	795.69
310.949	775.69
311.179	808.69
311.409	792.69
311.639	764.69
311.868	788.69
312.098	788.69
312.328	805.69
312.557	808.69
312.787	786.69
313.017	788.69
313.246	804.69
313.476	832.69
313.706	797.69
313.935	833.69
314.165	912.69
314.394	956.69
314.624	891.69
314.853	877.69
315.083	843.69
315.312	865.69
315.542	906.69
315.771	878.69
316.001	887.69
316.23	920.69
316.46	960.69
316.689	1028.69
316.919	1191.69
317.148	1639.69
317.377	2389.69
317.607	3438.69
317.836	3555.69
318.065	2208.69
318.295	1501.69
318.524	1274.69
318.753	1092.69
318.983	1044.69
319.212	1000.69
319.441	980.69
319.67	986.69
319.9	948.69
320.129	955.69
320.358	949.69
320.587	920.69
320.816	948.69
321.046	940.69
321.275	937.69
321.504	948.69
321.733	977.69
321.962	983.69
322.191	973.69
322.42	984.69
322.649	976.69
322.878	973.69
323.108	1031.69
323.337	1017.69
323.566	1006.69
323.795	1061.69
324.024	1051.69
324.253	1061.69
324.482	1117.69
324.71	1144.69
324.939	1222.69
325.168	1221.69
325.397	1273.69
325.626	1476.69
325.855	1963.69
326.084	2955.69
326.313	4250.69
326.542	4548.69
326.77	2966.69
326.999	2041.69
327.228	1760.69
327.457	1714.69
327.686	1745.69
327.914	1846.69
328.143	2064.69
328.372	2402.69
328.6	2542.69
328.829	2422.69
329.058	2113.69
329.287	1938.69
329.515	1800.69
329.744	1642.69
329.972	1557.69
330.201	1526.69
330.43	1476.69
330.658	1432.69
330.887	1435.69
331.115	1397.69
331.344	1369.69
331.572	1346.69
331.801	1404.69
332.03	1400.69
332.258	1389.69
332.486	1460.69
332.715	1616.69
332.943	1908.69
333.172	2209.69
333.4	2251.69
333.629	1825.69
333.857	1694.69
334.085	1732.69
334.314	1759.69
334.542	1931.69
334.771	2190.69
334.999	2566.69
335.227	3142.69
335.455	3400.69
335.684	3209.69
335.912	2784.69
336.14	2462.69
336.369	2212.69
336.597	2044.69
336.825	1814.69
337.053	1757.69
337.281	1676.69
337.51	1606.69
337.738	1516.69
337.966	1470.69
338.194	1442.69
338.422	1394.69
338.65	1311.69
338.878	1324.69
339.106	1312.69
339.334	1261.69
339.562	1258.69
339.79	1242.69
340.018	1229.69
340.246	1237.69
340.474	1234.69
340.702	1194.69
340.93	1216.69
341.158	1220.69
341.386	1186.69
341.614	1198.69
341.842	1161.69
342.07	1164.69
342.298	1139.69
342.526	1147.69
342.754	1109.69
342.981	1104.69
343.209	1089.69
343.437	1165.69
343.665	1193.69
343.893	1156.69
344.12	1160.69
344.348	1160.69
344.576	1151.69
344.804	1098.69
345.031	1084.69
345.259	1092.69
345.487	1053.69
345.714	1040.69
345.942	1049.69
346.17	1066.69
346.397	1048.69
346.625	1049.69
346.853	1035.69
347.08	1024.69
347.308	1046.69
347.535	1046.69
347.763	1051.69
347.99	985.69
348.218	1004.69
348.445	1014.69
348.673	1013.69
348.9	1018.69
349.128	996.69
349.355	1022.69
349.583	999.69
349.81	983.69
350.037	987.69
350.265	1005.69
350.492	995.69
350.72	1000.69
350.947	988.69
351.174	992.69
351.402	995.69
351.629	986.69
351.856	968.69
352.083	1013.69
352.311	988.69
352.538	982.69
352.765	992.69
352.992	978.69
353.22	967.69
353.447	1004.69
353.674	1001.69
353.901	982.69
354.128	980.69
354.355	963.69
354.583	1012.69
354.81	986.69
355.037	1000.69
355.264	1034.69
355.491	1002.69
355.718	1019.69
355.945	1008.69
356.172	1018.69
356.399	1014.69
356.626	1048.69
356.853	1052.69
357.08	1027.69
357.307	1028.69
357.534	1049.69
357.761	1064.69
357.988	1051.69
358.215	1038.69
358.441	1030.69
358.668	1039.69
358.895	1048.69
359.122	1036.69
359.349	1045.69
359.576	1033.69
359.802	1076.69
360.029	1048.69
360.256	1060.69
360.483	1055.69
360.709	1074.69
360.936	1055.69
361.163	1067.69
361.39	1064.69
361.616	1060.69
361.843	1044.69
362.07	1062.69
362.296	1060.69
362.523	1049.69
362.749	1048.69
362.976	1036.69
363.203	1046.69
363.429	1044.69
363.656	1047.69
363.882	1065.69
364.109	1063.69
364.335	1079.69
364.562	1047.69
364.788	1058.69
365.015	1066.69
365.241	1078.69
365.468	1096.69
365.694	1101.69
365.92	1117.69
366.147	1088.69
366.373	1074.69
366.599	1081.69
366.826	1074.69
367.052	1072.69
367.278	1037.69
367.505	1093.69
367.731	1095.69
367.957	1088.69
368.184	1108.69
368.41	1098.69
368.636	1102.69
368.862	1102.69
369.089	1094.69
369.315	1085.69
369.541	1099.69
369.767	1112.69
369.993	1062.69
370.219	1072.69
370.445	1092.69
370.672	1115.69
370.898	1099.69
371.124	1092.69
371.35	1136.69
371.576	1116.69
371.802	1154.69
372.028	1140.69
372.254	1140.69
372.48	1142.69
372.706	1183.69
372.932	1158.69
373.158	1143.69
373.384	1161.69
373.61	1128.69
373.835	1166.69
374.061	1164.69
374.287	1192.69
374.513	1189.69
374.739	1176.69
374.965	1213.69
375.191	1180.69
375.416	1222.69
375.642	1184.69
375.868	1157.69
376.094	1187.69
376.319	1150.69
376.545	1138.69
376.771	1156.69
376.997	1108.69
377.222	1139.69
377.448	1112.69
377.674	1166.69
377.899	1129.69
378.125	1132.69
378.35	1125.69
378.576	1102.69
378.802	1141.69
379.027	1152.69
379.253	1194.69
379.478	1220.69
379.704	1408.69
379.929	1844.69
380.155	2589.69
380.38	2778.69
380.606	1832.69
380.831	1401.69
381.057	1281.69
381.282	1181.69
381.507	1171.69
381.733	1149.69
381.958	1099.69
382.184	1149.69
382.409	1151.69
382.634	1120.69
382.86	1138.69
383.085	1121.69
383.31	1123.69
383.535	1124.69
383.761	1148.69
383.986	1138.69
384.211	1142.69
384.436	1132.69
384.662	1165.69
384.887	1188.69
385.112	1149.69
385.337	1158.69
385.562	1197.69
385.787	1144.69
386.013	1184.69
386.238	1155.69
386.463	1188.69
386.688	1175.69
386.913	1120.69
387.138	1143.69
387.363	1160.69
387.588	1150.69
387.813	1146.69
388.038	1162.69
388.263	1157.69
388.488	1163.69
388.713	1158.69
388.938	1171.69
389.163	1139.69
389.387	1185.69
389.612	1142.69
389.837	1170.69
390.062	1165.69
390.287	1206.69
390.512	1155.69
390.736	1188.69
390.961	1208.69
391.186	1217.69
391.411	1217.69
391.636	1253.69
391.86	1215.69
392.085	1221.69
392.31	1208.69
392.534	1208.69
392.759	1193.69
392.984	1187.69
393.208	1191.69
393.433	1185.69
393.658	1208.69
393.882	1184.69
394.107	1174.69
394.331	1193.69
394.556	1197.69
394.78	1201.69
395.005	1180.69
395.229	1209.69
395.454	1220.69
395.678	1213.69
395.903	1204.69
396.127	1261.69
396.352	1215.69
396.576	1202.69
396.801	1187.69
397.025	1187.69
397.249	1224.69
397.474	1245.69
397.698	1242.69
397.922	1280.69
398.147	1216.69
398.371	1238.69
398.595	1306.69
398.82	1310.69
399.044	1349.69
399.268	1403.69
399.492	1520.69
399.717	1583.69
399.941	1566.69
400.165	1509.69
400.389	1452.69
400.613	1408.69
400.837	1319.69
401.062	1318.69
401.286	1291.69
401.51	1333.69
401.734	1308.69
401.958	1332.69
402.182	1294.69
402.406	1294.69
402.63	1321.69
402.854	1330.69
403.078	1329.69
403.302	1324.69
403.526	1328.69
403.75	1367.69
403.974	1356.69
404.198	1376.69
404.422	1364.69
404.645	1369.69
404.869	1368.69
405.093	1333.69
405.317	1360.69
405.541	1375.69
405.765	1356.69
405.988	1398.69
406.212	1371.69
406.436	1370.69
406.66	1417.69
406.883	1385.69
407.107	1426.69
407.331	1443.69
407.555	1471.69
407.778	1472.69
408.002	1440.69
408.226	1409.69
408.449	1418.69
408.673	1377.69
408.896	1366.69
409.12	1364.69
409.344	1346.69
409.567	1356.69
409.791	1361.69
410.014	1328.69
410.238	1345.69
410.461	1351.69
410.685	1326.69
410.908	1338.69
411.132	1320.69
411.355	1296.69
411.578	1302.69
411.802	1275.69
412.025	1260.69
412.249	1316.69
412.472	1299.69
412.695	1285.69
412.919	1243.69
413.142	1250.69
413.365	1270.69
413.589	1290.69
413.812	1264.69
414.035	1250.69
414.258	1265.69
414.482	1270.69
414.705	1281.69
414.928	1267.69
415.151	1256.69
415.374	1263.69
415.597	1240.69
415.821	1241.69
416.044	1203.69
416.267	1218.69
416.49	1204.69
416.713	1229.69
416.936	1238.69
417.159	1192.69
417.382	1211.69
417.605	1213.69
417.828	1212.69
418.051	1201.69
418.274	1248.69
418.497	1244.69
418.72	1273.69
418.943	1206.69
419.166	1296.69
419.389	1340.69
419.611	1367.69
419.834	1278.69
420.057	1282.69
420.28	1234.69
420.503	1221.69
420.726	1218.69
420.948	1230.69
421.171	1233.69
421.394	1231.69
421.617	1250.69
421.839	1228.69
422.062	1253.69
422.285	1204.69
422.507	1241.69
422.73	1249.69
422.953	1232.69
423.175	1239.69
423.398	1282.69
423.621	1227.69
423.843	1250.69
424.066	1244.69
424.288	1236.69
424.511	1228.69
424.733	1265.69
424.956	1214.69
425.178	1229.69
425.401	1211.69
425.623	1245.69
425.846	1208.69
426.068	1224.69
426.291	1193.69
426.513	1172.69
426.735	1189.69
426.958	1164.69
427.18	1150.69
427.402	1149.69
427.625	1180.69
427.847	1148.69
428.069	1137.69
428.292	1168.69
428.514	1127.69
428.736	1138.69
428.958	1131.69
429.181	1142.69
429.403	1142.69
429.625	1109.69
429.847	1159.69
430.069	1132.69
430.292	1193.69
430.514	1211.69
430.736	1184.69
430.958	1146.69
431.18	1162.69
431.402	1142.69
431.624	1127.69
431.846	1104.69
432.068	1107.69
432.29	1118.69
432.512	1091.69
432.734	1121.69
432.956	1114.69
433.178	1156.69
433.4	1126.69
433.622	1138.69
433.844	1132.69
434.066	1124.69
434.287	1106.69
434.509	1121.69
434.731	1163.69
434.953	1158.69
435.175	1191.69
435.397	1168.69
435.618	1152.69
435.84	1137.69
436.062	1127.69
436.284	1140.69
436.505	1125.69
436.727	1120.69
436.949	1169.69
437.17	1114.69
437.392	1088.69
437.614	1115.69
437.835	1089.69
438.057	1089.69
438.278	1079.69
438.5	1093.69
438.721	1120.69
438.943	1153.69
439.165	1133.69
439.386	1158.69
439.608	1163.69
439.829	1186.69
440.05	1160.69
440.272	1187.69
440.493	1167.69
440.715	1153.69
440.936	1159.69
441.158	1197.69
441.379	1188.69
441.6	1235.69
441.822	1238.69
442.043	1265.69
442.264	1300.69
442.486	1249.69
442.707	1253.69
442.928	1212.69
443.149	1231.69
443.371	1204.69
443.592	1228.69
443.813	1242.69
444.034	1249.69
444.255	1239.69
444.476	1267.69
444.698	1261.69
444.919	1325.69
445.14	1358.69
445.361	1320.69
445.582	1263.69
445.803	1244.69
446.024	1200.69
446.245	1237.69
446.466	1204.69
446.687	1206.69
446.908	1192.69
447.129	1190.69
447.35	1163.69
447.571	1169.69
447.792	1143.69
448.013	1126.69
448.234	1125.69
448.455	1125.69
448.675	1115.69
448.896	1140.69
449.117	1189.69
449.338	1227.69
449.559	1272.69
449.779	1176.69
450	1103.69
450.221	1090.69
450.442	1081.69
450.662	1089.69
450.883	1066.69
451.104	1115.69
451.324	1099.69
451.545	1101.69
451.766	1074.69
451.986	1096.69
452.207	1132.69
452.428	1316.69
452.648	1761.69
452.869	1507.69
453.089	1194.69
453.31	1175.69
453.53	1154.69
453.751	1181.69
453.971	1253.69
454.192	1216.69
454.412	1112.69
454.633	1084.69
454.853	1069.69
455.073	1050.69
455.294	1036.69
455.514	1030.69
455.734	1042.69
455.955	1030.69
456.175	1021.69
456.395	1009.69
456.616	1045.69
456.836	1047.69
457.056	1072.69
457.276	1045.69
457.497	1096.69
457.717	1088.69
457.937	1085.69
458.157	1068.69
458.377	1089.69
458.598	1110.69
458.818	1107.69
459.038	1092.69
459.258	1085.69
459.478	1092.69
459.698	1126.69
459.918	1152.69
460.138	1148.69
460.358	1190.69
460.578	1212.69
460.798	1220.69
461.018	1212.69
461.238	1219.69
461.458	1249.69
461.678	1238.69
461.898	1273.69
462.118	1244.69
462.338	1284.69
462.558	1312.69
462.777	1321.69
462.997	1393.69
463.217	1403.69
463.437	1464.69
463.657	1473.69
463.876	1460.69
464.096	1343.69
464.316	1326.69
464.536	1314.69
464.755	1320.69
464.975	1269.69
465.195	1228.69
465.414	1233.69
465.634	1149.69
465.854	1146.69
466.073	1163.69
466.293	1134.69
466.512	1134.69
466.732	1155.69
466.951	1166.69
467.171	1247.69
467.391	1214.69
467.61	1139.69
467.829	1107.69
468.049	1141.69
468.268	1110.69
468.488	1105.69
468.707	1090.69
468.927	1131.69
469.146	1106.69
469.365	1101.69
469.585	1114.69
469.804	1125.69
470.023	1187.69
470.243	1170.69
470.462	1201.69
470.681	1246.69
470.901	1366.69
471.12	1522.69
471.339	1509.69
471.558	1284.69
471.777	1212.69
471.997	1166.69
472.216	1154.69
472.435	1096.69
472.654	1094.69
472.873	1099.69
473.092	1117.69
473.311	1092.69
473.53	1121.69
473.749	1128.69
473.968	1132.69
474.187	1142.69
474.406	1108.69
474.625	1116.69
474.844	1123.69
475.063	1089.69
475.282	1121.69
475.501	1114.69
475.72	1121.69
475.939	1164.69
476.158	1147.69
476.377	1171.69
476.596	1205.69
476.814	1167.69
477.033	1146.69
477.252	1197.69
477.471	1193.69
477.69	1220.69
477.908	1261.69
478.127	1243.69
478.346	1301.69
478.564	1325.69
478.783	1308.69
479.002	1309.69
479.22	1330.69
479.439	1333.69
479.658	1312.69
479.876	1304.69
480.095	1302.69
480.313	1354.69
480.532	1352.69
480.751	1387.69
480.969	1338.69
481.188	1340.69
481.406	1320.69
481.624	1294.69
481.843	1300.69
482.061	1300.69
482.28	1344.69
482.498	1341.69
482.717	1325.69
482.935	1334.69
483.153	1386.69
483.372	1379.69
483.59	1412.69
483.808	1404.69
484.027	1436.69
484.245	1483.69
484.463	1636.69
484.681	1755.69
484.9	1644.69
485.118	1576.69
485.336	1491.69
485.554	1528.69
485.772	1596.69
485.99	1758.69
486.209	1906.69
486.427	1617.69
486.645	1492.69
486.863	1462.69
487.081	1435.69
487.299	1394.69
487.517	1399.69
487.735	1458.69
487.953	1428.69
488.171	1468.69
488.389	1417.69
488.607	1394.69
488.825	1404.69
489.043	1374.69
489.261	1378.69
489.479	1381.69
489.696	1370.69
489.914	1358.69
490.132	1367.69
490.35	1382.69
490.568	1428.69
490.786	1437.69
491.003	1460.69
491.221	1487.69
491.439	1485.69
491.657	1492.69
491.874	1445.69
492.092	1507.69
492.31	1485.69
492.527	1517.69
492.745	1488.69
492.963	1486.69
493.18	1451.69
493.398	1505.69
493.615	1468.69
493.833	1482.69
494.05	1485.69
494.268	1467.69
494.485	1470.69
494.703	1470.69
494.92	1479.69
495.138	1481.69
495.355	1469.69
495.573	1495.69
495.79	1472.69
496.008	1511.69
496.225	1502.69
496.442	1512.69
496.66	1537.69
496.877	1608.69
497.094	1583.69
497.312	1544.69
497.529	1588.69
497.746	1574.69
497.963	1585.69
498.181	1636.69
498.398	1672.69
498.615	1734.69
498.832	1784.69
499.049	1815.69
499.267	1974.69
499.484	2082.69
499.701	2156.69
499.918	2245.69
500.135	2365.69
500.352	2531.69
500.569	2544.69
500.786	2490.69
501.003	2420.69
501.22	2297.69
501.437	2142.69
501.654	2059.69
501.871	1957.69
502.088	1843.69
502.305	1756.69
502.522	1755.69
502.739	1701.69
502.956	1663.69
503.172	1593.69
503.389	1565.69
503.606	1544.69
503.823	1547.69
504.04	1514.69
504.256	1486.69
504.473	1512.69
504.69	1477.69
504.907	1467.69
505.123	1472.69
505.34	1427.69
505.557	1420.69
505.773	1386.69
505.99	1368.69
506.207	1319.69
506.423	1310.69
506.64	1332.69
506.856	1306.69
507.073	1297.69
507.289	1293.69
507.506	1284.69
507.722	1294.69
507.939	1254.69
508.155	1249.69
508.372	1247.69
508.588	1270.69
508.805	1245.69
509.021	1234.69
509.238	1249.69
509.454	1271.69
509.67	1340.69
509.887	1323.69
510.103	1249.69
510.319	1253.69
510.536	1255.69
510.752	1234.69
510.968	1200.69
511.184	1200.69
511.401	1203.69
511.617	1156.69
511.833	1171.69
512.049	1182.69
512.265	1218.69
512.481	1187.69
512.698	1182.69
512.914	1178.69
513.13	1203.69
513.346	1214.69
513.562	1185.69
513.778	1186.69
513.994	1189.69
514.21	1217.69
514.426	1282.69
514.642	1290.69
514.858	1245.69
515.074	1212.69
515.29	1224.69
515.506	1219.69
515.721	1222.69
515.937	1227.69
516.153	1211.69
516.369	1218.69
516.585	1276.69
516.801	1269.69
517.016	1298.69
517.232	1318.69
517.448	1338.69
517.664	1364.69
517.879	1342.69
518.095	1322.69
518.311	1321.69
518.527	1329.69
518.742	1286.69
518.958	1315.69
519.173	1317.69
519.389	1293.69
519.605	1242.69
519.82	1237.69
520.036	1234.69
520.251	1218.69
520.467	1188.69
520.682	1172.69
520.898	1159.69
521.113	1165.69
521.329	1154.69
521.544	1177.69
521.76	1167.69
521.975	1177.69
522.19	1167.69
522.406	1170.69
522.621	1194.69
522.836	1154.69
523.052	1164.69
523.267	1181.69
523.482	1173.69
523.698	1123.69
523.913	1164.69
524.128	1188.69
524.343	1169.69
524.559	1166.69
524.774	1182.69
524.989	1168.69
525.204	1137.69
525.419	1145.69
525.634	1148.69
525.849	1175.69
526.064	1149.69
526.28	1123.69
526.495	1158.69
526.71	1144.69
526.925	1130.69
527.14	1128.69
527.355	1144.69
527.57	1150.69
527.785	1128.69
527.999	1172.69
528.214	1190.69
528.429	1156.69
528.644	1210.69
528.859	1189.69
529.074	1257.69
529.289	1257.69
529.503	1259.69
529.718	1241.69
529.933	1200.69
530.148	1215.69
530.363	1229.69
530.577	1201.69
530.792	1191.69
531.007	1206.69
531.221	1220.69
531.436	1232.69
531.651	1242.69
531.865	1225.69
532.08	1264.69
532.295	1279.69
532.509	1324.69
532.724	1359.69
532.938	1354.69
533.153	1369.69
533.367	1427.69
533.582	1504.69
533.796	1495.69
534.011	1467.69
534.225	1420.69
534.44	1340.69
534.654	1371.69
534.868	1347.69
535.083	1318.69
535.297	1320.69
535.511	1284.69
535.726	1305.69
535.94	1288.69
536.154	1234.69
536.369	1234.69
536.583	1230.69
536.797	1210.69
537.011	1211.69
537.225	1171.69
537.44	1212.69
537.654	1158.69
537.868	1172.69
538.082	1140.69
538.296	1132.69
538.51	1122.69
538.724	1139.69
538.938	1162.69
539.153	1142.69
539.367	1152.69
539.581	1106.69
539.795	1097.69
540.009	1119.69
540.222	1075.69
540.436	1124.69
540.65	1126.69
540.864	1141.69
541.078	1152.69
541.292	1194.69
541.506	1371.69
541.72	1430.69
541.934	1296.69
542.147	1249.69
542.361	1210.69
542.575	1140.69
542.789	1147.69
543.002	1076.69
543.216	1086.69
543.43	1064.69
543.644	1081.69
543.857	1076.69
544.071	1094.69
544.285	1112.69
544.498	1126.69
544.712	1111.69
544.925	1105.69
545.139	1126.69
545.352	1136.69
545.566	1113.69
545.779	1115.69
545.993	1126.69
546.206	1128.69
546.42	1145.69
546.633	1139.69
546.847	1156.69
547.06	1127.69
547.274	1133.69
547.487	1118.69
547.7	1106.69
547.914	1133.69
548.127	1127.69
548.34	1146.69
548.554	1152.69
548.767	1126.69
548.98	1126.69
549.193	1116.69
549.407	1120.69
549.62	1138.69
549.833	1151.69
550.046	1117.69
550.259	1140.69
550.473	1138.69
550.686	1109.69
550.899	1114.69
551.112	1117.69
551.325	1109.69
551.538	1114.69
551.751	1091.69
551.964	1092.69
552.177	1136.69
552.39	1130.69
552.603	1147.69
552.816	1188.69
553.029	1162.69
553.242	1217.69
553.455	1226.69
553.667	1227.69
553.88	1242.69
554.093	1230.69
554.306	1196.69
554.519	1223.69
554.732	1242.69
554.944	1233.69
555.157	1289.69
555.37	1286.69
555.583	1318.69
555.795	1394.69
556.008	1446.69
556.221	1519.69
556.433	1584.69
556.646	1581.69
556.859	1560.69
557.071	1536.69
557.284	1509.69
557.496	1499.69
557.709	1437.69
557.921	1488.69
558.134	1464.69
558.346	1500.69
558.559	1496.69
558.771	1559.69
558.984	1636.69
559.196	1734.69
559.409	1737.69
559.621	1629.69
559.833	1514.69
560.046	1473.69
560.258	1421.69
560.47	1382.69
560.683	1318.69
560.895	1291.69
561.107	1272.69
561.32	1208.69
561.532	1195.69
561.744	1197.69
561.956	1193.69
562.168	1130.69
562.381	1114.69
562.593	1117.69
562.805	1101.69
563.017	1148.69
563.229	1109.69
563.441	1206.69
563.653	1105.69
563.865	1065.69
564.077	1070.69
564.289	1044.69
564.501	1033.69
564.713	1029.69
564.925	1002.69
565.137	1011.69
565.349	1016.69
565.561	1037.69
565.773	1030.69
565.985	1045.69
566.197	1050.69
566.408	1111.69
566.62	1103.69
566.832	1145.69
567.044	1141.69
567.255	1162.69
567.467	1148.69
567.679	1189.69
567.891	1253.69
568.102	1317.69
568.314	1517.69
568.526	1285.69
568.737	1194.69
568.949	1056.69
569.161	1001.69
569.372	952.69
569.584	922.69
569.795	918.69
570.007	902.69
570.218	923.69
570.43	935.69
570.641	892.69
570.853	858.69
571.064	866.69
571.276	862.69
571.487	873.69
571.698	837.69
571.91	852.69
572.121	813.69
572.333	799.69
572.544	824.69
572.755	841.69
572.966	937.69
573.178	854.69
573.389	812.69
573.6	771.69
573.811	789.69
574.023	777.69
574.234	758.69
574.445	742.69
574.656	736.69
574.867	725.69
575.078	745.69
575.289	783.69
575.501	758.69
575.712	743.69
575.923	731.69
576.134	770.69
576.345	736.69
576.556	736.69
576.767	780.69
576.978	781.69
577.188	748.69
577.399	756.69
577.61	758.69
577.821	780.69
578.032	781.69
578.243	777.69
578.454	785.69
578.665	804.69
578.875	839.69
579.086	819.69
579.297	857.69
579.508	913.69
579.718	936.69
579.929	1059.69
580.14	1171.69
580.35	1164.69
580.561	1127.69
580.772	1063.69
580.982	1016.69
581.193	941.69
581.403	933.69
581.614	872.69
581.825	848.69
582.035	809.69
582.246	817.69
582.456	764.69
582.667	752.69
582.877	769.69
583.087	746.69
583.298	713.69
583.508	724.69
583.719	705.69
583.929	678.69
584.139	670.69
584.35	643.69
584.56	657.69
584.77	657.69
584.981	613.69
585.191	628.69
585.401	632.69
585.611	615.69
585.821	625.69
586.032	608.69
586.242	615.69
586.452	606.69
586.662	592.69
586.872	597.69
587.082	584.69
587.292	582.69
587.502	568.69
587.713	576.69
587.923	557.69
588.133	552.69
588.343	547.69
588.553	560.69
588.762	555.69
588.972	546.69
589.182	550.69
589.392	556.69
589.602	561.69
589.812	549.69
590.022	539.69
590.232	535.69
590.441	566.69
590.651	547.69
590.861	531.69
591.071	552.69
591.281	527.69
591.49	515.69
591.7	549.69
591.91	544.69
592.119	544.69
592.329	558.69
592.539	572.69
592.748	547.69
592.958	538.69
593.167	562.69
593.377	555.69
593.587	580.69
593.796	590.69
594.006	556.69
594.215	561.69
594.424	532.69
594.634	572.69
594.843	573.69
595.053	538.69
595.262	542.69
595.472	517.69
595.681	501.69
595.89	518.69
596.1	508.69
596.309	500.69
596.518	504.69
596.727	493.69
596.937	475.69
597.146	475.69
597.355	493.69
597.564	494.69
597.774	455.69
597.983	461.69
598.192	467.69
598.401	461.69
598.61	463.69
598.819	452.69
599.028	455.69
599.237	446.69
599.446	450.69
599.655	442.69
599.864	456.69
600.073	445.69
600.282	452.69
600.491	434.69
600.7	448.69
600.909	437.69
601.118	440.69
601.327	450.69
601.536	448.69
601.745	438.69
601.953	506.69
602.162	545.69
602.371	457.69
602.58	456.69
602.789	436.69
602.997	450.69
603.206	445.69
603.415	447.69
603.623	448.69
603.832	423.69
604.041	425.69
604.249	422.69
604.458	419.69
604.666	420.69
604.875	427.69
605.084	439.69
605.292	416.69
605.501	437.69
605.709	413.69
605.918	429.69
606.126	423.69
606.334	436.69
606.543	445.69
606.751	445.69
606.96	513.69
607.168	522.69
607.376	473.69
607.585	426.69
607.793	454.69
608.001	421.69
608.21	425.69
608.418	436.69
608.626	412.69
608.834	412.69
609.043	427.69
609.251	414.69
609.459	416.69
609.667	423.69
609.875	416.69
610.083	416.69
610.291	405.69
610.499	418.69
610.707	410.69
610.916	407.69
611.124	391.69
611.332	402.69
611.54	407.69
611.748	406.69
611.955	402.69
612.163	410.69
612.371	384.69
612.579	391.69
612.787	382.69
612.995	386.69
613.203	398.69
613.411	412.69
613.618	384.69
613.826	386.69
614.034	394.69
614.242	370.69
614.449	393.69
614.657	415.69
614.865	399.69
615.072	416.69
615.28	376.69
615.488	391.69
615.695	396.69
615.903	411.69
616.111	410.69
616.318	419.69
616.526	387.69
616.733	405.69
616.941	374.69
617.148	392.69
617.356	364.69
617.563	373.69
617.771	376.69
617.978	361.69
618.185	371.69
618.393	343.69
618.6	392.69
618.807	392.69
619.015	368.69
619.222	372.69
619.429	365.69
619.637	370.69
619.844	362.69
620.051	357.69
620.258	357.69
620.466	359.69
620.673	350.69
620.88	369.69
621.087	355.69
621.294	340.69
621.501	321.69
621.708	361.69
621.915	366.69
622.122	359.69
622.329	356.69
622.536	345.69
622.743	353.69
622.95	348.69
623.157	345.69
623.364	338.69
623.571	334.69
623.778	346.69
623.985	361.69
624.192	344.69
624.399	361.69
624.606	337.69
624.812	334.69
625.019	324.69
625.226	333.69
625.433	349.69
625.639	347.69
625.846	330.69
626.053	319.69
626.259	302.69
626.466	324.69
626.673	333.69
626.879	316.69
627.086	322.69
627.293	318.69
627.499	318.69
627.706	309.69
627.912	340.69
628.119	323.69
628.325	333.69
628.532	304.69
628.738	323.69
628.945	297.69
629.151	308.69
629.357	304.69
629.564	314.69
629.77	317.69
629.976	317.69
630.183	306.69
630.389	319.69
630.595	321.69
630.802	302.69
631.008	298.69
631.214	313.69
631.42	307.69
631.627	289.69
631.833	295.69
632.039	295.69
632.245	322.69
632.451	313.69
632.657	278.69
632.863	291.69
633.069	312.69
633.275	321.69
633.481	289.69
633.688	296.69
633.893	292.69
634.099	295.69
634.305	293.69
634.511	292.69
634.717	285.69
634.923	302.69
635.129	320.69
635.335	372.69
635.541	331.69
635.747	320.69
635.952	309.69
636.158	292.69
636.364	304.69
636.57	294.69
636.775	294.69
636.981	288.69
637.187	308.69
637.392	311.69
637.598	309.69
637.804	305.69
638.009	305.69
638.215	297.69
638.421	308.69
638.626	298.69
638.832	306.69
639.037	301.69
639.243	306.69
639.448	302.69
639.654	312.69
639.859	300.69
640.065	304.69
640.27	313.69
640.475	306.69
640.681	304.69
640.886	321.69
641.091	312.69
641.297	320.69
641.502	291.69
641.707	334.69
641.913	306.69
642.118	313.69
642.323	333.69
642.528	323.69
642.733	344.69
642.939	348.69
643.144	352.69
643.349	363.69
643.554	366.69
643.759	371.69
643.964	378.69
644.169	407.69
644.374	418.69
644.579	460.69
644.784	504.69
644.989	540.69
645.194	605.69
645.399	696.69
645.604	698.69
645.809	564.69
646.014	486.69
646.219	427.69
646.423	365.69
646.628	363.69
646.833	350.69
647.038	328.69
647.243	317.69
647.447	301.69
647.652	299.69
647.857	292.69
648.062	302.69
648.266	286.69
648.471	291.69
648.676	309.69
648.88	286.69
649.085	276.69
649.289	293.69
649.494	276.69
649.698	272.69
649.903	251.69
650.107	264.69
650.312	270.69
650.516	268.69
650.721	266.69
650.925	229.69
651.13	225.69
651.334	244.69
651.539	248.69
651.743	249.69
651.947	234.69
652.152	242.69
652.356	234.69
652.56	229.69
652.764	268.69
652.969	250.69
653.173	226.69
653.377	220.69
653.581	209.69
653.785	212.69
653.99	221.69
654.194	218.69
654.398	222.69
654.602	192.69
654.806	199.69
655.01	185.69
655.214	201.69
655.418	203.69
655.622	206.69
655.826	213.69
656.03	234.69
656.234	208.69
656.438	215.69
656.642	234.69
656.846	236.69
657.049	205.69
657.253	207.69
657.457	177.69
657.661	176.69
657.865	182.69
658.068	172.69
658.272	156.69
658.476	154.69
658.68	138.69
658.883	138.69
659.087	155.69
659.291	128.69
659.494	129.69
659.698	131.69
659.901	128.69
660.105	106.69
660.309	122.69
660.512	118.69
660.716	117.69
660.919	117.69
661.123	110.69
661.326	116.69
661.53	89.69
661.733	110.69
661.936	94.69
662.14	104.69
662.343	83.69
662.546	97.69
662.75	107.69
662.953	95.69
663.156	86.69
663.36	105.69
663.563	78.69
663.766	90.69
663.969	98.69
664.173	88.69
664.376	85.69
664.579	80.69
664.782	77.69
664.985	81.69
665.188	88.69
665.391	94.69
665.594	80.69
665.797	85.69
666	74.69
666.203	83.69
666.406	87.69
666.609	79.69
666.812	87.69
667.015	81.69
667.218	73.69
667.421	79.69
667.624	88.69
667.827	94.69
668.03	84.69
668.232	87.69
668.435	99.69
668.638	70.69
668.841	75.69
669.043	70.69
669.246	80.69
669.449	92.69
669.651	86.69
669.854	97.69
670.057	90.69
670.259	89.69
670.462	86.69
670.665	89.69
670.867	82.69
671.07	76.69
671.272	88.69
671.475	76.69
671.677	81.69
671.88	87.69
672.082	89.69
672.284	82.69
672.487	84.69
672.689	100.69
672.892	74.69
