Data from SnStandardFlinnAPT0064_LampEnergy5.5_LIBS07252019.E.O._I.C._HRD10591_15-16-01-491.txt Node
Date: Thu Jul 25 15:16:01 EDT 2019
User: cochatt
Spectrometer: HR+D1059
Trigger mode: 1
Integration Time (sec): 1.000000E-1
Scans to average: 1
Electric dark correction enabled: true
Nonlinearity correction enabled: false
Boxcar width: 0
XAxis mode: Wavelengths
Number of Pixels in Spectrum: 2048
>>>>>Begin Spectral Data<<<<<
223.165	-10.25
223.4	-10.25
223.635	-10.25
223.869	-10.25
224.104	-24.25
224.338	-8.25
224.573	-7.25
224.808	-11.25
225.042	-15.25
225.277	-6.25
225.511	-9.25
225.746	2.75
225.98	3.75
226.215	11.75
226.449	7.75
226.683	23.75
226.918	32.75
227.152	19.75
227.387	26.75
227.621	48.75
227.856	29.75
228.09	39.75
228.324	66.75
228.559	62.75
228.793	74.75
229.027	145.75
229.262	152.75
229.496	160.75
229.73	147.75
229.964	152.75
230.199	158.75
230.433	166.75
230.667	145.75
230.901	169.75
231.136	165.75
231.37	170.75
231.604	196.75
231.838	198.75
232.072	218.75
232.306	249.75
232.541	222.75
232.775	188.75
233.009	201.75
233.243	209.75
233.477	236.75
233.711	251.75
233.945	271.75
234.179	228.75
234.413	222.75
234.647	209.75
234.881	219.75
235.115	230.75
235.349	270.75
235.583	327.75
235.817	436.75
236.051	428.75
236.285	295.75
236.519	242.75
236.753	237.75
236.987	220.75
237.221	238.75
237.455	228.75
237.689	207.75
237.922	237.75
238.156	236.75
238.39	231.75
238.624	223.75
238.858	229.75
239.091	217.75
239.325	220.75
239.559	248.75
239.793	233.75
240.027	260.75
240.26	251.75
240.494	246.75
240.728	269.75
240.961	284.75
241.195	276.75
241.429	317.75
241.662	306.75
241.896	331.75
242.13	398.75
242.363	516.75
242.597	619.75
242.83	578.75
243.064	606.75
243.298	714.75
243.531	590.75
243.765	379.75
243.998	319.75
244.232	335.75
244.465	314.75
244.699	287.75
244.932	291.75
245.166	285.75
245.399	301.75
245.633	281.75
245.866	308.75
246.099	297.75
246.333	302.75
246.566	328.75
246.8	298.75
247.033	280.75
247.266	285.75
247.5	286.75
247.733	294.75
247.966	342.75
248.2	339.75
248.433	364.75
248.666	397.75
248.899	386.75
249.133	368.75
249.366	369.75
249.599	409.75
249.832	450.75
250.066	429.75
250.299	365.75
250.532	340.75
250.765	343.75
250.998	337.75
251.231	324.75
251.465	340.75
251.698	343.75
251.931	334.75
252.164	333.75
252.397	327.75
252.63	363.75
252.863	338.75
253.096	354.75
253.329	356.75
253.562	348.75
253.795	340.75
254.028	359.75
254.261	376.75
254.494	382.75
254.727	423.75
254.96	523.75
255.193	490.75
255.426	418.75
255.659	379.75
255.892	384.75
256.124	379.75
256.357	378.75
256.59	410.75
256.823	411.75
257.056	437.75
257.289	504.75
257.521	566.75
257.754	486.75
257.987	404.75
258.22	400.75
258.452	405.75
258.685	411.75
258.918	420.75
259.151	436.75
259.383	469.75
259.616	484.75
259.849	524.75
260.081	438.75
260.314	430.75
260.547	410.75
260.779	425.75
261.012	404.75
261.244	408.75
261.477	457.75
261.71	468.75
261.942	429.75
262.175	465.75
262.407	483.75
262.64	501.75
262.872	520.75
263.105	508.75
263.337	538.75
263.57	585.75
263.802	584.75
264.035	562.75
264.267	601.75
264.499	600.75
264.732	642.75
264.964	640.75
265.197	634.75
265.429	633.75
265.661	634.75
265.894	680.75
266.126	733.75
266.358	807.75
266.591	778.75
266.823	678.75
267.055	648.75
267.287	614.75
267.52	600.75
267.752	588.75
267.984	588.75
268.216	566.75
268.448	556.75
268.681	553.75
268.913	551.75
269.145	553.75
269.377	566.75
269.609	557.75
269.841	558.75
270.073	579.75
270.306	672.75
270.538	881.75
270.77	1210.75
271.002	1484.75
271.234	1067.75
271.466	741.75
271.698	642.75
271.93	594.75
272.162	568.75
272.394	538.75
272.626	538.75
272.858	517.75
273.09	540.75
273.322	538.75
273.553	537.75
273.785	532.75
274.017	555.75
274.249	532.75
274.481	511.75
274.713	552.75
274.945	522.75
275.176	520.75
275.408	551.75
275.64	510.75
275.872	530.75
276.104	553.75
276.335	533.75
276.567	569.75
276.799	540.75
277.031	552.75
277.262	564.75
277.494	597.75
277.726	633.75
277.957	709.75
278.189	800.75
278.421	744.75
278.652	678.75
278.884	637.75
279.115	598.75
279.347	609.75
279.579	616.75
279.81	612.75
280.042	608.75
280.273	612.75
280.505	635.75
280.736	620.75
280.968	663.75
281.199	729.75
281.431	745.75
281.662	777.75
281.894	732.75
282.125	684.75
282.356	685.75
282.588	691.75
282.819	700.75
283.051	733.75
283.282	790.75
283.513	943.75
283.745	1398.75
283.976	2192.75
284.207	3002.75
284.439	2729.75
284.67	1667.75
284.901	1325.75
285.132	1348.75
285.364	1258.75
285.595	1018.75
285.826	972.75
286.057	1081.75
286.288	1448.75
286.52	1909.75
286.751	1813.75
286.982	1180.75
287.213	883.75
287.444	799.75
287.675	762.75
287.906	745.75
288.138	718.75
288.369	727.75
288.6	728.75
288.831	712.75
289.062	678.75
289.293	726.75
289.524	737.75
289.755	723.75
289.986	734.75
290.217	743.75
290.448	714.75
290.679	715.75
290.91	715.75
291.141	742.75
291.371	791.75
291.602	800.75
291.833	752.75
292.064	718.75
292.295	699.75
292.526	670.75
292.757	685.75
292.987	698.75
293.218	650.75
293.449	673.75
293.68	679.75
293.91	692.75
294.141	664.75
294.372	663.75
294.603	666.75
294.833	673.75
295.064	665.75
295.295	632.75
295.525	650.75
295.756	692.75
295.987	672.75
296.217	698.75
296.448	676.75
296.679	665.75
296.909	660.75
297.14	667.75
297.37	708.75
297.601	692.75
297.831	664.75
298.062	705.75
298.292	681.75
298.523	707.75
298.753	702.75
298.984	732.75
299.214	748.75
299.445	708.75
299.675	743.75
299.905	738.75
300.136	758.75
300.366	863.75
300.597	1090.75
300.827	1460.75
301.057	1920.75
301.288	1931.75
301.518	1265.75
301.748	1001.75
301.979	900.75
302.209	930.75
302.439	907.75
302.669	988.75
302.9	1139.75
303.13	1535.75
303.36	2210.75
303.59	2934.75
303.82	2586.75
304.051	1528.75
304.281	1159.75
304.511	962.75
304.741	916.75
304.971	881.75
305.201	835.75
305.431	804.75
305.661	816.75
305.891	793.75
306.121	832.75
306.352	784.75
306.582	797.75
306.812	793.75
307.042	782.75
307.272	745.75
307.502	756.75
307.731	768.75
307.961	759.75
308.191	788.75
308.421	794.75
308.651	764.75
308.881	774.75
309.111	782.75
309.341	752.75
309.571	755.75
309.8	800.75
310.03	786.75
310.26	805.75
310.49	785.75
310.72	814.75
310.949	768.75
311.179	795.75
311.409	788.75
311.639	802.75
311.868	812.75
312.098	813.75
312.328	840.75
312.557	828.75
312.787	834.75
313.017	807.75
313.246	842.75
313.476	828.75
313.706	863.75
313.935	878.75
314.165	938.75
314.394	977.75
314.624	948.75
314.853	893.75
315.083	893.75
315.312	891.75
315.542	907.75
315.771	901.75
316.001	921.75
316.23	966.75
316.46	984.75
316.689	1076.75
316.919	1275.75
317.148	1789.75
317.377	2693.75
317.607	3876.75
317.836	3958.75
318.065	2411.75
318.295	1580.75
318.524	1245.75
318.753	1141.75
318.983	1072.75
319.212	1007.75
319.441	1011.75
319.67	996.75
319.9	958.75
320.129	979.75
320.358	965.75
320.587	974.75
320.816	965.75
321.046	958.75
321.275	984.75
321.504	981.75
321.733	980.75
321.962	991.75
322.191	1024.75
322.42	1030.75
322.649	997.75
322.878	1020.75
323.108	1005.75
323.337	1034.75
323.566	1063.75
323.795	1070.75
324.024	1116.75
324.253	1112.75
324.482	1158.75
324.71	1182.75
324.939	1252.75
325.168	1280.75
325.397	1300.75
325.626	1524.75
325.855	2115.75
326.084	3250.75
326.313	4809.75
326.542	5005.75
326.77	3270.75
326.999	2164.75
327.228	1825.75
327.457	1759.75
327.686	1788.75
327.914	1885.75
328.143	2137.75
328.372	2465.75
328.6	2664.75
328.829	2468.75
329.058	2221.75
329.287	1985.75
329.515	1774.75
329.744	1698.75
329.972	1585.75
330.201	1526.75
330.43	1483.75
330.658	1456.75
330.887	1430.75
331.115	1383.75
331.344	1389.75
331.572	1414.75
331.801	1412.75
332.03	1398.75
332.258	1415.75
332.486	1521.75
332.715	1684.75
332.943	1956.75
333.172	2375.75
333.4	2364.75
333.629	1907.75
333.857	1752.75
334.085	1755.75
334.314	1798.75
334.542	1961.75
334.771	2253.75
334.999	2683.75
335.227	3212.75
335.455	3558.75
335.684	3277.75
335.912	2849.75
336.14	2450.75
336.369	2167.75
336.597	2050.75
336.825	1886.75
337.053	1796.75
337.281	1697.75
337.51	1596.75
337.738	1563.75
337.966	1504.75
338.194	1437.75
338.422	1424.75
338.65	1387.75
338.878	1355.75
339.106	1335.75
339.334	1304.75
339.562	1275.75
339.79	1254.75
340.018	1287.75
340.246	1261.75
340.474	1261.75
340.702	1267.75
340.93	1258.75
341.158	1242.75
341.386	1252.75
341.614	1230.75
341.842	1193.75
342.07	1168.75
342.298	1175.75
342.526	1137.75
342.754	1098.75
342.981	1165.75
343.209	1115.75
343.437	1148.75
343.665	1154.75
343.893	1192.75
344.12	1162.75
344.348	1184.75
344.576	1149.75
344.804	1145.75
345.031	1088.75
345.259	1094.75
345.487	1060.75
345.714	1039.75
345.942	1024.75
346.17	1080.75
346.397	1057.75
346.625	1034.75
346.853	1062.75
347.08	1057.75
347.308	1038.75
347.535	1057.75
347.763	1053.75
347.99	1050.75
348.218	1031.75
348.445	1046.75
348.673	1006.75
348.9	1051.75
349.128	1064.75
349.355	1024.75
349.583	1045.75
349.81	1020.75
350.037	1002.75
350.265	1021.75
350.492	1021.75
350.72	1015.75
350.947	1000.75
351.174	1000.75
351.402	1032.75
351.629	1015.75
351.856	1002.75
352.083	1010.75
352.311	999.75
352.538	1003.75
352.765	999.75
352.992	974.75
353.22	981.75
353.447	1022.75
353.674	993.75
353.901	1011.75
354.128	1003.75
354.355	1043.75
354.583	1035.75
354.81	1020.75
355.037	1017.75
355.264	1039.75
355.491	1041.75
355.718	1029.75
355.945	1027.75
356.172	1045.75
356.399	1035.75
356.626	1012.75
356.853	1044.75
357.08	1053.75
357.307	1059.75
357.534	1076.75
357.761	1105.75
357.988	1063.75
358.215	1080.75
358.441	1077.75
358.668	1042.75
358.895	1076.75
359.122	1085.75
359.349	1079.75
359.576	1083.75
359.802	1081.75
360.029	1100.75
360.256	1088.75
360.483	1079.75
360.709	1092.75
360.936	1099.75
361.163	1077.75
361.39	1084.75
361.616	1049.75
361.843	1076.75
362.07	1068.75
362.296	1067.75
362.523	1059.75
362.749	1086.75
362.976	1080.75
363.203	1076.75
363.429	1063.75
363.656	1081.75
363.882	1075.75
364.109	1091.75
364.335	1088.75
364.562	1065.75
364.788	1047.75
365.015	1123.75
365.241	1108.75
365.468	1156.75
365.694	1188.75
365.92	1138.75
366.147	1097.75
366.373	1098.75
366.599	1098.75
366.826	1091.75
367.052	1131.75
367.278	1115.75
367.505	1112.75
367.731	1107.75
367.957	1094.75
368.184	1129.75
368.41	1121.75
368.636	1120.75
368.862	1128.75
369.089	1147.75
369.315	1131.75
369.541	1116.75
369.767	1111.75
369.993	1101.75
370.219	1134.75
370.445	1116.75
370.672	1114.75
370.898	1136.75
371.124	1150.75
371.35	1156.75
371.576	1154.75
371.802	1148.75
372.028	1158.75
372.254	1160.75
372.48	1183.75
372.706	1153.75
372.932	1198.75
373.158	1197.75
373.384	1206.75
373.61	1154.75
373.835	1150.75
374.061	1181.75
374.287	1189.75
374.513	1216.75
374.739	1231.75
374.965	1239.75
375.191	1195.75
375.416	1229.75
375.642	1206.75
375.868	1196.75
376.094	1202.75
376.319	1184.75
376.545	1202.75
376.771	1170.75
376.997	1175.75
377.222	1171.75
377.448	1153.75
377.674	1140.75
377.899	1178.75
378.125	1156.75
378.35	1140.75
378.576	1140.75
378.802	1173.75
379.027	1198.75
379.253	1189.75
379.478	1238.75
379.704	1449.75
379.929	1948.75
380.155	2855.75
380.38	2994.75
380.606	1982.75
380.831	1466.75
381.057	1310.75
381.282	1244.75
381.507	1210.75
381.733	1158.75
381.958	1160.75
382.184	1164.75
382.409	1142.75
382.634	1159.75
382.86	1163.75
383.085	1145.75
383.31	1160.75
383.535	1146.75
383.761	1161.75
383.986	1170.75
384.211	1169.75
384.436	1197.75
384.662	1187.75
384.887	1190.75
385.112	1192.75
385.337	1200.75
385.562	1195.75
385.787	1189.75
386.013	1212.75
386.238	1228.75
386.463	1188.75
386.688	1217.75
386.913	1191.75
387.138	1200.75
387.363	1168.75
387.588	1154.75
387.813	1158.75
388.038	1179.75
388.263	1197.75
388.488	1156.75
388.713	1181.75
388.938	1188.75
389.163	1172.75
389.387	1188.75
389.612	1136.75
389.837	1204.75
390.062	1191.75
390.287	1186.75
390.512	1189.75
390.736	1188.75
390.961	1235.75
391.186	1217.75
391.411	1248.75
391.636	1258.75
391.86	1233.75
392.085	1264.75
392.31	1238.75
392.534	1229.75
392.759	1218.75
392.984	1234.75
393.208	1265.75
393.433	1314.75
393.658	1280.75
393.882	1204.75
394.107	1192.75
394.331	1169.75
394.556	1202.75
394.78	1208.75
395.005	1260.75
395.229	1223.75
395.454	1226.75
395.678	1248.75
395.903	1242.75
396.127	1228.75
396.352	1220.75
396.576	1230.75
396.801	1243.75
397.025	1287.75
397.249	1292.75
397.474	1284.75
397.698	1291.75
397.922	1248.75
398.147	1284.75
398.371	1280.75
398.595	1314.75
398.82	1349.75
399.044	1345.75
399.268	1432.75
399.492	1576.75
399.717	1572.75
399.941	1535.75
400.165	1543.75
400.389	1486.75
400.613	1403.75
400.837	1337.75
401.062	1348.75
401.286	1333.75
401.51	1333.75
401.734	1293.75
401.958	1333.75
402.182	1315.75
402.406	1285.75
402.63	1304.75
402.854	1335.75
403.078	1297.75
403.302	1348.75
403.526	1376.75
403.75	1370.75
403.974	1369.75
404.198	1322.75
404.422	1368.75
404.645	1370.75
404.869	1351.75
405.093	1327.75
405.317	1394.75
405.541	1388.75
405.765	1407.75
405.988	1398.75
406.212	1410.75
406.436	1380.75
406.66	1428.75
406.883	1401.75
407.107	1441.75
407.331	1481.75
407.555	1489.75
407.778	1462.75
408.002	1428.75
408.226	1440.75
408.449	1453.75
408.673	1373.75
408.896	1384.75
409.12	1392.75
409.344	1384.75
409.567	1348.75
409.791	1377.75
410.014	1362.75
410.238	1360.75
410.461	1407.75
410.685	1340.75
410.908	1346.75
411.132	1327.75
411.355	1329.75
411.578	1303.75
411.802	1313.75
412.025	1301.75
412.249	1297.75
412.472	1315.75
412.695	1307.75
412.919	1307.75
413.142	1292.75
413.365	1297.75
413.589	1291.75
413.812	1289.75
414.035	1256.75
414.258	1256.75
414.482	1298.75
414.705	1316.75
414.928	1293.75
415.151	1249.75
415.374	1259.75
415.597	1277.75
415.821	1248.75
416.044	1271.75
416.267	1239.75
416.49	1221.75
416.713	1253.75
416.936	1257.75
417.159	1247.75
417.382	1227.75
417.605	1204.75
417.828	1227.75
418.051	1272.75
418.274	1229.75
418.497	1250.75
418.72	1294.75
418.943	1242.75
419.166	1300.75
419.389	1367.75
419.611	1323.75
419.834	1305.75
420.057	1323.75
420.28	1264.75
420.503	1230.75
420.726	1239.75
420.948	1243.75
421.171	1227.75
421.394	1240.75
421.617	1274.75
421.839	1281.75
422.062	1255.75
422.285	1219.75
422.507	1282.75
422.73	1261.75
422.953	1294.75
423.175	1292.75
423.398	1258.75
423.621	1253.75
423.843	1256.75
424.066	1266.75
424.288	1272.75
424.511	1271.75
424.733	1240.75
424.956	1257.75
425.178	1243.75
425.401	1239.75
425.623	1213.75
425.846	1205.75
426.068	1204.75
426.291	1208.75
426.513	1222.75
426.735	1188.75
426.958	1204.75
427.18	1185.75
427.402	1167.75
427.625	1186.75
427.847	1126.75
428.069	1147.75
428.292	1186.75
428.514	1147.75
428.736	1148.75
428.958	1181.75
429.181	1129.75
429.403	1124.75
429.625	1144.75
429.847	1162.75
430.069	1174.75
430.292	1215.75
430.514	1226.75
430.736	1244.75
430.958	1178.75
431.18	1115.75
431.402	1155.75
431.624	1138.75
431.846	1137.75
432.068	1100.75
432.29	1156.75
432.512	1104.75
432.734	1156.75
432.956	1125.75
433.178	1133.75
433.4	1170.75
433.622	1167.75
433.844	1173.75
434.066	1144.75
434.287	1154.75
434.509	1114.75
434.731	1154.75
434.953	1177.75
435.175	1189.75
435.397	1198.75
435.618	1182.75
435.84	1154.75
436.062	1141.75
436.284	1150.75
436.505	1140.75
436.727	1165.75
436.949	1137.75
437.17	1166.75
437.392	1121.75
437.614	1118.75
437.835	1083.75
438.057	1105.75
438.278	1099.75
438.5	1095.75
438.721	1100.75
438.943	1141.75
439.165	1197.75
439.386	1195.75
439.608	1180.75
439.829	1174.75
440.05	1210.75
440.272	1234.75
440.493	1206.75
440.715	1188.75
440.936	1182.75
441.158	1174.75
441.379	1227.75
441.6	1263.75
441.822	1305.75
442.043	1316.75
442.264	1302.75
442.486	1281.75
442.707	1223.75
442.928	1200.75
443.149	1237.75
443.371	1233.75
443.592	1218.75
443.813	1261.75
444.034	1248.75
444.255	1266.75
444.476	1274.75
444.698	1317.75
444.919	1322.75
445.14	1419.75
445.361	1315.75
445.582	1280.75
445.803	1230.75
446.024	1260.75
446.245	1228.75
446.466	1239.75
446.687	1193.75
446.908	1230.75
447.129	1185.75
447.35	1148.75
447.571	1172.75
447.792	1150.75
448.013	1143.75
448.234	1134.75
448.455	1128.75
448.675	1169.75
448.896	1176.75
449.117	1195.75
449.338	1241.75
449.559	1315.75
449.779	1206.75
450	1161.75
450.221	1092.75
450.442	1097.75
450.662	1108.75
450.883	1100.75
451.104	1085.75
451.324	1118.75
451.545	1119.75
451.766	1119.75
451.986	1111.75
452.207	1145.75
452.428	1385.75
452.648	1905.75
452.869	1640.75
453.089	1264.75
453.31	1223.75
453.53	1194.75
453.751	1236.75
453.971	1278.75
454.192	1270.75
454.412	1124.75
454.633	1097.75
454.853	1081.75
455.073	1046.75
455.294	1092.75
455.514	1047.75
455.734	1056.75
455.955	1043.75
456.175	1060.75
456.395	1061.75
456.616	1036.75
456.836	1045.75
457.056	1046.75
457.276	1049.75
457.497	1097.75
457.717	1122.75
457.937	1121.75
458.157	1090.75
458.377	1102.75
458.598	1121.75
458.818	1136.75
459.038	1137.75
459.258	1134.75
459.478	1148.75
459.698	1170.75
459.918	1178.75
460.138	1196.75
460.358	1218.75
460.578	1227.75
460.798	1240.75
461.018	1245.75
461.238	1243.75
461.458	1245.75
461.678	1235.75
461.898	1281.75
462.118	1306.75
462.338	1317.75
462.558	1310.75
462.777	1346.75
462.997	1392.75
463.217	1450.75
463.437	1470.75
463.657	1480.75
463.876	1428.75
464.096	1409.75
464.316	1364.75
464.536	1337.75
464.755	1313.75
464.975	1278.75
465.195	1273.75
465.414	1233.75
465.634	1197.75
465.854	1182.75
466.073	1143.75
466.293	1158.75
466.512	1132.75
466.732	1162.75
466.951	1202.75
467.171	1274.75
467.391	1237.75
467.61	1157.75
467.829	1125.75
468.049	1144.75
468.268	1117.75
468.488	1134.75
468.707	1112.75
468.927	1139.75
469.146	1115.75
469.365	1122.75
469.585	1110.75
469.804	1163.75
470.023	1178.75
470.243	1208.75
470.462	1222.75
470.681	1285.75
470.901	1350.75
471.12	1530.75
471.339	1561.75
471.558	1309.75
471.777	1236.75
471.997	1192.75
472.216	1149.75
472.435	1142.75
472.654	1109.75
472.873	1102.75
473.092	1148.75
473.311	1120.75
473.53	1152.75
473.749	1172.75
473.968	1188.75
474.187	1150.75
474.406	1138.75
474.625	1167.75
474.844	1118.75
475.063	1132.75
475.282	1157.75
475.501	1133.75
475.72	1194.75
475.939	1178.75
476.158	1167.75
476.377	1188.75
476.596	1197.75
476.814	1212.75
477.033	1177.75
477.252	1188.75
477.471	1200.75
477.69	1237.75
477.908	1280.75
478.127	1265.75
478.346	1289.75
478.564	1334.75
478.783	1312.75
479.002	1333.75
479.22	1339.75
479.439	1333.75
479.658	1351.75
479.876	1335.75
480.095	1382.75
480.313	1374.75
480.532	1396.75
480.751	1384.75
480.969	1340.75
481.188	1313.75
481.406	1301.75
481.624	1326.75
481.843	1321.75
482.061	1354.75
482.28	1374.75
482.498	1339.75
482.717	1311.75
482.935	1332.75
483.153	1403.75
483.372	1398.75
483.59	1395.75
483.808	1434.75
484.027	1434.75
484.245	1500.75
484.463	1671.75
484.681	1766.75
484.9	1685.75
485.118	1540.75
485.336	1547.75
485.554	1549.75
485.772	1656.75
485.99	1848.75
486.209	1987.75
486.427	1668.75
486.645	1531.75
486.863	1499.75
487.081	1476.75
487.299	1435.75
487.517	1414.75
487.735	1464.75
487.953	1472.75
488.171	1462.75
488.389	1421.75
488.607	1412.75
488.825	1421.75
489.043	1394.75
489.261	1369.75
489.479	1378.75
489.696	1402.75
489.914	1410.75
490.132	1433.75
490.35	1440.75
490.568	1435.75
490.786	1437.75
491.003	1457.75
491.221	1473.75
491.439	1505.75
491.657	1497.75
491.874	1496.75
492.092	1546.75
492.31	1558.75
492.527	1539.75
492.745	1480.75
492.963	1486.75
493.18	1505.75
493.398	1500.75
493.615	1483.75
493.833	1508.75
494.05	1517.75
494.268	1499.75
494.485	1494.75
494.703	1483.75
494.92	1534.75
495.138	1475.75
495.355	1467.75
495.573	1508.75
495.79	1493.75
496.008	1474.75
496.225	1470.75
496.442	1544.75
496.66	1596.75
496.877	1656.75
497.094	1623.75
497.312	1564.75
497.529	1590.75
497.746	1627.75
497.963	1656.75
498.181	1660.75
498.398	1659.75
498.615	1724.75
498.832	1804.75
499.049	1853.75
499.267	2009.75
499.484	2099.75
499.701	2186.75
499.918	2246.75
500.135	2396.75
500.352	2468.75
500.569	2558.75
500.786	2492.75
501.003	2435.75
501.22	2329.75
501.437	2155.75
501.654	2070.75
501.871	1966.75
502.088	1868.75
502.305	1808.75
502.522	1771.75
502.739	1761.75
502.956	1641.75
503.172	1614.75
503.389	1623.75
503.606	1578.75
503.823	1555.75
504.04	1562.75
504.256	1539.75
504.473	1534.75
504.69	1556.75
504.907	1485.75
505.123	1478.75
505.34	1440.75
505.557	1441.75
505.773	1385.75
505.99	1403.75
506.207	1325.75
506.423	1353.75
506.64	1349.75
506.856	1308.75
507.073	1300.75
507.289	1331.75
507.506	1306.75
507.722	1295.75
507.939	1321.75
508.155	1294.75
508.372	1272.75
508.588	1236.75
508.805	1252.75
509.021	1280.75
509.238	1280.75
509.454	1353.75
509.67	1382.75
509.887	1335.75
510.103	1282.75
510.319	1253.75
510.536	1256.75
510.752	1270.75
510.968	1234.75
511.184	1221.75
511.401	1194.75
511.617	1227.75
511.833	1222.75
512.049	1218.75
512.265	1197.75
512.481	1229.75
512.698	1185.75
512.914	1204.75
513.13	1172.75
513.346	1187.75
513.562	1222.75
513.778	1241.75
513.994	1222.75
514.21	1236.75
514.426	1344.75
514.642	1341.75
514.858	1291.75
515.074	1278.75
515.29	1268.75
515.506	1226.75
515.721	1265.75
515.937	1291.75
516.153	1286.75
516.369	1283.75
516.585	1284.75
516.801	1315.75
517.016	1335.75
517.232	1367.75
517.448	1371.75
517.664	1398.75
517.879	1357.75
518.095	1378.75
518.311	1375.75
518.527	1340.75
518.742	1327.75
518.958	1317.75
519.173	1339.75
519.389	1330.75
519.605	1294.75
519.82	1242.75
520.036	1258.75
520.251	1207.75
520.467	1202.75
520.682	1218.75
520.898	1194.75
521.113	1222.75
521.329	1180.75
521.544	1165.75
521.76	1195.75
521.975	1183.75
522.19	1205.75
522.406	1222.75
522.621	1192.75
522.836	1182.75
523.052	1202.75
523.267	1193.75
523.482	1192.75
523.698	1165.75
523.913	1132.75
524.128	1156.75
524.343	1184.75
524.559	1176.75
524.774	1195.75
524.989	1160.75
525.204	1193.75
525.419	1189.75
525.634	1167.75
525.849	1210.75
526.064	1175.75
526.28	1164.75
526.495	1178.75
526.71	1158.75
526.925	1176.75
527.14	1138.75
527.355	1140.75
527.57	1172.75
527.785	1153.75
527.999	1158.75
528.214	1181.75
528.429	1171.75
528.644	1214.75
528.859	1241.75
529.074	1248.75
529.289	1284.75
529.503	1293.75
529.718	1248.75
529.933	1236.75
530.148	1232.75
530.363	1199.75
530.577	1190.75
530.792	1229.75
531.007	1280.75
531.221	1239.75
531.436	1252.75
531.651	1242.75
531.865	1229.75
532.08	1290.75
532.295	1328.75
532.509	1363.75
532.724	1373.75
532.938	1358.75
533.153	1441.75
533.367	1472.75
533.582	1520.75
533.796	1488.75
534.011	1460.75
534.225	1413.75
534.44	1387.75
534.654	1379.75
534.868	1363.75
535.083	1340.75
535.297	1318.75
535.511	1315.75
535.726	1301.75
535.94	1307.75
536.154	1300.75
536.369	1236.75
536.583	1211.75
536.797	1222.75
537.011	1213.75
537.225	1210.75
537.44	1214.75
537.654	1200.75
537.868	1158.75
538.082	1167.75
538.296	1140.75
538.51	1174.75
538.724	1180.75
538.938	1148.75
539.153	1152.75
539.367	1156.75
539.581	1148.75
539.795	1109.75
540.009	1133.75
540.222	1124.75
540.436	1152.75
540.65	1145.75
540.864	1140.75
541.078	1165.75
541.292	1211.75
541.506	1440.75
541.72	1480.75
541.934	1301.75
542.147	1259.75
542.361	1187.75
542.575	1174.75
542.789	1148.75
543.002	1119.75
543.216	1125.75
543.43	1089.75
543.644	1093.75
543.857	1092.75
544.071	1105.75
544.285	1140.75
544.498	1143.75
544.712	1138.75
544.925	1156.75
545.139	1154.75
545.352	1160.75
545.566	1155.75
545.779	1121.75
545.993	1117.75
546.206	1121.75
546.42	1143.75
546.633	1156.75
546.847	1126.75
547.06	1147.75
547.274	1137.75
547.487	1145.75
547.7	1149.75
547.914	1157.75
548.127	1135.75
548.34	1170.75
548.554	1130.75
548.767	1144.75
548.98	1145.75
549.193	1130.75
549.407	1140.75
549.62	1146.75
549.833	1116.75
550.046	1146.75
550.259	1122.75
550.473	1108.75
550.686	1142.75
550.899	1117.75
551.112	1115.75
551.325	1132.75
551.538	1136.75
551.751	1091.75
551.964	1117.75
552.177	1133.75
552.39	1148.75
552.603	1164.75
552.816	1214.75
553.029	1209.75
553.242	1214.75
553.455	1236.75
553.667	1259.75
553.88	1265.75
554.093	1248.75
554.306	1233.75
554.519	1288.75
554.732	1282.75
554.944	1289.75
555.157	1308.75
555.37	1308.75
555.583	1373.75
555.795	1399.75
556.008	1451.75
556.221	1571.75
556.433	1617.75
556.646	1651.75
556.859	1614.75
557.071	1557.75
557.284	1543.75
557.496	1523.75
557.709	1524.75
557.921	1488.75
558.134	1506.75
558.346	1497.75
558.559	1553.75
558.771	1621.75
558.984	1701.75
559.196	1742.75
559.409	1714.75
559.621	1668.75
559.833	1565.75
560.046	1492.75
560.258	1436.75
560.47	1415.75
560.683	1352.75
560.895	1306.75
561.107	1294.75
561.32	1229.75
561.532	1252.75
561.744	1185.75
561.956	1180.75
562.168	1168.75
562.381	1176.75
562.593	1124.75
562.805	1150.75
563.017	1149.75
563.229	1189.75
563.441	1257.75
563.653	1159.75
563.865	1058.75
564.077	1075.75
564.289	1048.75
564.501	1034.75
564.713	1035.75
564.925	1022.75
565.137	1034.75
565.349	1023.75
565.561	1049.75
565.773	1062.75
565.985	1072.75
566.197	1054.75
566.408	1096.75
566.62	1108.75
566.832	1157.75
567.044	1124.75
567.255	1144.75
567.467	1158.75
567.679	1180.75
567.891	1272.75
568.102	1330.75
568.314	1581.75
568.526	1314.75
568.737	1147.75
568.949	1080.75
569.161	1032.75
569.372	974.75
569.584	962.75
569.795	957.75
570.007	929.75
570.218	936.75
570.43	973.75
570.641	884.75
570.853	878.75
571.064	873.75
571.276	883.75
571.487	868.75
571.698	843.75
571.91	804.75
572.121	842.75
572.333	833.75
572.544	810.75
572.755	869.75
572.966	993.75
573.178	919.75
573.389	821.75
573.6	804.75
573.811	766.75
574.023	754.75
574.234	741.75
574.445	745.75
574.656	762.75
574.867	789.75
575.078	752.75
575.289	753.75
575.501	772.75
575.712	773.75
575.923	775.75
576.134	751.75
576.345	782.75
576.556	795.75
576.767	757.75
576.978	772.75
577.188	768.75
577.399	766.75
577.61	777.75
577.821	770.75
578.032	763.75
578.243	797.75
578.454	794.75
578.665	806.75
578.875	849.75
579.086	833.75
579.297	857.75
579.508	898.75
579.718	952.75
579.929	1048.75
580.14	1150.75
580.35	1212.75
580.561	1149.75
580.772	1058.75
580.982	1022.75
581.193	963.75
581.403	933.75
581.614	884.75
581.825	882.75
582.035	822.75
582.246	817.75
582.456	792.75
582.667	786.75
582.877	764.75
583.087	757.75
583.298	733.75
583.508	709.75
583.719	696.75
583.929	696.75
584.139	658.75
584.35	682.75
584.56	664.75
584.77	660.75
584.981	649.75
585.191	642.75
585.401	647.75
585.611	622.75
585.821	616.75
586.032	610.75
586.242	600.75
586.452	632.75
586.662	614.75
586.872	596.75
587.082	598.75
587.292	582.75
587.502	587.75
587.713	590.75
587.923	610.75
588.133	567.75
588.343	566.75
588.553	564.75
588.762	572.75
588.972	573.75
589.182	557.75
589.392	562.75
589.602	565.75
589.812	552.75
590.022	564.75
590.232	528.75
590.441	545.75
590.651	555.75
590.861	554.75
591.071	533.75
591.281	550.75
591.49	555.75
591.7	549.75
591.91	542.75
592.119	547.75
592.329	551.75
592.539	577.75
592.748	574.75
592.958	565.75
593.167	562.75
593.377	592.75
593.587	578.75
593.796	585.75
594.006	585.75
594.215	563.75
594.424	571.75
594.634	562.75
594.843	558.75
595.053	541.75
595.262	521.75
595.472	549.75
595.681	511.75
595.89	509.75
596.1	515.75
596.309	498.75
596.518	474.75
596.727	489.75
596.937	484.75
597.146	496.75
597.355	513.75
597.564	499.75
597.774	470.75
597.983	460.75
598.192	468.75
598.401	473.75
598.61	452.75
598.819	455.75
599.028	468.75
599.237	459.75
599.446	464.75
599.655	444.75
599.864	458.75
600.073	445.75
600.282	477.75
600.491	424.75
600.7	457.75
600.909	439.75
601.118	451.75
601.327	458.75
601.536	474.75
601.745	440.75
601.953	496.75
602.162	570.75
602.371	489.75
602.58	463.75
602.789	453.75
602.997	456.75
603.206	473.75
603.415	448.75
603.623	455.75
603.832	452.75
604.041	456.75
604.249	433.75
604.458	416.75
604.666	406.75
604.875	416.75
605.084	429.75
605.292	428.75
605.501	451.75
605.709	466.75
605.918	426.75
606.126	425.75
606.334	453.75
606.543	444.75
606.751	479.75
606.96	531.75
607.168	556.75
607.376	504.75
607.585	461.75
607.793	456.75
608.001	453.75
608.21	432.75
608.418	436.75
608.626	429.75
608.834	430.75
609.043	433.75
609.251	430.75
609.459	424.75
609.667	408.75
609.875	398.75
610.083	426.75
610.291	409.75
610.499	402.75
610.707	414.75
610.916	427.75
611.124	394.75
611.332	422.75
611.54	423.75
611.748	402.75
611.955	394.75
612.163	411.75
612.371	416.75
612.579	414.75
612.787	420.75
612.995	407.75
613.203	413.75
613.411	408.75
613.618	388.75
613.826	384.75
614.034	400.75
614.242	392.75
614.449	379.75
614.657	388.75
614.865	409.75
615.072	394.75
615.28	407.75
615.488	392.75
615.695	389.75
615.903	406.75
616.111	393.75
616.318	413.75
616.526	416.75
616.733	403.75
616.941	396.75
617.148	404.75
617.356	380.75
617.563	393.75
617.771	406.75
617.978	385.75
618.185	391.75
618.393	379.75
618.6	387.75
618.807	376.75
619.015	381.75
619.222	388.75
619.429	372.75
619.637	368.75
619.844	363.75
620.051	357.75
620.258	361.75
620.466	352.75
620.673	345.75
620.88	359.75
621.087	359.75
621.294	368.75
621.501	351.75
621.708	355.75
621.915	360.75
622.122	357.75
622.329	366.75
622.536	352.75
622.743	346.75
622.95	374.75
623.157	333.75
623.364	375.75
623.571	354.75
623.778	353.75
623.985	340.75
624.192	339.75
624.399	350.75
624.606	338.75
624.812	341.75
625.019	345.75
625.226	336.75
625.433	329.75
625.639	321.75
625.846	312.75
626.053	341.75
626.259	334.75
626.466	331.75
626.673	325.75
626.879	319.75
627.086	318.75
627.293	322.75
627.499	331.75
627.706	340.75
627.912	331.75
628.119	333.75
628.325	319.75
628.532	328.75
628.738	316.75
628.945	321.75
629.151	310.75
629.357	328.75
629.564	329.75
629.77	317.75
629.976	316.75
630.183	300.75
630.389	312.75
630.595	311.75
630.802	318.75
631.008	313.75
631.214	299.75
631.42	315.75
631.627	297.75
631.833	288.75
632.039	290.75
632.245	291.75
632.451	306.75
632.657	310.75
632.863	309.75
633.069	321.75
633.275	327.75
633.481	316.75
633.688	322.75
633.893	310.75
634.099	307.75
634.305	296.75
634.511	301.75
634.717	291.75
634.923	299.75
635.129	350.75
635.335	364.75
635.541	338.75
635.747	322.75
635.952	315.75
636.158	285.75
636.364	305.75
636.57	305.75
636.775	318.75
636.981	308.75
637.187	298.75
637.392	304.75
637.598	304.75
637.804	302.75
638.009	301.75
638.215	298.75
638.421	287.75
638.626	299.75
638.832	297.75
639.037	296.75
639.243	295.75
639.448	282.75
639.654	285.75
639.859	317.75
640.065	317.75
640.27	324.75
640.475	304.75
640.681	320.75
640.886	328.75
641.091	317.75
641.297	317.75
641.502	322.75
641.707	316.75
641.913	314.75
642.118	336.75
642.323	315.75
642.528	335.75
642.733	344.75
642.939	362.75
643.144	372.75
643.349	364.75
643.554	374.75
643.759	392.75
643.964	388.75
644.169	391.75
644.374	437.75
644.579	456.75
644.784	518.75
644.989	561.75
645.194	617.75
645.399	692.75
645.604	716.75
645.809	577.75
646.014	490.75
646.219	425.75
646.423	380.75
646.628	380.75
646.833	348.75
647.038	312.75
647.243	308.75
647.447	320.75
647.652	334.75
647.857	322.75
648.062	282.75
648.266	306.75
648.471	305.75
648.676	298.75
648.88	283.75
649.085	290.75
649.289	308.75
649.494	263.75
649.698	285.75
649.903	262.75
650.107	282.75
650.312	259.75
650.516	261.75
650.721	252.75
650.925	251.75
651.13	229.75
651.334	240.75
651.539	247.75
651.743	232.75
651.947	226.75
652.152	227.75
652.356	229.75
652.56	246.75
652.764	276.75
652.969	264.75
653.173	231.75
653.377	226.75
653.581	213.75
653.785	186.75
653.99	202.75
654.194	220.75
654.398	193.75
654.602	206.75
654.806	201.75
655.01	212.75
655.214	193.75
655.418	212.75
655.622	205.75
655.826	216.75
656.03	221.75
656.234	224.75
656.438	219.75
656.642	240.75
656.846	211.75
657.049	200.75
657.253	199.75
657.457	179.75
657.661	188.75
657.865	174.75
658.068	178.75
658.272	158.75
658.476	164.75
658.68	157.75
658.883	136.75
659.087	132.75
659.291	136.75
659.494	127.75
659.698	134.75
659.901	126.75
660.105	123.75
660.309	119.75
660.512	130.75
660.716	112.75
660.919	108.75
661.123	125.75
661.326	107.75
661.53	112.75
661.733	109.75
661.936	108.75
662.14	103.75
662.343	98.75
662.546	93.75
662.75	86.75
662.953	100.75
663.156	96.75
663.36	97.75
663.563	96.75
663.766	77.75
663.969	86.75
664.173	77.75
664.376	93.75
664.579	91.75
664.782	92.75
664.985	78.75
665.188	112.75
665.391	85.75
665.594	86.75
665.797	93.75
666	94.75
666.203	74.75
666.406	93.75
666.609	93.75
666.812	70.75
667.015	93.75
667.218	81.75
667.421	86.75
667.624	74.75
667.827	80.75
668.03	69.75
668.232	81.75
668.435	78.75
668.638	93.75
668.841	92.75
669.043	85.75
669.246	88.75
669.449	91.75
669.651	97.75
669.854	89.75
670.057	85.75
670.259	73.75
670.462	73.75
670.665	91.75
670.867	84.75
671.07	74.75
671.272	85.75
671.475	78.75
671.677	85.75
671.88	68.75
672.082	85.75
672.284	82.75
672.487	91.75
672.689	90.75
672.892	89.75
