Data from SnStandardFlinnAPT0064_LampEnergy10_LIBS07252019.E.O._I.C._HRD10591_15-20-25-494.txt Node
Date: Thu Jul 25 15:20:25 EDT 2019
User: cochatt
Spectrometer: HR+D1059
Trigger mode: 1
Integration Time (sec): 1.000000E-1
Scans to average: 1
Electric dark correction enabled: true
Nonlinearity correction enabled: false
Boxcar width: 0
XAxis mode: Wavelengths
Number of Pixels in Spectrum: 2048
>>>>>Begin Spectral Data<<<<<
223.165	-28.12
223.4	-28.12
223.635	-28.12
223.869	-26.12
224.104	-30.12
224.338	-1.12
224.573	0.88
224.808	-13.12
225.042	-17.12
225.277	1.88
225.511	-1.12
225.746	-0.12
225.98	17.88
226.215	-5.12
226.449	15.88
226.683	13.88
226.918	27.88
227.152	43.88
227.387	35.88
227.621	44.88
227.856	48.88
228.09	49.88
228.324	43.88
228.559	64.88
228.793	119.88
229.027	312.88
229.262	350.88
229.496	306.88
229.73	289.88
229.964	303.88
230.199	299.88
230.433	291.88
230.667	311.88
230.901	321.88
231.136	355.88
231.37	363.88
231.604	403.88
231.838	433.88
232.072	542.88
232.306	571.88
232.541	472.88
232.775	435.88
233.009	419.88
233.243	427.88
233.477	459.88
233.711	525.88
233.945	602.88
234.179	547.88
234.413	462.88
234.647	452.88
234.881	472.88
235.115	501.88
235.349	627.88
235.583	819.88
235.817	1077.88
236.051	1034.88
236.285	685.88
236.519	545.88
236.753	501.88
236.987	512.88
237.221	543.88
237.455	543.88
237.689	480.88
237.922	457.88
238.156	486.88
238.39	479.88
238.624	496.88
238.858	472.88
239.091	501.88
239.325	479.88
239.559	479.88
239.793	495.88
240.027	511.88
240.26	526.88
240.494	565.88
240.728	611.88
240.961	612.88
241.195	661.88
241.429	686.88
241.662	731.88
241.896	795.88
242.13	966.88
242.363	1290.88
242.597	1738.88
242.83	1666.88
243.064	1634.88
243.298	1913.88
243.531	1585.88
243.765	988.88
243.998	790.88
244.232	725.88
244.465	672.88
244.699	634.88
244.932	669.88
245.166	655.88
245.399	664.88
245.633	686.88
245.866	713.88
246.099	652.88
246.333	653.88
246.566	628.88
246.8	644.88
247.033	669.88
247.266	629.88
247.5	665.88
247.733	677.88
247.966	725.88
248.2	775.88
248.433	887.88
248.666	1011.88
248.899	944.88
249.133	870.88
249.366	886.88
249.599	975.88
249.832	1093.88
250.066	1097.88
250.299	883.88
250.532	801.88
250.765	742.88
250.998	728.88
251.231	715.88
251.465	702.88
251.698	740.88
251.931	742.88
252.164	736.88
252.397	750.88
252.63	785.88
252.863	772.88
253.096	785.88
253.329	804.88
253.562	767.88
253.795	776.88
254.028	774.88
254.261	800.88
254.494	867.88
254.727	1049.88
254.96	1268.88
255.193	1264.88
255.426	1001.88
255.659	863.88
255.892	888.88
256.124	851.88
256.357	857.88
256.59	879.88
256.823	973.88
257.056	1135.88
257.289	1371.88
257.521	1564.88
257.754	1211.88
257.987	972.88
258.22	939.88
258.452	905.88
258.685	945.88
258.918	947.88
259.151	980.88
259.383	1077.88
259.616	1199.88
259.849	1296.88
260.081	1100.88
260.314	1007.88
260.547	980.88
260.779	942.88
261.012	947.88
261.244	963.88
261.477	947.88
261.71	971.88
261.942	1005.88
262.175	1040.88
262.407	1010.88
262.64	1057.88
262.872	1060.88
263.105	1130.88
263.337	1195.88
263.57	1267.88
263.802	1312.88
264.035	1277.88
264.267	1345.88
264.499	1389.88
264.732	1416.88
264.964	1421.88
265.197	1397.88
265.429	1390.88
265.661	1465.88
265.894	1546.88
266.126	1748.88
266.358	1982.88
266.591	1923.88
266.823	1624.88
267.055	1431.88
267.287	1349.88
267.52	1297.88
267.752	1287.88
267.984	1264.88
268.216	1236.88
268.448	1249.88
268.681	1239.88
268.913	1230.88
269.145	1245.88
269.377	1230.88
269.609	1268.88
269.841	1293.88
270.073	1341.88
270.306	1656.88
270.538	2253.88
270.77	3410.88
271.002	4240.88
271.234	2881.88
271.466	1906.88
271.698	1533.88
271.93	1413.88
272.162	1325.88
272.394	1308.88
272.626	1246.88
272.858	1248.88
273.09	1216.88
273.322	1212.88
273.553	1188.88
273.785	1212.88
274.017	1182.88
274.249	1205.88
274.481	1205.88
274.713	1160.88
274.945	1200.88
275.176	1231.88
275.408	1234.88
275.64	1216.88
275.872	1192.88
276.104	1270.88
276.335	1240.88
276.567	1272.88
276.799	1274.88
277.031	1286.88
277.262	1356.88
277.494	1375.88
277.726	1576.88
277.957	1848.88
278.189	2158.88
278.421	2063.88
278.652	1787.88
278.884	1704.88
279.115	1519.88
279.347	1459.88
279.579	1378.88
279.81	1399.88
280.042	1387.88
280.273	1405.88
280.505	1425.88
280.736	1501.88
280.968	1585.88
281.199	1779.88
281.431	2053.88
281.662	2132.88
281.894	1813.88
282.125	1630.88
282.356	1647.88
282.588	1637.88
282.819	1718.88
283.051	1816.88
283.282	2072.88
283.513	2572.88
283.745	3820.88
283.976	6003.88
284.207	8663.88
284.439	7782.88
284.67	4695.88
284.901	3839.88
285.132	3917.88
285.364	3686.88
285.595	2801.88
285.826	2468.88
286.057	2939.88
286.288	4060.88
286.52	5536.88
286.751	5213.88
286.982	3205.88
287.213	2343.88
287.444	1987.88
287.675	1912.88
287.906	1799.88
288.138	1761.88
288.369	1681.88
288.6	1686.88
288.831	1684.88
289.062	1649.88
289.293	1702.88
289.524	1698.88
289.755	1685.88
289.986	1686.88
290.217	1696.88
290.448	1727.88
290.679	1700.88
290.91	1760.88
291.141	1878.88
291.371	2033.88
291.602	2177.88
291.833	1916.88
292.064	1796.88
292.295	1688.88
292.526	1631.88
292.757	1619.88
292.987	1612.88
293.218	1560.88
293.449	1606.88
293.68	1576.88
293.91	1577.88
294.141	1554.88
294.372	1543.88
294.603	1567.88
294.833	1557.88
295.064	1548.88
295.295	1543.88
295.525	1573.88
295.756	1564.88
295.987	1562.88
296.217	1557.88
296.448	1606.88
296.679	1558.88
296.909	1597.88
297.14	1583.88
297.37	1597.88
297.601	1622.88
297.831	1602.88
298.062	1625.88
298.292	1627.88
298.523	1680.88
298.753	1707.88
298.984	1689.88
299.214	1727.88
299.445	1760.88
299.675	1776.88
299.905	1840.88
300.136	1914.88
300.366	2174.88
300.597	2843.88
300.827	4040.88
301.057	5558.88
301.288	5539.88
301.518	3479.88
301.748	2646.88
301.979	2388.88
302.209	2322.88
302.439	2323.88
302.669	2485.88
302.9	3008.88
303.13	4351.88
303.36	6573.88
303.59	8825.88
303.82	7582.88
304.051	4338.88
304.281	3107.88
304.511	2601.88
304.741	2312.88
304.971	2228.88
305.201	2114.88
305.431	2036.88
305.661	1967.88
305.891	1929.88
306.121	1872.88
306.352	1879.88
306.582	1829.88
306.812	1822.88
307.042	1845.88
307.272	1830.88
307.502	1832.88
307.731	1842.88
307.961	1806.88
308.191	1799.88
308.421	1800.88
308.651	1804.88
308.881	1804.88
309.111	1793.88
309.341	1800.88
309.571	1835.88
309.8	1819.88
310.03	1858.88
310.26	1867.88
310.49	1831.88
310.72	1873.88
310.949	1865.88
311.179	1883.88
311.409	1894.88
311.639	1923.88
311.868	1939.88
312.098	1903.88
312.328	1956.88
312.557	1974.88
312.787	1945.88
313.017	1943.88
313.246	1980.88
313.476	2003.88
313.706	2079.88
313.935	2230.88
314.165	2359.88
314.394	2469.88
314.624	2357.88
314.853	2172.88
315.083	2165.88
315.312	2155.88
315.542	2186.88
315.771	2183.88
316.001	2209.88
316.23	2332.88
316.46	2440.88
316.689	2718.88
316.919	3308.88
317.148	4817.88
317.377	7483.88
317.607	11163.88
317.836	11578.88
318.065	6891.88
318.295	4421.88
318.524	3493.88
318.753	2997.88
318.983	2759.88
319.212	2562.88
319.441	2504.88
319.67	2465.88
319.9	2432.88
320.129	2397.88
320.358	2341.88
320.587	2310.88
320.816	2304.88
321.046	2327.88
321.275	2338.88
321.504	2372.88
321.733	2445.88
321.962	2472.88
322.191	2472.88
322.42	2488.88
322.649	2480.88
322.878	2508.88
323.108	2449.88
323.337	2482.88
323.566	2536.88
323.795	2607.88
324.024	2647.88
324.253	2700.88
324.482	2821.88
324.71	3002.88
324.939	3231.88
325.168	3191.88
325.397	3463.88
325.626	4060.88
325.855	5859.88
326.084	9238.88
326.313	13340.88
326.542	13977.88
326.77	9461.88
326.999	6088.88
327.228	4967.88
327.457	4774.88
327.686	4857.88
327.914	5185.88
328.143	6173.88
328.372	7317.88
328.6	7881.88
328.829	6975.88
329.058	5874.88
329.287	5076.88
329.515	4662.88
329.744	4285.88
329.972	4056.88
330.201	3827.88
330.43	3750.88
330.658	3598.88
330.887	3481.88
331.115	3488.88
331.344	3476.88
331.572	3444.88
331.801	3480.88
332.03	3514.88
332.258	3585.88
332.486	3763.88
332.715	4361.88
332.943	5398.88
333.172	6775.88
333.4	6748.88
333.629	5003.88
333.857	4507.88
334.085	4593.88
334.314	4678.88
334.542	5145.88
334.771	6010.88
334.999	7457.88
335.227	9462.88
335.455	10651.88
335.684	9543.88
335.912	7649.88
336.14	6407.88
336.369	5658.88
336.597	5229.88
336.825	4748.88
337.053	4486.88
337.281	4227.88
337.51	3976.88
337.738	3878.88
337.966	3663.88
338.194	3517.88
338.422	3469.88
338.65	3348.88
338.878	3248.88
339.106	3213.88
339.334	3164.88
339.562	3118.88
339.79	3081.88
340.018	3021.88
340.246	3017.88
340.474	3003.88
340.702	3025.88
340.93	3059.88
341.158	2987.88
341.386	2966.88
341.614	2959.88
341.842	2824.88
342.07	2819.88
342.298	2751.88
342.526	2752.88
342.754	2694.88
342.981	2665.88
343.209	2645.88
343.437	2760.88
343.665	2745.88
343.893	2784.88
344.12	2791.88
344.348	2787.88
344.576	2680.88
344.804	2700.88
345.031	2582.88
345.259	2568.88
345.487	2529.88
345.714	2555.88
345.942	2524.88
346.17	2569.88
346.397	2511.88
346.625	2510.88
346.853	2527.88
347.08	2489.88
347.308	2506.88
347.535	2496.88
347.763	2537.88
347.99	2464.88
348.218	2479.88
348.445	2463.88
348.673	2439.88
348.9	2448.88
349.128	2407.88
349.355	2367.88
349.583	2396.88
349.81	2357.88
350.037	2405.88
350.265	2385.88
350.492	2428.88
350.72	2456.88
350.947	2384.88
351.174	2390.88
351.402	2396.88
351.629	2357.88
351.856	2411.88
352.083	2340.88
352.311	2384.88
352.538	2336.88
352.765	2329.88
352.992	2327.88
353.22	2353.88
353.447	2338.88
353.674	2340.88
353.901	2334.88
354.128	2364.88
354.355	2355.88
354.583	2374.88
354.81	2376.88
355.037	2403.88
355.264	2408.88
355.491	2403.88
355.718	2401.88
355.945	2428.88
356.172	2477.88
356.399	2456.88
356.626	2448.88
356.853	2479.88
357.08	2480.88
357.307	2510.88
357.534	2541.88
357.761	2548.88
357.988	2597.88
358.215	2561.88
358.441	2525.88
358.668	2490.88
358.895	2502.88
359.122	2534.88
359.349	2517.88
359.576	2491.88
359.802	2519.88
360.029	2512.88
360.256	2517.88
360.483	2543.88
360.709	2522.88
360.936	2504.88
361.163	2561.88
361.39	2551.88
361.616	2480.88
361.843	2510.88
362.07	2587.88
362.296	2576.88
362.523	2542.88
362.749	2532.88
362.976	2506.88
363.203	2515.88
363.429	2477.88
363.656	2505.88
363.882	2522.88
364.109	2493.88
364.335	2515.88
364.562	2492.88
364.788	2497.88
365.015	2556.88
365.241	2633.88
365.468	2793.88
365.694	2924.88
365.92	2842.88
366.147	2600.88
366.373	2530.88
366.599	2621.88
366.826	2542.88
367.052	2544.88
367.278	2579.88
367.505	2597.88
367.731	2599.88
367.957	2553.88
368.184	2623.88
368.41	2644.88
368.636	2657.88
368.862	2619.88
369.089	2632.88
369.315	2576.88
369.541	2578.88
369.767	2611.88
369.993	2632.88
370.219	2561.88
370.445	2612.88
370.672	2660.88
370.898	2629.88
371.124	2671.88
371.35	2685.88
371.576	2673.88
371.802	2695.88
372.028	2769.88
372.254	2712.88
372.48	2732.88
372.706	2758.88
372.932	2791.88
373.158	2773.88
373.384	2763.88
373.61	2743.88
373.835	2774.88
374.061	2777.88
374.287	2774.88
374.513	2821.88
374.739	2833.88
374.965	2875.88
375.191	2886.88
375.416	2870.88
375.642	2818.88
375.868	2845.88
376.094	2778.88
376.319	2723.88
376.545	2767.88
376.771	2746.88
376.997	2707.88
377.222	2691.88
377.448	2669.88
377.674	2704.88
377.899	2642.88
378.125	2722.88
378.35	2743.88
378.576	2691.88
378.802	2779.88
379.027	2753.88
379.253	2852.88
379.478	3045.88
379.704	3586.88
379.929	5295.88
380.155	8253.88
380.38	9000.88
380.606	5425.88
380.831	3755.88
381.057	3235.88
381.282	2933.88
381.507	2862.88
381.733	2778.88
381.958	2746.88
382.184	2745.88
382.409	2671.88
382.634	2656.88
382.86	2620.88
383.085	2652.88
383.31	2671.88
383.535	2685.88
383.761	2695.88
383.986	2667.88
384.211	2713.88
384.436	2761.88
384.662	2769.88
384.887	2795.88
385.112	2749.88
385.337	2788.88
385.562	2717.88
385.787	2732.88
386.013	2711.88
386.238	2737.88
386.463	2770.88
386.688	2802.88
386.913	2743.88
387.138	2744.88
387.363	2749.88
387.588	2712.88
387.813	2694.88
388.038	2721.88
388.263	2741.88
388.488	2727.88
388.713	2669.88
388.938	2747.88
389.163	2711.88
389.387	2777.88
389.612	2723.88
389.837	2767.88
390.062	2719.88
390.287	2752.88
390.512	2773.88
390.736	2791.88
390.961	2816.88
391.186	2813.88
391.411	2857.88
391.636	2886.88
391.86	2887.88
392.085	2882.88
392.31	2825.88
392.534	2832.88
392.759	2856.88
392.984	2807.88
393.208	2811.88
393.433	2845.88
393.658	2761.88
393.882	2756.88
394.107	2829.88
394.331	2786.88
394.556	2745.88
394.78	2783.88
395.005	2850.88
395.229	2834.88
395.454	2868.88
395.678	2900.88
395.903	2871.88
396.127	2834.88
396.352	2814.88
396.576	2797.88
396.801	2833.88
397.025	2890.88
397.249	2908.88
397.474	2871.88
397.698	2879.88
397.922	2950.88
398.147	2864.88
398.371	2939.88
398.595	2952.88
398.82	3074.88
399.044	3194.88
399.268	3269.88
399.492	3541.88
399.717	3615.88
399.941	3635.88
400.165	3510.88
400.389	3332.88
400.613	3259.88
400.837	3138.88
401.062	3085.88
401.286	3052.88
401.51	2982.88
401.734	2967.88
401.958	3054.88
402.182	3037.88
402.406	2976.88
402.63	3025.88
402.854	3058.88
403.078	3048.88
403.302	3097.88
403.526	3115.88
403.75	3166.88
403.974	3107.88
404.198	3077.88
404.422	3149.88
404.645	3128.88
404.869	3169.88
405.093	3205.88
405.317	3093.88
405.541	3231.88
405.765	3218.88
405.988	3254.88
406.212	3288.88
406.436	3190.88
406.66	3265.88
406.883	3270.88
407.107	3373.88
407.331	3439.88
407.555	3499.88
407.778	3415.88
408.002	3393.88
408.226	3394.88
408.449	3410.88
408.673	3333.88
408.896	3235.88
409.12	3207.88
409.344	3167.88
409.567	3119.88
409.791	3199.88
410.014	3157.88
410.238	3114.88
410.461	3131.88
410.685	3115.88
410.908	3104.88
411.132	3078.88
411.355	3063.88
411.578	3064.88
411.802	3020.88
412.025	3043.88
412.249	3078.88
412.472	3059.88
412.695	2958.88
412.919	2991.88
413.142	3023.88
413.365	2979.88
413.589	2994.88
413.812	3008.88
414.035	2947.88
414.258	2970.88
414.482	3029.88
414.705	3021.88
414.928	2974.88
415.151	2998.88
415.374	2961.88
415.597	2948.88
415.821	2892.88
416.044	2840.88
416.267	2886.88
416.49	2835.88
416.713	2839.88
416.936	2864.88
417.159	2767.88
417.382	2845.88
417.605	2831.88
417.828	2853.88
418.051	2866.88
418.274	2855.88
418.497	2878.88
418.72	2935.88
418.943	2875.88
419.166	3054.88
419.389	3157.88
419.611	3128.88
419.834	3062.88
420.057	2992.88
420.28	2898.88
420.503	2898.88
420.726	2849.88
420.948	2843.88
421.171	2931.88
421.394	2864.88
421.617	2847.88
421.839	2867.88
422.062	2880.88
422.285	2825.88
422.507	2960.88
422.73	2889.88
422.953	2907.88
423.175	2944.88
423.398	2898.88
423.621	2902.88
423.843	2920.88
424.066	2880.88
424.288	2851.88
424.511	2879.88
424.733	2868.88
424.956	2853.88
425.178	2827.88
425.401	2805.88
425.623	2829.88
425.846	2733.88
426.068	2720.88
426.291	2709.88
426.513	2753.88
426.735	2675.88
426.958	2761.88
427.18	2651.88
427.402	2717.88
427.625	2736.88
427.847	2640.88
428.069	2705.88
428.292	2707.88
428.514	2645.88
428.736	2615.88
428.958	2658.88
429.181	2593.88
429.403	2609.88
429.625	2623.88
429.847	2639.88
430.069	2720.88
430.292	2781.88
430.514	2896.88
430.736	2846.88
430.958	2675.88
431.18	2589.88
431.402	2618.88
431.624	2609.88
431.846	2611.88
432.068	2605.88
432.29	2619.88
432.512	2578.88
432.734	2631.88
432.956	2586.88
433.178	2679.88
433.4	2609.88
433.622	2695.88
433.844	2647.88
434.066	2624.88
434.287	2634.88
434.509	2695.88
434.731	2674.88
434.953	2708.88
435.175	2709.88
435.397	2747.88
435.618	2683.88
435.84	2632.88
436.062	2567.88
436.284	2657.88
436.505	2628.88
436.727	2629.88
436.949	2597.88
437.17	2611.88
437.392	2563.88
437.614	2558.88
437.835	2536.88
438.057	2514.88
438.278	2521.88
438.5	2534.88
438.721	2626.88
438.943	2689.88
439.165	2705.88
439.386	2779.88
439.608	2694.88
439.829	2741.88
440.05	2860.88
440.272	2920.88
440.493	2745.88
440.715	2697.88
440.936	2692.88
441.158	2746.88
441.379	2734.88
441.6	2904.88
441.822	2924.88
442.043	3057.88
442.264	3240.88
442.486	2953.88
442.707	2847.88
442.928	2794.88
443.149	2836.88
443.371	2805.88
443.592	2784.88
443.813	2817.88
444.034	2809.88
444.255	2935.88
444.476	2912.88
444.698	3027.88
444.919	3003.88
445.14	3014.88
445.361	2905.88
445.582	2900.88
445.803	2778.88
446.024	2782.88
446.245	2822.88
446.466	2815.88
446.687	2718.88
446.908	2764.88
447.129	2634.88
447.35	2651.88
447.571	2640.88
447.792	2605.88
448.013	2598.88
448.234	2564.88
448.455	2534.88
448.675	2617.88
448.896	2633.88
449.117	2767.88
449.338	3063.88
449.559	3213.88
449.779	2813.88
450	2623.88
450.221	2591.88
450.442	2583.88
450.662	2515.88
450.883	2512.88
451.104	2563.88
451.324	2553.88
451.545	2542.88
451.766	2547.88
451.986	2592.88
452.207	2821.88
452.428	3647.88
452.648	5595.88
452.869	4644.88
453.089	3156.88
453.31	2989.88
453.53	2985.88
453.751	3078.88
453.971	3336.88
454.192	3172.88
454.412	2715.88
454.633	2547.88
454.853	2482.88
455.073	2386.88
455.294	2442.88
455.514	2381.88
455.734	2414.88
455.955	2386.88
456.175	2343.88
456.395	2319.88
456.616	2417.88
456.836	2408.88
457.056	2471.88
457.276	2491.88
457.497	2640.88
457.717	2632.88
457.937	2591.88
458.157	2587.88
458.377	2532.88
458.598	2563.88
458.818	2592.88
459.038	2607.88
459.258	2627.88
459.478	2654.88
459.698	2670.88
459.918	2713.88
460.138	2758.88
460.358	2784.88
460.578	2806.88
460.798	2856.88
461.018	2842.88
461.238	2838.88
461.458	2856.88
461.678	2869.88
461.898	2973.88
462.118	3023.88
462.338	3066.88
462.558	3082.88
462.777	3089.88
462.997	3246.88
463.217	3377.88
463.437	3529.88
463.657	3659.88
463.876	3617.88
464.096	3433.88
464.316	3257.88
464.536	3176.88
464.755	3065.88
464.975	2965.88
465.195	2901.88
465.414	2815.88
465.634	2747.88
465.854	2728.88
466.073	2694.88
466.293	2637.88
466.512	2629.88
466.732	2700.88
466.951	2872.88
467.171	3028.88
467.391	2988.88
467.61	2773.88
467.829	2600.88
468.049	2655.88
468.268	2593.88
468.488	2569.88
468.707	2539.88
468.927	2559.88
469.146	2572.88
469.365	2650.88
469.585	2599.88
469.804	2726.88
470.023	2701.88
470.243	2759.88
470.462	2843.88
470.681	3031.88
470.901	3329.88
471.12	3907.88
471.339	3947.88
471.558	3215.88
471.777	2904.88
471.997	2752.88
472.216	2674.88
472.435	2629.88
472.654	2594.88
472.873	2564.88
473.092	2579.88
473.311	2577.88
473.53	2580.88
473.749	2658.88
473.968	2774.88
474.187	2673.88
474.406	2592.88
474.625	2634.88
474.844	2607.88
475.063	2597.88
475.282	2652.88
475.501	2605.88
475.72	2624.88
475.939	2658.88
476.158	2692.88
476.377	2787.88
476.596	2779.88
476.814	2723.88
477.033	2754.88
477.252	2797.88
477.471	2846.88
477.69	2888.88
477.908	2935.88
478.127	2961.88
478.346	2970.88
478.564	2968.88
478.783	2983.88
479.002	3060.88
479.22	3054.88
479.439	3102.88
479.658	3059.88
479.876	3112.88
480.095	3133.88
480.313	3238.88
480.532	3226.88
480.751	3165.88
480.969	3150.88
481.188	3129.88
481.406	3110.88
481.624	3083.88
481.843	3179.88
482.061	3174.88
482.28	3149.88
482.498	3093.88
482.717	3176.88
482.935	3167.88
483.153	3208.88
483.372	3239.88
483.59	3271.88
483.808	3310.88
484.027	3385.88
484.245	3631.88
484.463	4139.88
484.681	4675.88
484.9	4161.88
485.118	3830.88
485.336	3791.88
485.554	3850.88
485.772	4049.88
485.99	4661.88
486.209	5072.88
486.427	4163.88
486.645	3709.88
486.863	3509.88
487.081	3415.88
487.299	3366.88
487.517	3381.88
487.735	3315.88
487.953	3332.88
488.171	3335.88
488.389	3307.88
488.607	3309.88
488.825	3217.88
489.043	3221.88
489.261	3217.88
489.479	3238.88
489.696	3219.88
489.914	3247.88
490.132	3251.88
490.35	3294.88
490.568	3322.88
490.786	3305.88
491.003	3351.88
491.221	3436.88
491.439	3405.88
491.657	3347.88
491.874	3329.88
492.092	3408.88
492.31	3385.88
492.527	3390.88
492.745	3364.88
492.963	3365.88
493.18	3387.88
493.398	3340.88
493.615	3348.88
493.833	3437.88
494.05	3404.88
494.268	3418.88
494.485	3421.88
494.703	3410.88
494.92	3514.88
495.138	3417.88
495.355	3439.88
495.573	3389.88
495.79	3385.88
496.008	3454.88
496.225	3538.88
496.442	3535.88
496.66	3605.88
496.877	3901.88
497.094	3823.88
497.312	3701.88
497.529	3633.88
497.746	3747.88
497.963	3775.88
498.181	3829.88
498.398	3912.88
498.615	4069.88
498.832	4251.88
499.049	4387.88
499.267	4726.88
499.484	5077.88
499.701	5062.88
499.918	5156.88
500.135	5461.88
500.352	5691.88
500.569	5775.88
500.786	5668.88
501.003	5578.88
501.22	5266.88
501.437	5014.88
501.654	4675.88
501.871	4545.88
502.088	4389.88
502.305	4202.88
502.522	4087.88
502.739	3946.88
502.956	3867.88
503.172	3749.88
503.389	3699.88
503.606	3609.88
503.823	3585.88
504.04	3521.88
504.256	3532.88
504.473	3490.88
504.69	3539.88
504.907	3505.88
505.123	3466.88
505.34	3328.88
505.557	3274.88
505.773	3237.88
505.99	3219.88
506.207	3193.88
506.423	3139.88
506.64	3106.88
506.856	3031.88
507.073	3035.88
507.289	3046.88
507.506	2979.88
507.722	2995.88
507.939	3005.88
508.155	2974.88
508.372	2929.88
508.588	2928.88
508.805	2913.88
509.021	2980.88
509.238	2967.88
509.454	3186.88
509.67	3410.88
509.887	3171.88
510.103	2984.88
510.319	2988.88
510.536	2907.88
510.752	2875.88
510.968	2888.88
511.184	2848.88
511.401	2837.88
511.617	2840.88
511.833	2881.88
512.049	2795.88
512.265	2787.88
512.481	2760.88
512.698	2827.88
512.914	2803.88
513.13	2796.88
513.346	2797.88
513.562	2843.88
513.778	2819.88
513.994	2912.88
514.21	2957.88
514.426	3139.88
514.642	3323.88
514.858	3077.88
515.074	2909.88
515.29	2895.88
515.506	2887.88
515.721	2855.88
515.937	2935.88
516.153	2951.88
516.369	2905.88
516.585	3015.88
516.801	3009.88
517.016	3030.88
517.232	3150.88
517.448	3167.88
517.664	3204.88
517.879	3258.88
518.095	3177.88
518.311	3247.88
518.527	3124.88
518.742	3183.88
518.958	3168.88
519.173	3243.88
519.389	3105.88
519.605	2966.88
519.82	2894.88
520.036	2916.88
520.251	2797.88
520.467	2831.88
520.682	2868.88
520.898	2823.88
521.113	2775.88
521.329	2800.88
521.544	2744.88
521.76	2788.88
521.975	2766.88
522.19	2720.88
522.406	2779.88
522.621	2761.88
522.836	2654.88
523.052	2713.88
523.267	2743.88
523.482	2706.88
523.698	2683.88
523.913	2667.88
524.128	2696.88
524.343	2689.88
524.559	2679.88
524.774	2685.88
524.989	2701.88
525.204	2725.88
525.419	2679.88
525.634	2661.88
525.849	2723.88
526.064	2671.88
526.28	2687.88
526.495	2665.88
526.71	2673.88
526.925	2728.88
527.14	2718.88
527.355	2711.88
527.57	2713.88
527.785	2786.88
527.999	2711.88
528.214	2739.88
528.429	2802.88
528.644	2801.88
528.859	2840.88
529.074	2862.88
529.289	2874.88
529.503	2927.88
529.718	2849.88
529.933	2860.88
530.148	2838.88
530.363	2880.88
530.577	2816.88
530.792	2880.88
531.007	2868.88
531.221	2930.88
531.436	2937.88
531.651	3007.88
531.865	2985.88
532.08	3025.88
532.295	3196.88
532.509	3420.88
532.724	3356.88
532.938	3406.88
533.153	3496.88
533.367	3919.88
533.582	4080.88
533.796	4012.88
534.011	3797.88
534.225	3653.88
534.44	3492.88
534.654	3404.88
534.868	3330.88
535.083	3244.88
535.297	3215.88
535.511	3114.88
535.726	3060.88
535.94	3080.88
536.154	2997.88
536.369	2923.88
536.583	2888.88
536.797	2893.88
537.011	2873.88
537.225	2822.88
537.44	2793.88
537.654	2816.88
537.868	2721.88
538.082	2729.88
538.296	2688.88
538.51	2662.88
538.724	2722.88
538.938	2687.88
539.153	2684.88
539.367	2663.88
539.581	2624.88
539.795	2588.88
540.009	2613.88
540.222	2547.88
540.436	2561.88
540.65	2585.88
540.864	2632.88
541.078	2664.88
541.292	2911.88
541.506	3395.88
541.72	3593.88
541.934	3093.88
542.147	2867.88
542.361	2738.88
542.575	2662.88
542.789	2604.88
543.002	2516.88
543.216	2522.88
543.43	2497.88
543.644	2480.88
543.857	2548.88
544.071	2579.88
544.285	2507.88
544.498	2512.88
544.712	2518.88
544.925	2552.88
545.139	2544.88
545.352	2518.88
545.566	2490.88
545.779	2505.88
545.993	2558.88
546.206	2530.88
546.42	2496.88
546.633	2533.88
546.847	2539.88
547.06	2563.88
547.274	2516.88
547.487	2547.88
547.7	2563.88
547.914	2505.88
548.127	2525.88
548.34	2520.88
548.554	2548.88
548.767	2565.88
548.98	2543.88
549.193	2551.88
549.407	2502.88
549.62	2536.88
549.833	2540.88
550.046	2504.88
550.259	2521.88
550.473	2572.88
550.686	2533.88
550.899	2549.88
551.112	2542.88
551.325	2527.88
551.538	2551.88
551.751	2548.88
551.964	2519.88
552.177	2575.88
552.39	2620.88
552.603	2687.88
552.816	2703.88
553.029	2717.88
553.242	2752.88
553.455	2760.88
553.667	2839.88
553.88	2848.88
554.093	2868.88
554.306	2886.88
554.519	2893.88
554.732	2923.88
554.944	3029.88
555.157	3076.88
555.37	3161.88
555.583	3216.88
555.795	3451.88
556.008	3749.88
556.221	4264.88
556.433	4624.88
556.646	4610.88
556.859	4333.88
557.071	4095.88
557.284	3953.88
557.496	3811.88
557.709	3784.88
557.921	3745.88
558.134	3733.88
558.346	3711.88
558.559	3877.88
558.771	4214.88
558.984	4621.88
559.196	4991.88
559.409	4665.88
559.621	4245.88
559.833	3995.88
560.046	3814.88
560.258	3606.88
560.47	3379.88
560.683	3260.88
560.895	3144.88
561.107	3025.88
561.32	2939.88
561.532	2855.88
561.744	2796.88
561.956	2777.88
562.168	2681.88
562.381	2674.88
562.593	2624.88
562.805	2709.88
563.017	2680.88
563.229	2748.88
563.441	3196.88
563.653	2679.88
563.865	2477.88
564.077	2437.88
564.289	2405.88
564.501	2399.88
564.713	2336.88
564.925	2360.88
565.137	2378.88
565.349	2368.88
565.561	2363.88
565.773	2431.88
565.985	2451.88
566.197	2417.88
566.408	2479.88
566.62	2482.88
566.832	2518.88
567.044	2624.88
567.255	2612.88
567.467	2650.88
567.679	2676.88
567.891	2781.88
568.102	3133.88
568.314	3751.88
568.526	3179.88
568.737	2710.88
568.949	2471.88
569.161	2355.88
569.372	2250.88
569.584	2200.88
569.795	2175.88
570.007	2114.88
570.218	2219.88
570.43	2275.88
570.641	2108.88
570.853	1981.88
571.064	1983.88
571.276	1937.88
571.487	1912.88
571.698	1892.88
571.91	1875.88
572.121	1850.88
572.333	1871.88
572.544	1887.88
572.755	2057.88
572.966	2415.88
573.178	2128.88
573.389	1939.88
573.6	1847.88
573.811	1752.88
574.023	1758.88
574.234	1732.88
574.445	1720.88
574.656	1699.88
574.867	1709.88
575.078	1723.88
575.289	1695.88
575.501	1719.88
575.712	1674.88
575.923	1699.88
576.134	1712.88
576.345	1702.88
576.556	1721.88
576.767	1685.88
576.978	1691.88
577.188	1732.88
577.399	1702.88
577.61	1718.88
577.821	1764.88
578.032	1780.88
578.243	1838.88
578.454	1853.88
578.665	1851.88
578.875	1929.88
579.086	1999.88
579.297	2072.88
579.508	2225.88
579.718	2443.88
579.929	2784.88
580.14	3346.88
580.35	3448.88
580.561	3106.88
580.772	2747.88
580.982	2526.88
581.193	2357.88
581.403	2201.88
581.614	2093.88
581.825	2047.88
582.035	1947.88
582.246	1882.88
582.456	1838.88
582.667	1790.88
582.877	1753.88
583.087	1704.88
583.298	1615.88
583.508	1632.88
583.719	1589.88
583.929	1512.88
584.139	1517.88
584.35	1486.88
584.56	1471.88
584.77	1434.88
584.981	1426.88
585.191	1406.88
585.401	1408.88
585.611	1370.88
585.821	1375.88
586.032	1355.88
586.242	1325.88
586.452	1348.88
586.662	1330.88
586.872	1325.88
587.082	1303.88
587.292	1248.88
587.502	1256.88
587.713	1249.88
587.923	1267.88
588.133	1201.88
588.343	1224.88
588.553	1204.88
588.762	1219.88
588.972	1236.88
589.182	1207.88
589.392	1215.88
589.602	1187.88
589.812	1183.88
590.022	1180.88
590.232	1171.88
590.441	1185.88
590.651	1149.88
590.861	1188.88
591.071	1180.88
591.281	1183.88
591.49	1133.88
591.7	1176.88
591.91	1161.88
592.119	1172.88
592.329	1169.88
592.539	1178.88
592.748	1154.88
592.958	1197.88
593.167	1185.88
593.377	1208.88
593.587	1229.88
593.796	1230.88
594.006	1217.88
594.215	1188.88
594.424	1211.88
594.634	1212.88
594.843	1164.88
595.053	1122.88
595.262	1165.88
595.472	1141.88
595.681	1108.88
595.89	1106.88
596.1	1052.88
596.309	1049.88
596.518	1026.88
596.727	1057.88
596.937	1073.88
597.146	1046.88
597.355	1027.88
597.564	1005.88
597.774	966.88
597.983	992.88
598.192	980.88
598.401	1001.88
598.61	975.88
598.819	958.88
599.028	976.88
599.237	955.88
599.446	944.88
599.655	959.88
599.864	949.88
600.073	947.88
600.282	921.88
600.491	955.88
600.7	929.88
600.909	934.88
601.118	923.88
601.327	944.88
601.536	945.88
601.745	960.88
601.953	1073.88
602.162	1219.88
602.371	1072.88
602.58	985.88
602.789	930.88
602.997	927.88
603.206	948.88
603.415	910.88
603.623	894.88
603.832	927.88
604.041	913.88
604.249	896.88
604.458	875.88
604.666	873.88
604.875	862.88
605.084	863.88
605.292	887.88
605.501	872.88
605.709	902.88
605.918	913.88
606.126	863.88
606.334	928.88
606.543	927.88
606.751	980.88
606.96	1125.88
607.168	1271.88
607.376	1069.88
607.585	987.88
607.793	951.88
608.001	889.88
608.21	874.88
608.418	891.88
608.626	872.88
608.834	894.88
609.043	883.88
609.251	866.88
609.459	851.88
609.667	843.88
609.875	827.88
610.083	861.88
610.291	849.88
610.499	793.88
610.707	805.88
610.916	817.88
611.124	794.88
611.332	791.88
611.54	802.88
611.748	813.88
611.955	813.88
612.163	782.88
612.371	821.88
612.579	781.88
612.787	799.88
612.995	797.88
613.203	802.88
613.411	820.88
613.618	787.88
613.826	791.88
614.034	769.88
614.242	769.88
614.449	793.88
614.657	784.88
614.865	768.88
615.072	794.88
615.28	791.88
615.488	790.88
615.695	788.88
615.903	792.88
616.111	767.88
616.318	789.88
616.526	775.88
616.733	775.88
616.941	769.88
617.148	778.88
617.356	783.88
617.563	779.88
617.771	760.88
617.978	769.88
618.185	774.88
618.393	754.88
618.6	766.88
618.807	734.88
619.015	755.88
619.222	733.88
619.429	731.88
619.637	739.88
619.844	718.88
620.051	715.88
620.258	703.88
620.466	713.88
620.673	727.88
620.88	669.88
621.087	687.88
621.294	693.88
621.501	688.88
621.708	687.88
621.915	684.88
622.122	681.88
622.329	675.88
622.536	677.88
622.743	695.88
622.95	693.88
623.157	685.88
623.364	711.88
623.571	671.88
623.778	675.88
623.985	631.88
624.192	662.88
624.399	655.88
624.606	656.88
624.812	635.88
625.019	662.88
625.226	636.88
625.433	638.88
625.639	642.88
625.846	630.88
626.053	630.88
626.259	647.88
626.466	620.88
626.673	613.88
626.879	613.88
627.086	628.88
627.293	640.88
627.499	640.88
627.706	635.88
627.912	644.88
628.119	584.88
628.325	631.88
628.532	618.88
628.738	622.88
628.945	637.88
629.151	603.88
629.357	597.88
629.564	597.88
629.77	591.88
629.976	594.88
630.183	593.88
630.389	595.88
630.595	606.88
630.802	609.88
631.008	614.88
631.214	607.88
631.42	603.88
631.627	604.88
631.833	573.88
632.039	593.88
632.245	609.88
632.451	601.88
632.657	579.88
632.863	582.88
633.069	577.88
633.275	576.88
633.481	581.88
633.688	567.88
633.893	584.88
634.099	574.88
634.305	575.88
634.511	569.88
634.717	571.88
634.923	603.88
635.129	688.88
635.335	796.88
635.541	682.88
635.747	624.88
635.952	615.88
636.158	580.88
636.364	562.88
636.57	596.88
636.775	599.88
636.981	573.88
637.187	568.88
637.392	571.88
637.598	605.88
637.804	607.88
638.009	581.88
638.215	564.88
638.421	582.88
638.626	572.88
638.832	587.88
639.037	584.88
639.243	585.88
639.448	574.88
639.654	569.88
639.859	598.88
640.065	592.88
640.27	607.88
640.475	607.88
640.681	624.88
640.886	635.88
641.091	613.88
641.297	621.88
641.502	630.88
641.707	624.88
641.913	643.88
642.118	679.88
642.323	681.88
642.528	677.88
642.733	675.88
642.939	686.88
643.144	711.88
643.349	754.88
643.554	787.88
643.759	804.88
643.964	854.88
644.169	891.88
644.374	945.88
644.579	1044.88
644.784	1120.88
644.989	1317.88
645.194	1589.88
645.399	2010.88
645.604	2185.88
645.809	1569.88
646.014	1203.88
646.219	957.88
646.423	841.88
646.628	753.88
646.833	704.88
647.038	667.88
647.243	657.88
647.447	625.88
647.652	608.88
647.857	584.88
648.062	582.88
648.266	562.88
648.471	560.88
648.676	553.88
648.88	532.88
649.085	520.88
649.289	498.88
649.494	520.88
649.698	517.88
649.903	496.88
650.107	489.88
650.312	471.88
650.516	464.88
650.721	447.88
650.925	453.88
651.13	467.88
651.334	430.88
651.539	395.88
651.743	425.88
651.947	425.88
652.152	426.88
652.356	442.88
652.56	458.88
652.764	520.88
652.969	447.88
653.173	424.88
653.377	379.88
653.581	391.88
653.785	386.88
653.99	375.88
654.194	353.88
654.398	366.88
654.602	363.88
654.806	355.88
655.01	357.88
655.214	347.88
655.418	348.88
655.622	340.88
655.826	369.88
656.03	363.88
656.234	377.88
656.438	365.88
656.642	363.88
656.846	370.88
657.049	363.88
657.253	336.88
657.457	307.88
657.661	291.88
657.865	293.88
658.068	243.88
658.272	263.88
658.476	229.88
658.68	254.88
658.883	208.88
659.087	208.88
659.291	195.88
659.494	187.88
659.698	180.88
659.901	182.88
660.105	165.88
660.309	152.88
660.512	146.88
660.716	151.88
660.919	160.88
661.123	160.88
661.326	140.88
661.53	125.88
661.733	138.88
661.936	117.88
662.14	127.88
662.343	105.88
662.546	108.88
662.75	110.88
662.953	118.88
663.156	101.88
663.36	98.88
663.563	97.88
663.766	95.88
663.969	93.88
664.173	87.88
664.376	85.88
664.579	103.88
664.782	92.88
664.985	87.88
665.188	83.88
665.391	76.88
665.594	84.88
665.797	89.88
666	85.88
666.203	79.88
666.406	81.88
666.609	78.88
666.812	92.88
667.015	84.88
667.218	97.88
667.421	100.88
667.624	88.88
667.827	89.88
668.03	73.88
668.232	77.88
668.435	77.88
668.638	87.88
668.841	83.88
669.043	67.88
669.246	79.88
669.449	69.88
669.651	80.88
669.854	76.88
670.057	78.88
670.259	76.88
670.462	80.88
670.665	88.88
670.867	75.88
671.07	83.88
671.272	71.88
671.475	73.88
671.677	84.88
671.88	79.88
672.082	86.88
672.284	88.88
672.487	83.88
672.689	62.88
672.892	86.88
