Data from SnStandardFlinnAPT0064_LampEnergy5.5_LIBS07252019.E.O._I.C._HRD10591_15-16-27-492.txt Node
Date: Thu Jul 25 15:16:27 EDT 2019
User: cochatt
Spectrometer: HR+D1059
Trigger mode: 1
Integration Time (sec): 1.000000E-1
Scans to average: 1
Electric dark correction enabled: true
Nonlinearity correction enabled: false
Boxcar width: 0
XAxis mode: Wavelengths
Number of Pixels in Spectrum: 2048
>>>>>Begin Spectral Data<<<<<
223.165	-17.19
223.4	-17.19
223.635	-17.19
223.869	-9.19
224.104	-23.19
224.338	-2.19
224.573	-16.19
224.808	-18.19
225.042	2.81
225.277	-13.19
225.511	8.81
225.746	3.81
225.98	-1.19
226.215	10.81
226.449	11.81
226.683	17.81
226.918	10.81
227.152	33.81
227.387	25.81
227.621	49.81
227.856	44.81
228.09	42.81
228.324	46.81
228.559	49.81
228.793	87.81
229.027	149.81
229.262	166.81
229.496	149.81
229.73	144.81
229.964	165.81
230.199	151.81
230.433	153.81
230.667	163.81
230.901	165.81
231.136	182.81
231.37	195.81
231.604	188.81
231.838	212.81
232.072	213.81
232.306	246.81
232.541	228.81
232.775	203.81
233.009	213.81
233.243	223.81
233.477	218.81
233.711	215.81
233.945	245.81
234.179	230.81
234.413	206.81
234.647	212.81
234.881	213.81
235.115	245.81
235.349	243.81
235.583	320.81
235.817	422.81
236.051	395.81
236.285	268.81
236.519	246.81
236.753	205.81
236.987	245.81
237.221	232.81
237.455	227.81
237.689	237.81
237.922	211.81
238.156	212.81
238.39	225.81
238.624	237.81
238.858	221.81
239.091	223.81
239.325	208.81
239.559	234.81
239.793	233.81
240.027	244.81
240.26	253.81
240.494	241.81
240.728	275.81
240.961	263.81
241.195	298.81
241.429	303.81
241.662	304.81
241.896	317.81
242.13	389.81
242.363	489.81
242.597	643.81
242.83	584.81
243.064	591.81
243.298	689.81
243.531	579.81
243.765	384.81
243.998	345.81
244.232	295.81
244.465	296.81
244.699	283.81
244.932	276.81
245.166	312.81
245.399	285.81
245.633	305.81
245.866	306.81
246.099	297.81
246.333	289.81
246.566	287.81
246.8	290.81
247.033	294.81
247.266	279.81
247.5	303.81
247.733	295.81
247.966	314.81
248.2	336.81
248.433	352.81
248.666	374.81
248.899	391.81
249.133	350.81
249.366	352.81
249.599	373.81
249.832	417.81
250.066	426.81
250.299	371.81
250.532	343.81
250.765	325.81
250.998	328.81
251.231	324.81
251.465	333.81
251.698	342.81
251.931	323.81
252.164	322.81
252.397	322.81
252.63	326.81
252.863	341.81
253.096	353.81
253.329	332.81
253.562	331.81
253.795	332.81
254.028	342.81
254.261	342.81
254.494	383.81
254.727	429.81
254.96	509.81
255.193	489.81
255.426	413.81
255.659	367.81
255.892	391.81
256.124	375.81
256.357	366.81
256.59	411.81
256.823	404.81
257.056	454.81
257.289	543.81
257.521	588.81
257.754	482.81
257.987	422.81
258.22	404.81
258.452	377.81
258.685	407.81
258.918	404.81
259.151	415.81
259.383	440.81
259.616	493.81
259.849	521.81
260.081	448.81
260.314	419.81
260.547	412.81
260.779	411.81
261.012	392.81
261.244	429.81
261.477	437.81
261.71	418.81
261.942	447.81
262.175	453.81
262.407	452.81
262.64	463.81
262.872	477.81
263.105	489.81
263.337	529.81
263.57	520.81
263.802	584.81
264.035	566.81
264.267	567.81
264.499	582.81
264.732	612.81
264.964	607.81
265.197	601.81
265.429	625.81
265.661	616.81
265.894	645.81
266.126	711.81
266.358	773.81
266.591	761.81
266.823	665.81
267.055	623.81
267.287	611.81
267.52	591.81
267.752	585.81
267.984	551.81
268.216	565.81
268.448	563.81
268.681	528.81
268.913	542.81
269.145	513.81
269.377	533.81
269.609	547.81
269.841	552.81
270.073	573.81
270.306	671.81
270.538	869.81
270.77	1215.81
271.002	1465.81
271.234	1061.81
271.466	741.81
271.698	581.81
271.93	563.81
272.162	540.81
272.394	537.81
272.626	537.81
272.858	521.81
273.09	526.81
273.322	538.81
273.553	523.81
273.785	519.81
274.017	530.81
274.249	509.81
274.481	501.81
274.713	534.81
274.945	524.81
275.176	501.81
275.408	513.81
275.64	526.81
275.872	510.81
276.104	521.81
276.335	533.81
276.567	540.81
276.799	539.81
277.031	551.81
277.262	535.81
277.494	570.81
277.726	641.81
277.957	707.81
278.189	809.81
278.421	746.81
278.652	681.81
278.884	663.81
279.115	606.81
279.347	573.81
279.579	571.81
279.81	600.81
280.042	593.81
280.273	605.81
280.505	581.81
280.736	626.81
280.968	657.81
281.199	694.81
281.431	750.81
281.662	795.81
281.894	713.81
282.125	647.81
282.356	652.81
282.588	635.81
282.819	689.81
283.051	721.81
283.282	797.81
283.513	959.81
283.745	1385.81
283.976	2153.81
284.207	3037.81
284.439	2711.81
284.67	1641.81
284.901	1311.81
285.132	1301.81
285.364	1277.81
285.595	1006.81
285.826	947.81
286.057	1053.81
286.288	1451.81
286.52	1945.81
286.751	1796.81
286.982	1167.81
287.213	862.81
287.444	781.81
287.675	770.81
287.906	706.81
288.138	706.81
288.369	702.81
288.6	698.81
288.831	674.81
289.062	681.81
289.293	698.81
289.524	721.81
289.755	698.81
289.986	699.81
290.217	703.81
290.448	700.81
290.679	706.81
290.91	693.81
291.141	736.81
291.371	782.81
291.602	799.81
291.833	754.81
292.064	711.81
292.295	681.81
292.526	687.81
292.757	685.81
292.987	649.81
293.218	667.81
293.449	674.81
293.68	659.81
293.91	656.81
294.141	659.81
294.372	647.81
294.603	688.81
294.833	657.81
295.064	646.81
295.295	644.81
295.525	641.81
295.756	648.81
295.987	649.81
296.217	658.81
296.448	661.81
296.679	657.81
296.909	649.81
297.14	658.81
297.37	672.81
297.601	669.81
297.831	676.81
298.062	662.81
298.292	685.81
298.523	667.81
298.753	703.81
298.984	694.81
299.214	695.81
299.445	719.81
299.675	722.81
299.905	724.81
300.136	795.81
300.366	847.81
300.597	1089.81
300.827	1481.81
301.057	1956.81
301.288	1924.81
301.518	1227.81
301.748	994.81
301.979	920.81
302.209	870.81
302.439	866.81
302.669	965.81
302.9	1111.81
303.13	1531.81
303.36	2230.81
303.59	2921.81
303.82	2528.81
304.051	1516.81
304.281	1121.81
304.511	975.81
304.741	883.81
304.971	859.81
305.201	826.81
305.431	784.81
305.661	797.81
305.891	789.81
306.121	754.81
306.352	769.81
306.582	758.81
306.812	771.81
307.042	794.81
307.272	744.81
307.502	751.81
307.731	737.81
307.961	739.81
308.191	775.81
308.421	767.81
308.651	739.81
308.881	757.81
309.111	733.81
309.341	781.81
309.571	767.81
309.8	781.81
310.03	761.81
310.26	779.81
310.49	766.81
310.72	783.81
310.949	780.81
311.179	789.81
311.409	757.81
311.639	802.81
311.868	806.81
312.098	811.81
312.328	803.81
312.557	811.81
312.787	812.81
313.017	807.81
313.246	809.81
313.476	799.81
313.706	830.81
313.935	892.81
314.165	919.81
314.394	944.81
314.624	906.81
314.853	862.81
315.083	862.81
315.312	867.81
315.542	907.81
315.771	878.81
316.001	889.81
316.23	959.81
316.46	994.81
316.689	1051.81
316.919	1247.81
317.148	1746.81
317.377	2680.81
317.607	3922.81
317.836	4035.81
318.065	2369.81
318.295	1527.81
318.524	1261.81
318.753	1097.81
318.983	1053.81
319.212	1010.81
319.441	988.81
319.67	965.81
319.9	956.81
320.129	971.81
320.358	943.81
320.587	913.81
320.816	950.81
321.046	929.81
321.275	967.81
321.504	966.81
321.733	971.81
321.962	972.81
322.191	994.81
322.42	978.81
322.649	976.81
322.878	997.81
323.108	978.81
323.337	1009.81
323.566	1053.81
323.795	1046.81
324.024	1089.81
324.253	1058.81
324.482	1138.81
324.71	1163.81
324.939	1221.81
325.168	1279.81
325.397	1338.81
325.626	1543.81
325.855	2081.81
326.084	3198.81
326.313	4868.81
326.542	5069.81
326.77	3192.81
326.999	2123.81
327.228	1795.81
327.457	1739.81
327.686	1757.81
327.914	1866.81
328.143	2065.81
328.372	2391.81
328.6	2578.81
328.829	2386.81
329.058	2063.81
329.287	1908.81
329.515	1777.81
329.744	1648.81
329.972	1557.81
330.201	1471.81
330.43	1469.81
330.658	1431.81
330.887	1405.81
331.115	1369.81
331.344	1355.81
331.572	1400.81
331.801	1356.81
332.03	1409.81
332.258	1396.81
332.486	1478.81
332.715	1622.81
332.943	1980.81
333.172	2421.81
333.4	2313.81
333.629	1904.81
333.857	1714.81
334.085	1749.81
334.314	1730.81
334.542	1909.81
334.771	2175.81
334.999	2591.81
335.227	3087.81
335.455	3402.81
335.684	3229.81
335.912	2799.81
336.14	2410.81
336.369	2167.81
336.597	1981.81
336.825	1849.81
337.053	1730.81
337.281	1651.81
337.51	1576.81
337.738	1504.81
337.966	1455.81
338.194	1424.81
338.422	1365.81
338.65	1322.81
338.878	1316.81
339.106	1267.81
339.334	1323.81
339.562	1287.81
339.79	1242.81
340.018	1231.81
340.246	1233.81
340.474	1218.81
340.702	1221.81
340.93	1199.81
341.158	1220.81
341.386	1207.81
341.614	1207.81
341.842	1196.81
342.07	1164.81
342.298	1163.81
342.526	1169.81
342.754	1117.81
342.981	1136.81
343.209	1098.81
343.437	1142.81
343.665	1163.81
343.893	1163.81
344.12	1155.81
344.348	1154.81
344.576	1126.81
344.804	1094.81
345.031	1071.81
345.259	1087.81
345.487	1049.81
345.714	1036.81
345.942	1057.81
346.17	1046.81
346.397	1043.81
346.625	1046.81
346.853	1033.81
347.08	1052.81
347.308	1061.81
347.535	1051.81
347.763	1051.81
347.99	1028.81
348.218	1010.81
348.445	1024.81
348.673	1009.81
348.9	1008.81
349.128	1020.81
349.355	1028.81
349.583	996.81
349.81	1014.81
350.037	996.81
350.265	991.81
350.492	978.81
350.72	989.81
350.947	1009.81
351.174	1016.81
351.402	1009.81
351.629	981.81
351.856	1006.81
352.083	983.81
352.311	989.81
352.538	1002.81
352.765	995.81
352.992	975.81
353.22	990.81
353.447	946.81
353.674	979.81
353.901	998.81
354.128	1001.81
354.355	1020.81
354.583	1018.81
354.81	996.81
355.037	1037.81
355.264	1048.81
355.491	1002.81
355.718	1009.81
355.945	1006.81
356.172	1019.81
356.399	1010.81
356.626	1013.81
356.853	1047.81
357.08	1027.81
357.307	1006.81
357.534	1041.81
357.761	1036.81
357.988	1060.81
358.215	1054.81
358.441	1061.81
358.668	1044.81
358.895	1054.81
359.122	1034.81
359.349	1052.81
359.576	1026.81
359.802	1009.81
360.029	1048.81
360.256	1049.81
360.483	1049.81
360.709	1067.81
360.936	1086.81
361.163	1034.81
361.39	1074.81
361.616	1078.81
361.843	1070.81
362.07	1053.81
362.296	1079.81
362.523	1071.81
362.749	1098.81
362.976	1043.81
363.203	1074.81
363.429	1056.81
363.656	1073.81
363.882	1035.81
364.109	1049.81
364.335	1030.81
364.562	1040.81
364.788	1035.81
365.015	1069.81
365.241	1075.81
365.468	1139.81
365.694	1151.81
365.92	1129.81
366.147	1099.81
366.373	1095.81
366.599	1096.81
366.826	1055.81
367.052	1057.81
367.278	1075.81
367.505	1093.81
367.731	1080.81
367.957	1092.81
368.184	1089.81
368.41	1118.81
368.636	1074.81
368.862	1111.81
369.089	1090.81
369.315	1100.81
369.541	1076.81
369.767	1095.81
369.993	1100.81
370.219	1055.81
370.445	1104.81
370.672	1110.81
370.898	1107.81
371.124	1109.81
371.35	1111.81
371.576	1126.81
371.802	1124.81
372.028	1142.81
372.254	1133.81
372.48	1131.81
372.706	1142.81
372.932	1157.81
373.158	1139.81
373.384	1160.81
373.61	1178.81
373.835	1173.81
374.061	1157.81
374.287	1185.81
374.513	1171.81
374.739	1210.81
374.965	1217.81
375.191	1193.81
375.416	1199.81
375.642	1177.81
375.868	1187.81
376.094	1189.81
376.319	1155.81
376.545	1163.81
376.771	1141.81
376.997	1122.81
377.222	1147.81
377.448	1145.81
377.674	1128.81
377.899	1166.81
378.125	1095.81
378.35	1131.81
378.576	1169.81
378.802	1157.81
379.027	1123.81
379.253	1207.81
379.478	1237.81
379.704	1405.81
379.929	1955.81
380.155	2863.81
380.38	3045.81
380.606	1984.81
380.831	1422.81
381.057	1291.81
381.282	1203.81
381.507	1183.81
381.733	1139.81
381.958	1155.81
382.184	1133.81
382.409	1118.81
382.634	1105.81
382.86	1129.81
383.085	1134.81
383.31	1119.81
383.535	1110.81
383.761	1105.81
383.986	1171.81
384.211	1162.81
384.436	1136.81
384.662	1156.81
384.887	1161.81
385.112	1143.81
385.337	1160.81
385.562	1171.81
385.787	1137.81
386.013	1137.81
386.238	1170.81
386.463	1146.81
386.688	1170.81
386.913	1163.81
387.138	1148.81
387.363	1145.81
387.588	1148.81
387.813	1131.81
388.038	1140.81
388.263	1173.81
388.488	1170.81
388.713	1142.81
388.938	1148.81
389.163	1163.81
389.387	1187.81
389.612	1163.81
389.837	1163.81
390.062	1158.81
390.287	1171.81
390.512	1160.81
390.736	1183.81
390.961	1193.81
391.186	1219.81
391.411	1215.81
391.636	1189.81
391.86	1228.81
392.085	1211.81
392.31	1230.81
392.534	1216.81
392.759	1210.81
392.984	1220.81
393.208	1221.81
393.433	1261.81
393.658	1203.81
393.882	1199.81
394.107	1164.81
394.331	1178.81
394.556	1177.81
394.78	1190.81
395.005	1210.81
395.229	1192.81
395.454	1174.81
395.678	1203.81
395.903	1223.81
396.127	1217.81
396.352	1191.81
396.576	1199.81
396.801	1230.81
397.025	1215.81
397.249	1238.81
397.474	1231.81
397.698	1220.81
397.922	1220.81
398.147	1241.81
398.371	1261.81
398.595	1277.81
398.82	1297.81
399.044	1331.81
399.268	1425.81
399.492	1481.81
399.717	1567.81
399.941	1520.81
400.165	1497.81
400.389	1427.81
400.613	1379.81
400.837	1339.81
401.062	1338.81
401.286	1311.81
401.51	1295.81
401.734	1264.81
401.958	1318.81
402.182	1311.81
402.406	1275.81
402.63	1290.81
402.854	1334.81
403.078	1269.81
403.302	1297.81
403.526	1328.81
403.75	1322.81
403.974	1300.81
404.198	1312.81
404.422	1361.81
404.645	1353.81
404.869	1329.81
405.093	1345.81
405.317	1317.81
405.541	1334.81
405.765	1338.81
405.988	1380.81
406.212	1362.81
406.436	1341.81
406.66	1375.81
406.883	1352.81
407.107	1453.81
407.331	1397.81
407.555	1438.81
407.778	1440.81
408.002	1416.81
408.226	1400.81
408.449	1415.81
408.673	1367.81
408.896	1330.81
409.12	1371.81
409.344	1334.81
409.567	1329.81
409.791	1312.81
410.014	1308.81
410.238	1309.81
410.461	1343.81
410.685	1328.81
410.908	1302.81
411.132	1310.81
411.355	1283.81
411.578	1308.81
411.802	1288.81
412.025	1287.81
412.249	1313.81
412.472	1309.81
412.695	1265.81
412.919	1245.81
413.142	1227.81
413.365	1263.81
413.589	1254.81
413.812	1227.81
414.035	1243.81
414.258	1265.81
414.482	1254.81
414.705	1287.81
414.928	1256.81
415.151	1274.81
415.374	1283.81
415.597	1260.81
415.821	1206.81
416.044	1227.81
416.267	1244.81
416.49	1223.81
416.713	1233.81
416.936	1208.81
417.159	1231.81
417.382	1229.81
417.605	1171.81
417.828	1205.81
418.051	1206.81
418.274	1203.81
418.497	1217.81
418.72	1253.81
418.943	1170.81
419.166	1281.81
419.389	1369.81
419.611	1327.81
419.834	1272.81
420.057	1288.81
420.28	1228.81
420.503	1220.81
420.726	1192.81
420.948	1172.81
421.171	1215.81
421.394	1231.81
421.617	1218.81
421.839	1243.81
422.062	1246.81
422.285	1192.81
422.507	1258.81
422.73	1247.81
422.953	1264.81
423.175	1245.81
423.398	1238.81
423.621	1217.81
423.843	1275.81
424.066	1235.81
424.288	1220.81
424.511	1223.81
424.733	1227.81
424.956	1217.81
425.178	1174.81
425.401	1216.81
425.623	1238.81
425.846	1171.81
426.068	1168.81
426.291	1179.81
426.513	1168.81
426.735	1174.81
426.958	1177.81
427.18	1151.81
427.402	1158.81
427.625	1157.81
427.847	1127.81
428.069	1141.81
428.292	1153.81
428.514	1138.81
428.736	1147.81
428.958	1172.81
429.181	1119.81
429.403	1135.81
429.625	1121.81
429.847	1144.81
430.069	1124.81
430.292	1154.81
430.514	1183.81
430.736	1187.81
430.958	1157.81
431.18	1143.81
431.402	1143.81
431.624	1106.81
431.846	1109.81
432.068	1096.81
432.29	1099.81
432.512	1107.81
432.734	1116.81
432.956	1113.81
433.178	1126.81
433.4	1130.81
433.622	1140.81
433.844	1135.81
434.066	1110.81
434.287	1095.81
434.509	1144.81
434.731	1161.81
434.953	1167.81
435.175	1165.81
435.397	1168.81
435.618	1137.81
435.84	1144.81
436.062	1105.81
436.284	1104.81
436.505	1125.81
436.727	1141.81
436.949	1167.81
437.17	1115.81
437.392	1097.81
437.614	1082.81
437.835	1064.81
438.057	1087.81
438.278	1090.81
438.5	1082.81
438.721	1133.81
438.943	1161.81
439.165	1127.81
439.386	1149.81
439.608	1145.81
439.829	1149.81
440.05	1201.81
440.272	1188.81
440.493	1171.81
440.715	1155.81
440.936	1136.81
441.158	1177.81
441.379	1178.81
441.6	1241.81
441.822	1286.81
442.043	1333.81
442.264	1333.81
442.486	1254.81
442.707	1207.81
442.928	1193.81
443.149	1157.81
443.371	1188.81
443.592	1184.81
443.813	1222.81
444.034	1235.81
444.255	1261.81
444.476	1235.81
444.698	1281.81
444.919	1324.81
445.14	1344.81
445.361	1276.81
445.582	1239.81
445.803	1201.81
446.024	1178.81
446.245	1198.81
446.466	1221.81
446.687	1172.81
446.908	1198.81
447.129	1192.81
447.35	1165.81
447.571	1141.81
447.792	1154.81
448.013	1130.81
448.234	1103.81
448.455	1089.81
448.675	1131.81
448.896	1145.81
449.117	1173.81
449.338	1278.81
449.559	1299.81
449.779	1213.81
450	1114.81
450.221	1067.81
450.442	1064.81
450.662	1083.81
450.883	1069.81
451.104	1063.81
451.324	1056.81
451.545	1101.81
451.766	1093.81
451.986	1073.81
452.207	1163.81
452.428	1421.81
452.648	1901.81
452.869	1648.81
453.089	1234.81
453.31	1199.81
453.53	1197.81
453.751	1241.81
453.971	1249.81
454.192	1240.81
454.412	1133.81
454.633	1099.81
454.853	1036.81
455.073	1032.81
455.294	1052.81
455.514	1041.81
455.734	1031.81
455.955	1022.81
456.175	1044.81
456.395	1032.81
456.616	1002.81
456.836	1019.81
457.056	1021.81
457.276	1084.81
457.497	1108.81
457.717	1109.81
457.937	1078.81
458.157	1086.81
458.377	1096.81
458.598	1133.81
458.818	1087.81
459.038	1085.81
459.258	1111.81
459.478	1109.81
459.698	1105.81
459.918	1146.81
460.138	1148.81
460.358	1169.81
460.578	1193.81
460.798	1212.81
461.018	1186.81
461.238	1226.81
461.458	1244.81
461.678	1213.81
461.898	1256.81
462.118	1236.81
462.338	1293.81
462.558	1282.81
462.777	1309.81
462.997	1355.81
463.217	1431.81
463.437	1418.81
463.657	1439.81
463.876	1413.81
464.096	1408.81
464.316	1329.81
464.536	1306.81
464.755	1265.81
464.975	1247.81
465.195	1222.81
465.414	1184.81
465.634	1150.81
465.854	1162.81
466.073	1129.81
466.293	1133.81
466.512	1128.81
466.732	1131.81
466.951	1183.81
467.171	1245.81
467.391	1217.81
467.61	1171.81
467.829	1128.81
468.049	1137.81
468.268	1119.81
468.488	1100.81
468.707	1093.81
468.927	1091.81
469.146	1121.81
469.365	1107.81
469.585	1115.81
469.804	1144.81
470.023	1138.81
470.243	1170.81
470.462	1207.81
470.681	1258.81
470.901	1355.81
471.12	1555.81
471.339	1561.81
471.558	1310.81
471.777	1198.81
471.997	1150.81
472.216	1166.81
472.435	1131.81
472.654	1110.81
472.873	1061.81
473.092	1093.81
473.311	1096.81
473.53	1115.81
473.749	1144.81
473.968	1137.81
474.187	1125.81
474.406	1117.81
474.625	1109.81
474.844	1097.81
475.063	1116.81
475.282	1113.81
475.501	1086.81
475.72	1104.81
475.939	1137.81
476.158	1171.81
476.377	1156.81
476.596	1171.81
476.814	1154.81
477.033	1126.81
477.252	1147.81
477.471	1185.81
477.69	1210.81
477.908	1256.81
478.127	1243.81
478.346	1238.81
478.564	1308.81
478.783	1261.81
479.002	1310.81
479.22	1316.81
479.439	1299.81
479.658	1311.81
479.876	1281.81
480.095	1303.81
480.313	1319.81
480.532	1368.81
480.751	1377.81
480.969	1334.81
481.188	1287.81
481.406	1259.81
481.624	1286.81
481.843	1297.81
482.061	1304.81
482.28	1337.81
482.498	1338.81
482.717	1295.81
482.935	1334.81
483.153	1346.81
483.372	1375.81
483.59	1382.81
483.808	1402.81
484.027	1404.81
484.245	1490.81
484.463	1666.81
484.681	1797.81
484.9	1646.81
485.118	1523.81
485.336	1533.81
485.554	1546.81
485.772	1633.81
485.99	1802.81
486.209	1945.81
486.427	1663.81
486.645	1518.81
486.863	1478.81
487.081	1421.81
487.299	1411.81
487.517	1428.81
487.735	1437.81
487.953	1447.81
488.171	1402.81
488.389	1420.81
488.607	1397.81
488.825	1390.81
489.043	1337.81
489.261	1327.81
489.479	1375.81
489.696	1367.81
489.914	1359.81
490.132	1386.81
490.35	1391.81
490.568	1365.81
490.786	1413.81
491.003	1458.81
491.221	1465.81
491.439	1433.81
491.657	1451.81
491.874	1442.81
492.092	1470.81
492.31	1561.81
492.527	1553.81
492.745	1454.81
492.963	1416.81
493.18	1447.81
493.398	1450.81
493.615	1507.81
493.833	1446.81
494.05	1458.81
494.268	1471.81
494.485	1460.81
494.703	1482.81
494.92	1474.81
495.138	1465.81
495.355	1464.81
495.573	1471.81
495.79	1492.81
496.008	1462.81
496.225	1504.81
496.442	1514.81
496.66	1548.81
496.877	1578.81
497.094	1570.81
497.312	1577.81
497.529	1606.81
497.746	1563.81
497.963	1616.81
498.181	1603.81
498.398	1636.81
498.615	1702.81
498.832	1746.81
499.049	1840.81
499.267	1998.81
499.484	2068.81
499.701	2117.81
499.918	2163.81
500.135	2280.81
500.352	2425.81
500.569	2485.81
500.786	2446.81
501.003	2342.81
501.22	2267.81
501.437	2108.81
501.654	1977.81
501.871	1934.81
502.088	1834.81
502.305	1804.81
502.522	1728.81
502.739	1687.81
502.956	1661.81
503.172	1616.81
503.389	1550.81
503.606	1523.81
503.823	1481.81
504.04	1508.81
504.256	1478.81
504.473	1503.81
504.69	1475.81
504.907	1479.81
505.123	1444.81
505.34	1401.81
505.557	1395.81
505.773	1350.81
505.99	1376.81
506.207	1313.81
506.423	1327.81
506.64	1297.81
506.856	1304.81
507.073	1284.81
507.289	1297.81
507.506	1279.81
507.722	1259.81
507.939	1291.81
508.155	1269.81
508.372	1218.81
508.588	1234.81
508.805	1215.81
509.021	1258.81
509.238	1243.81
509.454	1303.81
509.67	1373.81
509.887	1271.81
510.103	1234.81
510.319	1243.81
510.536	1230.81
510.752	1240.81
510.968	1182.81
511.184	1161.81
511.401	1205.81
511.617	1190.81
511.833	1171.81
512.049	1190.81
512.265	1170.81
512.481	1199.81
512.698	1183.81
512.914	1155.81
513.13	1170.81
513.346	1204.81
513.562	1190.81
513.778	1195.81
513.994	1160.81
514.21	1220.81
514.426	1290.81
514.642	1329.81
514.858	1277.81
515.074	1219.81
515.29	1220.81
515.506	1201.81
515.721	1251.81
515.937	1192.81
516.153	1221.81
516.369	1212.81
516.585	1243.81
516.801	1222.81
517.016	1298.81
517.232	1292.81
517.448	1321.81
517.664	1363.81
517.879	1362.81
518.095	1346.81
518.311	1311.81
518.527	1349.81
518.742	1313.81
518.958	1341.81
519.173	1313.81
519.389	1286.81
519.605	1250.81
519.82	1235.81
520.036	1236.81
520.251	1185.81
520.467	1181.81
520.682	1161.81
520.898	1174.81
521.113	1176.81
521.329	1180.81
521.544	1161.81
521.76	1165.81
521.975	1143.81
522.19	1148.81
522.406	1159.81
522.621	1157.81
522.836	1155.81
523.052	1151.81
523.267	1136.81
523.482	1141.81
523.698	1146.81
523.913	1160.81
524.128	1195.81
524.343	1129.81
524.559	1137.81
524.774	1155.81
524.989	1146.81
525.204	1128.81
525.419	1173.81
525.634	1110.81
525.849	1147.81
526.064	1128.81
526.28	1107.81
526.495	1116.81
526.71	1109.81
526.925	1115.81
527.14	1130.81
527.355	1148.81
527.57	1138.81
527.785	1157.81
527.999	1132.81
528.214	1194.81
528.429	1167.81
528.644	1180.81
528.859	1230.81
529.074	1237.81
529.289	1224.81
529.503	1235.81
529.718	1220.81
529.933	1231.81
530.148	1234.81
530.363	1201.81
530.577	1202.81
530.792	1207.81
531.007	1197.81
531.221	1217.81
531.436	1198.81
531.651	1217.81
531.865	1227.81
532.08	1263.81
532.295	1277.81
532.509	1350.81
532.724	1329.81
532.938	1361.81
533.153	1385.81
533.367	1420.81
533.582	1499.81
533.796	1512.81
534.011	1448.81
534.225	1389.81
534.44	1376.81
534.654	1379.81
534.868	1366.81
535.083	1347.81
535.297	1303.81
535.511	1277.81
535.726	1276.81
535.94	1227.81
536.154	1205.81
536.369	1233.81
536.583	1209.81
536.797	1189.81
537.011	1155.81
537.225	1155.81
537.44	1181.81
537.654	1171.81
537.868	1136.81
538.082	1135.81
538.296	1137.81
538.51	1139.81
538.724	1147.81
538.938	1128.81
539.153	1158.81
539.367	1144.81
539.581	1127.81
539.795	1107.81
540.009	1119.81
540.222	1100.81
540.436	1111.81
540.65	1092.81
540.864	1107.81
541.078	1145.81
541.292	1226.81
541.506	1393.81
541.72	1493.81
541.934	1267.81
542.147	1269.81
542.361	1193.81
542.575	1157.81
542.789	1101.81
543.002	1078.81
543.216	1078.81
543.43	1053.81
543.644	1081.81
543.857	1109.81
544.071	1112.81
544.285	1117.81
544.498	1147.81
544.712	1120.81
544.925	1107.81
545.139	1148.81
545.352	1125.81
545.566	1145.81
545.779	1111.81
545.993	1123.81
546.206	1134.81
546.42	1115.81
546.633	1112.81
546.847	1121.81
547.06	1127.81
547.274	1122.81
547.487	1112.81
547.7	1120.81
547.914	1124.81
548.127	1135.81
548.34	1107.81
548.554	1149.81
548.767	1115.81
548.98	1104.81
549.193	1137.81
549.407	1091.81
549.62	1134.81
549.833	1114.81
550.046	1095.81
550.259	1119.81
550.473	1092.81
550.686	1118.81
550.899	1111.81
551.112	1115.81
551.325	1082.81
551.538	1109.81
551.751	1105.81
551.964	1106.81
552.177	1111.81
552.39	1120.81
552.603	1130.81
552.816	1138.81
553.029	1160.81
553.242	1202.81
553.455	1185.81
553.667	1241.81
553.88	1239.81
554.093	1207.81
554.306	1235.81
554.519	1274.81
554.732	1247.81
554.944	1249.81
555.157	1283.81
555.37	1290.81
555.583	1338.81
555.795	1366.81
556.008	1433.81
556.221	1531.81
556.433	1601.81
556.646	1615.81
556.859	1582.81
557.071	1508.81
557.284	1508.81
557.496	1464.81
557.709	1470.81
557.921	1455.81
558.134	1460.81
558.346	1481.81
558.559	1517.81
558.771	1537.81
558.984	1670.81
559.196	1676.81
559.409	1653.81
559.621	1604.81
559.833	1504.81
560.046	1441.81
560.258	1416.81
560.47	1364.81
560.683	1338.81
560.895	1275.81
561.107	1283.81
561.32	1221.81
561.532	1193.81
561.744	1184.81
561.956	1176.81
562.168	1157.81
562.381	1123.81
562.593	1098.81
562.805	1122.81
563.017	1128.81
563.229	1145.81
563.441	1272.81
563.653	1165.81
563.865	1023.81
564.077	1054.81
564.289	1044.81
564.501	1028.81
564.713	997.81
564.925	980.81
565.137	1014.81
565.349	1009.81
565.561	1023.81
565.773	1051.81
565.985	1042.81
566.197	1057.81
566.408	1103.81
566.62	1106.81
566.832	1116.81
567.044	1107.81
567.255	1160.81
567.467	1146.81
567.679	1154.81
567.891	1212.81
568.102	1361.81
568.314	1545.81
568.526	1321.81
568.737	1176.81
568.949	1059.81
569.161	981.81
569.372	979.81
569.584	935.81
569.795	919.81
570.007	920.81
570.218	921.81
570.43	951.81
570.641	901.81
570.853	854.81
571.064	870.81
571.276	871.81
571.487	829.81
571.698	832.81
571.91	830.81
572.121	810.81
572.333	819.81
572.544	817.81
572.755	867.81
572.966	997.81
573.178	900.81
573.389	818.81
573.6	754.81
573.811	785.81
574.023	779.81
574.234	768.81
574.445	750.81
574.656	749.81
574.867	753.81
575.078	739.81
575.289	755.81
575.501	738.81
575.712	744.81
575.923	742.81
576.134	718.81
576.345	770.81
576.556	736.81
576.767	736.81
576.978	730.81
577.188	725.81
577.399	767.81
577.61	735.81
577.821	730.81
578.032	747.81
578.243	783.81
578.454	787.81
578.665	807.81
578.875	799.81
579.086	790.81
579.297	832.81
579.508	895.81
579.718	928.81
579.929	1046.81
580.14	1157.81
580.35	1153.81
580.561	1106.81
580.772	1070.81
580.982	948.81
581.193	954.81
581.403	938.81
581.614	893.81
581.825	855.81
582.035	806.81
582.246	775.81
582.456	783.81
582.667	739.81
582.877	733.81
583.087	737.81
583.298	731.81
583.508	713.81
583.719	689.81
583.929	656.81
584.139	661.81
584.35	657.81
584.56	632.81
584.77	628.81
584.981	634.81
585.191	626.81
585.401	616.81
585.611	601.81
585.821	601.81
586.032	593.81
586.242	622.81
586.452	609.81
586.662	574.81
586.872	588.81
587.082	603.81
587.292	590.81
587.502	537.81
587.713	553.81
587.923	546.81
588.133	554.81
588.343	557.81
588.553	538.81
588.762	541.81
588.972	546.81
589.182	559.81
589.392	548.81
589.602	530.81
589.812	549.81
590.022	555.81
590.232	534.81
590.441	525.81
590.651	564.81
590.861	542.81
591.071	543.81
591.281	546.81
591.49	542.81
591.7	542.81
591.91	521.81
592.119	534.81
592.329	523.81
592.539	550.81
592.748	552.81
592.958	567.81
593.167	571.81
593.377	581.81
593.587	564.81
593.796	579.81
594.006	571.81
594.215	570.81
594.424	581.81
594.634	555.81
594.843	539.81
595.053	563.81
595.262	531.81
595.472	515.81
595.681	499.81
595.89	505.81
596.1	493.81
596.309	495.81
596.518	512.81
596.727	509.81
596.937	483.81
597.146	495.81
597.355	494.81
597.564	475.81
597.774	447.81
597.983	450.81
598.192	479.81
598.401	456.81
598.61	463.81
598.819	431.81
599.028	440.81
599.237	445.81
599.446	446.81
599.655	453.81
599.864	434.81
600.073	447.81
600.282	427.81
600.491	446.81
600.7	432.81
600.909	437.81
601.118	426.81
601.327	456.81
601.536	440.81
601.745	452.81
601.953	508.81
602.162	558.81
602.371	498.81
602.58	467.81
602.789	441.81
602.997	452.81
603.206	449.81
603.415	441.81
603.623	427.81
603.832	439.81
604.041	442.81
604.249	443.81
604.458	421.81
604.666	413.81
604.875	408.81
605.084	405.81
605.292	413.81
605.501	414.81
605.709	427.81
605.918	436.81
606.126	439.81
606.334	418.81
606.543	457.81
606.751	458.81
606.96	518.81
607.168	560.81
607.376	485.81
607.585	455.81
607.793	447.81
608.001	443.81
608.21	436.81
608.418	431.81
608.626	407.81
608.834	411.81
609.043	425.81
609.251	407.81
609.459	396.81
609.667	419.81
609.875	424.81
610.083	400.81
610.291	399.81
610.499	402.81
610.707	394.81
610.916	406.81
611.124	404.81
611.332	407.81
611.54	399.81
611.748	386.81
611.955	385.81
612.163	395.81
612.371	411.81
612.579	392.81
612.787	386.81
612.995	407.81
613.203	411.81
613.411	393.81
613.618	401.81
613.826	373.81
614.034	387.81
614.242	414.81
614.449	390.81
614.657	370.81
614.865	374.81
615.072	378.81
615.28	403.81
615.488	375.81
615.695	391.81
615.903	380.81
616.111	384.81
616.318	389.81
616.526	385.81
616.733	388.81
616.941	379.81
617.148	383.81
617.356	389.81
617.563	381.81
617.771	384.81
617.978	368.81
618.185	375.81
618.393	391.81
618.6	377.81
618.807	370.81
619.015	375.81
619.222	384.81
619.429	360.81
619.637	370.81
619.844	347.81
620.051	361.81
620.258	360.81
620.466	365.81
620.673	345.81
620.88	360.81
621.087	343.81
621.294	354.81
621.501	350.81
621.708	357.81
621.915	358.81
622.122	365.81
622.329	354.81
622.536	350.81
622.743	349.81
622.95	342.81
623.157	350.81
623.364	337.81
623.571	327.81
623.778	345.81
623.985	335.81
624.192	354.81
624.399	346.81
624.606	328.81
624.812	329.81
625.019	322.81
625.226	335.81
625.433	331.81
625.639	346.81
625.846	319.81
626.053	323.81
626.259	325.81
626.466	312.81
626.673	312.81
626.879	308.81
627.086	302.81
627.293	319.81
627.499	322.81
627.706	317.81
627.912	312.81
628.119	321.81
628.325	347.81
628.532	314.81
628.738	301.81
628.945	322.81
629.151	341.81
629.357	306.81
629.564	312.81
629.77	318.81
629.976	303.81
630.183	300.81
630.389	298.81
630.595	292.81
630.802	328.81
631.008	305.81
631.214	294.81
631.42	309.81
631.627	305.81
631.833	310.81
632.039	307.81
632.245	282.81
632.451	298.81
632.657	301.81
632.863	299.81
633.069	309.81
633.275	288.81
633.481	309.81
633.688	287.81
633.893	288.81
634.099	280.81
634.305	284.81
634.511	292.81
634.717	311.81
634.923	298.81
635.129	351.81
635.335	377.81
635.541	323.81
635.747	327.81
635.952	311.81
636.158	276.81
636.364	293.81
636.57	298.81
636.775	293.81
636.981	296.81
637.187	287.81
637.392	298.81
637.598	284.81
637.804	301.81
638.009	305.81
638.215	281.81
638.421	308.81
638.626	300.81
638.832	294.81
639.037	305.81
639.243	305.81
639.448	283.81
639.654	311.81
639.859	313.81
640.065	303.81
640.27	315.81
640.475	298.81
640.681	311.81
640.886	312.81
641.091	295.81
641.297	307.81
641.502	303.81
641.707	318.81
641.913	315.81
642.118	322.81
642.323	326.81
642.528	351.81
642.733	337.81
642.939	330.81
643.144	350.81
643.349	365.81
643.554	357.81
643.759	374.81
643.964	391.81
644.169	411.81
644.374	399.81
644.579	449.81
644.784	493.81
644.989	513.81
645.194	595.81
645.399	685.81
645.604	697.81
645.809	576.81
646.014	470.81
646.219	429.81
646.423	369.81
646.628	357.81
646.833	352.81
647.038	344.81
647.243	322.81
647.447	321.81
647.652	308.81
647.857	296.81
648.062	281.81
648.266	281.81
648.471	267.81
648.676	291.81
648.88	242.81
649.085	264.81
649.289	274.81
649.494	278.81
649.698	277.81
649.903	259.81
650.107	259.81
650.312	270.81
650.516	268.81
650.721	261.81
650.925	231.81
651.13	229.81
651.334	258.81
651.539	241.81
651.743	246.81
651.947	238.81
652.152	232.81
652.356	240.81
652.56	249.81
652.764	246.81
652.969	239.81
653.173	239.81
653.377	233.81
653.581	197.81
653.785	200.81
653.99	209.81
654.194	209.81
654.398	206.81
654.602	207.81
654.806	193.81
655.01	214.81
655.214	227.81
655.418	203.81
655.622	204.81
655.826	205.81
656.03	202.81
656.234	240.81
656.438	213.81
656.642	219.81
656.846	221.81
657.049	198.81
657.253	192.81
657.457	189.81
657.661	187.81
657.865	164.81
658.068	160.81
658.272	150.81
658.476	139.81
658.68	159.81
658.883	145.81
659.087	140.81
659.291	141.81
659.494	121.81
659.698	118.81
659.901	136.81
660.105	121.81
660.309	118.81
660.512	120.81
660.716	117.81
660.919	111.81
661.123	119.81
661.326	117.81
661.53	112.81
661.733	102.81
661.936	116.81
662.14	92.81
662.343	113.81
662.546	87.81
662.75	96.81
662.953	81.81
663.156	101.81
663.36	91.81
663.563	91.81
663.766	79.81
663.969	91.81
664.173	89.81
664.376	83.81
664.579	81.81
664.782	101.81
664.985	83.81
665.188	93.81
665.391	78.81
665.594	84.81
665.797	81.81
666	84.81
666.203	87.81
666.406	93.81
666.609	73.81
666.812	75.81
667.015	87.81
667.218	88.81
667.421	95.81
667.624	78.81
667.827	90.81
668.03	84.81
668.232	89.81
668.435	92.81
668.638	74.81
668.841	79.81
669.043	91.81
669.246	83.81
669.449	83.81
669.651	88.81
669.854	90.81
670.057	91.81
670.259	92.81
670.462	91.81
670.665	85.81
670.867	78.81
671.07	79.81
671.272	84.81
671.475	93.81
671.677	98.81
671.88	91.81
672.082	88.81
672.284	77.81
672.487	93.81
672.689	73.81
672.892	79.81
