Data from SnStandardFlinnAPT0064_QswitchEnergy10_LIBS07252019.E.O._I.C._HRD10591_15-26-58-973.txt Node
Date: Thu Jul 25 15:26:58 EDT 2019
User: cochatt
Spectrometer: HR+D1059
Trigger mode: 1
Integration Time (sec): 1.000000E-1
Scans to average: 1
Electric dark correction enabled: true
Nonlinearity correction enabled: false
Boxcar width: 0
XAxis mode: Wavelengths
Number of Pixels in Spectrum: 2048
>>>>>Begin Spectral Data<<<<<
223.165	2.38
223.4	2.38
223.635	2.38
223.869	-5.62
224.104	-13.62
224.338	-6.62
224.573	-12.62
224.808	-24.62
225.042	-4.62
225.277	-0.62
225.511	1.38
225.746	-0.62
225.98	2.38
226.215	1.38
226.449	7.38
226.683	19.38
226.918	13.38
227.152	21.38
227.387	31.38
227.621	33.38
227.856	47.38
228.09	43.38
228.324	44.38
228.559	55.38
228.793	36.38
229.027	38.38
229.262	62.38
229.496	64.38
229.73	59.38
229.964	72.38
230.199	58.38
230.433	70.38
230.667	78.38
230.901	86.38
231.136	72.38
231.37	77.38
231.604	83.38
231.838	95.38
232.072	90.38
232.306	102.38
232.541	91.38
232.775	82.38
233.009	85.38
233.243	88.38
233.477	71.38
233.711	99.38
233.945	93.38
234.179	86.38
234.413	82.38
234.647	77.38
234.881	92.38
235.115	78.38
235.349	87.38
235.583	94.38
235.817	129.38
236.051	127.38
236.285	88.38
236.519	84.38
236.753	85.38
236.987	84.38
237.221	84.38
237.455	72.38
237.689	79.38
237.922	87.38
238.156	75.38
238.39	81.38
238.624	88.38
238.858	99.38
239.091	66.38
239.325	82.38
239.559	80.38
239.793	79.38
240.027	76.38
240.26	88.38
240.494	74.38
240.728	72.38
240.961	95.38
241.195	81.38
241.429	87.38
241.662	72.38
241.896	99.38
242.13	99.38
242.363	126.38
242.597	155.38
242.83	149.38
243.064	132.38
243.298	163.38
243.531	140.38
243.765	88.38
243.998	93.38
244.232	67.38
244.465	83.38
244.699	64.38
244.932	75.38
245.166	93.38
245.399	89.38
245.633	81.38
245.866	78.38
246.099	69.38
246.333	65.38
246.566	65.38
246.8	70.38
247.033	70.38
247.266	105.38
247.5	80.38
247.733	73.38
247.966	93.38
248.2	85.38
248.433	98.38
248.666	113.38
248.899	110.38
249.133	87.38
249.366	79.38
249.599	101.38
249.832	114.38
250.066	124.38
250.299	81.38
250.532	80.38
250.765	83.38
250.998	94.38
251.231	72.38
251.465	72.38
251.698	80.38
251.931	68.38
252.164	93.38
252.397	72.38
252.63	89.38
252.863	74.38
253.096	89.38
253.329	95.38
253.562	96.38
253.795	88.38
254.028	93.38
254.261	67.38
254.494	90.38
254.727	121.38
254.96	145.38
255.193	125.38
255.426	78.38
255.659	86.38
255.892	89.38
256.124	89.38
256.357	80.38
256.59	87.38
256.823	94.38
257.056	115.38
257.289	132.38
257.521	155.38
257.754	115.38
257.987	75.38
258.22	91.38
258.452	97.38
258.685	70.38
258.918	89.38
259.151	103.38
259.383	101.38
259.616	132.38
259.849	142.38
260.081	87.38
260.314	73.38
260.547	72.38
260.779	71.38
261.012	84.38
261.244	86.38
261.477	78.38
261.71	85.38
261.942	85.38
262.175	91.38
262.407	93.38
262.64	86.38
262.872	93.38
263.105	72.38
263.337	88.38
263.57	78.38
263.802	81.38
264.035	79.38
264.267	75.38
264.499	81.38
264.732	97.38
264.964	97.38
265.197	86.38
265.429	80.38
265.661	83.38
265.894	97.38
266.126	122.38
266.358	130.38
266.591	141.38
266.823	87.38
267.055	88.38
267.287	93.38
267.52	87.38
267.752	88.38
267.984	93.38
268.216	90.38
268.448	80.38
268.681	76.38
268.913	68.38
269.145	83.38
269.377	92.38
269.609	110.38
269.841	96.38
270.073	83.38
270.306	111.38
270.538	178.38
270.77	293.38
271.002	353.38
271.234	185.38
271.466	100.38
271.698	77.38
271.93	74.38
272.162	87.38
272.394	81.38
272.626	77.38
272.858	82.38
273.09	81.38
273.322	92.38
273.553	99.38
273.785	80.38
274.017	87.38
274.249	73.38
274.481	84.38
274.713	83.38
274.945	85.38
275.176	85.38
275.408	72.38
275.64	93.38
275.872	84.38
276.104	77.38
276.335	100.38
276.567	91.38
276.799	90.38
277.031	88.38
277.262	96.38
277.494	91.38
277.726	126.38
277.957	160.38
278.189	223.38
278.421	224.38
278.652	157.38
278.884	174.38
279.115	133.38
279.347	107.38
279.579	92.38
279.81	87.38
280.042	76.38
280.273	81.38
280.505	94.38
280.736	97.38
280.968	118.38
281.199	145.38
281.431	219.38
281.662	221.38
281.894	147.38
282.125	99.38
282.356	90.38
282.588	113.38
282.819	109.38
283.051	111.38
283.282	135.38
283.513	173.38
283.745	293.38
283.976	495.38
284.207	719.38
284.439	535.38
284.67	263.38
284.901	220.38
285.132	304.38
285.364	334.38
285.595	209.38
285.826	156.38
286.057	216.38
286.288	376.38
286.52	551.38
286.751	427.38
286.982	179.38
287.213	127.38
287.444	110.38
287.675	101.38
287.906	96.38
288.138	75.38
288.369	88.38
288.6	84.38
288.831	73.38
289.062	86.38
289.293	88.38
289.524	99.38
289.755	105.38
289.986	88.38
290.217	90.38
290.448	96.38
290.679	100.38
290.91	99.38
291.141	128.38
291.371	202.38
291.602	249.38
291.833	166.38
292.064	117.38
292.295	86.38
292.526	79.38
292.757	97.38
292.987	93.38
293.218	84.38
293.449	84.38
293.68	93.38
293.91	98.38
294.141	105.38
294.372	79.38
294.603	86.38
294.833	92.38
295.064	93.38
295.295	76.38
295.525	78.38
295.756	82.38
295.987	88.38
296.217	94.38
296.448	84.38
296.679	92.38
296.909	90.38
297.14	88.38
297.37	95.38
297.601	99.38
297.831	95.38
298.062	99.38
298.292	93.38
298.523	108.38
298.753	97.38
298.984	103.38
299.214	92.38
299.445	94.38
299.675	110.38
299.905	104.38
300.136	111.38
300.366	165.38
300.597	217.38
300.827	413.38
301.057	621.38
301.288	581.38
301.518	240.38
301.748	137.38
301.979	111.38
302.209	107.38
302.439	114.38
302.669	159.38
302.9	239.38
303.13	445.38
303.36	791.38
303.59	1126.38
303.82	761.38
304.051	266.38
304.281	144.38
304.511	128.38
304.741	110.38
304.971	103.38
305.201	97.38
305.431	108.38
305.661	84.38
305.891	102.38
306.121	93.38
306.352	103.38
306.582	109.38
306.812	115.38
307.042	114.38
307.272	105.38
307.502	91.38
307.731	107.38
307.961	89.38
308.191	103.38
308.421	100.38
308.651	100.38
308.881	101.38
309.111	101.38
309.341	107.38
309.571	96.38
309.8	96.38
310.03	105.38
310.26	99.38
310.49	100.38
310.72	93.38
310.949	103.38
311.179	94.38
311.409	104.38
311.639	94.38
311.868	99.38
312.098	118.38
312.328	111.38
312.557	109.38
312.787	97.38
313.017	110.38
313.246	117.38
313.476	99.38
313.706	121.38
313.935	134.38
314.165	168.38
314.394	196.38
314.624	164.38
314.853	120.38
315.083	131.38
315.312	119.38
315.542	126.38
315.771	113.38
316.001	127.38
316.23	124.38
316.46	148.38
316.689	163.38
316.919	244.38
317.148	448.38
317.377	848.38
317.607	1345.38
317.836	1240.38
318.065	477.38
318.295	195.38
318.524	148.38
318.753	127.38
318.983	116.38
319.212	105.38
319.441	116.38
319.67	111.38
319.9	102.38
320.129	116.38
320.358	111.38
320.587	119.38
320.816	110.38
321.046	108.38
321.275	127.38
321.504	127.38
321.733	129.38
321.962	136.38
322.191	134.38
322.42	124.38
322.649	109.38
322.878	111.38
323.108	100.38
323.337	118.38
323.566	119.38
323.795	120.38
324.024	120.38
324.253	120.38
324.482	162.38
324.71	211.38
324.939	255.38
325.168	222.38
325.397	176.38
325.626	244.38
325.855	436.38
326.084	854.38
326.313	1420.38
326.542	1438.38
326.77	550.38
326.999	232.38
327.228	202.38
327.457	211.38
327.686	217.38
327.914	137.38
328.143	127.38
328.372	118.38
328.6	119.38
328.829	121.38
329.058	109.38
329.287	110.38
329.515	117.38
329.744	105.38
329.972	101.38
330.201	120.38
330.43	102.38
330.658	105.38
330.887	103.38
331.115	112.38
331.344	110.38
331.572	120.38
331.801	119.38
332.03	117.38
332.258	124.38
332.486	159.38
332.715	266.38
332.943	425.38
333.172	697.38
333.4	601.38
333.629	237.38
333.857	125.38
334.085	102.38
334.314	102.38
334.542	114.38
334.771	104.38
334.999	105.38
335.227	120.38
335.455	111.38
335.684	110.38
335.912	98.38
336.14	111.38
336.369	97.38
336.597	116.38
336.825	88.38
337.053	101.38
337.281	95.38
337.51	103.38
337.738	103.38
337.966	89.38
338.194	109.38
338.422	109.38
338.65	111.38
338.878	112.38
339.106	123.38
339.334	116.38
339.562	115.38
339.79	116.38
340.018	95.38
340.246	123.38
340.474	108.38
340.702	101.38
340.93	100.38
341.158	103.38
341.386	110.38
341.614	106.38
341.842	109.38
342.07	121.38
342.298	95.38
342.526	117.38
342.754	107.38
342.981	103.38
343.209	114.38
343.437	109.38
343.665	105.38
343.893	113.38
344.12	99.38
344.348	103.38
344.576	89.38
344.804	91.38
345.031	100.38
345.259	115.38
345.487	107.38
345.714	93.38
345.942	89.38
346.17	112.38
346.397	87.38
346.625	85.38
346.853	91.38
347.08	107.38
347.308	106.38
347.535	88.38
347.763	87.38
347.99	102.38
348.218	84.38
348.445	89.38
348.673	111.38
348.9	112.38
349.128	117.38
349.355	123.38
349.583	104.38
349.81	117.38
350.037	97.38
350.265	107.38
350.492	111.38
350.72	97.38
350.947	94.38
351.174	110.38
351.402	110.38
351.629	103.38
351.856	93.38
352.083	103.38
352.311	110.38
352.538	102.38
352.765	105.38
352.992	89.38
353.22	82.38
353.447	96.38
353.674	99.38
353.901	97.38
354.128	103.38
354.355	88.38
354.583	108.38
354.81	104.38
355.037	105.38
355.264	88.38
355.491	92.38
355.718	99.38
355.945	97.38
356.172	92.38
356.399	87.38
356.626	95.38
356.853	96.38
357.08	94.38
357.307	102.38
357.534	85.38
357.761	100.38
357.988	102.38
358.215	95.38
358.441	106.38
358.668	96.38
358.895	124.38
359.122	110.38
359.349	124.38
359.576	106.38
359.802	111.38
360.029	109.38
360.256	107.38
360.483	115.38
360.709	110.38
360.936	104.38
361.163	100.38
361.39	103.38
361.616	106.38
361.843	105.38
362.07	114.38
362.296	95.38
362.523	99.38
362.749	100.38
362.976	103.38
363.203	111.38
363.429	106.38
363.656	101.38
363.882	107.38
364.109	119.38
364.335	110.38
364.562	97.38
364.788	91.38
365.015	105.38
365.241	119.38
365.468	171.38
365.694	222.38
365.92	181.38
366.147	115.38
366.373	91.38
366.599	107.38
366.826	92.38
367.052	103.38
367.278	94.38
367.505	96.38
367.731	97.38
367.957	101.38
368.184	93.38
368.41	111.38
368.636	113.38
368.862	113.38
369.089	101.38
369.315	110.38
369.541	97.38
369.767	106.38
369.993	108.38
370.219	109.38
370.445	84.38
370.672	90.38
370.898	100.38
371.124	88.38
371.35	96.38
371.576	107.38
371.802	99.38
372.028	112.38
372.254	113.38
372.48	103.38
372.706	109.38
372.932	116.38
373.158	105.38
373.384	110.38
373.61	99.38
373.835	104.38
374.061	98.38
374.287	94.38
374.513	98.38
374.739	110.38
374.965	111.38
375.191	101.38
375.416	108.38
375.642	94.38
375.868	89.38
376.094	105.38
376.319	103.38
376.545	111.38
376.771	95.38
376.997	108.38
377.222	101.38
377.448	112.38
377.674	96.38
377.899	107.38
378.125	113.38
378.35	99.38
378.576	120.38
378.802	97.38
379.027	121.38
379.253	128.38
379.478	164.38
379.704	284.38
379.929	680.38
380.155	1424.38
380.38	1475.38
380.606	474.38
380.831	180.38
381.057	135.38
381.282	103.38
381.507	104.38
381.733	103.38
381.958	96.38
382.184	103.38
382.409	92.38
382.634	94.38
382.86	94.38
383.085	112.38
383.31	95.38
383.535	104.38
383.761	109.38
383.986	97.38
384.211	97.38
384.436	109.38
384.662	100.38
384.887	99.38
385.112	101.38
385.337	93.38
385.562	94.38
385.787	95.38
386.013	89.38
386.238	97.38
386.463	95.38
386.688	110.38
386.913	93.38
387.138	94.38
387.363	99.38
387.588	109.38
387.813	99.38
388.038	98.38
388.263	107.38
388.488	107.38
388.713	90.38
388.938	98.38
389.163	95.38
389.387	104.38
389.612	80.38
389.837	97.38
390.062	76.38
390.287	89.38
390.512	85.38
390.736	96.38
390.961	84.38
391.186	95.38
391.411	95.38
391.636	96.38
391.86	95.38
392.085	101.38
392.31	103.38
392.534	95.38
392.759	92.38
392.984	99.38
393.208	108.38
393.433	127.38
393.658	125.38
393.882	109.38
394.107	107.38
394.331	100.38
394.556	84.38
394.78	81.38
395.005	96.38
395.229	100.38
395.454	96.38
395.678	101.38
395.903	101.38
396.127	103.38
396.352	109.38
396.576	87.38
396.801	106.38
397.025	109.38
397.249	100.38
397.474	99.38
397.698	98.38
397.922	94.38
398.147	86.38
398.371	84.38
398.595	95.38
398.82	97.38
399.044	83.38
399.268	104.38
399.492	92.38
399.717	106.38
399.941	99.38
400.165	96.38
400.389	109.38
400.613	101.38
400.837	91.38
401.062	95.38
401.286	93.38
401.51	86.38
401.734	96.38
401.958	100.38
402.182	92.38
402.406	108.38
402.63	91.38
402.854	92.38
403.078	96.38
403.302	96.38
403.526	102.38
403.75	96.38
403.974	102.38
404.198	97.38
404.422	102.38
404.645	109.38
404.869	92.38
405.093	87.38
405.317	99.38
405.541	102.38
405.765	119.38
405.988	127.38
406.212	108.38
406.436	97.38
406.66	102.38
406.883	89.38
407.107	80.38
407.331	84.38
407.555	86.38
407.778	75.38
408.002	96.38
408.226	85.38
408.449	90.38
408.673	107.38
408.896	93.38
409.12	81.38
409.344	94.38
409.567	83.38
409.791	97.38
410.014	108.38
410.238	85.38
410.461	88.38
410.685	92.38
410.908	89.38
411.132	97.38
411.355	108.38
411.578	97.38
411.802	86.38
412.025	92.38
412.249	100.38
412.472	103.38
412.695	100.38
412.919	94.38
413.142	97.38
413.365	105.38
413.589	88.38
413.812	90.38
414.035	102.38
414.258	117.38
414.482	91.38
414.705	94.38
414.928	119.38
415.151	81.38
415.374	96.38
415.597	93.38
415.821	70.38
416.044	95.38
416.267	93.38
416.49	96.38
416.713	93.38
416.936	104.38
417.159	91.38
417.382	87.38
417.605	95.38
417.828	88.38
418.051	84.38
418.274	90.38
418.497	92.38
418.72	104.38
418.943	103.38
419.166	110.38
419.389	104.38
419.611	99.38
419.834	87.38
420.057	96.38
420.28	97.38
420.503	88.38
420.726	106.38
420.948	90.38
421.171	97.38
421.394	93.38
421.617	107.38
421.839	91.38
422.062	90.38
422.285	100.38
422.507	97.38
422.73	109.38
422.953	115.38
423.175	97.38
423.398	85.38
423.621	97.38
423.843	83.38
424.066	87.38
424.288	93.38
424.511	97.38
424.733	101.38
424.956	108.38
425.178	80.38
425.401	98.38
425.623	104.38
425.846	87.38
426.068	88.38
426.291	86.38
426.513	83.38
426.735	81.38
426.958	96.38
427.18	104.38
427.402	94.38
427.625	80.38
427.847	88.38
428.069	89.38
428.292	78.38
428.514	87.38
428.736	100.38
428.958	98.38
429.181	79.38
429.403	76.38
429.625	90.38
429.847	85.38
430.069	96.38
430.292	103.38
430.514	101.38
430.736	113.38
430.958	93.38
431.18	94.38
431.402	83.38
431.624	94.38
431.846	81.38
432.068	78.38
432.29	101.38
432.512	99.38
432.734	85.38
432.956	95.38
433.178	98.38
433.4	90.38
433.622	92.38
433.844	95.38
434.066	103.38
434.287	78.38
434.509	85.38
434.731	83.38
434.953	93.38
435.175	100.38
435.397	79.38
435.618	86.38
435.84	96.38
436.062	84.38
436.284	83.38
436.505	96.38
436.727	95.38
436.949	91.38
437.17	90.38
437.392	93.38
437.614	91.38
437.835	92.38
438.057	86.38
438.278	97.38
438.5	97.38
438.721	83.38
438.943	98.38
439.165	94.38
439.386	96.38
439.608	107.38
439.829	93.38
440.05	113.38
440.272	111.38
440.493	94.38
440.715	111.38
440.936	80.38
441.158	103.38
441.379	89.38
441.6	102.38
441.822	84.38
442.043	114.38
442.264	131.38
442.486	105.38
442.707	97.38
442.928	93.38
443.149	88.38
443.371	95.38
443.592	95.38
443.813	93.38
444.034	90.38
444.255	86.38
444.476	97.38
444.698	92.38
444.919	100.38
445.14	217.38
445.361	155.38
445.582	90.38
445.803	93.38
446.024	104.38
446.245	107.38
446.466	102.38
446.687	109.38
446.908	85.38
447.129	101.38
447.35	97.38
447.571	97.38
447.792	91.38
448.013	84.38
448.234	86.38
448.455	83.38
448.675	102.38
448.896	96.38
449.117	101.38
449.338	108.38
449.559	138.38
449.779	124.38
450	103.38
450.221	111.38
450.442	110.38
450.662	94.38
450.883	98.38
451.104	101.38
451.324	113.38
451.545	120.38
451.766	100.38
451.986	127.38
452.207	177.38
452.428	463.38
452.648	1169.38
452.869	678.38
453.089	184.38
453.31	127.38
453.53	109.38
453.751	133.38
453.971	148.38
454.192	147.38
454.412	109.38
454.633	99.38
454.853	91.38
455.073	100.38
455.294	71.38
455.514	79.38
455.734	83.38
455.955	83.38
456.175	87.38
456.395	99.38
456.616	104.38
456.836	88.38
457.056	98.38
457.276	86.38
457.497	109.38
457.717	110.38
457.937	97.38
458.157	98.38
458.377	80.38
458.598	92.38
458.818	85.38
459.038	97.38
459.258	90.38
459.478	83.38
459.698	90.38
459.918	80.38
460.138	76.38
460.358	98.38
460.578	95.38
460.798	85.38
461.018	93.38
461.238	79.38
461.458	82.38
461.678	88.38
461.898	97.38
462.118	92.38
462.338	83.38
462.558	90.38
462.777	91.38
462.997	87.38
463.217	101.38
463.437	111.38
463.657	149.38
463.876	165.38
464.096	105.38
464.316	102.38
464.536	94.38
464.755	95.38
464.975	89.38
465.195	100.38
465.414	76.38
465.634	95.38
465.854	110.38
466.073	91.38
466.293	102.38
466.512	88.38
466.732	101.38
466.951	100.38
467.171	137.38
467.391	119.38
467.61	108.38
467.829	101.38
468.049	95.38
468.268	96.38
468.488	106.38
468.707	88.38
468.927	102.38
469.146	103.38
469.365	86.38
469.585	100.38
469.804	91.38
470.023	88.38
470.243	93.38
470.462	96.38
470.681	107.38
470.901	110.38
471.12	183.38
471.339	189.38
471.558	127.38
471.777	94.38
471.997	91.38
472.216	86.38
472.435	86.38
472.654	85.38
472.873	94.38
473.092	85.38
473.311	96.38
473.53	91.38
473.749	84.38
473.968	84.38
474.187	82.38
474.406	86.38
474.625	79.38
474.844	103.38
475.063	83.38
475.282	71.38
475.501	100.38
475.72	98.38
475.939	99.38
476.158	91.38
476.377	98.38
476.596	97.38
476.814	101.38
477.033	102.38
477.252	90.38
477.471	99.38
477.69	101.38
477.908	94.38
478.127	98.38
478.346	104.38
478.564	79.38
478.783	82.38
479.002	89.38
479.22	86.38
479.439	95.38
479.658	84.38
479.876	89.38
480.095	100.38
480.313	93.38
480.532	90.38
480.751	92.38
480.969	75.38
481.188	94.38
481.406	81.38
481.624	103.38
481.843	97.38
482.061	113.38
482.28	95.38
482.498	86.38
482.717	94.38
482.935	103.38
483.153	95.38
483.372	83.38
483.59	98.38
483.808	107.38
484.027	104.38
484.245	113.38
484.463	167.38
484.681	217.38
484.9	137.38
485.118	108.38
485.336	91.38
485.554	105.38
485.772	126.38
485.99	175.38
486.209	255.38
486.427	157.38
486.645	105.38
486.863	95.38
487.081	90.38
487.299	92.38
487.517	97.38
487.735	83.38
487.953	103.38
488.171	109.38
488.389	101.38
488.607	84.38
488.825	92.38
489.043	101.38
489.261	81.38
489.479	96.38
489.696	108.38
489.914	88.38
490.132	104.38
490.35	95.38
490.568	95.38
490.786	105.38
491.003	96.38
491.221	99.38
491.439	113.38
491.657	84.38
491.874	93.38
492.092	91.38
492.31	103.38
492.527	88.38
492.745	98.38
492.963	97.38
493.18	95.38
493.398	113.38
493.615	93.38
493.833	99.38
494.05	101.38
494.268	91.38
494.485	109.38
494.703	110.38
494.92	80.38
495.138	98.38
495.355	93.38
495.573	109.38
495.79	103.38
496.008	103.38
496.225	107.38
496.442	111.38
496.66	108.38
496.877	150.38
497.094	138.38
497.312	99.38
497.529	110.38
497.746	89.38
497.963	98.38
498.181	97.38
498.398	100.38
498.615	111.38
498.832	116.38
499.049	103.38
499.267	137.38
499.484	158.38
499.701	103.38
499.918	100.38
500.135	90.38
500.352	100.38
500.569	109.38
500.786	104.38
501.003	105.38
501.22	83.38
501.437	102.38
501.654	111.38
501.871	104.38
502.088	95.38
502.305	91.38
502.522	93.38
502.739	97.38
502.956	101.38
503.172	104.38
503.389	90.38
503.606	91.38
503.823	97.38
504.04	81.38
504.256	90.38
504.473	87.38
504.69	101.38
504.907	112.38
505.123	107.38
505.34	95.38
505.557	100.38
505.773	86.38
505.99	107.38
506.207	97.38
506.423	99.38
506.64	102.38
506.856	105.38
507.073	89.38
507.289	115.38
507.506	78.38
507.722	89.38
507.939	87.38
508.155	97.38
508.372	99.38
508.588	88.38
508.805	97.38
509.021	88.38
509.238	99.38
509.454	137.38
509.67	149.38
509.887	104.38
510.103	99.38
510.319	97.38
510.536	111.38
510.752	115.38
510.968	99.38
511.184	84.38
511.401	87.38
511.617	104.38
511.833	91.38
512.049	88.38
512.265	82.38
512.481	103.38
512.698	86.38
512.914	108.38
513.13	91.38
513.346	90.38
513.562	89.38
513.778	93.38
513.994	96.38
514.21	99.38
514.426	136.38
514.642	182.38
514.858	113.38
515.074	99.38
515.29	105.38
515.506	98.38
515.721	105.38
515.937	87.38
516.153	104.38
516.369	73.38
516.585	87.38
516.801	75.38
517.016	91.38
517.232	95.38
517.448	105.38
517.664	82.38
517.879	93.38
518.095	96.38
518.311	107.38
518.527	111.38
518.742	102.38
518.958	112.38
519.173	138.38
519.389	107.38
519.605	97.38
519.82	101.38
520.036	101.38
520.251	89.38
520.467	83.38
520.682	105.38
520.898	86.38
521.113	109.38
521.329	79.38
521.544	85.38
521.76	93.38
521.975	106.38
522.19	100.38
522.406	99.38
522.621	86.38
522.836	104.38
523.052	96.38
523.267	88.38
523.482	92.38
523.698	88.38
523.913	89.38
524.128	89.38
524.343	92.38
524.559	103.38
524.774	78.38
524.989	85.38
525.204	100.38
525.419	94.38
525.634	92.38
525.849	112.38
526.064	83.38
526.28	93.38
526.495	102.38
526.71	91.38
526.925	104.38
527.14	82.38
527.355	96.38
527.57	93.38
527.785	99.38
527.999	96.38
528.214	89.38
528.429	79.38
528.644	93.38
528.859	100.38
529.074	76.38
529.289	93.38
529.503	102.38
529.718	91.38
529.933	99.38
530.148	86.38
530.363	76.38
530.577	79.38
530.792	97.38
531.007	100.38
531.221	86.38
531.436	102.38
531.651	99.38
531.865	92.38
532.08	98.38
532.295	98.38
532.509	123.38
532.724	108.38
532.938	101.38
533.153	98.38
533.367	102.38
533.582	103.38
533.796	86.38
534.011	88.38
534.225	94.38
534.44	97.38
534.654	100.38
534.868	92.38
535.083	103.38
535.297	100.38
535.511	97.38
535.726	90.38
535.94	100.38
536.154	76.38
536.369	95.38
536.583	92.38
536.797	92.38
537.011	96.38
537.225	69.38
537.44	79.38
537.654	94.38
537.868	84.38
538.082	81.38
538.296	84.38
538.51	99.38
538.724	108.38
538.938	97.38
539.153	97.38
539.367	96.38
539.581	94.38
539.795	110.38
540.009	86.38
540.222	103.38
540.436	96.38
540.65	95.38
540.864	95.38
541.078	95.38
541.292	115.38
541.506	186.38
541.72	187.38
541.934	115.38
542.147	103.38
542.361	91.38
542.575	87.38
542.789	94.38
543.002	100.38
543.216	108.38
543.43	95.38
543.644	85.38
543.857	85.38
544.071	64.38
544.285	102.38
544.498	89.38
544.712	93.38
544.925	103.38
545.139	92.38
545.352	101.38
545.566	97.38
545.779	102.38
545.993	93.38
546.206	94.38
546.42	101.38
546.633	92.38
546.847	97.38
547.06	99.38
547.274	101.38
547.487	111.38
547.7	100.38
547.914	108.38
548.127	102.38
548.34	109.38
548.554	87.38
548.767	111.38
548.98	93.38
549.193	98.38
549.407	104.38
549.62	100.38
549.833	85.38
550.046	97.38
550.259	94.38
550.473	96.38
550.686	118.38
550.899	80.38
551.112	91.38
551.325	95.38
551.538	93.38
551.751	105.38
551.964	98.38
552.177	97.38
552.39	94.38
552.603	111.38
552.816	109.38
553.029	83.38
553.242	103.38
553.455	88.38
553.667	101.38
553.88	101.38
554.093	119.38
554.306	100.38
554.519	99.38
554.732	111.38
554.944	100.38
555.157	91.38
555.37	89.38
555.583	99.38
555.795	87.38
556.008	121.38
556.221	144.38
556.433	117.38
556.646	84.38
556.859	96.38
557.071	101.38
557.284	106.38
557.496	97.38
557.709	117.38
557.921	114.38
558.134	92.38
558.346	102.38
558.559	97.38
558.771	107.38
558.984	83.38
559.196	96.38
559.409	85.38
559.621	88.38
559.833	85.38
560.046	103.38
560.258	108.38
560.47	94.38
560.683	90.38
560.895	91.38
561.107	88.38
561.32	92.38
561.532	87.38
561.744	97.38
561.956	112.38
562.168	86.38
562.381	102.38
562.593	105.38
562.805	112.38
563.017	151.38
563.229	217.38
563.441	511.38
563.653	187.38
563.865	96.38
564.077	80.38
564.289	105.38
564.501	84.38
564.713	105.38
564.925	92.38
565.137	85.38
565.349	91.38
565.561	95.38
565.773	94.38
565.985	101.38
566.197	87.38
566.408	91.38
566.62	91.38
566.832	86.38
567.044	93.38
567.255	86.38
567.467	89.38
567.679	100.38
567.891	113.38
568.102	165.38
568.314	218.38
568.526	134.38
568.737	95.38
568.949	92.38
569.161	91.38
569.372	98.38
569.584	95.38
569.795	96.38
570.007	103.38
570.218	118.38
570.43	149.38
570.641	111.38
570.853	104.38
571.064	91.38
571.276	85.38
571.487	89.38
571.698	79.38
571.91	102.38
572.121	93.38
572.333	100.38
572.544	87.38
572.755	129.38
572.966	192.38
573.178	125.38
573.389	102.38
573.6	92.38
573.811	92.38
574.023	97.38
574.234	101.38
574.445	105.38
574.656	92.38
574.867	84.38
575.078	91.38
575.289	95.38
575.501	110.38
575.712	93.38
575.923	84.38
576.134	86.38
576.345	87.38
576.556	89.38
576.767	87.38
576.978	93.38
577.188	85.38
577.399	97.38
577.61	97.38
577.821	88.38
578.032	82.38
578.243	81.38
578.454	102.38
578.665	93.38
578.875	83.38
579.086	83.38
579.297	88.38
579.508	79.38
579.718	82.38
579.929	94.38
580.14	92.38
580.35	87.38
580.561	89.38
580.772	87.38
580.982	99.38
581.193	85.38
581.403	92.38
581.614	76.38
581.825	88.38
582.035	87.38
582.246	90.38
582.456	88.38
582.667	94.38
582.877	99.38
583.087	104.38
583.298	97.38
583.508	83.38
583.719	88.38
583.929	73.38
584.139	77.38
584.35	96.38
584.56	92.38
584.77	80.38
584.981	77.38
585.191	89.38
585.401	88.38
585.611	84.38
585.821	95.38
586.032	91.38
586.242	80.38
586.452	94.38
586.662	87.38
586.872	78.38
587.082	105.38
587.292	87.38
587.502	79.38
587.713	101.38
587.923	91.38
588.133	81.38
588.343	84.38
588.553	91.38
588.762	88.38
588.972	93.38
589.182	107.38
589.392	94.38
589.602	96.38
589.812	93.38
590.022	95.38
590.232	83.38
590.441	92.38
590.651	89.38
590.861	81.38
591.071	94.38
591.281	81.38
591.49	100.38
591.7	77.38
591.91	86.38
592.119	85.38
592.329	89.38
592.539	77.38
592.748	101.38
592.958	97.38
593.167	80.38
593.377	71.38
593.587	87.38
593.796	87.38
594.006	86.38
594.215	90.38
594.424	87.38
594.634	92.38
594.843	79.38
595.053	87.38
595.262	97.38
595.472	83.38
595.681	84.38
595.89	89.38
596.1	82.38
596.309	68.38
596.518	87.38
596.727	83.38
596.937	78.38
597.146	111.38
597.355	104.38
597.564	89.38
597.774	83.38
597.983	97.38
598.192	92.38
598.401	77.38
598.61	106.38
598.819	95.38
599.028	84.38
599.237	83.38
599.446	88.38
599.655	72.38
599.864	83.38
600.073	86.38
600.282	95.38
600.491	77.38
600.7	89.38
600.909	91.38
601.118	97.38
601.327	102.38
601.536	82.38
601.745	103.38
601.953	133.38
602.162	141.38
602.371	109.38
602.58	87.38
602.789	74.38
602.997	86.38
603.206	98.38
603.415	90.38
603.623	80.38
603.832	95.38
604.041	96.38
604.249	85.38
604.458	79.38
604.666	92.38
604.875	84.38
605.084	85.38
605.292	89.38
605.501	99.38
605.709	106.38
605.918	88.38
606.126	96.38
606.334	91.38
606.543	100.38
606.751	122.38
606.96	147.38
607.168	167.38
607.376	103.38
607.585	95.38
607.793	97.38
608.001	88.38
608.21	89.38
608.418	101.38
608.626	102.38
608.834	89.38
609.043	91.38
609.251	101.38
609.459	110.38
609.667	101.38
609.875	87.38
610.083	84.38
610.291	82.38
610.499	78.38
610.707	90.38
610.916	102.38
611.124	91.38
611.332	93.38
611.54	83.38
611.748	85.38
611.955	89.38
612.163	89.38
612.371	92.38
612.579	92.38
612.787	80.38
612.995	93.38
613.203	80.38
613.411	86.38
613.618	96.38
613.826	82.38
614.034	92.38
614.242	103.38
614.449	87.38
614.657	89.38
614.865	85.38
615.072	100.38
615.28	109.38
615.488	99.38
615.695	103.38
615.903	101.38
616.111	94.38
616.318	86.38
616.526	83.38
616.733	83.38
616.941	96.38
617.148	108.38
617.356	102.38
617.563	95.38
617.771	76.38
617.978	83.38
618.185	98.38
618.393	96.38
618.6	86.38
618.807	76.38
619.015	83.38
619.222	98.38
619.429	93.38
619.637	91.38
619.844	99.38
620.051	80.38
620.258	82.38
620.466	89.38
620.673	103.38
620.88	74.38
621.087	99.38
621.294	95.38
621.501	93.38
621.708	83.38
621.915	80.38
622.122	91.38
622.329	83.38
622.536	80.38
622.743	87.38
622.95	99.38
623.157	82.38
623.364	83.38
623.571	81.38
623.778	97.38
623.985	83.38
624.192	98.38
624.399	73.38
624.606	94.38
624.812	87.38
625.019	82.38
625.226	85.38
625.433	88.38
625.639	95.38
625.846	87.38
626.053	98.38
626.259	73.38
626.466	84.38
626.673	73.38
626.879	73.38
627.086	85.38
627.293	85.38
627.499	79.38
627.706	81.38
627.912	92.38
628.119	94.38
628.325	83.38
628.532	88.38
628.738	77.38
628.945	95.38
629.151	90.38
629.357	83.38
629.564	83.38
629.77	82.38
629.976	88.38
630.183	85.38
630.389	92.38
630.595	85.38
630.802	81.38
631.008	74.38
631.214	86.38
631.42	91.38
631.627	89.38
631.833	82.38
632.039	92.38
632.245	87.38
632.451	101.38
632.657	87.38
632.863	91.38
633.069	99.38
633.275	79.38
633.481	82.38
633.688	86.38
633.893	96.38
634.099	86.38
634.305	89.38
634.511	83.38
634.717	79.38
634.923	105.38
635.129	118.38
635.335	127.38
635.541	104.38
635.747	97.38
635.952	78.38
636.158	87.38
636.364	72.38
636.57	83.38
636.775	76.38
636.981	83.38
637.187	95.38
637.392	85.38
637.598	75.38
637.804	78.38
638.009	89.38
638.215	78.38
638.421	82.38
638.626	86.38
638.832	81.38
639.037	84.38
639.243	87.38
639.448	77.38
639.654	91.38
639.859	96.38
640.065	81.38
640.27	90.38
640.475	78.38
640.681	70.38
640.886	80.38
641.091	95.38
641.297	93.38
641.502	80.38
641.707	73.38
641.913	77.38
642.118	91.38
642.323	78.38
642.528	84.38
642.733	88.38
642.939	89.38
643.144	92.38
643.349	92.38
643.554	76.38
643.759	89.38
643.964	83.38
644.169	78.38
644.374	80.38
644.579	84.38
644.784	70.38
644.989	87.38
645.194	78.38
645.399	93.38
645.604	75.38
645.809	83.38
646.014	79.38
646.219	83.38
646.423	78.38
646.628	80.38
646.833	79.38
647.038	82.38
647.243	98.38
647.447	88.38
647.652	62.38
647.857	84.38
648.062	92.38
648.266	88.38
648.471	81.38
648.676	87.38
648.88	75.38
649.085	75.38
649.289	76.38
649.494	77.38
649.698	79.38
649.903	83.38
650.107	79.38
650.312	74.38
650.516	94.38
650.721	94.38
650.925	76.38
651.13	85.38
651.334	86.38
651.539	78.38
651.743	76.38
651.947	90.38
652.152	87.38
652.356	95.38
652.56	88.38
652.764	103.38
652.969	99.38
653.173	71.38
653.377	83.38
653.581	85.38
653.785	95.38
653.99	76.38
654.194	93.38
654.398	89.38
654.602	69.38
654.806	92.38
655.01	79.38
655.214	83.38
655.418	90.38
655.622	64.38
655.826	76.38
656.03	83.38
656.234	73.38
656.438	80.38
656.642	91.38
656.846	74.38
657.049	77.38
657.253	94.38
657.457	82.38
657.661	73.38
657.865	89.38
658.068	94.38
658.272	78.38
658.476	86.38
658.68	87.38
658.883	73.38
659.087	81.38
659.291	103.38
659.494	93.38
659.698	63.38
659.901	69.38
660.105	97.38
660.309	81.38
660.512	79.38
660.716	83.38
660.919	92.38
661.123	89.38
661.326	79.38
661.53	88.38
661.733	76.38
661.936	82.38
662.14	90.38
662.343	85.38
662.546	72.38
662.75	94.38
662.953	93.38
663.156	72.38
663.36	80.38
663.563	69.38
663.766	77.38
663.969	84.38
664.173	76.38
664.376	74.38
664.579	75.38
664.782	83.38
664.985	79.38
665.188	99.38
665.391	98.38
665.594	73.38
665.797	93.38
666	85.38
666.203	73.38
666.406	67.38
666.609	87.38
666.812	69.38
667.015	82.38
667.218	82.38
667.421	81.38
667.624	79.38
667.827	77.38
668.03	83.38
668.232	73.38
668.435	81.38
668.638	80.38
668.841	88.38
669.043	76.38
669.246	81.38
669.449	86.38
669.651	78.38
669.854	78.38
670.057	88.38
670.259	70.38
670.462	88.38
670.665	87.38
670.867	80.38
671.07	72.38
671.272	85.38
671.475	91.38
671.677	86.38
671.88	71.38
672.082	76.38
672.284	69.38
672.487	82.38
672.689	89.38
672.892	84.38
