Data from SnStandardFlinnAPT0064_QswitchEnergy10_LIBS07252019.E.O._I.C._HRD10591_15-28-14-974.txt Node
Date: Thu Jul 25 15:28:14 EDT 2019
User: cochatt
Spectrometer: HR+D1059
Trigger mode: 1
Integration Time (sec): 1.000000E-1
Scans to average: 1
Electric dark correction enabled: true
Nonlinearity correction enabled: false
Boxcar width: 0
XAxis mode: Wavelengths
Number of Pixels in Spectrum: 2048
>>>>>Begin Spectral Data<<<<<
223.165	-7.94
223.4	-7.94
223.635	-7.94
223.869	-19.94
224.104	-21.94
224.338	-15.94
224.573	-8.94
224.808	-11.94
225.042	1.06
225.277	-7.94
225.511	-2.94
225.746	-6.94
225.98	4.06
226.215	5.06
226.449	21.06
226.683	26.06
226.918	13.06
227.152	34.06
227.387	22.06
227.621	28.06
227.856	41.06
228.09	51.06
228.324	59.06
228.559	61.06
228.793	78.06
229.027	71.06
229.262	66.06
229.496	57.06
229.73	56.06
229.964	72.06
230.199	71.06
230.433	69.06
230.667	87.06
230.901	87.06
231.136	83.06
231.37	81.06
231.604	87.06
231.838	98.06
232.072	124.06
232.306	125.06
232.541	92.06
232.775	99.06
233.009	75.06
233.243	88.06
233.477	89.06
233.711	98.06
233.945	98.06
234.179	83.06
234.413	72.06
234.647	88.06
234.881	80.06
235.115	79.06
235.349	88.06
235.583	107.06
235.817	117.06
236.051	133.06
236.285	96.06
236.519	94.06
236.753	75.06
236.987	81.06
237.221	89.06
237.455	83.06
237.689	88.06
237.922	74.06
238.156	73.06
238.39	96.06
238.624	87.06
238.858	92.06
239.091	68.06
239.325	83.06
239.559	74.06
239.793	82.06
240.027	92.06
240.26	78.06
240.494	88.06
240.728	85.06
240.961	84.06
241.195	96.06
241.429	97.06
241.662	72.06
241.896	83.06
242.13	118.06
242.363	127.06
242.597	177.06
242.83	140.06
243.064	147.06
243.298	181.06
243.531	159.06
243.765	89.06
243.998	91.06
244.232	81.06
244.465	74.06
244.699	81.06
244.932	89.06
245.166	75.06
245.399	91.06
245.633	77.06
245.866	101.06
246.099	85.06
246.333	82.06
246.566	99.06
246.8	86.06
247.033	74.06
247.266	74.06
247.5	82.06
247.733	97.06
247.966	90.06
248.2	109.06
248.433	104.06
248.666	123.06
248.899	125.06
249.133	106.06
249.366	99.06
249.599	107.06
249.832	129.06
250.066	129.06
250.299	88.06
250.532	83.06
250.765	82.06
250.998	91.06
251.231	77.06
251.465	85.06
251.698	79.06
251.931	82.06
252.164	81.06
252.397	87.06
252.63	87.06
252.863	95.06
253.096	105.06
253.329	92.06
253.562	82.06
253.795	87.06
254.028	92.06
254.261	98.06
254.494	103.06
254.727	127.06
254.96	152.06
255.193	133.06
255.426	92.06
255.659	92.06
255.892	100.06
256.124	101.06
256.357	89.06
256.59	87.06
256.823	89.06
257.056	113.06
257.289	135.06
257.521	179.06
257.754	145.06
257.987	91.06
258.22	89.06
258.452	89.06
258.685	79.06
258.918	98.06
259.151	99.06
259.383	117.06
259.616	125.06
259.849	156.06
260.081	109.06
260.314	85.06
260.547	79.06
260.779	80.06
261.012	76.06
261.244	77.06
261.477	96.06
261.71	85.06
261.942	84.06
262.175	92.06
262.407	80.06
262.64	89.06
262.872	84.06
263.105	88.06
263.337	80.06
263.57	72.06
263.802	85.06
264.035	82.06
264.267	88.06
264.499	78.06
264.732	91.06
264.964	95.06
265.197	99.06
265.429	94.06
265.661	91.06
265.894	100.06
266.126	122.06
266.358	159.06
266.591	160.06
266.823	108.06
267.055	101.06
267.287	99.06
267.52	80.06
267.752	85.06
267.984	90.06
268.216	85.06
268.448	82.06
268.681	106.06
268.913	87.06
269.145	84.06
269.377	78.06
269.609	86.06
269.841	88.06
270.073	115.06
270.306	120.06
270.538	208.06
270.77	351.06
271.002	383.06
271.234	213.06
271.466	109.06
271.698	85.06
271.93	90.06
272.162	111.06
272.394	89.06
272.626	100.06
272.858	106.06
273.09	90.06
273.322	85.06
273.553	96.06
273.785	90.06
274.017	92.06
274.249	88.06
274.481	85.06
274.713	88.06
274.945	97.06
275.176	92.06
275.408	87.06
275.64	91.06
275.872	97.06
276.104	96.06
276.335	103.06
276.567	98.06
276.799	100.06
277.031	93.06
277.262	99.06
277.494	99.06
277.726	125.06
277.957	165.06
278.189	259.06
278.421	244.06
278.652	189.06
278.884	171.06
279.115	147.06
279.347	108.06
279.579	100.06
279.81	101.06
280.042	93.06
280.273	92.06
280.505	111.06
280.736	105.06
280.968	123.06
281.199	166.06
281.431	234.06
281.662	242.06
281.894	150.06
282.125	121.06
282.356	122.06
282.588	101.06
282.819	118.06
283.051	119.06
283.282	150.06
283.513	189.06
283.745	308.06
283.976	588.06
284.207	859.06
284.439	634.06
284.67	287.06
284.901	263.06
285.132	359.06
285.364	393.06
285.595	226.06
285.826	179.06
286.057	245.06
286.288	429.06
286.52	663.06
286.751	511.06
286.982	195.06
287.213	124.06
287.444	109.06
287.675	116.06
287.906	109.06
288.138	96.06
288.369	108.06
288.6	87.06
288.831	96.06
289.062	92.06
289.293	101.06
289.524	80.06
289.755	100.06
289.986	99.06
290.217	112.06
290.448	96.06
290.679	91.06
290.91	125.06
291.141	165.06
291.371	224.06
291.602	265.06
291.833	188.06
292.064	104.06
292.295	104.06
292.526	83.06
292.757	89.06
292.987	97.06
293.218	106.06
293.449	94.06
293.68	102.06
293.91	104.06
294.141	81.06
294.372	90.06
294.603	89.06
294.833	90.06
295.064	104.06
295.295	109.06
295.525	101.06
295.756	87.06
295.987	86.06
296.217	99.06
296.448	96.06
296.679	108.06
296.909	100.06
297.14	88.06
297.37	115.06
297.601	97.06
297.831	90.06
298.062	110.06
298.292	104.06
298.523	106.06
298.753	105.06
298.984	87.06
299.214	117.06
299.445	113.06
299.675	123.06
299.905	123.06
300.136	146.06
300.366	180.06
300.597	291.06
300.827	469.06
301.057	767.06
301.288	691.06
301.518	277.06
301.748	155.06
301.979	123.06
302.209	138.06
302.439	146.06
302.669	183.06
302.9	279.06
303.13	513.06
303.36	924.06
303.59	1264.06
303.82	912.06
304.051	297.06
304.281	152.06
304.511	121.06
304.741	115.06
304.971	122.06
305.201	118.06
305.431	110.06
305.661	101.06
305.891	102.06
306.121	102.06
306.352	98.06
306.582	119.06
306.812	115.06
307.042	117.06
307.272	105.06
307.502	90.06
307.731	121.06
307.961	103.06
308.191	97.06
308.421	97.06
308.651	104.06
308.881	105.06
309.111	92.06
309.341	104.06
309.571	97.06
309.8	106.06
310.03	108.06
310.26	109.06
310.49	117.06
310.72	123.06
310.949	100.06
311.179	111.06
311.409	111.06
311.639	116.06
311.868	116.06
312.098	107.06
312.328	103.06
312.557	121.06
312.787	133.06
313.017	123.06
313.246	109.06
313.476	121.06
313.706	123.06
313.935	147.06
314.165	191.06
314.394	226.06
314.624	175.06
314.853	125.06
315.083	132.06
315.312	144.06
315.542	121.06
315.771	124.06
316.001	133.06
316.23	125.06
316.46	147.06
316.689	187.06
316.919	269.06
317.148	516.06
317.377	967.06
317.607	1638.06
317.836	1494.06
318.065	526.06
318.295	229.06
318.524	167.06
318.753	139.06
318.983	132.06
319.212	131.06
319.441	112.06
319.67	113.06
319.9	122.06
320.129	116.06
320.358	124.06
320.587	111.06
320.816	127.06
321.046	111.06
321.275	132.06
321.504	125.06
321.733	135.06
321.962	153.06
322.191	157.06
322.42	135.06
322.649	128.06
322.878	107.06
323.108	115.06
323.337	130.06
323.566	134.06
323.795	137.06
324.024	132.06
324.253	147.06
324.482	170.06
324.71	215.06
324.939	265.06
325.168	237.06
325.397	213.06
325.626	257.06
325.855	497.06
326.084	1002.06
326.313	1700.06
326.542	1685.06
326.77	623.06
326.999	259.06
327.228	213.06
327.457	218.06
327.686	213.06
327.914	150.06
328.143	129.06
328.372	138.06
328.6	143.06
328.829	111.06
329.058	124.06
329.287	129.06
329.515	119.06
329.744	115.06
329.972	130.06
330.201	128.06
330.43	129.06
330.658	112.06
330.887	123.06
331.115	123.06
331.344	109.06
331.572	131.06
331.801	115.06
332.03	127.06
332.258	141.06
332.486	174.06
332.715	297.06
332.943	517.06
333.172	796.06
333.4	697.06
333.629	273.06
333.857	137.06
334.085	135.06
334.314	127.06
334.542	127.06
334.771	119.06
334.999	122.06
335.227	117.06
335.455	122.06
335.684	134.06
335.912	106.06
336.14	109.06
336.369	105.06
336.597	121.06
336.825	112.06
337.053	119.06
337.281	102.06
337.51	109.06
337.738	126.06
337.966	108.06
338.194	123.06
338.422	115.06
338.65	96.06
338.878	123.06
339.106	108.06
339.334	113.06
339.562	127.06
339.79	117.06
340.018	107.06
340.246	116.06
340.474	123.06
340.702	106.06
340.93	118.06
341.158	122.06
341.386	126.06
341.614	127.06
341.842	119.06
342.07	123.06
342.298	117.06
342.526	116.06
342.754	123.06
342.981	123.06
343.209	116.06
343.437	115.06
343.665	98.06
343.893	97.06
344.12	114.06
344.348	115.06
344.576	103.06
344.804	118.06
345.031	121.06
345.259	112.06
345.487	106.06
345.714	113.06
345.942	116.06
346.17	119.06
346.397	104.06
346.625	105.06
346.853	108.06
347.08	109.06
347.308	101.06
347.535	111.06
347.763	114.06
347.99	115.06
348.218	117.06
348.445	104.06
348.673	115.06
348.9	131.06
349.128	126.06
349.355	117.06
349.583	119.06
349.81	130.06
350.037	113.06
350.265	129.06
350.492	117.06
350.72	122.06
350.947	103.06
351.174	123.06
351.402	101.06
351.629	102.06
351.856	116.06
352.083	117.06
352.311	107.06
352.538	108.06
352.765	111.06
352.992	102.06
353.22	111.06
353.447	111.06
353.674	100.06
353.901	95.06
354.128	105.06
354.355	107.06
354.583	113.06
354.81	107.06
355.037	98.06
355.264	122.06
355.491	113.06
355.718	102.06
355.945	111.06
356.172	107.06
356.399	91.06
356.626	98.06
356.853	110.06
357.08	104.06
357.307	116.06
357.534	111.06
357.761	93.06
357.988	120.06
358.215	113.06
358.441	108.06
358.668	119.06
358.895	115.06
359.122	112.06
359.349	111.06
359.576	122.06
359.802	105.06
360.029	102.06
360.256	106.06
360.483	107.06
360.709	106.06
360.936	131.06
361.163	115.06
361.39	100.06
361.616	115.06
361.843	125.06
362.07	120.06
362.296	121.06
362.523	96.06
362.749	109.06
362.976	91.06
363.203	97.06
363.429	105.06
363.656	108.06
363.882	115.06
364.109	114.06
364.335	109.06
364.562	103.06
364.788	98.06
365.015	106.06
365.241	129.06
365.468	186.06
365.694	219.06
365.92	199.06
366.147	108.06
366.373	109.06
366.599	108.06
366.826	98.06
367.052	111.06
367.278	102.06
367.505	102.06
367.731	123.06
367.957	111.06
368.184	116.06
368.41	121.06
368.636	130.06
368.862	105.06
369.089	118.06
369.315	106.06
369.541	120.06
369.767	119.06
369.993	107.06
370.219	99.06
370.445	115.06
370.672	117.06
370.898	95.06
371.124	117.06
371.35	108.06
371.576	106.06
371.802	102.06
372.028	116.06
372.254	115.06
372.48	123.06
372.706	126.06
372.932	117.06
373.158	111.06
373.384	111.06
373.61	129.06
373.835	117.06
374.061	124.06
374.287	111.06
374.513	108.06
374.739	109.06
374.965	122.06
375.191	116.06
375.416	101.06
375.642	113.06
375.868	102.06
376.094	109.06
376.319	105.06
376.545	116.06
376.771	108.06
376.997	97.06
377.222	110.06
377.448	107.06
377.674	121.06
377.899	115.06
378.125	105.06
378.35	107.06
378.576	117.06
378.802	103.06
379.027	123.06
379.253	134.06
379.478	180.06
379.704	330.06
379.929	802.06
380.155	1639.06
380.38	1703.06
380.606	550.06
380.831	199.06
381.057	143.06
381.282	121.06
381.507	115.06
381.733	108.06
381.958	125.06
382.184	113.06
382.409	113.06
382.634	116.06
382.86	105.06
383.085	94.06
383.31	111.06
383.535	91.06
383.761	103.06
383.986	120.06
384.211	108.06
384.436	100.06
384.662	99.06
384.887	90.06
385.112	101.06
385.337	107.06
385.562	91.06
385.787	105.06
386.013	116.06
386.238	107.06
386.463	108.06
386.688	106.06
386.913	105.06
387.138	97.06
387.363	109.06
387.588	111.06
387.813	110.06
388.038	98.06
388.263	101.06
388.488	108.06
388.713	94.06
388.938	108.06
389.163	100.06
389.387	120.06
389.612	119.06
389.837	100.06
390.062	116.06
390.287	107.06
390.512	121.06
390.736	111.06
390.961	105.06
391.186	102.06
391.411	102.06
391.636	98.06
391.86	99.06
392.085	110.06
392.31	95.06
392.534	104.06
392.759	104.06
392.984	97.06
393.208	119.06
393.433	138.06
393.658	123.06
393.882	111.06
394.107	104.06
394.331	98.06
394.556	95.06
394.78	79.06
395.005	95.06
395.229	107.06
395.454	87.06
395.678	114.06
395.903	113.06
396.127	96.06
396.352	97.06
396.576	106.06
396.801	108.06
397.025	120.06
397.249	111.06
397.474	96.06
397.698	99.06
397.922	93.06
398.147	101.06
398.371	98.06
398.595	92.06
398.82	109.06
399.044	92.06
399.268	95.06
399.492	95.06
399.717	104.06
399.941	102.06
400.165	87.06
400.389	104.06
400.613	101.06
400.837	87.06
401.062	91.06
401.286	100.06
401.51	106.06
401.734	91.06
401.958	84.06
402.182	98.06
402.406	98.06
402.63	93.06
402.854	108.06
403.078	97.06
403.302	100.06
403.526	100.06
403.75	103.06
403.974	104.06
404.198	96.06
404.422	98.06
404.645	92.06
404.869	99.06
405.093	100.06
405.317	97.06
405.541	105.06
405.765	117.06
405.988	142.06
406.212	116.06
406.436	100.06
406.66	94.06
406.883	104.06
407.107	84.06
407.331	101.06
407.555	102.06
407.778	95.06
408.002	114.06
408.226	118.06
408.449	106.06
408.673	93.06
408.896	90.06
409.12	96.06
409.344	106.06
409.567	109.06
409.791	99.06
410.014	98.06
410.238	88.06
410.461	91.06
410.685	95.06
410.908	91.06
411.132	92.06
411.355	91.06
411.578	86.06
411.802	97.06
412.025	104.06
412.249	99.06
412.472	91.06
412.695	93.06
412.919	101.06
413.142	115.06
413.365	106.06
413.589	108.06
413.812	100.06
414.035	103.06
414.258	108.06
414.482	120.06
414.705	100.06
414.928	106.06
415.151	101.06
415.374	104.06
415.597	95.06
415.821	107.06
416.044	95.06
416.267	103.06
416.49	85.06
416.713	96.06
416.936	93.06
417.159	92.06
417.382	105.06
417.605	75.06
417.828	97.06
418.051	96.06
418.274	97.06
418.497	106.06
418.72	115.06
418.943	106.06
419.166	106.06
419.389	120.06
419.611	106.06
419.834	101.06
420.057	104.06
420.28	99.06
420.503	96.06
420.726	101.06
420.948	90.06
421.171	85.06
421.394	96.06
421.617	94.06
421.839	91.06
422.062	104.06
422.285	102.06
422.507	110.06
422.73	125.06
422.953	137.06
423.175	119.06
423.398	105.06
423.621	87.06
423.843	95.06
424.066	95.06
424.288	90.06
424.511	88.06
424.733	86.06
424.956	107.06
425.178	99.06
425.401	101.06
425.623	92.06
425.846	87.06
426.068	87.06
426.291	100.06
426.513	97.06
426.735	94.06
426.958	95.06
427.18	97.06
427.402	104.06
427.625	109.06
427.847	89.06
428.069	88.06
428.292	106.06
428.514	90.06
428.736	101.06
428.958	96.06
429.181	98.06
429.403	90.06
429.625	94.06
429.847	90.06
430.069	105.06
430.292	104.06
430.514	118.06
430.736	99.06
430.958	103.06
431.18	96.06
431.402	88.06
431.624	97.06
431.846	70.06
432.068	80.06
432.29	81.06
432.512	79.06
432.734	99.06
432.956	90.06
433.178	89.06
433.4	95.06
433.622	101.06
433.844	99.06
434.066	92.06
434.287	92.06
434.509	91.06
434.731	90.06
434.953	91.06
435.175	112.06
435.397	95.06
435.618	86.06
435.84	88.06
436.062	90.06
436.284	107.06
436.505	104.06
436.727	95.06
436.949	87.06
437.17	102.06
437.392	89.06
437.614	92.06
437.835	89.06
438.057	86.06
438.278	95.06
438.5	89.06
438.721	99.06
438.943	96.06
439.165	106.06
439.386	111.06
439.608	111.06
439.829	103.06
440.05	108.06
440.272	139.06
440.493	93.06
440.715	101.06
440.936	91.06
441.158	100.06
441.379	103.06
441.6	103.06
441.822	93.06
442.043	120.06
442.264	141.06
442.486	115.06
442.707	107.06
442.928	109.06
443.149	97.06
443.371	97.06
443.592	96.06
443.813	96.06
444.034	97.06
444.255	114.06
444.476	92.06
444.698	89.06
444.919	94.06
445.14	186.06
445.361	147.06
445.582	91.06
445.803	103.06
446.024	86.06
446.245	104.06
446.466	99.06
446.687	103.06
446.908	92.06
447.129	81.06
447.35	104.06
447.571	103.06
447.792	99.06
448.013	88.06
448.234	97.06
448.455	103.06
448.675	95.06
448.896	102.06
449.117	127.06
449.338	146.06
449.559	150.06
449.779	111.06
450	123.06
450.221	117.06
450.442	108.06
450.662	109.06
450.883	98.06
451.104	102.06
451.324	108.06
451.545	104.06
451.766	117.06
451.986	138.06
452.207	207.06
452.428	525.06
452.648	1273.06
452.869	726.06
453.089	204.06
453.31	121.06
453.53	122.06
453.751	134.06
453.971	147.06
454.192	169.06
454.412	122.06
454.633	102.06
454.853	89.06
455.073	90.06
455.294	77.06
455.514	99.06
455.734	95.06
455.955	91.06
456.175	80.06
456.395	104.06
456.616	96.06
456.836	92.06
457.056	112.06
457.276	103.06
457.497	107.06
457.717	129.06
457.937	95.06
458.157	88.06
458.377	88.06
458.598	93.06
458.818	103.06
459.038	98.06
459.258	84.06
459.478	101.06
459.698	76.06
459.918	106.06
460.138	97.06
460.358	88.06
460.578	95.06
460.798	88.06
461.018	94.06
461.238	99.06
461.458	98.06
461.678	92.06
461.898	103.06
462.118	82.06
462.338	95.06
462.558	106.06
462.777	88.06
462.997	104.06
463.217	98.06
463.437	144.06
463.657	199.06
463.876	189.06
464.096	122.06
464.316	103.06
464.536	92.06
464.755	91.06
464.975	99.06
465.195	105.06
465.414	92.06
465.634	101.06
465.854	99.06
466.073	91.06
466.293	94.06
466.512	91.06
466.732	104.06
466.951	120.06
467.171	152.06
467.391	142.06
467.61	107.06
467.829	91.06
468.049	87.06
468.268	101.06
468.488	103.06
468.707	90.06
468.927	101.06
469.146	92.06
469.365	96.06
469.585	94.06
469.804	109.06
470.023	105.06
470.243	97.06
470.462	103.06
470.681	121.06
470.901	137.06
471.12	204.06
471.339	232.06
471.558	148.06
471.777	109.06
471.997	108.06
472.216	92.06
472.435	100.06
472.654	97.06
472.873	97.06
473.092	103.06
473.311	85.06
473.53	118.06
473.749	102.06
473.968	95.06
474.187	111.06
474.406	107.06
474.625	99.06
474.844	101.06
475.063	93.06
475.282	82.06
475.501	100.06
475.72	95.06
475.939	101.06
476.158	95.06
476.377	117.06
476.596	106.06
476.814	89.06
477.033	96.06
477.252	93.06
477.471	101.06
477.69	106.06
477.908	103.06
478.127	115.06
478.346	91.06
478.564	95.06
478.783	104.06
479.002	96.06
479.22	98.06
479.439	111.06
479.658	89.06
479.876	104.06
480.095	84.06
480.313	92.06
480.532	100.06
480.751	89.06
480.969	98.06
481.188	90.06
481.406	98.06
481.624	93.06
481.843	104.06
482.061	102.06
482.28	96.06
482.498	91.06
482.717	95.06
482.935	114.06
483.153	89.06
483.372	95.06
483.59	101.06
483.808	93.06
484.027	112.06
484.245	122.06
484.463	174.06
484.681	256.06
484.9	139.06
485.118	106.06
485.336	104.06
485.554	112.06
485.772	104.06
485.99	199.06
486.209	270.06
486.427	169.06
486.645	108.06
486.863	113.06
487.081	108.06
487.299	106.06
487.517	91.06
487.735	99.06
487.953	104.06
488.171	105.06
488.389	95.06
488.607	85.06
488.825	101.06
489.043	111.06
489.261	85.06
489.479	99.06
489.696	88.06
489.914	95.06
490.132	121.06
490.35	97.06
490.568	89.06
490.786	92.06
491.003	117.06
491.221	115.06
491.439	107.06
491.657	91.06
491.874	108.06
492.092	108.06
492.31	112.06
492.527	107.06
492.745	112.06
492.963	100.06
493.18	102.06
493.398	114.06
493.615	99.06
493.833	108.06
494.05	106.06
494.268	100.06
494.485	106.06
494.703	113.06
494.92	92.06
495.138	111.06
495.355	94.06
495.573	106.06
495.79	99.06
496.008	108.06
496.225	101.06
496.442	112.06
496.66	114.06
496.877	157.06
497.094	168.06
497.312	106.06
497.529	101.06
497.746	103.06
497.963	115.06
498.181	109.06
498.398	103.06
498.615	101.06
498.832	88.06
499.049	107.06
499.267	140.06
499.484	179.06
499.701	118.06
499.918	108.06
500.135	115.06
500.352	111.06
500.569	103.06
500.786	105.06
501.003	97.06
501.22	103.06
501.437	95.06
501.654	104.06
501.871	103.06
502.088	103.06
502.305	88.06
502.522	102.06
502.739	99.06
502.956	99.06
503.172	102.06
503.389	116.06
503.606	119.06
503.823	100.06
504.04	93.06
504.256	107.06
504.473	104.06
504.69	84.06
504.907	117.06
505.123	116.06
505.34	105.06
505.557	115.06
505.773	93.06
505.99	108.06
506.207	104.06
506.423	106.06
506.64	88.06
506.856	93.06
507.073	108.06
507.289	94.06
507.506	99.06
507.722	95.06
507.939	93.06
508.155	100.06
508.372	90.06
508.588	105.06
508.805	101.06
509.021	101.06
509.238	96.06
509.454	155.06
509.67	165.06
509.887	104.06
510.103	105.06
510.319	93.06
510.536	100.06
510.752	115.06
510.968	103.06
511.184	102.06
511.401	98.06
511.617	95.06
511.833	98.06
512.049	99.06
512.265	100.06
512.481	99.06
512.698	103.06
512.914	107.06
513.13	86.06
513.346	87.06
513.562	103.06
513.778	91.06
513.994	106.06
514.21	106.06
514.426	142.06
514.642	183.06
514.858	116.06
515.074	93.06
515.29	95.06
515.506	100.06
515.721	106.06
515.937	100.06
516.153	93.06
516.369	90.06
516.585	100.06
516.801	96.06
517.016	84.06
517.232	107.06
517.448	83.06
517.664	92.06
517.879	94.06
518.095	95.06
518.311	102.06
518.527	90.06
518.742	109.06
518.958	120.06
519.173	165.06
519.389	122.06
519.605	106.06
519.82	99.06
520.036	104.06
520.251	94.06
520.467	106.06
520.682	104.06
520.898	84.06
521.113	94.06
521.329	88.06
521.544	95.06
521.76	105.06
521.975	104.06
522.19	106.06
522.406	109.06
522.621	92.06
522.836	97.06
523.052	96.06
523.267	95.06
523.482	110.06
523.698	92.06
523.913	95.06
524.128	89.06
524.343	93.06
524.559	98.06
524.774	103.06
524.989	89.06
525.204	89.06
525.419	93.06
525.634	106.06
525.849	103.06
526.064	102.06
526.28	103.06
526.495	74.06
526.71	88.06
526.925	95.06
527.14	99.06
527.355	99.06
527.57	88.06
527.785	97.06
527.999	95.06
528.214	101.06
528.429	87.06
528.644	97.06
528.859	102.06
529.074	92.06
529.289	97.06
529.503	107.06
529.718	95.06
529.933	96.06
530.148	111.06
530.363	106.06
530.577	94.06
530.792	84.06
531.007	97.06
531.221	107.06
531.436	86.06
531.651	86.06
531.865	107.06
532.08	105.06
532.295	112.06
532.509	149.06
532.724	116.06
532.938	100.06
533.153	95.06
533.367	104.06
533.582	106.06
533.796	93.06
534.011	115.06
534.225	94.06
534.44	98.06
534.654	93.06
534.868	99.06
535.083	97.06
535.297	88.06
535.511	94.06
535.726	111.06
535.94	101.06
536.154	100.06
536.369	99.06
536.583	96.06
536.797	100.06
537.011	96.06
537.225	104.06
537.44	81.06
537.654	89.06
537.868	93.06
538.082	83.06
538.296	90.06
538.51	105.06
538.724	79.06
538.938	101.06
539.153	100.06
539.367	101.06
539.581	88.06
539.795	95.06
540.009	97.06
540.222	88.06
540.436	103.06
540.65	104.06
540.864	118.06
541.078	105.06
541.292	133.06
541.506	218.06
541.72	223.06
541.934	135.06
542.147	115.06
542.361	111.06
542.575	93.06
542.789	94.06
543.002	90.06
543.216	96.06
543.43	92.06
543.644	93.06
543.857	99.06
544.071	111.06
544.285	97.06
544.498	107.06
544.712	95.06
544.925	102.06
545.139	100.06
545.352	109.06
545.566	101.06
545.779	99.06
545.993	118.06
546.206	107.06
546.42	97.06
546.633	99.06
546.847	118.06
547.06	101.06
547.274	105.06
547.487	98.06
547.7	103.06
547.914	113.06
548.127	112.06
548.34	112.06
548.554	92.06
548.767	93.06
548.98	103.06
549.193	102.06
549.407	119.06
549.62	99.06
549.833	101.06
550.046	107.06
550.259	104.06
550.473	107.06
550.686	108.06
550.899	104.06
551.112	96.06
551.325	112.06
551.538	104.06
551.751	102.06
551.964	112.06
552.177	102.06
552.39	100.06
552.603	113.06
552.816	123.06
553.029	105.06
553.242	107.06
553.455	115.06
553.667	115.06
553.88	123.06
554.093	108.06
554.306	105.06
554.519	102.06
554.732	100.06
554.944	111.06
555.157	109.06
555.37	102.06
555.583	103.06
555.795	116.06
556.008	122.06
556.221	168.06
556.433	122.06
556.646	120.06
556.859	102.06
557.071	119.06
557.284	125.06
557.496	113.06
557.709	99.06
557.921	96.06
558.134	125.06
558.346	110.06
558.559	96.06
558.771	108.06
558.984	96.06
559.196	113.06
559.409	111.06
559.621	127.06
559.833	108.06
560.046	93.06
560.258	108.06
560.47	115.06
560.683	99.06
560.895	99.06
561.107	103.06
561.32	104.06
561.532	109.06
561.744	95.06
561.956	116.06
562.168	106.06
562.381	85.06
562.593	105.06
562.805	141.06
563.017	155.06
563.229	261.06
563.441	555.06
563.653	189.06
563.865	102.06
564.077	111.06
564.289	119.06
564.501	104.06
564.713	103.06
564.925	91.06
565.137	93.06
565.349	85.06
565.561	75.06
565.773	94.06
565.985	100.06
566.197	104.06
566.408	97.06
566.62	102.06
566.832	90.06
567.044	89.06
567.255	84.06
567.467	100.06
567.679	101.06
567.891	112.06
568.102	189.06
568.314	283.06
568.526	147.06
568.737	107.06
568.949	92.06
569.161	100.06
569.372	96.06
569.584	100.06
569.795	104.06
570.007	121.06
570.218	123.06
570.43	164.06
570.641	126.06
570.853	81.06
571.064	93.06
571.276	99.06
571.487	80.06
571.698	87.06
571.91	98.06
572.121	97.06
572.333	91.06
572.544	113.06
572.755	149.06
572.966	213.06
573.178	146.06
573.389	123.06
573.6	94.06
573.811	101.06
574.023	88.06
574.234	95.06
574.445	90.06
574.656	97.06
574.867	92.06
575.078	103.06
575.289	103.06
575.501	108.06
575.712	105.06
575.923	104.06
576.134	99.06
576.345	106.06
576.556	104.06
576.767	92.06
576.978	99.06
577.188	93.06
577.399	86.06
577.61	102.06
577.821	86.06
578.032	88.06
578.243	86.06
578.454	91.06
578.665	106.06
578.875	93.06
579.086	97.06
579.297	89.06
579.508	99.06
579.718	94.06
579.929	89.06
580.14	104.06
580.35	103.06
580.561	101.06
580.772	92.06
580.982	102.06
581.193	90.06
581.403	96.06
581.614	94.06
581.825	94.06
582.035	88.06
582.246	95.06
582.456	100.06
582.667	103.06
582.877	119.06
583.087	121.06
583.298	110.06
583.508	89.06
583.719	87.06
583.929	103.06
584.139	105.06
584.35	89.06
584.56	101.06
584.77	88.06
584.981	92.06
585.191	85.06
585.401	94.06
585.611	87.06
585.821	97.06
586.032	85.06
586.242	100.06
586.452	100.06
586.662	96.06
586.872	94.06
587.082	96.06
587.292	84.06
587.502	99.06
587.713	105.06
587.923	83.06
588.133	110.06
588.343	88.06
588.553	101.06
588.762	98.06
588.972	112.06
589.182	108.06
589.392	106.06
589.602	111.06
589.812	105.06
590.022	113.06
590.232	92.06
590.441	83.06
590.651	98.06
590.861	85.06
591.071	85.06
591.281	88.06
591.49	90.06
591.7	99.06
591.91	99.06
592.119	105.06
592.329	77.06
592.539	90.06
592.748	108.06
592.958	84.06
593.167	83.06
593.377	87.06
593.587	97.06
593.796	98.06
594.006	95.06
594.215	91.06
594.424	93.06
594.634	74.06
594.843	88.06
595.053	100.06
595.262	96.06
595.472	103.06
595.681	95.06
595.89	92.06
596.1	81.06
596.309	96.06
596.518	88.06
596.727	91.06
596.937	74.06
597.146	104.06
597.355	102.06
597.564	97.06
597.774	87.06
597.983	106.06
598.192	92.06
598.401	81.06
598.61	101.06
598.819	92.06
599.028	91.06
599.237	93.06
599.446	105.06
599.655	87.06
599.864	94.06
600.073	90.06
600.282	102.06
600.491	94.06
600.7	86.06
600.909	91.06
601.118	83.06
601.327	97.06
601.536	98.06
601.745	102.06
601.953	134.06
602.162	141.06
602.371	105.06
602.58	94.06
602.789	95.06
602.997	94.06
603.206	95.06
603.415	99.06
603.623	106.06
603.832	92.06
604.041	106.06
604.249	92.06
604.458	84.06
604.666	83.06
604.875	92.06
605.084	93.06
605.292	89.06
605.501	94.06
605.709	97.06
605.918	107.06
606.126	103.06
606.334	102.06
606.543	110.06
606.751	131.06
606.96	164.06
607.168	195.06
607.376	120.06
607.585	106.06
607.793	89.06
608.001	103.06
608.21	98.06
608.418	104.06
608.626	93.06
608.834	96.06
609.043	86.06
609.251	91.06
609.459	91.06
609.667	92.06
609.875	93.06
610.083	100.06
610.291	87.06
610.499	92.06
610.707	94.06
610.916	91.06
611.124	85.06
611.332	85.06
611.54	88.06
611.748	87.06
611.955	90.06
612.163	106.06
612.371	94.06
612.579	97.06
612.787	99.06
612.995	92.06
613.203	97.06
613.411	93.06
613.618	90.06
613.826	74.06
614.034	99.06
614.242	96.06
614.449	92.06
614.657	102.06
614.865	96.06
615.072	102.06
615.28	115.06
615.488	103.06
615.695	118.06
615.903	105.06
616.111	119.06
616.318	97.06
616.526	93.06
616.733	83.06
616.941	81.06
617.148	111.06
617.356	96.06
617.563	89.06
617.771	87.06
617.978	91.06
618.185	71.06
618.393	85.06
618.6	88.06
618.807	92.06
619.015	100.06
619.222	99.06
619.429	98.06
619.637	96.06
619.844	104.06
620.051	88.06
620.258	89.06
620.466	104.06
620.673	106.06
620.88	66.06
621.087	87.06
621.294	83.06
621.501	75.06
621.708	90.06
621.915	76.06
622.122	88.06
622.329	96.06
622.536	91.06
622.743	89.06
622.95	97.06
623.157	91.06
623.364	80.06
623.571	79.06
623.778	82.06
623.985	99.06
624.192	82.06
624.399	101.06
624.606	93.06
624.812	90.06
625.019	91.06
625.226	97.06
625.433	95.06
625.639	96.06
625.846	93.06
626.053	98.06
626.259	73.06
626.466	92.06
626.673	99.06
626.879	77.06
627.086	98.06
627.293	91.06
627.499	88.06
627.706	99.06
627.912	91.06
628.119	92.06
628.325	85.06
628.532	101.06
628.738	90.06
628.945	81.06
629.151	85.06
629.357	101.06
629.564	97.06
629.77	90.06
629.976	98.06
630.183	93.06
630.389	95.06
630.595	89.06
630.802	84.06
631.008	86.06
631.214	92.06
631.42	102.06
631.627	91.06
631.833	82.06
632.039	84.06
632.245	81.06
632.451	92.06
632.657	86.06
632.863	92.06
633.069	90.06
633.275	100.06
633.481	89.06
633.688	90.06
633.893	106.06
634.099	94.06
634.305	78.06
634.511	83.06
634.717	86.06
634.923	101.06
635.129	114.06
635.335	127.06
635.541	101.06
635.747	98.06
635.952	99.06
636.158	71.06
636.364	73.06
636.57	99.06
636.775	93.06
636.981	105.06
637.187	80.06
637.392	83.06
637.598	89.06
637.804	88.06
638.009	85.06
638.215	95.06
638.421	91.06
638.626	87.06
638.832	97.06
639.037	89.06
639.243	61.06
639.448	73.06
639.654	74.06
639.859	92.06
640.065	90.06
640.27	83.06
640.475	106.06
640.681	92.06
640.886	107.06
641.091	83.06
641.297	95.06
641.502	97.06
641.707	90.06
641.913	100.06
642.118	88.06
642.323	88.06
642.528	92.06
642.733	94.06
642.939	91.06
643.144	80.06
643.349	88.06
643.554	98.06
643.759	88.06
643.964	95.06
644.169	103.06
644.374	78.06
644.579	87.06
644.784	91.06
644.989	81.06
645.194	104.06
645.399	92.06
645.604	88.06
645.809	102.06
646.014	96.06
646.219	96.06
646.423	87.06
646.628	91.06
646.833	81.06
647.038	81.06
647.243	98.06
647.447	98.06
647.652	81.06
647.857	94.06
648.062	97.06
648.266	70.06
648.471	87.06
648.676	78.06
648.88	87.06
649.085	91.06
649.289	85.06
649.494	88.06
649.698	89.06
649.903	94.06
650.107	95.06
650.312	93.06
650.516	88.06
650.721	101.06
650.925	94.06
651.13	94.06
651.334	95.06
651.539	98.06
651.743	91.06
651.947	80.06
652.152	87.06
652.356	85.06
652.56	92.06
652.764	123.06
652.969	81.06
653.173	92.06
653.377	89.06
653.581	82.06
653.785	90.06
653.99	81.06
654.194	83.06
654.398	101.06
654.602	72.06
654.806	89.06
655.01	78.06
655.214	82.06
655.418	83.06
655.622	82.06
655.826	90.06
656.03	80.06
656.234	95.06
656.438	81.06
656.642	92.06
656.846	79.06
657.049	81.06
657.253	97.06
657.457	81.06
657.661	93.06
657.865	92.06
658.068	92.06
658.272	87.06
658.476	91.06
658.68	88.06
658.883	81.06
659.087	79.06
659.291	96.06
659.494	83.06
659.698	93.06
659.901	92.06
660.105	81.06
660.309	78.06
660.512	78.06
660.716	85.06
660.919	68.06
661.123	85.06
661.326	85.06
661.53	94.06
661.733	72.06
661.936	78.06
662.14	92.06
662.343	101.06
662.546	82.06
662.75	93.06
662.953	80.06
663.156	76.06
663.36	80.06
663.563	93.06
663.766	87.06
663.969	72.06
664.173	82.06
664.376	79.06
664.579	97.06
664.782	72.06
664.985	80.06
665.188	85.06
665.391	93.06
665.594	91.06
665.797	82.06
666	90.06
666.203	79.06
666.406	88.06
666.609	81.06
666.812	73.06
667.015	85.06
667.218	85.06
667.421	83.06
667.624	83.06
667.827	77.06
668.03	73.06
668.232	71.06
668.435	86.06
668.638	86.06
668.841	76.06
669.043	85.06
669.246	83.06
669.449	75.06
669.651	83.06
669.854	92.06
670.057	88.06
670.259	77.06
670.462	87.06
670.665	103.06
670.867	96.06
671.07	85.06
671.272	83.06
671.475	81.06
671.677	73.06
671.88	71.06
672.082	78.06
672.284	78.06
672.487	91.06
672.689	79.06
672.892	77.06
