Data from SnStandardFlinnAPT0064_LampEnergy5.5_LIBS07252019.E.O._I.C._HRD10591_15-15-55-491.txt Node
Date: Thu Jul 25 15:15:55 EDT 2019
User: cochatt
Spectrometer: HR+D1059
Trigger mode: 1
Integration Time (sec): 1.000000E-1
Scans to average: 1
Electric dark correction enabled: true
Nonlinearity correction enabled: false
Boxcar width: 0
XAxis mode: Wavelengths
Number of Pixels in Spectrum: 2048
>>>>>Begin Spectral Data<<<<<
223.165	-21.31
223.4	-21.31
223.635	-21.31
223.869	-9.31
224.104	-12.31
224.338	-12.31
224.573	-10.31
224.808	-20.31
225.042	-13.31
225.277	-1.31
225.511	1.69
225.746	-1.31
225.98	-6.31
226.215	12.69
226.449	13.69
226.683	25.69
226.918	21.69
227.152	32.69
227.387	37.69
227.621	45.69
227.856	54.69
228.09	41.69
228.324	69.69
228.559	59.69
228.793	83.69
229.027	169.69
229.262	156.69
229.496	158.69
229.73	169.69
229.964	170.69
230.199	173.69
230.433	150.69
230.667	169.69
230.901	179.69
231.136	165.69
231.37	183.69
231.604	204.69
231.838	212.69
232.072	235.69
232.306	254.69
232.541	231.69
232.775	201.69
233.009	221.69
233.243	199.69
233.477	231.69
233.711	244.69
233.945	259.69
234.179	236.69
234.413	216.69
234.647	210.69
234.881	219.69
235.115	257.69
235.349	275.69
235.583	335.69
235.817	421.69
236.051	408.69
236.285	310.69
236.519	241.69
236.753	245.69
236.987	249.69
237.221	248.69
237.455	227.69
237.689	218.69
237.922	211.69
238.156	228.69
238.39	230.69
238.624	236.69
238.858	237.69
239.091	222.69
239.325	237.69
239.559	232.69
239.793	231.69
240.027	250.69
240.26	252.69
240.494	258.69
240.728	271.69
240.961	273.69
241.195	282.69
241.429	315.69
241.662	315.69
241.896	323.69
242.13	405.69
242.363	484.69
242.597	599.69
242.83	582.69
243.064	629.69
243.298	711.69
243.531	597.69
243.765	406.69
243.998	351.69
244.232	326.69
244.465	304.69
244.699	295.69
244.932	285.69
245.166	295.69
245.399	288.69
245.633	300.69
245.866	314.69
246.099	313.69
246.333	272.69
246.566	305.69
246.8	277.69
247.033	301.69
247.266	313.69
247.5	300.69
247.733	305.69
247.966	322.69
248.2	349.69
248.433	365.69
248.666	398.69
248.899	384.69
249.133	364.69
249.366	361.69
249.599	395.69
249.832	435.69
250.066	453.69
250.299	383.69
250.532	351.69
250.765	335.69
250.998	322.69
251.231	331.69
251.465	328.69
251.698	337.69
251.931	348.69
252.164	308.69
252.397	337.69
252.63	358.69
252.863	352.69
253.096	343.69
253.329	378.69
253.562	353.69
253.795	343.69
254.028	353.69
254.261	371.69
254.494	395.69
254.727	429.69
254.96	518.69
255.193	489.69
255.426	413.69
255.659	382.69
255.892	378.69
256.124	378.69
256.357	376.69
256.59	386.69
256.823	429.69
257.056	462.69
257.289	520.69
257.521	562.69
257.754	504.69
257.987	397.69
258.22	414.69
258.452	394.69
258.685	407.69
258.918	410.69
259.151	413.69
259.383	467.69
259.616	501.69
259.849	521.69
260.081	435.69
260.314	420.69
260.547	431.69
260.779	441.69
261.012	423.69
261.244	422.69
261.477	433.69
261.71	430.69
261.942	472.69
262.175	442.69
262.407	491.69
262.64	484.69
262.872	486.69
263.105	499.69
263.337	552.69
263.57	549.69
263.802	587.69
264.035	569.69
264.267	587.69
264.499	604.69
264.732	634.69
264.964	633.69
265.197	625.69
265.429	636.69
265.661	639.69
265.894	689.69
266.126	733.69
266.358	798.69
266.591	781.69
266.823	691.69
267.055	606.69
267.287	591.69
267.52	589.69
267.752	575.69
267.984	570.69
268.216	567.69
268.448	580.69
268.681	545.69
268.913	530.69
269.145	536.69
269.377	545.69
269.609	546.69
269.841	538.69
270.073	561.69
270.306	647.69
270.538	882.69
270.77	1234.69
271.002	1476.69
271.234	1065.69
271.466	735.69
271.698	636.69
271.93	572.69
272.162	563.69
272.394	540.69
272.626	547.69
272.858	539.69
273.09	538.69
273.322	524.69
273.553	506.69
273.785	512.69
274.017	499.69
274.249	561.69
274.481	537.69
274.713	526.69
274.945	537.69
275.176	550.69
275.408	539.69
275.64	543.69
275.872	546.69
276.104	547.69
276.335	533.69
276.567	557.69
276.799	525.69
277.031	571.69
277.262	572.69
277.494	597.69
277.726	637.69
277.957	703.69
278.189	786.69
278.421	743.69
278.652	689.69
278.884	654.69
279.115	593.69
279.347	616.69
279.579	587.69
279.81	603.69
280.042	618.69
280.273	637.69
280.505	603.69
280.736	629.69
280.968	643.69
281.199	684.69
281.431	775.69
281.662	795.69
281.894	719.69
282.125	699.69
282.356	694.69
282.588	686.69
282.819	714.69
283.051	741.69
283.282	815.69
283.513	992.69
283.745	1421.69
283.976	2125.69
284.207	3036.69
284.439	2715.69
284.67	1640.69
284.901	1326.69
285.132	1296.69
285.364	1246.69
285.595	1014.69
285.826	936.69
286.057	1142.69
286.288	1467.69
286.52	1946.69
286.751	1767.69
286.982	1157.69
287.213	876.69
287.444	798.69
287.675	776.69
287.906	744.69
288.138	720.69
288.369	709.69
288.6	708.69
288.831	717.69
289.062	701.69
289.293	715.69
289.524	717.69
289.755	708.69
289.986	711.69
290.217	721.69
290.448	721.69
290.679	726.69
290.91	711.69
291.141	762.69
291.371	796.69
291.602	806.69
291.833	755.69
292.064	697.69
292.295	680.69
292.526	684.69
292.757	691.69
292.987	695.69
293.218	661.69
293.449	685.69
293.68	676.69
293.91	690.69
294.141	673.69
294.372	682.69
294.603	664.69
294.833	654.69
295.064	666.69
295.295	664.69
295.525	665.69
295.756	683.69
295.987	663.69
296.217	680.69
296.448	691.69
296.679	684.69
296.909	677.69
297.14	684.69
297.37	699.69
297.601	701.69
297.831	680.69
298.062	686.69
298.292	703.69
298.523	698.69
298.753	686.69
298.984	705.69
299.214	734.69
299.445	746.69
299.675	720.69
299.905	751.69
300.136	766.69
300.366	830.69
300.597	1064.69
300.827	1433.69
301.057	1909.69
301.288	1883.69
301.518	1255.69
301.748	1002.69
301.979	926.69
302.209	917.69
302.439	919.69
302.669	966.69
302.9	1121.69
303.13	1521.69
303.36	2167.69
303.59	2904.69
303.82	2537.69
304.051	1538.69
304.281	1133.69
304.511	934.69
304.741	902.69
304.971	882.69
305.201	861.69
305.431	853.69
305.661	814.69
305.891	790.69
306.121	793.69
306.352	795.69
306.582	793.69
306.812	757.69
307.042	769.69
307.272	769.69
307.502	760.69
307.731	776.69
307.961	771.69
308.191	775.69
308.421	752.69
308.651	765.69
308.881	761.69
309.111	750.69
309.341	777.69
309.571	773.69
309.8	784.69
310.03	770.69
310.26	797.69
310.49	787.69
310.72	809.69
310.949	805.69
311.179	770.69
311.409	810.69
311.639	821.69
311.868	813.69
312.098	829.69
312.328	810.69
312.557	840.69
312.787	860.69
313.017	813.69
313.246	839.69
313.476	861.69
313.706	882.69
313.935	882.69
314.165	965.69
314.394	970.69
314.624	924.69
314.853	906.69
315.083	899.69
315.312	894.69
315.542	893.69
315.771	909.69
316.001	904.69
316.23	955.69
316.46	983.69
316.689	1074.69
316.919	1227.69
317.148	1741.69
317.377	2630.69
317.607	3806.69
317.836	3929.69
318.065	2363.69
318.295	1579.69
318.524	1279.69
318.753	1125.69
318.983	1055.69
319.212	1029.69
319.441	973.69
319.67	986.69
319.9	977.69
320.129	971.69
320.358	933.69
320.587	962.69
320.816	964.69
321.046	959.69
321.275	965.69
321.504	973.69
321.733	986.69
321.962	1022.69
322.191	1025.69
322.42	1045.69
322.649	1004.69
322.878	1008.69
323.108	1017.69
323.337	1032.69
323.566	1025.69
323.795	1071.69
324.024	1101.69
324.253	1109.69
324.482	1174.69
324.71	1179.69
324.939	1249.69
325.168	1268.69
325.397	1329.69
325.626	1540.69
325.855	2097.69
326.084	3233.69
326.313	4706.69
326.542	5057.69
326.77	3189.69
326.999	2111.69
327.228	1851.69
327.457	1762.69
327.686	1778.69
327.914	1849.69
328.143	2140.69
328.372	2474.69
328.6	2662.69
328.829	2468.69
329.058	2172.69
329.287	1943.69
329.515	1830.69
329.744	1672.69
329.972	1614.69
330.201	1525.69
330.43	1493.69
330.658	1466.69
330.887	1447.69
331.115	1408.69
331.344	1386.69
331.572	1397.69
331.801	1404.69
332.03	1387.69
332.258	1417.69
332.486	1506.69
332.715	1657.69
332.943	1967.69
333.172	2320.69
333.4	2333.69
333.629	1884.69
333.857	1751.69
334.085	1771.69
334.314	1854.69
334.542	1949.69
334.771	2205.69
334.999	2676.69
335.227	3158.69
335.455	3508.69
335.684	3353.69
335.912	2881.69
336.14	2464.69
336.369	2245.69
336.597	2029.69
336.825	1899.69
337.053	1798.69
337.281	1675.69
337.51	1591.69
337.738	1559.69
337.966	1485.69
338.194	1438.69
338.422	1417.69
338.65	1362.69
338.878	1337.69
339.106	1316.69
339.334	1282.69
339.562	1285.69
339.79	1300.69
340.018	1257.69
340.246	1276.69
340.474	1257.69
340.702	1226.69
340.93	1250.69
341.158	1240.69
341.386	1245.69
341.614	1218.69
341.842	1213.69
342.07	1172.69
342.298	1149.69
342.526	1160.69
342.754	1150.69
342.981	1144.69
343.209	1141.69
343.437	1118.69
343.665	1165.69
343.893	1178.69
344.12	1194.69
344.348	1172.69
344.576	1189.69
344.804	1117.69
345.031	1097.69
345.259	1093.69
345.487	1074.69
345.714	1073.69
345.942	1071.69
346.17	1080.69
346.397	1047.69
346.625	1059.69
346.853	1055.69
347.08	1065.69
347.308	1049.69
347.535	1050.69
347.763	1049.69
347.99	1039.69
348.218	1055.69
348.445	1052.69
348.673	1068.69
348.9	1049.69
349.128	1031.69
349.355	1018.69
349.583	1029.69
349.81	986.69
350.037	1011.69
350.265	1020.69
350.492	1009.69
350.72	1017.69
350.947	1009.69
351.174	1065.69
351.402	985.69
351.629	1027.69
351.856	1022.69
352.083	972.69
352.311	1022.69
352.538	1004.69
352.765	1005.69
352.992	974.69
353.22	1013.69
353.447	998.69
353.674	1017.69
353.901	1015.69
354.128	993.69
354.355	982.69
354.583	1015.69
354.81	1029.69
355.037	1039.69
355.264	1030.69
355.491	1036.69
355.718	1019.69
355.945	1027.69
356.172	1020.69
356.399	1032.69
356.626	1025.69
356.853	1074.69
357.08	1034.69
357.307	1083.69
357.534	1061.69
357.761	1082.69
357.988	1043.69
358.215	1063.69
358.441	1071.69
358.668	1074.69
358.895	1050.69
359.122	1068.69
359.349	1080.69
359.576	1076.69
359.802	1063.69
360.029	1065.69
360.256	1086.69
360.483	1070.69
360.709	1083.69
360.936	1091.69
361.163	1080.69
361.39	1063.69
361.616	1084.69
361.843	1085.69
362.07	1112.69
362.296	1083.69
362.523	1070.69
362.749	1073.69
362.976	1093.69
363.203	1060.69
363.429	1081.69
363.656	1056.69
363.882	1107.69
364.109	1097.69
364.335	1086.69
364.562	1094.69
364.788	1045.69
365.015	1070.69
365.241	1113.69
365.468	1149.69
365.694	1163.69
365.92	1130.69
366.147	1091.69
366.373	1094.69
366.599	1082.69
366.826	1097.69
367.052	1097.69
367.278	1090.69
367.505	1109.69
367.731	1110.69
367.957	1110.69
368.184	1117.69
368.41	1128.69
368.636	1089.69
368.862	1116.69
369.089	1124.69
369.315	1074.69
369.541	1114.69
369.767	1094.69
369.993	1090.69
370.219	1137.69
370.445	1148.69
370.672	1126.69
370.898	1134.69
371.124	1140.69
371.35	1134.69
371.576	1126.69
371.802	1124.69
372.028	1170.69
372.254	1173.69
372.48	1199.69
372.706	1205.69
372.932	1185.69
373.158	1174.69
373.384	1168.69
373.61	1174.69
373.835	1185.69
374.061	1164.69
374.287	1212.69
374.513	1172.69
374.739	1209.69
374.965	1236.69
375.191	1214.69
375.416	1217.69
375.642	1209.69
375.868	1174.69
376.094	1201.69
376.319	1194.69
376.545	1141.69
376.771	1183.69
376.997	1142.69
377.222	1143.69
377.448	1151.69
377.674	1160.69
377.899	1155.69
378.125	1166.69
378.35	1167.69
378.576	1148.69
378.802	1151.69
379.027	1202.69
379.253	1212.69
379.478	1254.69
379.704	1464.69
379.929	1930.69
380.155	2793.69
380.38	3062.69
380.606	1962.69
380.831	1438.69
381.057	1285.69
381.282	1214.69
381.507	1181.69
381.733	1175.69
381.958	1178.69
382.184	1163.69
382.409	1165.69
382.634	1157.69
382.86	1154.69
383.085	1142.69
383.31	1164.69
383.535	1132.69
383.761	1137.69
383.986	1161.69
384.211	1158.69
384.436	1191.69
384.662	1213.69
384.887	1171.69
385.112	1174.69
385.337	1202.69
385.562	1177.69
385.787	1186.69
386.013	1190.69
386.238	1191.69
386.463	1183.69
386.688	1162.69
386.913	1147.69
387.138	1191.69
387.363	1173.69
387.588	1209.69
387.813	1208.69
388.038	1185.69
388.263	1163.69
388.488	1170.69
388.713	1181.69
388.938	1182.69
389.163	1157.69
389.387	1189.69
389.612	1166.69
389.837	1204.69
390.062	1209.69
390.287	1201.69
390.512	1210.69
390.736	1220.69
390.961	1217.69
391.186	1244.69
391.411	1239.69
391.636	1250.69
391.86	1251.69
392.085	1245.69
392.31	1245.69
392.534	1208.69
392.759	1226.69
392.984	1195.69
393.208	1202.69
393.433	1209.69
393.658	1225.69
393.882	1224.69
394.107	1223.69
394.331	1177.69
394.556	1190.69
394.78	1213.69
395.005	1205.69
395.229	1210.69
395.454	1170.69
395.678	1227.69
395.903	1261.69
396.127	1241.69
396.352	1215.69
396.576	1202.69
396.801	1220.69
397.025	1260.69
397.249	1254.69
397.474	1260.69
397.698	1270.69
397.922	1275.69
398.147	1270.69
398.371	1280.69
398.595	1303.69
398.82	1323.69
399.044	1363.69
399.268	1472.69
399.492	1511.69
399.717	1569.69
399.941	1572.69
400.165	1490.69
400.389	1481.69
400.613	1403.69
400.837	1364.69
401.062	1319.69
401.286	1309.69
401.51	1313.69
401.734	1291.69
401.958	1292.69
402.182	1315.69
402.406	1311.69
402.63	1350.69
402.854	1318.69
403.078	1339.69
403.302	1310.69
403.526	1369.69
403.75	1348.69
403.974	1357.69
404.198	1349.69
404.422	1348.69
404.645	1371.69
404.869	1349.69
405.093	1374.69
405.317	1337.69
405.541	1388.69
405.765	1368.69
405.988	1377.69
406.212	1389.69
406.436	1369.69
406.66	1422.69
406.883	1359.69
407.107	1429.69
407.331	1441.69
407.555	1479.69
407.778	1459.69
408.002	1450.69
408.226	1435.69
408.449	1464.69
408.673	1434.69
408.896	1344.69
409.12	1390.69
409.344	1382.69
409.567	1361.69
409.791	1352.69
410.014	1347.69
410.238	1337.69
410.461	1318.69
410.685	1325.69
410.908	1346.69
411.132	1318.69
411.355	1299.69
411.578	1304.69
411.802	1283.69
412.025	1312.69
412.249	1306.69
412.472	1296.69
412.695	1277.69
412.919	1275.69
413.142	1282.69
413.365	1291.69
413.589	1313.69
413.812	1267.69
414.035	1251.69
414.258	1282.69
414.482	1297.69
414.705	1318.69
414.928	1293.69
415.151	1272.69
415.374	1265.69
415.597	1286.69
415.821	1255.69
416.044	1235.69
416.267	1253.69
416.49	1261.69
416.713	1224.69
416.936	1242.69
417.159	1230.69
417.382	1217.69
417.605	1235.69
417.828	1230.69
418.051	1257.69
418.274	1276.69
418.497	1245.69
418.72	1269.69
418.943	1236.69
419.166	1327.69
419.389	1386.69
419.611	1359.69
419.834	1293.69
420.057	1306.69
420.28	1249.69
420.503	1235.69
420.726	1224.69
420.948	1207.69
421.171	1223.69
421.394	1266.69
421.617	1278.69
421.839	1246.69
422.062	1217.69
422.285	1235.69
422.507	1297.69
422.73	1295.69
422.953	1253.69
423.175	1269.69
423.398	1297.69
423.621	1257.69
423.843	1255.69
424.066	1262.69
424.288	1241.69
424.511	1247.69
424.733	1253.69
424.956	1255.69
425.178	1266.69
425.401	1249.69
425.623	1205.69
425.846	1234.69
426.068	1214.69
426.291	1209.69
426.513	1188.69
426.735	1188.69
426.958	1189.69
427.18	1180.69
427.402	1161.69
427.625	1213.69
427.847	1163.69
428.069	1158.69
428.292	1168.69
428.514	1145.69
428.736	1145.69
428.958	1164.69
429.181	1145.69
429.403	1163.69
429.625	1132.69
429.847	1128.69
430.069	1166.69
430.292	1199.69
430.514	1251.69
430.736	1229.69
430.958	1181.69
431.18	1117.69
431.402	1182.69
431.624	1117.69
431.846	1104.69
432.068	1151.69
432.29	1132.69
432.512	1111.69
432.734	1174.69
432.956	1151.69
433.178	1163.69
433.4	1162.69
433.622	1165.69
433.844	1139.69
434.066	1155.69
434.287	1144.69
434.509	1128.69
434.731	1132.69
434.953	1165.69
435.175	1193.69
435.397	1213.69
435.618	1174.69
435.84	1158.69
436.062	1146.69
436.284	1138.69
436.505	1131.69
436.727	1145.69
436.949	1137.69
437.17	1104.69
437.392	1127.69
437.614	1111.69
437.835	1077.69
438.057	1097.69
438.278	1063.69
438.5	1123.69
438.721	1148.69
438.943	1166.69
439.165	1173.69
439.386	1178.69
439.608	1180.69
439.829	1174.69
440.05	1230.69
440.272	1251.69
440.493	1213.69
440.715	1167.69
440.936	1186.69
441.158	1199.69
441.379	1188.69
441.6	1255.69
441.822	1274.69
442.043	1309.69
442.264	1350.69
442.486	1301.69
442.707	1252.69
442.928	1218.69
443.149	1218.69
443.371	1202.69
443.592	1240.69
443.813	1205.69
444.034	1235.69
444.255	1251.69
444.476	1281.69
444.698	1302.69
444.919	1337.69
445.14	1417.69
445.361	1335.69
445.582	1287.69
445.803	1267.69
446.024	1203.69
446.245	1216.69
446.466	1220.69
446.687	1199.69
446.908	1189.69
447.129	1191.69
447.35	1126.69
447.571	1182.69
447.792	1131.69
448.013	1137.69
448.234	1123.69
448.455	1158.69
448.675	1142.69
448.896	1148.69
449.117	1176.69
449.338	1271.69
449.559	1291.69
449.779	1190.69
450	1104.69
450.221	1104.69
450.442	1089.69
450.662	1106.69
450.883	1079.69
451.104	1070.69
451.324	1087.69
451.545	1083.69
451.766	1108.69
451.986	1135.69
452.207	1181.69
452.428	1411.69
452.648	1875.69
452.869	1622.69
453.089	1254.69
453.31	1169.69
453.53	1226.69
453.751	1224.69
453.971	1293.69
454.192	1289.69
454.412	1115.69
454.633	1097.69
454.853	1075.69
455.073	1039.69
455.294	1034.69
455.514	1055.69
455.734	1025.69
455.955	1024.69
456.175	1048.69
456.395	1081.69
456.616	1036.69
456.836	1048.69
457.056	1067.69
457.276	1078.69
457.497	1120.69
457.717	1107.69
457.937	1111.69
458.157	1089.69
458.377	1104.69
458.598	1131.69
458.818	1132.69
459.038	1123.69
459.258	1079.69
459.478	1136.69
459.698	1116.69
459.918	1162.69
460.138	1231.69
460.358	1216.69
460.578	1265.69
460.798	1224.69
461.018	1273.69
461.238	1242.69
461.458	1237.69
461.678	1290.69
461.898	1297.69
462.118	1265.69
462.338	1308.69
462.558	1303.69
462.777	1343.69
462.997	1393.69
463.217	1441.69
463.437	1475.69
463.657	1478.69
463.876	1457.69
464.096	1392.69
464.316	1365.69
464.536	1341.69
464.755	1313.69
464.975	1279.69
465.195	1240.69
465.414	1215.69
465.634	1208.69
465.854	1186.69
466.073	1174.69
466.293	1154.69
466.512	1141.69
466.732	1148.69
466.951	1212.69
467.171	1242.69
467.391	1234.69
467.61	1162.69
467.829	1124.69
468.049	1129.69
468.268	1155.69
468.488	1122.69
468.707	1127.69
468.927	1104.69
469.146	1147.69
469.365	1126.69
469.585	1118.69
469.804	1159.69
470.023	1197.69
470.243	1194.69
470.462	1239.69
470.681	1267.69
470.901	1395.69
471.12	1546.69
471.339	1559.69
471.558	1348.69
471.777	1198.69
471.997	1189.69
472.216	1123.69
472.435	1127.69
472.654	1149.69
472.873	1131.69
473.092	1131.69
473.311	1139.69
473.53	1158.69
473.749	1149.69
473.968	1150.69
474.187	1145.69
474.406	1129.69
474.625	1152.69
474.844	1141.69
475.063	1128.69
475.282	1125.69
475.501	1143.69
475.72	1130.69
475.939	1153.69
476.158	1163.69
476.377	1164.69
476.596	1165.69
476.814	1185.69
477.033	1162.69
477.252	1151.69
477.471	1216.69
477.69	1258.69
477.908	1255.69
478.127	1274.69
478.346	1310.69
478.564	1274.69
478.783	1313.69
479.002	1319.69
479.22	1350.69
479.439	1338.69
479.658	1314.69
479.876	1352.69
480.095	1370.69
480.313	1363.69
480.532	1381.69
480.751	1356.69
480.969	1325.69
481.188	1334.69
481.406	1343.69
481.624	1322.69
481.843	1326.69
482.061	1359.69
482.28	1370.69
482.498	1331.69
482.717	1347.69
482.935	1377.69
483.153	1380.69
483.372	1396.69
483.59	1438.69
483.808	1421.69
484.027	1445.69
484.245	1490.69
484.463	1681.69
484.681	1813.69
484.9	1687.69
485.118	1594.69
485.336	1564.69
485.554	1565.69
485.772	1641.69
485.99	1835.69
486.209	1995.69
486.427	1673.69
486.645	1521.69
486.863	1517.69
487.081	1482.69
487.299	1438.69
487.517	1434.69
487.735	1454.69
487.953	1487.69
488.171	1459.69
488.389	1449.69
488.607	1411.69
488.825	1401.69
489.043	1377.69
489.261	1367.69
489.479	1399.69
489.696	1397.69
489.914	1396.69
490.132	1389.69
490.35	1421.69
490.568	1477.69
490.786	1466.69
491.003	1465.69
491.221	1484.69
491.439	1492.69
491.657	1499.69
491.874	1495.69
492.092	1547.69
492.31	1520.69
492.527	1523.69
492.745	1496.69
492.963	1497.69
493.18	1485.69
493.398	1482.69
493.615	1485.69
493.833	1495.69
494.05	1476.69
494.268	1475.69
494.485	1497.69
494.703	1457.69
494.92	1469.69
495.138	1498.69
495.355	1497.69
495.573	1525.69
495.79	1485.69
496.008	1516.69
496.225	1512.69
496.442	1562.69
496.66	1608.69
496.877	1604.69
497.094	1598.69
497.312	1568.69
497.529	1601.69
497.746	1632.69
497.963	1627.69
498.181	1651.69
498.398	1659.69
498.615	1722.69
498.832	1787.69
499.049	1876.69
499.267	2007.69
499.484	2119.69
499.701	2179.69
499.918	2234.69
500.135	2345.69
500.352	2493.69
500.569	2542.69
500.786	2543.69
501.003	2445.69
501.22	2323.69
501.437	2156.69
501.654	2035.69
501.871	1979.69
502.088	1889.69
502.305	1833.69
502.522	1778.69
502.739	1670.69
502.956	1684.69
503.172	1623.69
503.389	1570.69
503.606	1529.69
503.823	1561.69
504.04	1536.69
504.256	1538.69
504.473	1529.69
504.69	1483.69
504.907	1499.69
505.123	1493.69
505.34	1433.69
505.557	1418.69
505.773	1382.69
505.99	1394.69
506.207	1363.69
506.423	1361.69
506.64	1343.69
506.856	1347.69
507.073	1337.69
507.289	1321.69
507.506	1287.69
507.722	1303.69
507.939	1296.69
508.155	1260.69
508.372	1267.69
508.588	1254.69
508.805	1241.69
509.021	1262.69
509.238	1301.69
509.454	1343.69
509.67	1372.69
509.887	1313.69
510.103	1268.69
510.319	1265.69
510.536	1255.69
510.752	1209.69
510.968	1240.69
511.184	1202.69
511.401	1217.69
511.617	1220.69
511.833	1222.69
512.049	1205.69
512.265	1205.69
512.481	1166.69
512.698	1157.69
512.914	1179.69
513.13	1215.69
513.346	1148.69
513.562	1185.69
513.778	1235.69
513.994	1201.69
514.21	1261.69
514.426	1318.69
514.642	1309.69
514.858	1227.69
515.074	1229.69
515.29	1260.69
515.506	1218.69
515.721	1226.69
515.937	1240.69
516.153	1262.69
516.369	1289.69
516.585	1281.69
516.801	1289.69
517.016	1322.69
517.232	1341.69
517.448	1349.69
517.664	1363.69
517.879	1390.69
518.095	1372.69
518.311	1342.69
518.527	1352.69
518.742	1350.69
518.958	1306.69
519.173	1350.69
519.389	1292.69
519.605	1262.69
519.82	1261.69
520.036	1246.69
520.251	1219.69
520.467	1225.69
520.682	1202.69
520.898	1213.69
521.113	1169.69
521.329	1172.69
521.544	1187.69
521.76	1214.69
521.975	1160.69
522.19	1186.69
522.406	1171.69
522.621	1186.69
522.836	1178.69
523.052	1164.69
523.267	1162.69
523.482	1157.69
523.698	1185.69
523.913	1167.69
524.128	1193.69
524.343	1163.69
524.559	1166.69
524.774	1177.69
524.989	1189.69
525.204	1157.69
525.419	1188.69
525.634	1154.69
525.849	1175.69
526.064	1175.69
526.28	1145.69
526.495	1132.69
526.71	1139.69
526.925	1165.69
527.14	1151.69
527.355	1176.69
527.57	1182.69
527.785	1176.69
527.999	1149.69
528.214	1177.69
528.429	1225.69
528.644	1207.69
528.859	1273.69
529.074	1252.69
529.289	1283.69
529.503	1283.69
529.718	1250.69
529.933	1260.69
530.148	1220.69
530.363	1201.69
530.577	1226.69
530.792	1181.69
531.007	1214.69
531.221	1243.69
531.436	1252.69
531.651	1260.69
531.865	1260.69
532.08	1289.69
532.295	1303.69
532.509	1357.69
532.724	1409.69
532.938	1379.69
533.153	1412.69
533.367	1451.69
533.582	1510.69
533.796	1527.69
534.011	1505.69
534.225	1454.69
534.44	1429.69
534.654	1385.69
534.868	1359.69
535.083	1333.69
535.297	1315.69
535.511	1333.69
535.726	1317.69
535.94	1313.69
536.154	1262.69
536.369	1241.69
536.583	1272.69
536.797	1218.69
537.011	1221.69
537.225	1226.69
537.44	1189.69
537.654	1191.69
537.868	1148.69
538.082	1168.69
538.296	1177.69
538.51	1154.69
538.724	1215.69
538.938	1165.69
539.153	1146.69
539.367	1151.69
539.581	1140.69
539.795	1146.69
540.009	1103.69
540.222	1110.69
540.436	1109.69
540.65	1129.69
540.864	1181.69
541.078	1177.69
541.292	1225.69
541.506	1420.69
541.72	1485.69
541.934	1308.69
542.147	1291.69
542.361	1198.69
542.575	1158.69
542.789	1114.69
543.002	1096.69
543.216	1087.69
543.43	1100.69
543.644	1081.69
543.857	1102.69
544.071	1139.69
544.285	1141.69
544.498	1147.69
544.712	1115.69
544.925	1149.69
545.139	1122.69
545.352	1135.69
545.566	1131.69
545.779	1155.69
545.993	1139.69
546.206	1151.69
546.42	1136.69
546.633	1147.69
546.847	1148.69
547.06	1149.69
547.274	1159.69
547.487	1145.69
547.7	1139.69
547.914	1102.69
548.127	1153.69
548.34	1146.69
548.554	1135.69
548.767	1125.69
548.98	1155.69
549.193	1167.69
549.407	1143.69
549.62	1140.69
549.833	1142.69
550.046	1156.69
550.259	1150.69
550.473	1153.69
550.686	1130.69
550.899	1115.69
551.112	1087.69
551.325	1139.69
551.538	1121.69
551.751	1115.69
551.964	1101.69
552.177	1128.69
552.39	1134.69
552.603	1183.69
552.816	1185.69
553.029	1214.69
553.242	1231.69
553.455	1214.69
553.667	1254.69
553.88	1250.69
554.093	1207.69
554.306	1241.69
554.519	1247.69
554.732	1284.69
554.944	1257.69
555.157	1266.69
555.37	1327.69
555.583	1346.69
555.795	1413.69
556.008	1495.69
556.221	1597.69
556.433	1640.69
556.646	1687.69
556.859	1592.69
557.071	1613.69
557.284	1579.69
557.496	1497.69
557.709	1492.69
557.921	1521.69
558.134	1525.69
558.346	1510.69
558.559	1525.69
558.771	1644.69
558.984	1699.69
559.196	1778.69
559.409	1748.69
559.621	1723.69
559.833	1577.69
560.046	1505.69
560.258	1410.69
560.47	1370.69
560.683	1329.69
560.895	1328.69
561.107	1265.69
561.32	1245.69
561.532	1204.69
561.744	1192.69
561.956	1196.69
562.168	1181.69
562.381	1130.69
562.593	1125.69
562.805	1164.69
563.017	1175.69
563.229	1150.69
563.441	1254.69
563.653	1128.69
563.865	1079.69
564.077	1046.69
564.289	1045.69
564.501	1029.69
564.713	1072.69
564.925	1065.69
565.137	1045.69
565.349	1042.69
565.561	1051.69
565.773	1062.69
565.985	1066.69
566.197	1077.69
566.408	1063.69
566.62	1116.69
566.832	1143.69
567.044	1173.69
567.255	1154.69
567.467	1171.69
567.679	1146.69
567.891	1261.69
568.102	1356.69
568.314	1593.69
568.526	1339.69
568.737	1191.69
568.949	1073.69
569.161	1015.69
569.372	966.69
569.584	952.69
569.795	945.69
570.007	932.69
570.218	922.69
570.43	959.69
570.641	900.69
570.853	865.69
571.064	882.69
571.276	858.69
571.487	856.69
571.698	841.69
571.91	824.69
572.121	833.69
572.333	825.69
572.544	818.69
572.755	840.69
572.966	990.69
573.178	891.69
573.389	849.69
573.6	789.69
573.811	781.69
574.023	750.69
574.234	767.69
574.445	775.69
574.656	756.69
574.867	735.69
575.078	789.69
575.289	755.69
575.501	755.69
575.712	730.69
575.923	756.69
576.134	765.69
576.345	741.69
576.556	766.69
576.767	757.69
576.978	775.69
577.188	788.69
577.399	759.69
577.61	784.69
577.821	796.69
578.032	780.69
578.243	779.69
578.454	791.69
578.665	803.69
578.875	832.69
579.086	857.69
579.297	879.69
579.508	899.69
579.718	964.69
579.929	1094.69
580.14	1219.69
580.35	1235.69
580.561	1142.69
580.772	1075.69
580.982	1017.69
581.193	947.69
581.403	919.69
581.614	870.69
581.825	867.69
582.035	827.69
582.246	851.69
582.456	800.69
582.667	777.69
582.877	763.69
583.087	733.69
583.298	714.69
583.508	705.69
583.719	693.69
583.929	697.69
584.139	678.69
584.35	661.69
584.56	674.69
584.77	637.69
584.981	653.69
585.191	650.69
585.401	625.69
585.611	627.69
585.821	611.69
586.032	625.69
586.242	633.69
586.452	618.69
586.662	606.69
586.872	599.69
587.082	610.69
587.292	574.69
587.502	575.69
587.713	558.69
587.923	582.69
588.133	570.69
588.343	570.69
588.553	545.69
588.762	548.69
588.972	547.69
589.182	580.69
589.392	546.69
589.602	526.69
589.812	539.69
590.022	573.69
590.232	557.69
590.441	545.69
590.651	553.69
590.861	533.69
591.071	532.69
591.281	548.69
591.49	568.69
591.7	533.69
591.91	558.69
592.119	548.69
592.329	553.69
592.539	579.69
592.748	568.69
592.958	553.69
593.167	556.69
593.377	573.69
593.587	595.69
593.796	562.69
594.006	571.69
594.215	580.69
594.424	559.69
594.634	533.69
594.843	550.69
595.053	538.69
595.262	539.69
595.472	523.69
595.681	511.69
595.89	506.69
596.1	527.69
596.309	515.69
596.518	508.69
596.727	486.69
596.937	482.69
597.146	489.69
597.355	467.69
597.564	471.69
597.774	472.69
597.983	470.69
598.192	447.69
598.401	456.69
598.61	449.69
598.819	457.69
599.028	466.69
599.237	457.69
599.446	469.69
599.655	442.69
599.864	449.69
600.073	454.69
600.282	478.69
600.491	467.69
600.7	450.69
600.909	454.69
601.118	462.69
601.327	468.69
601.536	450.69
601.745	456.69
601.953	509.69
602.162	557.69
602.371	497.69
602.58	462.69
602.789	463.69
602.997	454.69
603.206	424.69
603.415	441.69
603.623	463.69
603.832	425.69
604.041	450.69
604.249	419.69
604.458	448.69
604.666	421.69
604.875	410.69
605.084	428.69
605.292	426.69
605.501	448.69
605.709	438.69
605.918	428.69
606.126	452.69
606.334	446.69
606.543	437.69
606.751	481.69
606.96	497.69
607.168	550.69
607.376	490.69
607.585	455.69
607.793	449.69
608.001	428.69
608.21	433.69
608.418	437.69
608.626	418.69
608.834	430.69
609.043	444.69
609.251	419.69
609.459	433.69
609.667	418.69
609.875	418.69
610.083	424.69
610.291	399.69
610.499	421.69
610.707	425.69
610.916	412.69
611.124	407.69
611.332	401.69
611.54	416.69
611.748	398.69
611.955	414.69
612.163	403.69
612.371	405.69
612.579	396.69
612.787	419.69
612.995	402.69
613.203	418.69
613.411	389.69
613.618	413.69
613.826	402.69
614.034	398.69
614.242	405.69
614.449	390.69
614.657	394.69
614.865	391.69
615.072	394.69
615.28	421.69
615.488	407.69
615.695	392.69
615.903	403.69
616.111	396.69
616.318	398.69
616.526	409.69
616.733	401.69
616.941	377.69
617.148	400.69
617.356	380.69
617.563	377.69
617.771	385.69
617.978	406.69
618.185	381.69
618.393	387.69
618.6	388.69
618.807	382.69
619.015	388.69
619.222	385.69
619.429	363.69
619.637	355.69
619.844	366.69
620.051	365.69
620.258	364.69
620.466	343.69
620.673	345.69
620.88	342.69
621.087	346.69
621.294	377.69
621.501	330.69
621.708	367.69
621.915	351.69
622.122	356.69
622.329	338.69
622.536	357.69
622.743	353.69
622.95	353.69
623.157	361.69
623.364	354.69
623.571	343.69
623.778	357.69
623.985	365.69
624.192	355.69
624.399	341.69
624.606	342.69
624.812	348.69
625.019	338.69
625.226	345.69
625.433	351.69
625.639	336.69
625.846	324.69
626.053	333.69
626.259	321.69
626.466	330.69
626.673	333.69
626.879	320.69
627.086	311.69
627.293	325.69
627.499	310.69
627.706	310.69
627.912	332.69
628.119	319.69
628.325	326.69
628.532	335.69
628.738	324.69
628.945	317.69
629.151	330.69
629.357	333.69
629.564	323.69
629.77	318.69
629.976	303.69
630.183	310.69
630.389	307.69
630.595	326.69
630.802	301.69
631.008	302.69
631.214	316.69
631.42	314.69
631.627	329.69
631.833	321.69
632.039	308.69
632.245	289.69
632.451	302.69
632.657	295.69
632.863	293.69
633.069	321.69
633.275	299.69
633.481	298.69
633.688	317.69
633.893	313.69
634.099	290.69
634.305	295.69
634.511	312.69
634.717	287.69
634.923	318.69
635.129	334.69
635.335	356.69
635.541	338.69
635.747	307.69
635.952	311.69
636.158	328.69
636.364	323.69
636.57	300.69
636.775	310.69
636.981	303.69
637.187	283.69
637.392	315.69
637.598	300.69
637.804	319.69
638.009	314.69
638.215	303.69
638.421	287.69
638.626	295.69
638.832	301.69
639.037	309.69
639.243	292.69
639.448	313.69
639.654	309.69
639.859	300.69
640.065	325.69
640.27	315.69
640.475	323.69
640.681	317.69
640.886	322.69
641.091	324.69
641.297	331.69
641.502	338.69
641.707	337.69
641.913	327.69
642.118	322.69
642.323	325.69
642.528	345.69
642.733	353.69
642.939	344.69
643.144	365.69
643.349	366.69
643.554	365.69
643.759	377.69
643.964	397.69
644.169	414.69
644.374	430.69
644.579	447.69
644.784	483.69
644.989	557.69
645.194	607.69
645.399	712.69
645.604	737.69
645.809	610.69
646.014	486.69
646.219	433.69
646.423	383.69
646.628	370.69
646.833	336.69
647.038	353.69
647.243	332.69
647.447	331.69
647.652	293.69
647.857	303.69
648.062	302.69
648.266	305.69
648.471	299.69
648.676	285.69
648.88	276.69
649.085	294.69
649.289	279.69
649.494	275.69
649.698	256.69
649.903	261.69
650.107	255.69
650.312	245.69
650.516	247.69
650.721	247.69
650.925	277.69
651.13	236.69
651.334	261.69
651.539	246.69
651.743	230.69
651.947	226.69
652.152	241.69
652.356	246.69
652.56	245.69
652.764	269.69
652.969	258.69
653.173	245.69
653.377	219.69
653.581	206.69
653.785	226.69
653.99	221.69
654.194	220.69
654.398	195.69
654.602	202.69
654.806	205.69
655.01	223.69
655.214	218.69
655.418	221.69
655.622	225.69
655.826	213.69
656.03	207.69
656.234	215.69
656.438	248.69
656.642	231.69
656.846	218.69
657.049	211.69
657.253	198.69
657.457	199.69
657.661	185.69
657.865	177.69
658.068	161.69
658.272	155.69
658.476	154.69
658.68	158.69
658.883	142.69
659.087	143.69
659.291	141.69
659.494	151.69
659.698	132.69
659.901	129.69
660.105	123.69
660.309	131.69
660.512	109.69
660.716	129.69
660.919	114.69
661.123	122.69
661.326	125.69
661.53	107.69
661.733	119.69
661.936	117.69
662.14	88.69
662.343	99.69
662.546	104.69
662.75	94.69
662.953	102.69
663.156	94.69
663.36	97.69
663.563	83.69
663.766	95.69
663.969	102.69
664.173	82.69
664.376	91.69
664.579	78.69
664.782	104.69
664.985	91.69
665.188	83.69
665.391	74.69
665.594	81.69
665.797	90.69
666	80.69
666.203	93.69
666.406	87.69
666.609	91.69
666.812	79.69
667.015	89.69
667.218	91.69
667.421	74.69
667.624	81.69
667.827	88.69
668.03	82.69
668.232	90.69
668.435	79.69
668.638	102.69
668.841	95.69
669.043	94.69
669.246	98.69
669.449	76.69
669.651	84.69
669.854	92.69
670.057	89.69
670.259	92.69
670.462	79.69
670.665	73.69
670.867	82.69
671.07	81.69
671.272	94.69
671.475	87.69
671.677	80.69
671.88	93.69
672.082	84.69
672.284	91.69
672.487	77.69
672.689	71.69
672.892	96.69
