Data from SnStandardFlinnAPT0064_QswitchEnergy10_LIBS07252019.E.O._I.C._HRD10591_15-26-32-973.txt Node
Date: Thu Jul 25 15:26:32 EDT 2019
User: cochatt
Spectrometer: HR+D1059
Trigger mode: 1
Integration Time (sec): 1.000000E-1
Scans to average: 1
Electric dark correction enabled: true
Nonlinearity correction enabled: false
Boxcar width: 0
XAxis mode: Wavelengths
Number of Pixels in Spectrum: 2048
>>>>>Begin Spectral Data<<<<<
223.165	-7.62
223.4	-7.62
223.635	-7.62
223.869	-26.62
224.104	-22.62
224.338	-25.62
224.573	-8.62
224.808	-6.62
225.042	-12.62
225.277	4.38
225.511	4.38
225.746	-2.62
225.98	10.38
226.215	10.38
226.449	16.38
226.683	18.38
226.918	18.38
227.152	30.38
227.387	30.38
227.621	23.38
227.856	47.38
228.09	38.38
228.324	52.38
228.559	42.38
228.793	57.38
229.027	61.38
229.262	75.38
229.496	76.38
229.73	64.38
229.964	75.38
230.199	64.38
230.433	81.38
230.667	87.38
230.901	82.38
231.136	68.38
231.37	90.38
231.604	103.38
231.838	94.38
232.072	95.38
232.306	114.38
232.541	90.38
232.775	75.38
233.009	86.38
233.243	86.38
233.477	85.38
233.711	90.38
233.945	111.38
234.179	110.38
234.413	90.38
234.647	79.38
234.881	83.38
235.115	88.38
235.349	103.38
235.583	90.38
235.817	122.38
236.051	132.38
236.285	91.38
236.519	80.38
236.753	80.38
236.987	88.38
237.221	84.38
237.455	83.38
237.689	78.38
237.922	82.38
238.156	88.38
238.39	93.38
238.624	85.38
238.858	77.38
239.091	85.38
239.325	71.38
239.559	67.38
239.793	79.38
240.027	75.38
240.26	86.38
240.494	75.38
240.728	80.38
240.961	86.38
241.195	92.38
241.429	93.38
241.662	88.38
241.896	89.38
242.13	91.38
242.363	139.38
242.597	159.38
242.83	133.38
243.064	125.38
243.298	171.38
243.531	142.38
243.765	71.38
243.998	77.38
244.232	85.38
244.465	83.38
244.699	84.38
244.932	82.38
245.166	90.38
245.399	102.38
245.633	84.38
245.866	80.38
246.099	82.38
246.333	79.38
246.566	80.38
246.8	87.38
247.033	77.38
247.266	82.38
247.5	64.38
247.733	73.38
247.966	83.38
248.2	100.38
248.433	99.38
248.666	138.38
248.899	105.38
249.133	74.38
249.366	93.38
249.599	96.38
249.832	116.38
250.066	125.38
250.299	82.38
250.532	83.38
250.765	73.38
250.998	68.38
251.231	87.38
251.465	79.38
251.698	82.38
251.931	91.38
252.164	94.38
252.397	83.38
252.63	88.38
252.863	96.38
253.096	83.38
253.329	99.38
253.562	100.38
253.795	86.38
254.028	82.38
254.261	82.38
254.494	84.38
254.727	114.38
254.96	153.38
255.193	116.38
255.426	99.38
255.659	82.38
255.892	83.38
256.124	91.38
256.357	81.38
256.59	73.38
256.823	95.38
257.056	111.38
257.289	147.38
257.521	184.38
257.754	120.38
257.987	82.38
258.22	88.38
258.452	75.38
258.685	88.38
258.918	90.38
259.151	101.38
259.383	97.38
259.616	139.38
259.849	141.38
260.081	103.38
260.314	91.38
260.547	84.38
260.779	77.38
261.012	85.38
261.244	86.38
261.477	101.38
261.71	92.38
261.942	89.38
262.175	82.38
262.407	80.38
262.64	89.38
262.872	84.38
263.105	85.38
263.337	90.38
263.57	85.38
263.802	95.38
264.035	85.38
264.267	66.38
264.499	83.38
264.732	83.38
264.964	73.38
265.197	92.38
265.429	71.38
265.661	89.38
265.894	91.38
266.126	137.38
266.358	145.38
266.591	146.38
266.823	88.38
267.055	81.38
267.287	100.38
267.52	88.38
267.752	81.38
267.984	83.38
268.216	90.38
268.448	80.38
268.681	96.38
268.913	95.38
269.145	89.38
269.377	102.38
269.609	87.38
269.841	95.38
270.073	109.38
270.306	119.38
270.538	174.38
270.77	305.38
271.002	374.38
271.234	202.38
271.466	117.38
271.698	98.38
271.93	77.38
272.162	79.38
272.394	92.38
272.626	85.38
272.858	94.38
273.09	101.38
273.322	86.38
273.553	88.38
273.785	84.38
274.017	93.38
274.249	88.38
274.481	87.38
274.713	82.38
274.945	76.38
275.176	64.38
275.408	86.38
275.64	87.38
275.872	93.38
276.104	83.38
276.335	89.38
276.567	90.38
276.799	81.38
277.031	95.38
277.262	89.38
277.494	107.38
277.726	119.38
277.957	176.38
278.189	257.38
278.421	241.38
278.652	182.38
278.884	140.38
279.115	128.38
279.347	102.38
279.579	105.38
279.81	88.38
280.042	99.38
280.273	90.38
280.505	93.38
280.736	101.38
280.968	102.38
281.199	171.38
281.431	212.38
281.662	246.38
281.894	146.38
282.125	113.38
282.356	101.38
282.588	106.38
282.819	107.38
283.051	115.38
283.282	145.38
283.513	193.38
283.745	300.38
283.976	538.38
284.207	777.38
284.439	593.38
284.67	268.38
284.901	266.38
285.132	345.38
285.364	362.38
285.595	212.38
285.826	159.38
286.057	217.38
286.288	400.38
286.52	605.38
286.751	483.38
286.982	190.38
287.213	115.38
287.444	115.38
287.675	112.38
287.906	100.38
288.138	98.38
288.369	105.38
288.6	88.38
288.831	98.38
289.062	82.38
289.293	94.38
289.524	107.38
289.755	89.38
289.986	98.38
290.217	89.38
290.448	102.38
290.679	104.38
290.91	109.38
291.141	154.38
291.371	228.38
291.602	279.38
291.833	177.38
292.064	104.38
292.295	98.38
292.526	96.38
292.757	82.38
292.987	90.38
293.218	98.38
293.449	83.38
293.68	97.38
293.91	84.38
294.141	80.38
294.372	89.38
294.603	102.38
294.833	100.38
295.064	88.38
295.295	90.38
295.525	99.38
295.756	87.38
295.987	91.38
296.217	102.38
296.448	102.38
296.679	98.38
296.909	97.38
297.14	95.38
297.37	93.38
297.601	104.38
297.831	95.38
298.062	90.38
298.292	102.38
298.523	94.38
298.753	104.38
298.984	100.38
299.214	112.38
299.445	102.38
299.675	98.38
299.905	118.38
300.136	128.38
300.366	156.38
300.597	248.38
300.827	437.38
301.057	666.38
301.288	595.38
301.518	254.38
301.748	153.38
301.979	129.38
302.209	140.38
302.439	147.38
302.669	158.38
302.9	253.38
303.13	480.38
303.36	826.38
303.59	1187.38
303.82	803.38
304.051	277.38
304.281	160.38
304.511	119.38
304.741	103.38
304.971	118.38
305.201	122.38
305.431	84.38
305.661	100.38
305.891	96.38
306.121	106.38
306.352	87.38
306.582	103.38
306.812	104.38
307.042	122.38
307.272	109.38
307.502	97.38
307.731	101.38
307.961	102.38
308.191	87.38
308.421	99.38
308.651	99.38
308.881	98.38
309.111	106.38
309.341	102.38
309.571	99.38
309.8	100.38
310.03	109.38
310.26	96.38
310.49	93.38
310.72	97.38
310.949	97.38
311.179	121.38
311.409	95.38
311.639	98.38
311.868	98.38
312.098	99.38
312.328	77.38
312.557	119.38
312.787	99.38
313.017	96.38
313.246	123.38
313.476	121.38
313.706	126.38
313.935	138.38
314.165	177.38
314.394	217.38
314.624	159.38
314.853	120.38
315.083	125.38
315.312	130.38
315.542	119.38
315.771	116.38
316.001	123.38
316.23	134.38
316.46	155.38
316.689	173.38
316.919	257.38
317.148	488.38
317.377	874.38
317.607	1416.38
317.836	1359.38
318.065	513.38
318.295	210.38
318.524	161.38
318.753	129.38
318.983	127.38
319.212	113.38
319.441	123.38
319.67	119.38
319.9	120.38
320.129	116.38
320.358	122.38
320.587	129.38
320.816	109.38
321.046	129.38
321.275	129.38
321.504	122.38
321.733	129.38
321.962	163.38
322.191	150.38
322.42	137.38
322.649	123.38
322.878	118.38
323.108	101.38
323.337	119.38
323.566	123.38
323.795	126.38
324.024	124.38
324.253	145.38
324.482	175.38
324.71	208.38
324.939	257.38
325.168	221.38
325.397	190.38
325.626	222.38
325.855	468.38
326.084	911.38
326.313	1538.38
326.542	1521.38
326.77	607.38
326.999	232.38
327.228	205.38
327.457	214.38
327.686	228.38
327.914	158.38
328.143	122.38
328.372	128.38
328.6	128.38
328.829	119.38
329.058	119.38
329.287	123.38
329.515	114.38
329.744	118.38
329.972	108.38
330.201	104.38
330.43	115.38
330.658	114.38
330.887	103.38
331.115	125.38
331.344	111.38
331.572	121.38
331.801	121.38
332.03	111.38
332.258	127.38
332.486	157.38
332.715	299.38
332.943	471.38
333.172	731.38
333.4	651.38
333.629	237.38
333.857	125.38
334.085	128.38
334.314	115.38
334.542	108.38
334.771	120.38
334.999	114.38
335.227	137.38
335.455	130.38
335.684	117.38
335.912	106.38
336.14	120.38
336.369	108.38
336.597	102.38
336.825	104.38
337.053	111.38
337.281	105.38
337.51	102.38
337.738	107.38
337.966	112.38
338.194	110.38
338.422	112.38
338.65	118.38
338.878	113.38
339.106	126.38
339.334	104.38
339.562	108.38
339.79	119.38
340.018	115.38
340.246	112.38
340.474	102.38
340.702	109.38
340.93	121.38
341.158	112.38
341.386	105.38
341.614	109.38
341.842	110.38
342.07	121.38
342.298	109.38
342.526	115.38
342.754	125.38
342.981	112.38
343.209	122.38
343.437	98.38
343.665	109.38
343.893	111.38
344.12	113.38
344.348	97.38
344.576	109.38
344.804	114.38
345.031	97.38
345.259	111.38
345.487	105.38
345.714	97.38
345.942	113.38
346.17	97.38
346.397	99.38
346.625	84.38
346.853	94.38
347.08	99.38
347.308	99.38
347.535	107.38
347.763	110.38
347.99	119.38
348.218	100.38
348.445	109.38
348.673	103.38
348.9	114.38
349.128	103.38
349.355	115.38
349.583	117.38
349.81	102.38
350.037	115.38
350.265	108.38
350.492	110.38
350.72	113.38
350.947	105.38
351.174	99.38
351.402	106.38
351.629	122.38
351.856	109.38
352.083	104.38
352.311	113.38
352.538	102.38
352.765	118.38
352.992	103.38
353.22	97.38
353.447	106.38
353.674	109.38
353.901	102.38
354.128	92.38
354.355	110.38
354.583	100.38
354.81	95.38
355.037	103.38
355.264	97.38
355.491	103.38
355.718	106.38
355.945	100.38
356.172	116.38
356.399	103.38
356.626	117.38
356.853	113.38
357.08	113.38
357.307	107.38
357.534	84.38
357.761	102.38
357.988	105.38
358.215	101.38
358.441	102.38
358.668	102.38
358.895	120.38
359.122	108.38
359.349	111.38
359.576	112.38
359.802	126.38
360.029	111.38
360.256	108.38
360.483	114.38
360.709	98.38
360.936	104.38
361.163	117.38
361.39	97.38
361.616	104.38
361.843	100.38
362.07	95.38
362.296	110.38
362.523	109.38
362.749	94.38
362.976	117.38
363.203	109.38
363.429	110.38
363.656	112.38
363.882	105.38
364.109	119.38
364.335	116.38
364.562	105.38
364.788	104.38
365.015	102.38
365.241	120.38
365.468	184.38
365.694	228.38
365.92	199.38
366.147	102.38
366.373	110.38
366.599	105.38
366.826	88.38
367.052	97.38
367.278	93.38
367.505	96.38
367.731	96.38
367.957	110.38
368.184	102.38
368.41	115.38
368.636	109.38
368.862	112.38
369.089	102.38
369.315	93.38
369.541	114.38
369.767	107.38
369.993	108.38
370.219	114.38
370.445	106.38
370.672	106.38
370.898	101.38
371.124	95.38
371.35	86.38
371.576	100.38
371.802	115.38
372.028	97.38
372.254	119.38
372.48	117.38
372.706	119.38
372.932	110.38
373.158	106.38
373.384	125.38
373.61	116.38
373.835	99.38
374.061	117.38
374.287	95.38
374.513	103.38
374.739	99.38
374.965	104.38
375.191	116.38
375.416	100.38
375.642	119.38
375.868	103.38
376.094	96.38
376.319	101.38
376.545	95.38
376.771	83.38
376.997	98.38
377.222	104.38
377.448	103.38
377.674	105.38
377.899	99.38
378.125	111.38
378.35	109.38
378.576	114.38
378.802	111.38
379.027	137.38
379.253	146.38
379.478	181.38
379.704	303.38
379.929	715.38
380.155	1513.38
380.38	1558.38
380.606	511.38
380.831	182.38
381.057	123.38
381.282	117.38
381.507	112.38
381.733	99.38
381.958	121.38
382.184	101.38
382.409	102.38
382.634	100.38
382.86	98.38
383.085	101.38
383.31	93.38
383.535	105.38
383.761	98.38
383.986	86.38
384.211	99.38
384.436	101.38
384.662	102.38
384.887	101.38
385.112	114.38
385.337	99.38
385.562	103.38
385.787	93.38
386.013	100.38
386.238	92.38
386.463	101.38
386.688	97.38
386.913	94.38
387.138	106.38
387.363	106.38
387.588	111.38
387.813	92.38
388.038	91.38
388.263	109.38
388.488	94.38
388.713	96.38
388.938	115.38
389.163	107.38
389.387	87.38
389.612	108.38
389.837	115.38
390.062	106.38
390.287	105.38
390.512	105.38
390.736	95.38
390.961	96.38
391.186	98.38
391.411	94.38
391.636	91.38
391.86	99.38
392.085	93.38
392.31	95.38
392.534	105.38
392.759	95.38
392.984	104.38
393.208	121.38
393.433	119.38
393.658	140.38
393.882	112.38
394.107	101.38
394.331	117.38
394.556	100.38
394.78	85.38
395.005	98.38
395.229	93.38
395.454	91.38
395.678	99.38
395.903	103.38
396.127	109.38
396.352	104.38
396.576	95.38
396.801	122.38
397.025	121.38
397.249	111.38
397.474	104.38
397.698	105.38
397.922	99.38
398.147	86.38
398.371	99.38
398.595	97.38
398.82	110.38
399.044	107.38
399.268	123.38
399.492	87.38
399.717	105.38
399.941	91.38
400.165	79.38
400.389	95.38
400.613	87.38
400.837	85.38
401.062	98.38
401.286	90.38
401.51	98.38
401.734	95.38
401.958	90.38
402.182	84.38
402.406	95.38
402.63	101.38
402.854	95.38
403.078	86.38
403.302	86.38
403.526	92.38
403.75	99.38
403.974	96.38
404.198	91.38
404.422	76.38
404.645	80.38
404.869	94.38
405.093	94.38
405.317	95.38
405.541	110.38
405.765	122.38
405.988	129.38
406.212	109.38
406.436	80.38
406.66	87.38
406.883	92.38
407.107	93.38
407.331	98.38
407.555	89.38
407.778	99.38
408.002	100.38
408.226	95.38
408.449	103.38
408.673	111.38
408.896	98.38
409.12	99.38
409.344	112.38
409.567	98.38
409.791	91.38
410.014	89.38
410.238	94.38
410.461	99.38
410.685	101.38
410.908	102.38
411.132	114.38
411.355	111.38
411.578	99.38
411.802	103.38
412.025	103.38
412.249	86.38
412.472	85.38
412.695	96.38
412.919	102.38
413.142	103.38
413.365	91.38
413.589	104.38
413.812	104.38
414.035	95.38
414.258	98.38
414.482	95.38
414.705	99.38
414.928	103.38
415.151	97.38
415.374	105.38
415.597	92.38
415.821	94.38
416.044	94.38
416.267	93.38
416.49	98.38
416.713	81.38
416.936	89.38
417.159	93.38
417.382	86.38
417.605	90.38
417.828	84.38
418.051	89.38
418.274	92.38
418.497	108.38
418.72	101.38
418.943	98.38
419.166	102.38
419.389	104.38
419.611	101.38
419.834	99.38
420.057	88.38
420.28	92.38
420.503	95.38
420.726	103.38
420.948	87.38
421.171	106.38
421.394	99.38
421.617	110.38
421.839	86.38
422.062	85.38
422.285	100.38
422.507	91.38
422.73	113.38
422.953	137.38
423.175	101.38
423.398	94.38
423.621	90.38
423.843	97.38
424.066	100.38
424.288	102.38
424.511	110.38
424.733	96.38
424.956	95.38
425.178	98.38
425.401	85.38
425.623	98.38
425.846	81.38
426.068	88.38
426.291	91.38
426.513	95.38
426.735	104.38
426.958	86.38
427.18	84.38
427.402	97.38
427.625	104.38
427.847	102.38
428.069	97.38
428.292	101.38
428.514	88.38
428.736	111.38
428.958	93.38
429.181	94.38
429.403	83.38
429.625	89.38
429.847	99.38
430.069	93.38
430.292	100.38
430.514	103.38
430.736	119.38
430.958	103.38
431.18	89.38
431.402	101.38
431.624	93.38
431.846	91.38
432.068	87.38
432.29	77.38
432.512	92.38
432.734	81.38
432.956	102.38
433.178	104.38
433.4	99.38
433.622	94.38
433.844	98.38
434.066	98.38
434.287	102.38
434.509	81.38
434.731	96.38
434.953	82.38
435.175	88.38
435.397	73.38
435.618	92.38
435.84	87.38
436.062	72.38
436.284	101.38
436.505	88.38
436.727	88.38
436.949	99.38
437.17	105.38
437.392	112.38
437.614	87.38
437.835	96.38
438.057	93.38
438.278	88.38
438.5	101.38
438.721	95.38
438.943	118.38
439.165	109.38
439.386	101.38
439.608	105.38
439.829	102.38
440.05	113.38
440.272	125.38
440.493	103.38
440.715	96.38
440.936	95.38
441.158	99.38
441.379	99.38
441.6	93.38
441.822	93.38
442.043	99.38
442.264	139.38
442.486	123.38
442.707	101.38
442.928	88.38
443.149	107.38
443.371	92.38
443.592	94.38
443.813	95.38
444.034	92.38
444.255	97.38
444.476	100.38
444.698	103.38
444.919	87.38
445.14	211.38
445.361	137.38
445.582	106.38
445.803	99.38
446.024	101.38
446.245	95.38
446.466	102.38
446.687	109.38
446.908	116.38
447.129	109.38
447.35	90.38
447.571	99.38
447.792	74.38
448.013	92.38
448.234	96.38
448.455	89.38
448.675	88.38
448.896	102.38
449.117	103.38
449.338	123.38
449.559	139.38
449.779	113.38
450	107.38
450.221	113.38
450.442	117.38
450.662	114.38
450.883	103.38
451.104	101.38
451.324	110.38
451.545	114.38
451.766	119.38
451.986	148.38
452.207	204.38
452.428	510.38
452.648	1266.38
452.869	706.38
453.089	198.38
453.31	106.38
453.53	120.38
453.751	153.38
453.971	157.38
454.192	154.38
454.412	106.38
454.633	82.38
454.853	89.38
455.073	85.38
455.294	75.38
455.514	80.38
455.734	87.38
455.955	105.38
456.175	91.38
456.395	74.38
456.616	98.38
456.836	105.38
457.056	90.38
457.276	94.38
457.497	112.38
457.717	109.38
457.937	95.38
458.157	83.38
458.377	93.38
458.598	92.38
458.818	91.38
459.038	100.38
459.258	83.38
459.478	99.38
459.698	100.38
459.918	85.38
460.138	81.38
460.358	95.38
460.578	91.38
460.798	102.38
461.018	95.38
461.238	88.38
461.458	97.38
461.678	96.38
461.898	90.38
462.118	101.38
462.338	91.38
462.558	97.38
462.777	110.38
462.997	97.38
463.217	92.38
463.437	129.38
463.657	167.38
463.876	184.38
464.096	121.38
464.316	100.38
464.536	96.38
464.755	105.38
464.975	79.38
465.195	87.38
465.414	90.38
465.634	95.38
465.854	92.38
466.073	87.38
466.293	94.38
466.512	93.38
466.732	87.38
466.951	113.38
467.171	143.38
467.391	142.38
467.61	109.38
467.829	99.38
468.049	98.38
468.268	86.38
468.488	86.38
468.707	99.38
468.927	95.38
469.146	97.38
469.365	102.38
469.585	87.38
469.804	82.38
470.023	101.38
470.243	95.38
470.462	96.38
470.681	106.38
470.901	128.38
471.12	202.38
471.339	203.38
471.558	127.38
471.777	122.38
471.997	97.38
472.216	98.38
472.435	89.38
472.654	92.38
472.873	101.38
473.092	87.38
473.311	91.38
473.53	81.38
473.749	87.38
473.968	90.38
474.187	87.38
474.406	99.38
474.625	104.38
474.844	92.38
475.063	102.38
475.282	99.38
475.501	97.38
475.72	104.38
475.939	95.38
476.158	99.38
476.377	117.38
476.596	113.38
476.814	97.38
477.033	97.38
477.252	85.38
477.471	84.38
477.69	81.38
477.908	100.38
478.127	102.38
478.346	104.38
478.564	99.38
478.783	85.38
479.002	93.38
479.22	104.38
479.439	96.38
479.658	96.38
479.876	96.38
480.095	83.38
480.313	93.38
480.532	103.38
480.751	95.38
480.969	102.38
481.188	92.38
481.406	99.38
481.624	100.38
481.843	104.38
482.061	97.38
482.28	96.38
482.498	101.38
482.717	96.38
482.935	93.38
483.153	102.38
483.372	107.38
483.59	88.38
483.808	90.38
484.027	103.38
484.245	116.38
484.463	143.38
484.681	227.38
484.9	139.38
485.118	98.38
485.336	100.38
485.554	106.38
485.772	114.38
485.99	191.38
486.209	251.38
486.427	159.38
486.645	126.38
486.863	111.38
487.081	116.38
487.299	93.38
487.517	104.38
487.735	115.38
487.953	98.38
488.171	107.38
488.389	93.38
488.607	104.38
488.825	98.38
489.043	101.38
489.261	93.38
489.479	94.38
489.696	107.38
489.914	98.38
490.132	100.38
490.35	106.38
490.568	104.38
490.786	101.38
491.003	92.38
491.221	120.38
491.439	115.38
491.657	118.38
491.874	108.38
492.092	94.38
492.31	94.38
492.527	120.38
492.745	110.38
492.963	105.38
493.18	103.38
493.398	98.38
493.615	94.38
493.833	103.38
494.05	113.38
494.268	101.38
494.485	90.38
494.703	97.38
494.92	102.38
495.138	106.38
495.355	110.38
495.573	104.38
495.79	104.38
496.008	110.38
496.225	101.38
496.442	112.38
496.66	115.38
496.877	158.38
497.094	155.38
497.312	108.38
497.529	110.38
497.746	86.38
497.963	86.38
498.181	83.38
498.398	105.38
498.615	97.38
498.832	110.38
499.049	111.38
499.267	133.38
499.484	161.38
499.701	133.38
499.918	109.38
500.135	103.38
500.352	110.38
500.569	97.38
500.786	101.38
501.003	94.38
501.22	103.38
501.437	89.38
501.654	93.38
501.871	94.38
502.088	94.38
502.305	96.38
502.522	80.38
502.739	98.38
502.956	86.38
503.172	106.38
503.389	91.38
503.606	93.38
503.823	91.38
504.04	89.38
504.256	86.38
504.473	86.38
504.69	104.38
504.907	101.38
505.123	114.38
505.34	93.38
505.557	92.38
505.773	90.38
505.99	110.38
506.207	82.38
506.423	100.38
506.64	109.38
506.856	85.38
507.073	90.38
507.289	111.38
507.506	97.38
507.722	99.38
507.939	109.38
508.155	101.38
508.372	102.38
508.588	105.38
508.805	109.38
509.021	116.38
509.238	111.38
509.454	125.38
509.67	147.38
509.887	119.38
510.103	93.38
510.319	100.38
510.536	97.38
510.752	109.38
510.968	100.38
511.184	71.38
511.401	110.38
511.617	105.38
511.833	107.38
512.049	106.38
512.265	104.38
512.481	91.38
512.698	82.38
512.914	90.38
513.13	103.38
513.346	101.38
513.562	99.38
513.778	103.38
513.994	85.38
514.21	106.38
514.426	139.38
514.642	174.38
514.858	122.38
515.074	93.38
515.29	109.38
515.506	95.38
515.721	109.38
515.937	95.38
516.153	114.38
516.369	85.38
516.585	91.38
516.801	109.38
517.016	95.38
517.232	72.38
517.448	93.38
517.664	101.38
517.879	97.38
518.095	102.38
518.311	102.38
518.527	97.38
518.742	105.38
518.958	128.38
519.173	149.38
519.389	105.38
519.605	85.38
519.82	95.38
520.036	105.38
520.251	102.38
520.467	94.38
520.682	95.38
520.898	90.38
521.113	86.38
521.329	94.38
521.544	85.38
521.76	90.38
521.975	96.38
522.19	110.38
522.406	113.38
522.621	98.38
522.836	90.38
523.052	83.38
523.267	113.38
523.482	111.38
523.698	83.38
523.913	88.38
524.128	93.38
524.343	94.38
524.559	99.38
524.774	102.38
524.989	101.38
525.204	94.38
525.419	90.38
525.634	87.38
525.849	84.38
526.064	97.38
526.28	111.38
526.495	105.38
526.71	102.38
526.925	86.38
527.14	97.38
527.355	84.38
527.57	88.38
527.785	90.38
527.999	106.38
528.214	109.38
528.429	101.38
528.644	89.38
528.859	87.38
529.074	92.38
529.289	100.38
529.503	94.38
529.718	88.38
529.933	100.38
530.148	90.38
530.363	77.38
530.577	91.38
530.792	92.38
531.007	105.38
531.221	96.38
531.436	87.38
531.651	102.38
531.865	89.38
532.08	98.38
532.295	127.38
532.509	147.38
532.724	124.38
532.938	101.38
533.153	95.38
533.367	97.38
533.582	91.38
533.796	103.38
534.011	91.38
534.225	91.38
534.44	87.38
534.654	92.38
534.868	97.38
535.083	99.38
535.297	98.38
535.511	82.38
535.726	82.38
535.94	86.38
536.154	86.38
536.369	101.38
536.583	93.38
536.797	104.38
537.011	94.38
537.225	95.38
537.44	95.38
537.654	86.38
537.868	84.38
538.082	81.38
538.296	90.38
538.51	94.38
538.724	109.38
538.938	87.38
539.153	103.38
539.367	101.38
539.581	96.38
539.795	86.38
540.009	97.38
540.222	81.38
540.436	86.38
540.65	87.38
540.864	102.38
541.078	100.38
541.292	126.38
541.506	198.38
541.72	193.38
541.934	128.38
542.147	109.38
542.361	95.38
542.575	86.38
542.789	104.38
543.002	105.38
543.216	101.38
543.43	92.38
543.644	99.38
543.857	107.38
544.071	103.38
544.285	102.38
544.498	94.38
544.712	112.38
544.925	104.38
545.139	103.38
545.352	93.38
545.566	114.38
545.779	98.38
545.993	105.38
546.206	109.38
546.42	98.38
546.633	102.38
546.847	106.38
547.06	94.38
547.274	90.38
547.487	106.38
547.7	110.38
547.914	89.38
548.127	96.38
548.34	96.38
548.554	100.38
548.767	90.38
548.98	111.38
549.193	122.38
549.407	105.38
549.62	104.38
549.833	89.38
550.046	91.38
550.259	101.38
550.473	91.38
550.686	96.38
550.899	88.38
551.112	107.38
551.325	95.38
551.538	92.38
551.751	90.38
551.964	101.38
552.177	99.38
552.39	95.38
552.603	114.38
552.816	92.38
553.029	85.38
553.242	95.38
553.455	95.38
553.667	98.38
553.88	94.38
554.093	91.38
554.306	103.38
554.519	95.38
554.732	103.38
554.944	91.38
555.157	96.38
555.37	97.38
555.583	95.38
555.795	111.38
556.008	113.38
556.221	155.38
556.433	136.38
556.646	125.38
556.859	111.38
557.071	117.38
557.284	133.38
557.496	105.38
557.709	104.38
557.921	121.38
558.134	89.38
558.346	98.38
558.559	85.38
558.771	97.38
558.984	106.38
559.196	104.38
559.409	117.38
559.621	105.38
559.833	98.38
560.046	97.38
560.258	93.38
560.47	106.38
560.683	95.38
560.895	103.38
561.107	93.38
561.32	92.38
561.532	94.38
561.744	90.38
561.956	98.38
562.168	90.38
562.381	102.38
562.593	103.38
562.805	135.38
563.017	164.38
563.229	249.38
563.441	540.38
563.653	205.38
563.865	107.38
564.077	106.38
564.289	103.38
564.501	96.38
564.713	103.38
564.925	104.38
565.137	101.38
565.349	88.38
565.561	110.38
565.773	99.38
565.985	94.38
566.197	89.38
566.408	104.38
566.62	87.38
566.832	104.38
567.044	113.38
567.255	98.38
567.467	96.38
567.679	92.38
567.891	114.38
568.102	164.38
568.314	231.38
568.526	153.38
568.737	113.38
568.949	95.38
569.161	96.38
569.372	98.38
569.584	93.38
569.795	87.38
570.007	101.38
570.218	121.38
570.43	145.38
570.641	118.38
570.853	97.38
571.064	89.38
571.276	91.38
571.487	94.38
571.698	90.38
571.91	94.38
572.121	98.38
572.333	100.38
572.544	97.38
572.755	144.38
572.966	203.38
573.178	139.38
573.389	102.38
573.6	89.38
573.811	97.38
574.023	82.38
574.234	89.38
574.445	90.38
574.656	93.38
574.867	93.38
575.078	95.38
575.289	94.38
575.501	87.38
575.712	88.38
575.923	89.38
576.134	82.38
576.345	89.38
576.556	97.38
576.767	101.38
576.978	85.38
577.188	82.38
577.399	88.38
577.61	89.38
577.821	73.38
578.032	94.38
578.243	83.38
578.454	103.38
578.665	91.38
578.875	87.38
579.086	83.38
579.297	88.38
579.508	96.38
579.718	102.38
579.929	98.38
580.14	105.38
580.35	104.38
580.561	95.38
580.772	97.38
580.982	102.38
581.193	95.38
581.403	102.38
581.614	97.38
581.825	91.38
582.035	91.38
582.246	98.38
582.456	73.38
582.667	96.38
582.877	110.38
583.087	107.38
583.298	99.38
583.508	90.38
583.719	90.38
583.929	101.38
584.139	101.38
584.35	84.38
584.56	100.38
584.77	89.38
584.981	98.38
585.191	83.38
585.401	72.38
585.611	89.38
585.821	87.38
586.032	98.38
586.242	93.38
586.452	91.38
586.662	79.38
586.872	98.38
587.082	88.38
587.292	87.38
587.502	104.38
587.713	80.38
587.923	108.38
588.133	98.38
588.343	92.38
588.553	94.38
588.762	109.38
588.972	93.38
589.182	112.38
589.392	98.38
589.602	88.38
589.812	105.38
590.022	97.38
590.232	103.38
590.441	90.38
590.651	94.38
590.861	89.38
591.071	92.38
591.281	84.38
591.49	94.38
591.7	91.38
591.91	93.38
592.119	95.38
592.329	97.38
592.539	94.38
592.748	110.38
592.958	89.38
593.167	83.38
593.377	79.38
593.587	96.38
593.796	94.38
594.006	91.38
594.215	94.38
594.424	85.38
594.634	79.38
594.843	90.38
595.053	88.38
595.262	102.38
595.472	96.38
595.681	93.38
595.89	90.38
596.1	94.38
596.309	94.38
596.518	90.38
596.727	90.38
596.937	85.38
597.146	105.38
597.355	94.38
597.564	95.38
597.774	91.38
597.983	101.38
598.192	80.38
598.401	89.38
598.61	79.38
598.819	91.38
599.028	85.38
599.237	103.38
599.446	94.38
599.655	97.38
599.864	87.38
600.073	103.38
600.282	96.38
600.491	91.38
600.7	87.38
600.909	104.38
601.118	93.38
601.327	87.38
601.536	99.38
601.745	99.38
601.953	116.38
602.162	149.38
602.371	99.38
602.58	112.38
602.789	88.38
602.997	110.38
603.206	102.38
603.415	96.38
603.623	94.38
603.832	91.38
604.041	94.38
604.249	91.38
604.458	98.38
604.666	91.38
604.875	90.38
605.084	93.38
605.292	96.38
605.501	100.38
605.709	94.38
605.918	99.38
606.126	95.38
606.334	95.38
606.543	114.38
606.751	117.38
606.96	155.38
607.168	165.38
607.376	121.38
607.585	118.38
607.793	104.38
608.001	97.38
608.21	91.38
608.418	106.38
608.626	99.38
608.834	83.38
609.043	86.38
609.251	97.38
609.459	84.38
609.667	94.38
609.875	84.38
610.083	93.38
610.291	88.38
610.499	87.38
610.707	94.38
610.916	100.38
611.124	77.38
611.332	83.38
611.54	82.38
611.748	92.38
611.955	100.38
612.163	71.38
612.371	86.38
612.579	93.38
612.787	111.38
612.995	85.38
613.203	94.38
613.411	91.38
613.618	88.38
613.826	101.38
614.034	97.38
614.242	89.38
614.449	70.38
614.657	94.38
614.865	95.38
615.072	98.38
615.28	105.38
615.488	93.38
615.695	99.38
615.903	108.38
616.111	103.38
616.318	111.38
616.526	84.38
616.733	93.38
616.941	87.38
617.148	104.38
617.356	99.38
617.563	99.38
617.771	96.38
617.978	91.38
618.185	82.38
618.393	84.38
618.6	100.38
618.807	81.38
619.015	90.38
619.222	88.38
619.429	99.38
619.637	81.38
619.844	91.38
620.051	93.38
620.258	85.38
620.466	95.38
620.673	81.38
620.88	92.38
621.087	87.38
621.294	79.38
621.501	89.38
621.708	84.38
621.915	86.38
622.122	91.38
622.329	80.38
622.536	89.38
622.743	92.38
622.95	91.38
623.157	79.38
623.364	86.38
623.571	89.38
623.778	83.38
623.985	85.38
624.192	83.38
624.399	87.38
624.606	94.38
624.812	83.38
625.019	82.38
625.226	96.38
625.433	87.38
625.639	90.38
625.846	85.38
626.053	83.38
626.259	90.38
626.466	90.38
626.673	95.38
626.879	82.38
627.086	85.38
627.293	97.38
627.499	87.38
627.706	91.38
627.912	84.38
628.119	90.38
628.325	89.38
628.532	85.38
628.738	100.38
628.945	76.38
629.151	83.38
629.357	92.38
629.564	98.38
629.77	89.38
629.976	88.38
630.183	80.38
630.389	83.38
630.595	94.38
630.802	89.38
631.008	90.38
631.214	91.38
631.42	89.38
631.627	94.38
631.833	75.38
632.039	77.38
632.245	84.38
632.451	83.38
632.657	99.38
632.863	107.38
633.069	99.38
633.275	105.38
633.481	87.38
633.688	97.38
633.893	74.38
634.099	68.38
634.305	89.38
634.511	86.38
634.717	94.38
634.923	96.38
635.129	119.38
635.335	149.38
635.541	94.38
635.747	101.38
635.952	90.38
636.158	97.38
636.364	75.38
636.57	89.38
636.775	101.38
636.981	81.38
637.187	95.38
637.392	96.38
637.598	83.38
637.804	90.38
638.009	93.38
638.215	80.38
638.421	86.38
638.626	87.38
638.832	93.38
639.037	86.38
639.243	70.38
639.448	88.38
639.654	83.38
639.859	84.38
640.065	89.38
640.27	85.38
640.475	90.38
640.681	76.38
640.886	81.38
641.091	83.38
641.297	84.38
641.502	88.38
641.707	86.38
641.913	87.38
642.118	83.38
642.323	78.38
642.528	90.38
642.733	93.38
642.939	83.38
643.144	77.38
643.349	71.38
643.554	90.38
643.759	97.38
643.964	104.38
644.169	89.38
644.374	80.38
644.579	88.38
644.784	74.38
644.989	85.38
645.194	80.38
645.399	98.38
645.604	84.38
645.809	86.38
646.014	98.38
646.219	94.38
646.423	87.38
646.628	95.38
646.833	92.38
647.038	97.38
647.243	90.38
647.447	82.38
647.652	81.38
647.857	91.38
648.062	83.38
648.266	88.38
648.471	87.38
648.676	81.38
648.88	75.38
649.085	92.38
649.289	80.38
649.494	83.38
649.698	94.38
649.903	96.38
650.107	89.38
650.312	96.38
650.516	88.38
650.721	84.38
650.925	98.38
651.13	89.38
651.334	75.38
651.539	80.38
651.743	82.38
651.947	81.38
652.152	83.38
652.356	88.38
652.56	99.38
652.764	108.38
652.969	91.38
653.173	75.38
653.377	80.38
653.581	91.38
653.785	88.38
653.99	83.38
654.194	83.38
654.398	95.38
654.602	74.38
654.806	74.38
655.01	92.38
655.214	89.38
655.418	88.38
655.622	76.38
655.826	92.38
656.03	90.38
656.234	96.38
656.438	94.38
656.642	89.38
656.846	78.38
657.049	80.38
657.253	81.38
657.457	105.38
657.661	96.38
657.865	75.38
658.068	82.38
658.272	87.38
658.476	89.38
658.68	85.38
658.883	91.38
659.087	82.38
659.291	90.38
659.494	82.38
659.698	72.38
659.901	78.38
660.105	97.38
660.309	88.38
660.512	82.38
660.716	82.38
660.919	87.38
661.123	98.38
661.326	84.38
661.53	73.38
661.733	80.38
661.936	89.38
662.14	81.38
662.343	81.38
662.546	86.38
662.75	93.38
662.953	86.38
663.156	91.38
663.36	87.38
663.563	82.38
663.766	75.38
663.969	86.38
664.173	74.38
664.376	70.38
664.579	79.38
664.782	84.38
664.985	78.38
665.188	82.38
665.391	83.38
665.594	82.38
665.797	78.38
666	81.38
666.203	86.38
666.406	84.38
666.609	81.38
666.812	66.38
667.015	89.38
667.218	71.38
667.421	90.38
667.624	67.38
667.827	82.38
668.03	84.38
668.232	61.38
668.435	81.38
668.638	80.38
668.841	82.38
669.043	79.38
669.246	85.38
669.449	71.38
669.651	66.38
669.854	79.38
670.057	81.38
670.259	85.38
670.462	81.38
670.665	98.38
670.867	92.38
671.07	80.38
671.272	79.38
671.475	84.38
671.677	80.38
671.88	82.38
672.082	85.38
672.284	87.38
672.487	87.38
672.689	83.38
672.892	90.38
