Data from SnStandardFlinnAPT0064_LampEnergy10_LIBS07252019.E.O._I.C._HRD10591_15-22-35-495.txt Node
Date: Thu Jul 25 15:22:35 EDT 2019
User: cochatt
Spectrometer: HR+D1059
Trigger mode: 1
Integration Time (sec): 1.000000E-1
Scans to average: 1
Electric dark correction enabled: true
Nonlinearity correction enabled: false
Boxcar width: 0
XAxis mode: Wavelengths
Number of Pixels in Spectrum: 2048
>>>>>Begin Spectral Data<<<<<
223.165	-24.06
223.4	-24.06
223.635	-24.06
223.869	-18.06
224.104	-23.06
224.338	3.94
224.573	-15.06
224.808	-15.06
225.042	-2.06
225.277	-12.06
225.511	-2.06
225.746	-5.06
225.98	4.94
226.215	8.94
226.449	17.94
226.683	16.94
226.918	25.94
227.152	37.94
227.387	36.94
227.621	49.94
227.856	28.94
228.09	41.94
228.324	52.94
228.559	56.94
228.793	121.94
229.027	308.94
229.262	321.94
229.496	285.94
229.73	276.94
229.964	286.94
230.199	304.94
230.433	317.94
230.667	295.94
230.901	294.94
231.136	322.94
231.37	352.94
231.604	354.94
231.838	420.94
232.072	507.94
232.306	550.94
232.541	467.94
232.775	424.94
233.009	396.94
233.243	426.94
233.477	437.94
233.711	503.94
233.945	571.94
234.179	519.94
234.413	434.94
234.647	432.94
234.881	473.94
235.115	502.94
235.349	596.94
235.583	736.94
235.817	954.94
236.051	985.94
236.285	654.94
236.519	528.94
236.753	493.94
236.987	480.94
237.221	532.94
237.455	509.94
237.689	455.94
237.922	450.94
238.156	464.94
238.39	467.94
238.624	474.94
238.858	487.94
239.091	471.94
239.325	482.94
239.559	481.94
239.793	502.94
240.027	474.94
240.26	518.94
240.494	548.94
240.728	551.94
240.961	611.94
241.195	651.94
241.429	665.94
241.662	699.94
241.896	770.94
242.13	920.94
242.363	1239.94
242.597	1577.94
242.83	1514.94
243.064	1506.94
243.298	1822.94
243.531	1452.94
243.765	930.94
243.998	758.94
244.232	686.94
244.465	650.94
244.699	631.94
244.932	633.94
245.166	650.94
245.399	680.94
245.633	671.94
245.866	688.94
246.099	660.94
246.333	630.94
246.566	651.94
246.8	600.94
247.033	638.94
247.266	632.94
247.5	636.94
247.733	667.94
247.966	688.94
248.2	768.94
248.433	841.94
248.666	958.94
248.899	946.94
249.133	847.94
249.366	857.94
249.599	919.94
249.832	1070.94
250.066	1054.94
250.299	872.94
250.532	768.94
250.765	735.94
250.998	733.94
251.231	740.94
251.465	734.94
251.698	709.94
251.931	719.94
252.164	753.94
252.397	779.94
252.63	806.94
252.863	787.94
253.096	775.94
253.329	775.94
253.562	783.94
253.795	786.94
254.028	804.94
254.261	803.94
254.494	855.94
254.727	997.94
254.96	1202.94
255.193	1188.94
255.426	937.94
255.659	867.94
255.892	851.94
256.124	864.94
256.357	860.94
256.59	902.94
256.823	946.94
257.056	1105.94
257.289	1325.94
257.521	1477.94
257.754	1155.94
257.987	936.94
258.22	897.94
258.452	886.94
258.685	880.94
258.918	907.94
259.151	981.94
259.383	1071.94
259.616	1180.94
259.849	1242.94
260.081	1048.94
260.314	975.94
260.547	922.94
260.779	942.94
261.012	943.94
261.244	954.94
261.477	975.94
261.71	1008.94
261.942	980.94
262.175	1006.94
262.407	1054.94
262.64	1098.94
262.872	1084.94
263.105	1182.94
263.337	1196.94
263.57	1243.94
263.802	1278.94
264.035	1304.94
264.267	1353.94
264.499	1380.94
264.732	1430.94
264.964	1424.94
265.197	1437.94
265.429	1423.94
265.661	1463.94
265.894	1559.94
266.126	1721.94
266.358	1949.94
266.591	1872.94
266.823	1618.94
267.055	1457.94
267.287	1378.94
267.52	1313.94
267.752	1318.94
267.984	1295.94
268.216	1231.94
268.448	1230.94
268.681	1264.94
268.913	1189.94
269.145	1239.94
269.377	1236.94
269.609	1242.94
269.841	1294.94
270.073	1348.94
270.306	1590.94
270.538	2171.94
270.77	3187.94
271.002	3893.94
271.234	2696.94
271.466	1823.94
271.698	1500.94
271.93	1388.94
272.162	1288.94
272.394	1279.94
272.626	1279.94
272.858	1218.94
273.09	1207.94
273.322	1192.94
273.553	1198.94
273.785	1169.94
274.017	1190.94
274.249	1186.94
274.481	1184.94
274.713	1191.94
274.945	1189.94
275.176	1179.94
275.408	1188.94
275.64	1207.94
275.872	1240.94
276.104	1253.94
276.335	1254.94
276.567	1298.94
276.799	1268.94
277.031	1266.94
277.262	1315.94
277.494	1397.94
277.726	1510.94
277.957	1806.94
278.189	2046.94
278.421	1981.94
278.652	1737.94
278.884	1660.94
279.115	1474.94
279.347	1420.94
279.579	1395.94
279.81	1390.94
280.042	1377.94
280.273	1412.94
280.505	1436.94
280.736	1466.94
280.968	1550.94
281.199	1781.94
281.431	2028.94
281.662	2064.94
281.894	1768.94
282.125	1577.94
282.356	1606.94
282.588	1629.94
282.819	1680.94
283.051	1804.94
283.282	1954.94
283.513	2446.94
283.745	3599.94
283.976	5721.94
284.207	7992.94
284.439	7166.94
284.67	4436.94
284.901	3635.94
285.132	3687.94
285.364	3529.94
285.595	2627.94
285.826	2396.94
286.057	2797.94
286.288	3778.94
286.52	5124.94
286.751	4819.94
286.982	2931.94
287.213	2216.94
287.444	1922.94
287.675	1820.94
287.906	1765.94
288.138	1732.94
288.369	1694.94
288.6	1712.94
288.831	1686.94
289.062	1684.94
289.293	1621.94
289.524	1658.94
289.755	1666.94
289.986	1675.94
290.217	1690.94
290.448	1698.94
290.679	1671.94
290.91	1750.94
291.141	1874.94
291.371	2015.94
291.602	2096.94
291.833	1912.94
292.064	1736.94
292.295	1675.94
292.526	1645.94
292.757	1609.94
292.987	1593.94
293.218	1575.94
293.449	1602.94
293.68	1595.94
293.91	1581.94
294.141	1598.94
294.372	1539.94
294.603	1588.94
294.833	1546.94
295.064	1501.94
295.295	1512.94
295.525	1528.94
295.756	1570.94
295.987	1496.94
296.217	1570.94
296.448	1591.94
296.679	1563.94
296.909	1553.94
297.14	1581.94
297.37	1624.94
297.601	1629.94
297.831	1608.94
298.062	1602.94
298.292	1620.94
298.523	1672.94
298.753	1690.94
298.984	1709.94
299.214	1718.94
299.445	1709.94
299.675	1756.94
299.905	1815.94
300.136	1914.94
300.366	2102.94
300.597	2699.94
300.827	3771.94
301.057	5176.94
301.288	5182.94
301.518	3293.94
301.748	2496.94
301.979	2266.94
302.209	2184.94
302.439	2272.94
302.669	2398.94
302.9	2892.94
303.13	4133.94
303.36	6100.94
303.59	8176.94
303.82	7072.94
304.051	4109.94
304.281	2940.94
304.511	2489.94
304.741	2261.94
304.971	2130.94
305.201	2045.94
305.431	1972.94
305.661	1962.94
305.891	1865.94
306.121	1883.94
306.352	1832.94
306.582	1850.94
306.812	1795.94
307.042	1828.94
307.272	1814.94
307.502	1765.94
307.731	1825.94
307.961	1810.94
308.191	1772.94
308.421	1784.94
308.651	1781.94
308.881	1778.94
309.111	1779.94
309.341	1852.94
309.571	1856.94
309.8	1883.94
310.03	1812.94
310.26	1855.94
310.49	1854.94
310.72	1879.94
310.949	1870.94
311.179	1881.94
311.409	1859.94
311.639	1913.94
311.868	1940.94
312.098	1911.94
312.328	1898.94
312.557	1916.94
312.787	1936.94
313.017	1927.94
313.246	2012.94
313.476	2017.94
313.706	2056.94
313.935	2161.94
314.165	2291.94
314.394	2452.94
314.624	2344.94
314.853	2124.94
315.083	2103.94
315.312	2100.94
315.542	2217.94
315.771	2199.94
316.001	2234.94
316.23	2288.94
316.46	2409.94
316.689	2662.94
316.919	3196.94
317.148	4612.94
317.377	7072.94
317.607	10462.94
317.836	10949.94
318.065	6417.94
318.295	4140.94
318.524	3346.94
318.753	2857.94
318.983	2645.94
319.212	2584.94
319.441	2457.94
319.67	2414.94
319.9	2366.94
320.129	2331.94
320.358	2298.94
320.587	2320.94
320.816	2310.94
321.046	2337.94
321.275	2327.94
321.504	2349.94
321.733	2417.94
321.962	2440.94
322.191	2503.94
322.42	2511.94
322.649	2473.94
322.878	2450.94
323.108	2473.94
323.337	2483.94
323.566	2559.94
323.795	2549.94
324.024	2602.94
324.253	2633.94
324.482	2773.94
324.71	2978.94
324.939	3171.94
325.168	3198.94
325.397	3361.94
325.626	3968.94
325.855	5568.94
326.084	8708.94
326.313	12610.94
326.542	13280.94
326.77	8864.94
326.999	5759.94
327.228	4901.94
327.457	4582.94
327.686	4717.94
327.914	4982.94
328.143	5773.94
328.372	6877.94
328.6	7525.94
328.829	6708.94
329.058	5692.94
329.287	4988.94
329.515	4564.94
329.744	4184.94
329.972	4023.94
330.201	3808.94
330.43	3745.94
330.658	3589.94
330.887	3530.94
331.115	3447.94
331.344	3474.94
331.572	3405.94
331.801	3425.94
332.03	3437.94
332.258	3488.94
332.486	3744.94
332.715	4266.94
332.943	5289.94
333.172	6487.94
333.4	6447.94
333.629	4889.94
333.857	4463.94
334.085	4421.94
334.314	4612.94
334.542	5023.94
334.771	5892.94
334.999	7234.94
335.227	9069.94
335.455	10148.94
335.684	9111.94
335.912	7439.94
336.14	6305.94
336.369	5598.94
336.597	5088.94
336.825	4717.94
337.053	4480.94
337.281	4180.94
337.51	4005.94
337.738	3834.94
337.966	3680.94
338.194	3584.94
338.422	3423.94
338.65	3317.94
338.878	3302.94
339.106	3273.94
339.334	3195.94
339.562	3155.94
339.79	3118.94
340.018	3063.94
340.246	3084.94
340.474	3072.94
340.702	3000.94
340.93	3009.94
341.158	3005.94
341.386	2964.94
341.614	2975.94
341.842	2888.94
342.07	2860.94
342.298	2862.94
342.526	2762.94
342.754	2736.94
342.981	2712.94
343.209	2732.94
343.437	2799.94
343.665	2821.94
343.893	2816.94
344.12	2789.94
344.348	2748.94
344.576	2747.94
344.804	2751.94
345.031	2620.94
345.259	2593.94
345.487	2596.94
345.714	2557.94
345.942	2554.94
346.17	2568.94
346.397	2542.94
346.625	2508.94
346.853	2508.94
347.08	2519.94
347.308	2536.94
347.535	2558.94
347.763	2460.94
347.99	2449.94
348.218	2440.94
348.445	2458.94
348.673	2410.94
348.9	2426.94
349.128	2463.94
349.355	2444.94
349.583	2446.94
349.81	2431.94
350.037	2439.94
350.265	2409.94
350.492	2389.94
350.72	2407.94
350.947	2380.94
351.174	2369.94
351.402	2423.94
351.629	2384.94
351.856	2371.94
352.083	2406.94
352.311	2393.94
352.538	2351.94
352.765	2378.94
352.992	2382.94
353.22	2403.94
353.447	2368.94
353.674	2375.94
353.901	2366.94
354.128	2396.94
354.355	2395.94
354.583	2406.94
354.81	2456.94
355.037	2422.94
355.264	2412.94
355.491	2395.94
355.718	2421.94
355.945	2412.94
356.172	2462.94
356.399	2457.94
356.626	2499.94
356.853	2506.94
357.08	2524.94
357.307	2574.94
357.534	2560.94
357.761	2589.94
357.988	2612.94
358.215	2561.94
358.441	2531.94
358.668	2522.94
358.895	2521.94
359.122	2504.94
359.349	2504.94
359.576	2536.94
359.802	2536.94
360.029	2542.94
360.256	2534.94
360.483	2521.94
360.709	2546.94
360.936	2557.94
361.163	2527.94
361.39	2510.94
361.616	2517.94
361.843	2558.94
362.07	2545.94
362.296	2544.94
362.523	2546.94
362.749	2549.94
362.976	2520.94
363.203	2568.94
363.429	2554.94
363.656	2572.94
363.882	2521.94
364.109	2546.94
364.335	2469.94
364.562	2497.94
364.788	2535.94
365.015	2586.94
365.241	2676.94
365.468	2794.94
365.694	2860.94
365.92	2762.94
366.147	2633.94
366.373	2638.94
366.599	2643.94
366.826	2602.94
367.052	2586.94
367.278	2617.94
367.505	2616.94
367.731	2618.94
367.957	2600.94
368.184	2637.94
368.41	2709.94
368.636	2702.94
368.862	2620.94
369.089	2654.94
369.315	2688.94
369.541	2631.94
369.767	2679.94
369.993	2630.94
370.219	2601.94
370.445	2661.94
370.672	2648.94
370.898	2694.94
371.124	2684.94
371.35	2735.94
371.576	2746.94
371.802	2746.94
372.028	2750.94
372.254	2754.94
372.48	2745.94
372.706	2751.94
372.932	2778.94
373.158	2795.94
373.384	2787.94
373.61	2812.94
373.835	2832.94
374.061	2806.94
374.287	2844.94
374.513	2872.94
374.739	2873.94
374.965	2895.94
375.191	2874.94
375.416	2907.94
375.642	2853.94
375.868	2848.94
376.094	2828.94
376.319	2793.94
376.545	2820.94
376.771	2768.94
376.997	2732.94
377.222	2761.94
377.448	2701.94
377.674	2681.94
377.899	2751.94
378.125	2716.94
378.35	2821.94
378.576	2741.94
378.802	2794.94
379.027	2757.94
379.253	2884.94
379.478	3044.94
379.704	3612.94
379.929	5172.94
380.155	7932.94
380.38	8542.94
380.606	5150.94
380.831	3591.94
381.057	3178.94
381.282	2946.94
381.507	2839.94
381.733	2762.94
381.958	2708.94
382.184	2744.94
382.409	2717.94
382.634	2675.94
382.86	2721.94
383.085	2644.94
383.31	2695.94
383.535	2708.94
383.761	2680.94
383.986	2735.94
384.211	2752.94
384.436	2781.94
384.662	2794.94
384.887	2736.94
385.112	2742.94
385.337	2814.94
385.562	2829.94
385.787	2809.94
386.013	2754.94
386.238	2758.94
386.463	2809.94
386.688	2755.94
386.913	2758.94
387.138	2796.94
387.363	2793.94
387.588	2732.94
387.813	2749.94
388.038	2755.94
388.263	2758.94
388.488	2765.94
388.713	2777.94
388.938	2756.94
389.163	2748.94
389.387	2782.94
389.612	2770.94
389.837	2789.94
390.062	2775.94
390.287	2810.94
390.512	2773.94
390.736	2803.94
390.961	2909.94
391.186	2873.94
391.411	2893.94
391.636	2919.94
391.86	2948.94
392.085	2937.94
392.31	2939.94
392.534	2896.94
392.759	2913.94
392.984	2846.94
393.208	2872.94
393.433	2860.94
393.658	2860.94
393.882	2797.94
394.107	2816.94
394.331	2855.94
394.556	2810.94
394.78	2839.94
395.005	2853.94
395.229	2816.94
395.454	2882.94
395.678	2889.94
395.903	2898.94
396.127	2906.94
396.352	2865.94
396.576	2880.94
396.801	2916.94
397.025	2930.94
397.249	2942.94
397.474	2911.94
397.698	2925.94
397.922	2942.94
398.147	2971.94
398.371	3024.94
398.595	3021.94
398.82	3106.94
399.044	3230.94
399.268	3326.94
399.492	3545.94
399.717	3708.94
399.941	3671.94
400.165	3587.94
400.389	3413.94
400.613	3314.94
400.837	3184.94
401.062	3073.94
401.286	3078.94
401.51	3038.94
401.734	3060.94
401.958	3046.94
402.182	3065.94
402.406	3086.94
402.63	3080.94
402.854	3116.94
403.078	3123.94
403.302	3107.94
403.526	3174.94
403.75	3143.94
403.974	3180.94
404.198	3150.94
404.422	3156.94
404.645	3111.94
404.869	3118.94
405.093	3210.94
405.317	3119.94
405.541	3260.94
405.765	3250.94
405.988	3268.94
406.212	3283.94
406.436	3226.94
406.66	3273.94
406.883	3256.94
407.107	3348.94
407.331	3423.94
407.555	3511.94
407.778	3417.94
408.002	3410.94
408.226	3393.94
408.449	3380.94
408.673	3267.94
408.896	3227.94
409.12	3229.94
409.344	3268.94
409.567	3135.94
409.791	3198.94
410.014	3145.94
410.238	3192.94
410.461	3128.94
410.685	3177.94
410.908	3101.94
411.132	3044.94
411.355	3043.94
411.578	3072.94
411.802	3077.94
412.025	2986.94
412.249	3101.94
412.472	3092.94
412.695	2972.94
412.919	2952.94
413.142	3030.94
413.365	3013.94
413.589	2982.94
413.812	2999.94
414.035	2982.94
414.258	3018.94
414.482	2984.94
414.705	2964.94
414.928	2982.94
415.151	2962.94
415.374	2964.94
415.597	2913.94
415.821	2869.94
416.044	2914.94
416.267	2853.94
416.49	2899.94
416.713	2844.94
416.936	2861.94
417.159	2860.94
417.382	2862.94
417.605	2806.94
417.828	2768.94
418.051	2850.94
418.274	2897.94
418.497	2901.94
418.72	2958.94
418.943	2888.94
419.166	3081.94
419.389	3230.94
419.611	3209.94
419.834	3080.94
420.057	3018.94
420.28	2908.94
420.503	2849.94
420.726	2845.94
420.948	2861.94
421.171	2862.94
421.394	2859.94
421.617	2884.94
421.839	2912.94
422.062	2915.94
422.285	2845.94
422.507	2954.94
422.73	2927.94
422.953	2991.94
423.175	2982.94
423.398	2912.94
423.621	2860.94
423.843	2868.94
424.066	2900.94
424.288	2857.94
424.511	2856.94
424.733	2886.94
424.956	2822.94
425.178	2858.94
425.401	2834.94
425.623	2856.94
425.846	2774.94
426.068	2766.94
426.291	2751.94
426.513	2771.94
426.735	2798.94
426.958	2702.94
427.18	2698.94
427.402	2725.94
427.625	2710.94
427.847	2695.94
428.069	2680.94
428.292	2723.94
428.514	2657.94
428.736	2630.94
428.958	2696.94
429.181	2602.94
429.403	2583.94
429.625	2589.94
429.847	2657.94
430.069	2678.94
430.292	2809.94
430.514	2870.94
430.736	2850.94
430.958	2717.94
431.18	2638.94
431.402	2672.94
431.624	2637.94
431.846	2612.94
432.068	2595.94
432.29	2605.94
432.512	2557.94
432.734	2691.94
432.956	2645.94
433.178	2623.94
433.4	2643.94
433.622	2642.94
433.844	2623.94
434.066	2614.94
434.287	2653.94
434.509	2692.94
434.731	2748.94
434.953	2725.94
435.175	2732.94
435.397	2755.94
435.618	2638.94
435.84	2684.94
436.062	2661.94
436.284	2651.94
436.505	2581.94
436.727	2613.94
436.949	2600.94
437.17	2632.94
437.392	2574.94
437.614	2568.94
437.835	2521.94
438.057	2522.94
438.278	2517.94
438.5	2552.94
438.721	2572.94
438.943	2669.94
439.165	2726.94
439.386	2747.94
439.608	2717.94
439.829	2733.94
440.05	2814.94
440.272	2876.94
440.493	2733.94
440.715	2690.94
440.936	2639.94
441.158	2711.94
441.379	2764.94
441.6	2856.94
441.822	2917.94
442.043	3040.94
442.264	3166.94
442.486	2982.94
442.707	2880.94
442.928	2824.94
443.149	2804.94
443.371	2746.94
443.592	2883.94
443.813	2830.94
444.034	2834.94
444.255	2840.94
444.476	2990.94
444.698	3021.94
444.919	3020.94
445.14	3130.94
445.361	2973.94
445.582	2905.94
445.803	2829.94
446.024	2761.94
446.245	2817.94
446.466	2783.94
446.687	2730.94
446.908	2706.94
447.129	2673.94
447.35	2647.94
447.571	2697.94
447.792	2564.94
448.013	2586.94
448.234	2556.94
448.455	2570.94
448.675	2575.94
448.896	2678.94
449.117	2766.94
449.338	2981.94
449.559	3148.94
449.779	2801.94
450	2569.94
450.221	2530.94
450.442	2583.94
450.662	2523.94
450.883	2564.94
451.104	2504.94
451.324	2552.94
451.545	2532.94
451.766	2500.94
451.986	2559.94
452.207	2758.94
452.428	3548.94
452.648	5416.94
452.869	4494.94
453.089	3086.94
453.31	2927.94
453.53	2914.94
453.751	2994.94
453.971	3119.94
454.192	3100.94
454.412	2679.94
454.633	2572.94
454.853	2512.94
455.073	2429.94
455.294	2391.94
455.514	2423.94
455.734	2396.94
455.955	2391.94
456.175	2377.94
456.395	2383.94
456.616	2457.94
456.836	2460.94
457.056	2472.94
457.276	2450.94
457.497	2622.94
457.717	2609.94
457.937	2590.94
458.157	2582.94
458.377	2542.94
458.598	2596.94
458.818	2606.94
459.038	2584.94
459.258	2639.94
459.478	2658.94
459.698	2674.94
459.918	2720.94
460.138	2717.94
460.358	2834.94
460.578	2822.94
460.798	2864.94
461.018	2868.94
461.238	2853.94
461.458	2937.94
461.678	2892.94
461.898	2965.94
462.118	3008.94
462.338	3026.94
462.558	3064.94
462.777	3146.94
462.997	3221.94
463.217	3358.94
463.437	3500.94
463.657	3540.94
463.876	3565.94
464.096	3309.94
464.316	3182.94
464.536	3137.94
464.755	3161.94
464.975	3014.94
465.195	2870.94
465.414	2853.94
465.634	2720.94
465.854	2692.94
466.073	2697.94
466.293	2694.94
466.512	2637.94
466.732	2689.94
466.951	2830.94
467.171	2980.94
467.391	2940.94
467.61	2736.94
467.829	2588.94
468.049	2570.94
468.268	2550.94
468.488	2550.94
468.707	2542.94
468.927	2534.94
469.146	2574.94
469.365	2613.94
469.585	2619.94
469.804	2634.94
470.023	2704.94
470.243	2780.94
470.462	2916.94
470.681	2964.94
470.901	3272.94
471.12	3784.94
471.339	3806.94
471.558	3106.94
471.777	2861.94
471.997	2761.94
472.216	2662.94
472.435	2577.94
472.654	2570.94
472.873	2611.94
473.092	2633.94
473.311	2577.94
473.53	2601.94
473.749	2675.94
473.968	2768.94
474.187	2638.94
474.406	2591.94
474.625	2559.94
474.844	2612.94
475.063	2584.94
475.282	2594.94
475.501	2634.94
475.72	2648.94
475.939	2630.94
476.158	2698.94
476.377	2738.94
476.596	2713.94
476.814	2728.94
477.033	2755.94
477.252	2768.94
477.471	2804.94
477.69	2843.94
477.908	2905.94
478.127	2954.94
478.346	2914.94
478.564	3025.94
478.783	2969.94
479.002	3045.94
479.22	3111.94
479.439	3061.94
479.658	3070.94
479.876	3121.94
480.095	3140.94
480.313	3220.94
480.532	3254.94
480.751	3258.94
480.969	3206.94
481.188	3073.94
481.406	3136.94
481.624	3132.94
481.843	3210.94
482.061	3166.94
482.28	3108.94
482.498	3145.94
482.717	3145.94
482.935	3143.94
483.153	3216.94
483.372	3245.94
483.59	3361.94
483.808	3356.94
484.027	3365.94
484.245	3597.94
484.463	4102.94
484.681	4528.94
484.9	4094.94
485.118	3808.94
485.336	3690.94
485.554	3735.94
485.772	3955.94
485.99	4541.94
486.209	4946.94
486.427	4110.94
486.645	3647.94
486.863	3484.94
487.081	3452.94
487.299	3362.94
487.517	3297.94
487.735	3358.94
487.953	3339.94
488.171	3350.94
488.389	3292.94
488.607	3260.94
488.825	3297.94
489.043	3177.94
489.261	3263.94
489.479	3276.94
489.696	3233.94
489.914	3264.94
490.132	3269.94
490.35	3286.94
490.568	3302.94
490.786	3331.94
491.003	3345.94
491.221	3375.94
491.439	3364.94
491.657	3398.94
491.874	3464.94
492.092	3442.94
492.31	3416.94
492.527	3452.94
492.745	3448.94
492.963	3411.94
493.18	3372.94
493.398	3367.94
493.615	3419.94
493.833	3357.94
494.05	3406.94
494.268	3405.94
494.485	3459.94
494.703	3420.94
494.92	3436.94
495.138	3398.94
495.355	3446.94
495.573	3513.94
495.79	3411.94
496.008	3464.94
496.225	3461.94
496.442	3505.94
496.66	3645.94
496.877	3822.94
497.094	3790.94
497.312	3686.94
497.529	3646.94
497.746	3797.94
497.963	3806.94
498.181	3836.94
498.398	4016.94
498.615	4105.94
498.832	4246.94
499.049	4439.94
499.267	4783.94
499.484	5025.94
499.701	5014.94
499.918	5166.94
500.135	5443.94
500.352	5718.94
500.569	5732.94
500.786	5651.94
501.003	5518.94
501.22	5264.94
501.437	4944.94
501.654	4743.94
501.871	4564.94
502.088	4352.94
502.305	4270.94
502.522	4143.94
502.739	4044.94
502.956	3874.94
503.172	3797.94
503.389	3698.94
503.606	3635.94
503.823	3616.94
504.04	3587.94
504.256	3570.94
504.473	3595.94
504.69	3536.94
504.907	3556.94
505.123	3466.94
505.34	3350.94
505.557	3248.94
505.773	3224.94
505.99	3273.94
506.207	3112.94
506.423	3148.94
506.64	3084.94
506.856	3081.94
507.073	3076.94
507.289	3055.94
507.506	3033.94
507.722	3020.94
507.939	2989.94
508.155	2979.94
508.372	2956.94
508.588	2979.94
508.805	2964.94
509.021	2919.94
509.238	2990.94
509.454	3144.94
509.67	3346.94
509.887	3067.94
510.103	3000.94
510.319	2920.94
510.536	2966.94
510.752	2950.94
510.968	2908.94
511.184	2848.94
511.401	2843.94
511.617	2870.94
511.833	2831.94
512.049	2840.94
512.265	2822.94
512.481	2807.94
512.698	2780.94
512.914	2816.94
513.13	2757.94
513.346	2834.94
513.562	2848.94
513.778	2835.94
513.994	2925.94
514.21	2984.94
514.426	3132.94
514.642	3228.94
514.858	2971.94
515.074	2885.94
515.29	2848.94
515.506	2881.94
515.721	2892.94
515.937	2900.94
516.153	2936.94
516.369	2988.94
516.585	2982.94
516.801	3052.94
517.016	3119.94
517.232	3163.94
517.448	3215.94
517.664	3258.94
517.879	3230.94
518.095	3244.94
518.311	3216.94
518.527	3160.94
518.742	3162.94
518.958	3190.94
519.173	3220.94
519.389	3146.94
519.605	2972.94
519.82	2959.94
520.036	2924.94
520.251	2870.94
520.467	2843.94
520.682	2846.94
520.898	2790.94
521.113	2802.94
521.329	2717.94
521.544	2760.94
521.76	2796.94
521.975	2792.94
522.19	2790.94
522.406	2746.94
522.621	2742.94
522.836	2711.94
523.052	2773.94
523.267	2798.94
523.482	2674.94
523.698	2720.94
523.913	2707.94
524.128	2687.94
524.343	2714.94
524.559	2712.94
524.774	2707.94
524.989	2696.94
525.204	2680.94
525.419	2671.94
525.634	2754.94
525.849	2675.94
526.064	2704.94
526.28	2708.94
526.495	2707.94
526.71	2730.94
526.925	2733.94
527.14	2708.94
527.355	2690.94
527.57	2752.94
527.785	2743.94
527.999	2751.94
528.214	2729.94
528.429	2825.94
528.644	2813.94
528.859	2843.94
529.074	2857.94
529.289	2889.94
529.503	2874.94
529.718	2850.94
529.933	2868.94
530.148	2836.94
530.363	2863.94
530.577	2879.94
530.792	2919.94
531.007	2936.94
531.221	2960.94
531.436	2887.94
531.651	2928.94
531.865	2974.94
532.08	3066.94
532.295	3114.94
532.509	3349.94
532.724	3370.94
532.938	3384.94
533.153	3545.94
533.367	3732.94
533.582	4006.94
533.796	3838.94
534.011	3673.94
534.225	3537.94
534.44	3428.94
534.654	3366.94
534.868	3273.94
535.083	3204.94
535.297	3212.94
535.511	3090.94
535.726	3114.94
535.94	3060.94
536.154	2991.94
536.369	2926.94
536.583	2938.94
536.797	2863.94
537.011	2836.94
537.225	2822.94
537.44	2826.94
537.654	2776.94
537.868	2675.94
538.082	2656.94
538.296	2711.94
538.51	2694.94
538.724	2738.94
538.938	2694.94
539.153	2665.94
539.367	2694.94
539.581	2600.94
539.795	2618.94
540.009	2607.94
540.222	2633.94
540.436	2595.94
540.65	2581.94
540.864	2595.94
541.078	2702.94
541.292	2783.94
541.506	3334.94
541.72	3510.94
541.934	3033.94
542.147	2832.94
542.361	2709.94
542.575	2621.94
542.789	2552.94
543.002	2565.94
543.216	2522.94
543.43	2438.94
543.644	2536.94
543.857	2465.94
544.071	2496.94
544.285	2577.94
544.498	2505.94
544.712	2516.94
544.925	2521.94
545.139	2575.94
545.352	2510.94
545.566	2500.94
545.779	2516.94
545.993	2543.94
546.206	2545.94
546.42	2489.94
546.633	2495.94
546.847	2525.94
547.06	2559.94
547.274	2503.94
547.487	2549.94
547.7	2478.94
547.914	2486.94
548.127	2515.94
548.34	2528.94
548.554	2502.94
548.767	2529.94
548.98	2511.94
549.193	2526.94
549.407	2533.94
549.62	2601.94
549.833	2553.94
550.046	2541.94
550.259	2556.94
550.473	2485.94
550.686	2527.94
550.899	2489.94
551.112	2597.94
551.325	2531.94
551.538	2544.94
551.751	2511.94
551.964	2518.94
552.177	2544.94
552.39	2585.94
552.603	2655.94
552.816	2678.94
553.029	2712.94
553.242	2728.94
553.455	2767.94
553.667	2773.94
553.88	2823.94
554.093	2851.94
554.306	2811.94
554.519	2853.94
554.732	2877.94
554.944	2888.94
555.157	2960.94
555.37	3091.94
555.583	3200.94
555.795	3401.94
556.008	3609.94
556.221	4102.94
556.433	4390.94
556.646	4348.94
556.859	4150.94
557.071	3970.94
557.284	3861.94
557.496	3731.94
557.709	3677.94
557.921	3599.94
558.134	3569.94
558.346	3569.94
558.559	3816.94
558.771	4024.94
558.984	4453.94
559.196	4768.94
559.409	4530.94
559.621	4086.94
559.833	3849.94
560.046	3732.94
560.258	3476.94
560.47	3296.94
560.683	3144.94
560.895	3026.94
561.107	2968.94
561.32	2876.94
561.532	2829.94
561.744	2702.94
561.956	2664.94
562.168	2658.94
562.381	2656.94
562.593	2612.94
562.805	2656.94
563.017	2652.94
563.229	2690.94
563.441	3161.94
563.653	2606.94
563.865	2424.94
564.077	2423.94
564.289	2364.94
564.501	2367.94
564.713	2332.94
564.925	2324.94
565.137	2358.94
565.349	2305.94
565.561	2336.94
565.773	2350.94
565.985	2402.94
566.197	2402.94
566.408	2443.94
566.62	2454.94
566.832	2541.94
567.044	2622.94
567.255	2561.94
567.467	2618.94
567.679	2686.94
567.891	2768.94
568.102	3116.94
568.314	3600.94
568.526	3106.94
568.737	2715.94
568.949	2477.94
569.161	2304.94
569.372	2230.94
569.584	2180.94
569.795	2131.94
570.007	2127.94
570.218	2182.94
570.43	2276.94
570.641	2052.94
570.853	2010.94
571.064	1926.94
571.276	1933.94
571.487	1904.94
571.698	1879.94
571.91	1901.94
572.121	1840.94
572.333	1820.94
572.544	1810.94
572.755	1985.94
572.966	2314.94
573.178	2114.94
573.389	1890.94
573.6	1796.94
573.811	1766.94
574.023	1754.94
574.234	1762.94
574.445	1737.94
574.656	1723.94
574.867	1708.94
575.078	1710.94
575.289	1702.94
575.501	1698.94
575.712	1691.94
575.923	1688.94
576.134	1680.94
576.345	1653.94
576.556	1713.94
576.767	1711.94
576.978	1690.94
577.188	1672.94
577.399	1756.94
577.61	1752.94
577.821	1735.94
578.032	1763.94
578.243	1767.94
578.454	1790.94
578.665	1836.94
578.875	1895.94
579.086	1978.94
579.297	2019.94
579.508	2195.94
579.718	2363.94
579.929	2670.94
580.14	3200.94
580.35	3243.94
580.561	2979.94
580.772	2630.94
580.982	2414.94
581.193	2274.94
581.403	2146.94
581.614	2057.94
581.825	1970.94
582.035	1921.94
582.246	1859.94
582.456	1824.94
582.667	1738.94
582.877	1732.94
583.087	1693.94
583.298	1641.94
583.508	1648.94
583.719	1539.94
583.929	1556.94
584.139	1498.94
584.35	1438.94
584.56	1447.94
584.77	1465.94
584.981	1458.94
585.191	1411.94
585.401	1385.94
585.611	1369.94
585.821	1364.94
586.032	1342.94
586.242	1329.94
586.452	1317.94
586.662	1308.94
586.872	1296.94
587.082	1305.94
587.292	1284.94
587.502	1237.94
587.713	1252.94
587.923	1250.94
588.133	1237.94
588.343	1198.94
588.553	1253.94
588.762	1212.94
588.972	1212.94
589.182	1220.94
589.392	1226.94
589.602	1201.94
589.812	1210.94
590.022	1199.94
590.232	1158.94
590.441	1177.94
590.651	1183.94
590.861	1157.94
591.071	1153.94
591.281	1166.94
591.49	1146.94
591.7	1185.94
591.91	1191.94
592.119	1202.94
592.329	1175.94
592.539	1184.94
592.748	1199.94
592.958	1208.94
593.167	1218.94
593.377	1212.94
593.587	1250.94
593.796	1200.94
594.006	1227.94
594.215	1230.94
594.424	1216.94
594.634	1190.94
594.843	1176.94
595.053	1182.94
595.262	1137.94
595.472	1130.94
595.681	1084.94
595.89	1073.94
596.1	1061.94
596.309	1052.94
596.518	1048.94
596.727	1042.94
596.937	1047.94
597.146	1042.94
597.355	1004.94
597.564	1006.94
597.774	1001.94
597.983	987.94
598.192	976.94
598.401	963.94
598.61	966.94
598.819	939.94
599.028	972.94
599.237	934.94
599.446	948.94
599.655	969.94
599.864	969.94
600.073	956.94
600.282	929.94
600.491	938.94
600.7	955.94
600.909	927.94
601.118	951.94
601.327	941.94
601.536	934.94
601.745	992.94
601.953	1065.94
602.162	1207.94
602.371	1055.94
602.58	963.94
602.789	930.94
602.997	956.94
603.206	948.94
603.415	913.94
603.623	880.94
603.832	901.94
604.041	895.94
604.249	888.94
604.458	904.94
604.666	893.94
604.875	887.94
605.084	875.94
605.292	884.94
605.501	902.94
605.709	910.94
605.918	875.94
606.126	892.94
606.334	890.94
606.543	902.94
606.751	987.94
606.96	1138.94
607.168	1225.94
607.376	1030.94
607.585	980.94
607.793	905.94
608.001	879.94
608.21	905.94
608.418	869.94
608.626	877.94
608.834	853.94
609.043	863.94
609.251	843.94
609.459	837.94
609.667	848.94
609.875	849.94
610.083	826.94
610.291	819.94
610.499	813.94
610.707	801.94
610.916	838.94
611.124	820.94
611.332	812.94
611.54	810.94
611.748	803.94
611.955	820.94
612.163	812.94
612.371	796.94
612.579	801.94
612.787	794.94
612.995	788.94
613.203	817.94
613.411	776.94
613.618	778.94
613.826	814.94
614.034	795.94
614.242	786.94
614.449	792.94
614.657	789.94
614.865	788.94
615.072	801.94
615.28	803.94
615.488	786.94
615.695	800.94
615.903	783.94
616.111	775.94
616.318	806.94
616.526	786.94
616.733	778.94
616.941	820.94
617.148	783.94
617.356	757.94
617.563	788.94
617.771	768.94
617.978	768.94
618.185	752.94
618.393	710.94
618.6	769.94
618.807	736.94
619.015	766.94
619.222	735.94
619.429	743.94
619.637	730.94
619.844	729.94
620.051	725.94
620.258	727.94
620.466	705.94
620.673	704.94
620.88	661.94
621.087	696.94
621.294	700.94
621.501	709.94
621.708	672.94
621.915	714.94
622.122	698.94
622.329	726.94
622.536	717.94
622.743	693.94
622.95	690.94
623.157	695.94
623.364	668.94
623.571	700.94
623.778	693.94
623.985	692.94
624.192	674.94
624.399	656.94
624.606	661.94
624.812	652.94
625.019	666.94
625.226	638.94
625.433	674.94
625.639	629.94
625.846	618.94
626.053	642.94
626.259	640.94
626.466	636.94
626.673	624.94
626.879	624.94
627.086	644.94
627.293	617.94
627.499	641.94
627.706	631.94
627.912	626.94
628.119	630.94
628.325	610.94
628.532	625.94
628.738	628.94
628.945	625.94
629.151	634.94
629.357	627.94
629.564	645.94
629.77	615.94
629.976	589.94
630.183	583.94
630.389	581.94
630.595	598.94
630.802	594.94
631.008	611.94
631.214	606.94
631.42	605.94
631.627	610.94
631.833	585.94
632.039	584.94
632.245	574.94
632.451	600.94
632.657	586.94
632.863	552.94
633.069	579.94
633.275	579.94
633.481	570.94
633.688	581.94
633.893	562.94
634.099	582.94
634.305	580.94
634.511	576.94
634.717	580.94
634.923	625.94
635.129	697.94
635.335	767.94
635.541	673.94
635.747	615.94
635.952	579.94
636.158	579.94
636.364	581.94
636.57	576.94
636.775	591.94
636.981	586.94
637.187	568.94
637.392	573.94
637.598	553.94
637.804	588.94
638.009	570.94
638.215	591.94
638.421	585.94
638.626	584.94
638.832	595.94
639.037	579.94
639.243	568.94
639.448	597.94
639.654	607.94
639.859	605.94
640.065	611.94
640.27	611.94
640.475	604.94
640.681	596.94
640.886	620.94
641.091	614.94
641.297	626.94
641.502	612.94
641.707	617.94
641.913	622.94
642.118	652.94
642.323	673.94
642.528	669.94
642.733	682.94
642.939	697.94
643.144	692.94
643.349	752.94
643.554	767.94
643.759	790.94
643.964	821.94
644.169	854.94
644.374	903.94
644.579	1006.94
644.784	1156.94
644.989	1263.94
645.194	1489.94
645.399	1908.94
645.604	2007.94
645.809	1494.94
646.014	1149.94
646.219	944.94
646.423	816.94
646.628	764.94
646.833	700.94
647.038	653.94
647.243	638.94
647.447	611.94
647.652	581.94
647.857	584.94
648.062	567.94
648.266	549.94
648.471	544.94
648.676	528.94
648.88	541.94
649.085	534.94
649.289	503.94
649.494	488.94
649.698	483.94
649.903	469.94
650.107	495.94
650.312	486.94
650.516	468.94
650.721	459.94
650.925	441.94
651.13	439.94
651.334	421.94
651.539	441.94
651.743	422.94
651.947	409.94
652.152	423.94
652.356	401.94
652.56	462.94
652.764	500.94
652.969	465.94
653.173	395.94
653.377	396.94
653.581	386.94
653.785	384.94
653.99	348.94
654.194	361.94
654.398	350.94
654.602	353.94
654.806	364.94
655.01	356.94
655.214	333.94
655.418	335.94
655.622	343.94
655.826	352.94
656.03	343.94
656.234	358.94
656.438	357.94
656.642	351.94
656.846	343.94
657.049	353.94
657.253	318.94
657.457	320.94
657.661	260.94
657.865	256.94
658.068	240.94
658.272	268.94
658.476	227.94
658.68	228.94
658.883	222.94
659.087	210.94
659.291	195.94
659.494	182.94
659.698	180.94
659.901	182.94
660.105	177.94
660.309	166.94
660.512	157.94
660.716	162.94
660.919	148.94
661.123	147.94
661.326	126.94
661.53	119.94
661.733	120.94
661.936	134.94
662.14	117.94
662.343	125.94
662.546	101.94
662.75	110.94
662.953	108.94
663.156	94.94
663.36	86.94
663.563	101.94
663.766	96.94
663.969	93.94
664.173	88.94
664.376	95.94
664.579	90.94
664.782	88.94
664.985	89.94
665.188	96.94
665.391	79.94
665.594	96.94
665.797	95.94
666	78.94
666.203	78.94
666.406	76.94
666.609	87.94
666.812	80.94
667.015	73.94
667.218	81.94
667.421	92.94
667.624	77.94
667.827	83.94
668.03	90.94
668.232	95.94
668.435	84.94
668.638	69.94
668.841	85.94
669.043	67.94
669.246	83.94
669.449	85.94
669.651	80.94
669.854	83.94
670.057	80.94
670.259	97.94
670.462	85.94
670.665	85.94
670.867	82.94
671.07	87.94
671.272	85.94
671.475	69.94
671.677	70.94
671.88	97.94
672.082	95.94
672.284	93.94
672.487	81.94
672.689	87.94
672.892	96.94
