Data from SnStandardFlinnAPT0064_LampEnergy10_LIBS07252019.E.O._I.C._HRD10591_15-22-24-494.txt Node
Date: Thu Jul 25 15:22:24 EDT 2019
User: cochatt
Spectrometer: HR+D1059
Trigger mode: 1
Integration Time (sec): 1.000000E-1
Scans to average: 1
Electric dark correction enabled: true
Nonlinearity correction enabled: false
Boxcar width: 0
XAxis mode: Wavelengths
Number of Pixels in Spectrum: 2048
>>>>>Begin Spectral Data<<<<<
223.165	-15.12
223.4	-15.12
223.635	-15.12
223.869	-3.12
224.104	-8.12
224.338	-17.12
224.573	-13.12
224.808	-11.12
225.042	-21.12
225.277	-14.12
225.511	0.88
225.746	9.88
225.98	4.88
226.215	6.88
226.449	15.88
226.683	12.88
226.918	20.88
227.152	30.88
227.387	35.88
227.621	39.88
227.856	33.88
228.09	41.88
228.324	33.88
228.559	59.88
228.793	117.88
229.027	295.88
229.262	325.88
229.496	300.88
229.73	304.88
229.964	309.88
230.199	304.88
230.433	286.88
230.667	310.88
230.901	335.88
231.136	336.88
231.37	342.88
231.604	389.88
231.838	442.88
232.072	510.88
232.306	547.88
232.541	454.88
232.775	426.88
233.009	399.88
233.243	419.88
233.477	442.88
233.711	506.88
233.945	573.88
234.179	500.88
234.413	452.88
234.647	449.88
234.881	458.88
235.115	532.88
235.349	615.88
235.583	740.88
235.817	961.88
236.051	940.88
236.285	630.88
236.519	506.88
236.753	483.88
236.987	519.88
237.221	518.88
237.455	514.88
237.689	449.88
237.922	442.88
238.156	474.88
238.39	477.88
238.624	466.88
238.858	471.88
239.091	475.88
239.325	483.88
239.559	480.88
239.793	509.88
240.027	528.88
240.26	521.88
240.494	528.88
240.728	562.88
240.961	611.88
241.195	644.88
241.429	654.88
241.662	696.88
241.896	796.88
242.13	913.88
242.363	1184.88
242.597	1523.88
242.83	1462.88
243.064	1444.88
243.298	1736.88
243.531	1389.88
243.765	894.88
243.998	723.88
244.232	657.88
244.465	669.88
244.699	649.88
244.932	616.88
245.166	645.88
245.399	660.88
245.633	664.88
245.866	674.88
246.099	669.88
246.333	645.88
246.566	642.88
246.8	640.88
247.033	635.88
247.266	653.88
247.5	647.88
247.733	673.88
247.966	709.88
248.2	759.88
248.433	850.88
248.666	954.88
248.899	892.88
249.133	806.88
249.366	848.88
249.599	952.88
249.832	1030.88
250.066	1057.88
250.299	853.88
250.532	798.88
250.765	745.88
250.998	740.88
251.231	713.88
251.465	730.88
251.698	733.88
251.931	740.88
252.164	748.88
252.397	730.88
252.63	768.88
252.863	816.88
253.096	799.88
253.329	769.88
253.562	786.88
253.795	780.88
254.028	787.88
254.261	837.88
254.494	881.88
254.727	1024.88
254.96	1204.88
255.193	1172.88
255.426	944.88
255.659	859.88
255.892	868.88
256.124	848.88
256.357	876.88
256.59	898.88
256.823	969.88
257.056	1097.88
257.289	1314.88
257.521	1463.88
257.754	1156.88
257.987	968.88
258.22	932.88
258.452	920.88
258.685	896.88
258.918	935.88
259.151	963.88
259.383	1078.88
259.616	1194.88
259.849	1252.88
260.081	1092.88
260.314	960.88
260.547	929.88
260.779	942.88
261.012	952.88
261.244	961.88
261.477	996.88
261.71	972.88
261.942	1012.88
262.175	1031.88
262.407	1042.88
262.64	1040.88
262.872	1080.88
263.105	1117.88
263.337	1180.88
263.57	1282.88
263.802	1266.88
264.035	1334.88
264.267	1330.88
264.499	1354.88
264.732	1416.88
264.964	1404.88
265.197	1429.88
265.429	1444.88
265.661	1497.88
265.894	1602.88
266.126	1752.88
266.358	1944.88
266.591	1900.88
266.823	1637.88
267.055	1446.88
267.287	1409.88
267.52	1361.88
267.752	1297.88
267.984	1250.88
268.216	1236.88
268.448	1273.88
268.681	1224.88
268.913	1237.88
269.145	1237.88
269.377	1206.88
269.609	1263.88
269.841	1284.88
270.073	1337.88
270.306	1615.88
270.538	2108.88
270.77	3086.88
271.002	3737.88
271.234	2687.88
271.466	1826.88
271.698	1521.88
271.93	1368.88
272.162	1335.88
272.394	1280.88
272.626	1208.88
272.858	1204.88
273.09	1187.88
273.322	1230.88
273.553	1202.88
273.785	1198.88
274.017	1189.88
274.249	1245.88
274.481	1192.88
274.713	1203.88
274.945	1210.88
275.176	1243.88
275.408	1192.88
275.64	1207.88
275.872	1233.88
276.104	1233.88
276.335	1293.88
276.567	1272.88
276.799	1318.88
277.031	1310.88
277.262	1322.88
277.494	1383.88
277.726	1512.88
277.957	1817.88
278.189	2032.88
278.421	1940.88
278.652	1723.88
278.884	1621.88
279.115	1500.88
279.347	1413.88
279.579	1362.88
279.81	1394.88
280.042	1393.88
280.273	1416.88
280.505	1473.88
280.736	1466.88
280.968	1537.88
281.199	1702.88
281.431	1976.88
281.662	2129.88
281.894	1733.88
282.125	1612.88
282.356	1635.88
282.588	1644.88
282.819	1683.88
283.051	1808.88
283.282	1980.88
283.513	2407.88
283.745	3445.88
283.976	5354.88
284.207	7602.88
284.439	7014.88
284.67	4391.88
284.901	3594.88
285.132	3596.88
285.364	3486.88
285.595	2615.88
285.826	2347.88
286.057	2772.88
286.288	3703.88
286.52	4932.88
286.751	4638.88
286.982	2909.88
287.213	2274.88
287.444	1992.88
287.675	1808.88
287.906	1750.88
288.138	1702.88
288.369	1704.88
288.6	1687.88
288.831	1696.88
289.062	1647.88
289.293	1665.88
289.524	1651.88
289.755	1705.88
289.986	1691.88
290.217	1724.88
290.448	1738.88
290.679	1758.88
290.91	1764.88
291.141	1869.88
291.371	2028.88
291.602	2087.88
291.833	1886.88
292.064	1724.88
292.295	1698.88
292.526	1624.88
292.757	1625.88
292.987	1605.88
293.218	1564.88
293.449	1607.88
293.68	1588.88
293.91	1549.88
294.141	1562.88
294.372	1532.88
294.603	1517.88
294.833	1560.88
295.064	1555.88
295.295	1556.88
295.525	1540.88
295.756	1535.88
295.987	1557.88
296.217	1556.88
296.448	1577.88
296.679	1557.88
296.909	1566.88
297.14	1612.88
297.37	1615.88
297.601	1646.88
297.831	1632.88
298.062	1609.88
298.292	1634.88
298.523	1692.88
298.753	1683.88
298.984	1693.88
299.214	1715.88
299.445	1734.88
299.675	1792.88
299.905	1858.88
300.136	1880.88
300.366	2137.88
300.597	2633.88
300.827	3695.88
301.057	4943.88
301.288	5006.88
301.518	3215.88
301.748	2531.88
301.979	2348.88
302.209	2256.88
302.439	2259.88
302.669	2405.88
302.9	2874.88
303.13	3980.88
303.36	5850.88
303.59	7706.88
303.82	6793.88
304.051	4046.88
304.281	2976.88
304.511	2488.88
304.741	2277.88
304.971	2204.88
305.201	2048.88
305.431	2033.88
305.661	1962.88
305.891	1907.88
306.121	1875.88
306.352	1879.88
306.582	1853.88
306.812	1822.88
307.042	1830.88
307.272	1814.88
307.502	1802.88
307.731	1819.88
307.961	1802.88
308.191	1828.88
308.421	1760.88
308.651	1837.88
308.881	1844.88
309.111	1799.88
309.341	1816.88
309.571	1815.88
309.8	1828.88
310.03	1829.88
310.26	1882.88
310.49	1866.88
310.72	1887.88
310.949	1869.88
311.179	1876.88
311.409	1930.88
311.639	1924.88
311.868	1983.88
312.098	1934.88
312.328	1932.88
312.557	1958.88
312.787	1950.88
313.017	1962.88
313.246	1984.88
313.476	2010.88
313.706	2089.88
313.935	2198.88
314.165	2307.88
314.394	2433.88
314.624	2343.88
314.853	2139.88
315.083	2139.88
315.312	2155.88
315.542	2160.88
315.771	2201.88
316.001	2230.88
316.23	2340.88
316.46	2412.88
316.689	2614.88
316.919	3190.88
317.148	4519.88
317.377	6743.88
317.607	9825.88
317.836	10264.88
318.065	6379.88
318.295	4161.88
318.524	3340.88
318.753	2860.88
318.983	2697.88
319.212	2542.88
319.441	2466.88
319.67	2459.88
319.9	2346.88
320.129	2371.88
320.358	2323.88
320.587	2324.88
320.816	2388.88
321.046	2355.88
321.275	2336.88
321.504	2416.88
321.733	2390.88
321.962	2521.88
322.191	2494.88
322.42	2531.88
322.649	2462.88
322.878	2466.88
323.108	2492.88
323.337	2516.88
323.566	2577.88
323.795	2604.88
324.024	2627.88
324.253	2628.88
324.482	2808.88
324.71	2997.88
324.939	3167.88
325.168	3224.88
325.397	3348.88
325.626	3946.88
325.855	5451.88
326.084	8446.88
326.313	12178.88
326.542	12867.88
326.77	8736.88
326.999	5811.88
327.228	4860.88
327.457	4666.88
327.686	4714.88
327.914	5006.88
328.143	5860.88
328.372	6872.88
328.6	7414.88
328.829	6747.88
329.058	5646.88
329.287	4980.88
329.515	4574.88
329.744	4230.88
329.972	4057.88
330.201	3849.88
330.43	3735.88
330.658	3560.88
330.887	3578.88
331.115	3464.88
331.344	3555.88
331.572	3398.88
331.801	3446.88
332.03	3464.88
332.258	3532.88
332.486	3712.88
332.715	4182.88
332.943	5120.88
333.172	6352.88
333.4	6245.88
333.629	4816.88
333.857	4441.88
334.085	4449.88
334.314	4613.88
334.542	5052.88
334.771	5880.88
334.999	7110.88
335.227	9074.88
335.455	10047.88
335.684	8998.88
335.912	7499.88
336.14	6448.88
336.369	5620.88
336.597	5125.88
336.825	4736.88
337.053	4450.88
337.281	4180.88
337.51	4054.88
337.738	3890.88
337.966	3724.88
338.194	3555.88
338.422	3450.88
338.65	3436.88
338.878	3351.88
339.106	3226.88
339.334	3232.88
339.562	3121.88
339.79	3133.88
340.018	3066.88
340.246	3003.88
340.474	3022.88
340.702	3008.88
340.93	3010.88
341.158	3014.88
341.386	3018.88
341.614	2976.88
341.842	2892.88
342.07	2832.88
342.298	2848.88
342.526	2790.88
342.754	2785.88
342.981	2694.88
343.209	2715.88
343.437	2764.88
343.665	2785.88
343.893	2865.88
344.12	2865.88
344.348	2824.88
344.576	2780.88
344.804	2737.88
345.031	2620.88
345.259	2614.88
345.487	2612.88
345.714	2549.88
345.942	2567.88
346.17	2533.88
346.397	2558.88
346.625	2562.88
346.853	2509.88
347.08	2488.88
347.308	2533.88
347.535	2527.88
347.763	2533.88
347.99	2486.88
348.218	2467.88
348.445	2465.88
348.673	2456.88
348.9	2451.88
349.128	2416.88
349.355	2394.88
349.583	2480.88
349.81	2444.88
350.037	2410.88
350.265	2396.88
350.492	2405.88
350.72	2401.88
350.947	2395.88
351.174	2423.88
351.402	2451.88
351.629	2358.88
351.856	2375.88
352.083	2398.88
352.311	2366.88
352.538	2363.88
352.765	2387.88
352.992	2369.88
353.22	2376.88
353.447	2405.88
353.674	2398.88
353.901	2423.88
354.128	2398.88
354.355	2406.88
354.583	2421.88
354.81	2409.88
355.037	2404.88
355.264	2424.88
355.491	2388.88
355.718	2475.88
355.945	2452.88
356.172	2462.88
356.399	2426.88
356.626	2417.88
356.853	2493.88
357.08	2537.88
357.307	2564.88
357.534	2558.88
357.761	2576.88
357.988	2577.88
358.215	2619.88
358.441	2564.88
358.668	2522.88
358.895	2554.88
359.122	2580.88
359.349	2525.88
359.576	2534.88
359.802	2509.88
360.029	2503.88
360.256	2494.88
360.483	2530.88
360.709	2594.88
360.936	2555.88
361.163	2568.88
361.39	2562.88
361.616	2596.88
361.843	2556.88
362.07	2591.88
362.296	2657.88
362.523	2601.88
362.749	2534.88
362.976	2556.88
363.203	2553.88
363.429	2540.88
363.656	2557.88
363.882	2565.88
364.109	2532.88
364.335	2505.88
364.562	2558.88
364.788	2578.88
365.015	2610.88
365.241	2644.88
365.468	2785.88
365.694	2945.88
365.92	2818.88
366.147	2653.88
366.373	2652.88
366.599	2643.88
366.826	2569.88
367.052	2628.88
367.278	2623.88
367.505	2668.88
367.731	2614.88
367.957	2626.88
368.184	2643.88
368.41	2709.88
368.636	2649.88
368.862	2652.88
369.089	2708.88
369.315	2646.88
369.541	2640.88
369.767	2655.88
369.993	2633.88
370.219	2665.88
370.445	2656.88
370.672	2676.88
370.898	2694.88
371.124	2697.88
371.35	2751.88
371.576	2726.88
371.802	2716.88
372.028	2753.88
372.254	2825.88
372.48	2770.88
372.706	2834.88
372.932	2804.88
373.158	2800.88
373.384	2817.88
373.61	2825.88
373.835	2786.88
374.061	2825.88
374.287	2820.88
374.513	2845.88
374.739	2895.88
374.965	2914.88
375.191	2922.88
375.416	2960.88
375.642	2844.88
375.868	2862.88
376.094	2849.88
376.319	2791.88
376.545	2815.88
376.771	2765.88
376.997	2706.88
377.222	2735.88
377.448	2727.88
377.674	2706.88
377.899	2681.88
378.125	2719.88
378.35	2698.88
378.576	2784.88
378.802	2730.88
379.027	2812.88
379.253	2856.88
379.478	3058.88
379.704	3531.88
379.929	5078.88
380.155	7638.88
380.38	8276.88
380.606	5125.88
380.831	3620.88
381.057	3236.88
381.282	2975.88
381.507	2873.88
381.733	2823.88
381.958	2803.88
382.184	2751.88
382.409	2716.88
382.634	2739.88
382.86	2677.88
383.085	2689.88
383.31	2708.88
383.535	2705.88
383.761	2720.88
383.986	2750.88
384.211	2725.88
384.436	2760.88
384.662	2746.88
384.887	2837.88
385.112	2768.88
385.337	2792.88
385.562	2802.88
385.787	2786.88
386.013	2805.88
386.238	2814.88
386.463	2793.88
386.688	2835.88
386.913	2751.88
387.138	2835.88
387.363	2757.88
387.588	2778.88
387.813	2785.88
388.038	2749.88
388.263	2796.88
388.488	2783.88
388.713	2779.88
388.938	2762.88
389.163	2766.88
389.387	2785.88
389.612	2793.88
389.837	2804.88
390.062	2776.88
390.287	2824.88
390.512	2876.88
390.736	2831.88
390.961	2885.88
391.186	2885.88
391.411	2909.88
391.636	2866.88
391.86	2940.88
392.085	2958.88
392.31	2895.88
392.534	2918.88
392.759	2836.88
392.984	2822.88
393.208	2838.88
393.433	2900.88
393.658	2856.88
393.882	2819.88
394.107	2810.88
394.331	2789.88
394.556	2824.88
394.78	2815.88
395.005	2835.88
395.229	2841.88
395.454	2865.88
395.678	2926.88
395.903	2936.88
396.127	2909.88
396.352	2885.88
396.576	2905.88
396.801	2910.88
397.025	2919.88
397.249	2919.88
397.474	2900.88
397.698	2936.88
397.922	2965.88
398.147	2972.88
398.371	3008.88
398.595	3049.88
398.82	3092.88
399.044	3208.88
399.268	3324.88
399.492	3569.88
399.717	3678.88
399.941	3670.88
400.165	3576.88
400.389	3385.88
400.613	3302.88
400.837	3193.88
401.062	3135.88
401.286	3057.88
401.51	3047.88
401.734	3025.88
401.958	3099.88
402.182	3058.88
402.406	3041.88
402.63	3098.88
402.854	3092.88
403.078	3038.88
403.302	3169.88
403.526	3177.88
403.75	3206.88
403.974	3196.88
404.198	3176.88
404.422	3196.88
404.645	3181.88
404.869	3172.88
405.093	3182.88
405.317	3161.88
405.541	3259.88
405.765	3309.88
405.988	3287.88
406.212	3294.88
406.436	3237.88
406.66	3314.88
406.883	3279.88
407.107	3410.88
407.331	3436.88
407.555	3482.88
407.778	3481.88
408.002	3497.88
408.226	3441.88
408.449	3358.88
408.673	3271.88
408.896	3286.88
409.12	3233.88
409.344	3224.88
409.567	3178.88
409.791	3233.88
410.014	3185.88
410.238	3149.88
410.461	3152.88
410.685	3166.88
410.908	3131.88
411.132	3149.88
411.355	3132.88
411.578	3120.88
411.802	3005.88
412.025	3070.88
412.249	3045.88
412.472	3092.88
412.695	2978.88
412.919	2990.88
413.142	3011.88
413.365	3028.88
413.589	3072.88
413.812	3054.88
414.035	2984.88
414.258	3057.88
414.482	3012.88
414.705	3014.88
414.928	3005.88
415.151	3069.88
415.374	2951.88
415.597	2981.88
415.821	2885.88
416.044	2887.88
416.267	2890.88
416.49	2895.88
416.713	2887.88
416.936	2880.88
417.159	2781.88
417.382	2825.88
417.605	2810.88
417.828	2871.88
418.051	2890.88
418.274	2872.88
418.497	2902.88
418.72	2965.88
418.943	2955.88
419.166	3109.88
419.389	3218.88
419.611	3161.88
419.834	3072.88
420.057	2971.88
420.28	2959.88
420.503	2876.88
420.726	2883.88
420.948	2856.88
421.171	2884.88
421.394	2911.88
421.617	2846.88
421.839	2848.88
422.062	2905.88
422.285	2884.88
422.507	2900.88
422.73	2927.88
422.953	2946.88
423.175	2977.88
423.398	2996.88
423.621	2931.88
423.843	2925.88
424.066	2912.88
424.288	2890.88
424.511	2853.88
424.733	2865.88
424.956	2852.88
425.178	2835.88
425.401	2872.88
425.623	2850.88
425.846	2814.88
426.068	2809.88
426.291	2780.88
426.513	2788.88
426.735	2768.88
426.958	2796.88
427.18	2659.88
427.402	2715.88
427.625	2759.88
427.847	2705.88
428.069	2670.88
428.292	2687.88
428.514	2700.88
428.736	2684.88
428.958	2669.88
429.181	2624.88
429.403	2640.88
429.625	2652.88
429.847	2663.88
430.069	2709.88
430.292	2800.88
430.514	2898.88
430.736	2850.88
430.958	2776.88
431.18	2632.88
431.402	2631.88
431.624	2620.88
431.846	2642.88
432.068	2540.88
432.29	2619.88
432.512	2605.88
432.734	2632.88
432.956	2624.88
433.178	2650.88
433.4	2659.88
433.622	2657.88
433.844	2700.88
434.066	2670.88
434.287	2651.88
434.509	2708.88
434.731	2737.88
434.953	2762.88
435.175	2802.88
435.397	2780.88
435.618	2690.88
435.84	2729.88
436.062	2659.88
436.284	2628.88
436.505	2655.88
436.727	2597.88
436.949	2643.88
437.17	2633.88
437.392	2538.88
437.614	2592.88
437.835	2513.88
438.057	2565.88
438.278	2550.88
438.5	2566.88
438.721	2614.88
438.943	2663.88
439.165	2704.88
439.386	2746.88
439.608	2718.88
439.829	2706.88
440.05	2832.88
440.272	2866.88
440.493	2774.88
440.715	2676.88
440.936	2675.88
441.158	2797.88
441.379	2771.88
441.6	2871.88
441.822	2938.88
442.043	3083.88
442.264	3158.88
442.486	2913.88
442.707	2894.88
442.928	2836.88
443.149	2842.88
443.371	2841.88
443.592	2830.88
443.813	2826.88
444.034	2858.88
444.255	2879.88
444.476	2940.88
444.698	3003.88
444.919	3046.88
445.14	3143.88
445.361	3008.88
445.582	2914.88
445.803	2835.88
446.024	2783.88
446.245	2860.88
446.466	2773.88
446.687	2757.88
446.908	2753.88
447.129	2673.88
447.35	2653.88
447.571	2653.88
447.792	2627.88
448.013	2606.88
448.234	2615.88
448.455	2581.88
448.675	2699.88
448.896	2727.88
449.117	2714.88
449.338	2930.88
449.559	3091.88
449.779	2824.88
450	2639.88
450.221	2540.88
450.442	2553.88
450.662	2516.88
450.883	2533.88
451.104	2542.88
451.324	2527.88
451.545	2544.88
451.766	2556.88
451.986	2633.88
452.207	2800.88
452.428	3563.88
452.648	5360.88
452.869	4560.88
453.089	3157.88
453.31	2950.88
453.53	2930.88
453.751	3005.88
453.971	3096.88
454.192	3076.88
454.412	2674.88
454.633	2585.88
454.853	2493.88
455.073	2473.88
455.294	2437.88
455.514	2389.88
455.734	2417.88
455.955	2393.88
456.175	2416.88
456.395	2424.88
456.616	2456.88
456.836	2487.88
457.056	2449.88
457.276	2477.88
457.497	2663.88
457.717	2632.88
457.937	2556.88
458.157	2545.88
458.377	2600.88
458.598	2640.88
458.818	2597.88
459.038	2615.88
459.258	2655.88
459.478	2601.88
459.698	2672.88
459.918	2710.88
460.138	2780.88
460.358	2852.88
460.578	2828.88
460.798	2877.88
461.018	2839.88
461.238	2877.88
461.458	2894.88
461.678	2943.88
461.898	2992.88
462.118	3012.88
462.338	3101.88
462.558	3104.88
462.777	3136.88
462.997	3273.88
463.217	3333.88
463.437	3474.88
463.657	3542.88
463.876	3576.88
464.096	3354.88
464.316	3230.88
464.536	3140.88
464.755	3113.88
464.975	3041.88
465.195	2962.88
465.414	2840.88
465.634	2766.88
465.854	2750.88
466.073	2688.88
466.293	2664.88
466.512	2647.88
466.732	2680.88
466.951	2830.88
467.171	2967.88
467.391	2920.88
467.61	2763.88
467.829	2680.88
468.049	2639.88
468.268	2576.88
468.488	2569.88
468.707	2582.88
468.927	2574.88
469.146	2617.88
469.365	2638.88
469.585	2640.88
469.804	2695.88
470.023	2692.88
470.243	2772.88
470.462	2855.88
470.681	2993.88
470.901	3256.88
471.12	3684.88
471.339	3631.88
471.558	3145.88
471.777	2888.88
471.997	2748.88
472.216	2734.88
472.435	2640.88
472.654	2612.88
472.873	2600.88
473.092	2600.88
473.311	2629.88
473.53	2588.88
473.749	2680.88
473.968	2802.88
474.187	2677.88
474.406	2596.88
474.625	2626.88
474.844	2632.88
475.063	2643.88
475.282	2630.88
475.501	2644.88
475.72	2683.88
475.939	2673.88
476.158	2736.88
476.377	2788.88
476.596	2761.88
476.814	2745.88
477.033	2773.88
477.252	2765.88
477.471	2854.88
477.69	2873.88
477.908	2935.88
478.127	2962.88
478.346	2970.88
478.564	3044.88
478.783	2974.88
479.002	3063.88
479.22	3122.88
479.439	3189.88
479.658	3128.88
479.876	3091.88
480.095	3144.88
480.313	3221.88
480.532	3227.88
480.751	3192.88
480.969	3184.88
481.188	3162.88
481.406	3141.88
481.624	3129.88
481.843	3207.88
482.061	3160.88
482.28	3138.88
482.498	3138.88
482.717	3111.88
482.935	3226.88
483.153	3229.88
483.372	3271.88
483.59	3303.88
483.808	3362.88
484.027	3414.88
484.245	3572.88
484.463	4061.88
484.681	4396.88
484.9	4076.88
485.118	3840.88
485.336	3692.88
485.554	3803.88
485.772	3979.88
485.99	4444.88
486.209	4769.88
486.427	4084.88
486.645	3636.88
486.863	3515.88
487.081	3431.88
487.299	3352.88
487.517	3399.88
487.735	3364.88
487.953	3416.88
488.171	3366.88
488.389	3334.88
488.607	3267.88
488.825	3293.88
489.043	3251.88
489.261	3227.88
489.479	3223.88
489.696	3289.88
489.914	3254.88
490.132	3288.88
490.35	3364.88
490.568	3344.88
490.786	3371.88
491.003	3417.88
491.221	3384.88
491.439	3344.88
491.657	3406.88
491.874	3391.88
492.092	3466.88
492.31	3443.88
492.527	3408.88
492.745	3373.88
492.963	3438.88
493.18	3452.88
493.398	3417.88
493.615	3408.88
493.833	3387.88
494.05	3456.88
494.268	3448.88
494.485	3385.88
494.703	3425.88
494.92	3470.88
495.138	3468.88
495.355	3411.88
495.573	3513.88
495.79	3438.88
496.008	3510.88
496.225	3530.88
496.442	3559.88
496.66	3678.88
496.877	3889.88
497.094	3864.88
497.312	3672.88
497.529	3753.88
497.746	3772.88
497.963	3860.88
498.181	3857.88
498.398	3968.88
498.615	4101.88
498.832	4277.88
499.049	4515.88
499.267	4724.88
499.484	5088.88
499.701	4991.88
499.918	5182.88
500.135	5518.88
500.352	5732.88
500.569	5812.88
500.786	5772.88
501.003	5510.88
501.22	5305.88
501.437	5044.88
501.654	4845.88
501.871	4552.88
502.088	4412.88
502.305	4250.88
502.522	4112.88
502.739	4083.88
502.956	3945.88
503.172	3814.88
503.389	3705.88
503.606	3692.88
503.823	3571.88
504.04	3614.88
504.256	3585.88
504.473	3630.88
504.69	3551.88
504.907	3506.88
505.123	3452.88
505.34	3379.88
505.557	3287.88
505.773	3276.88
505.99	3250.88
506.207	3168.88
506.423	3175.88
506.64	3102.88
506.856	3050.88
507.073	3073.88
507.289	3076.88
507.506	3006.88
507.722	3018.88
507.939	3040.88
508.155	2944.88
508.372	2988.88
508.588	2979.88
508.805	2950.88
509.021	2948.88
509.238	2999.88
509.454	3116.88
509.67	3314.88
509.887	3133.88
510.103	3033.88
510.319	2908.88
510.536	2955.88
510.752	2893.88
510.968	2934.88
511.184	2878.88
511.401	2830.88
511.617	2784.88
511.833	2868.88
512.049	2840.88
512.265	2846.88
512.481	2810.88
512.698	2825.88
512.914	2826.88
513.13	2782.88
513.346	2862.88
513.562	2848.88
513.778	2845.88
513.994	2879.88
514.21	2978.88
514.426	3150.88
514.642	3237.88
514.858	3038.88
515.074	2941.88
515.29	2872.88
515.506	2860.88
515.721	2959.88
515.937	2958.88
516.153	2955.88
516.369	2994.88
516.585	3052.88
516.801	3090.88
517.016	3095.88
517.232	3183.88
517.448	3184.88
517.664	3274.88
517.879	3265.88
518.095	3206.88
518.311	3204.88
518.527	3186.88
518.742	3120.88
518.958	3191.88
519.173	3200.88
519.389	3132.88
519.605	3039.88
519.82	2934.88
520.036	2942.88
520.251	2861.88
520.467	2861.88
520.682	2861.88
520.898	2845.88
521.113	2791.88
521.329	2790.88
521.544	2808.88
521.76	2830.88
521.975	2754.88
522.19	2760.88
522.406	2743.88
522.621	2727.88
522.836	2742.88
523.052	2741.88
523.267	2674.88
523.482	2741.88
523.698	2732.88
523.913	2744.88
524.128	2719.88
524.343	2740.88
524.559	2685.88
524.774	2713.88
524.989	2746.88
525.204	2787.88
525.419	2708.88
525.634	2680.88
525.849	2716.88
526.064	2732.88
526.28	2738.88
526.495	2714.88
526.71	2718.88
526.925	2682.88
527.14	2746.88
527.355	2709.88
527.57	2696.88
527.785	2752.88
527.999	2739.88
528.214	2766.88
528.429	2796.88
528.644	2810.88
528.859	2819.88
529.074	2872.88
529.289	2896.88
529.503	2929.88
529.718	2876.88
529.933	2883.88
530.148	2883.88
530.363	2861.88
530.577	2880.88
530.792	2874.88
531.007	2921.88
531.221	2903.88
531.436	2972.88
531.651	2990.88
531.865	3063.88
532.08	3027.88
532.295	3177.88
532.509	3336.88
532.724	3409.88
532.938	3409.88
533.153	3495.88
533.367	3753.88
533.582	3943.88
533.796	3919.88
534.011	3692.88
534.225	3577.88
534.44	3388.88
534.654	3345.88
534.868	3293.88
535.083	3281.88
535.297	3246.88
535.511	3096.88
535.726	3128.88
535.94	3057.88
536.154	3010.88
536.369	2973.88
536.583	2967.88
536.797	2879.88
537.011	2853.88
537.225	2870.88
537.44	2830.88
537.654	2826.88
537.868	2768.88
538.082	2720.88
538.296	2711.88
538.51	2713.88
538.724	2736.88
538.938	2657.88
539.153	2679.88
539.367	2682.88
539.581	2661.88
539.795	2616.88
540.009	2581.88
540.222	2604.88
540.436	2614.88
540.65	2629.88
540.864	2597.88
541.078	2673.88
541.292	2828.88
541.506	3342.88
541.72	3390.88
541.934	2985.88
542.147	2824.88
542.361	2699.88
542.575	2574.88
542.789	2613.88
543.002	2524.88
543.216	2536.88
543.43	2519.88
543.644	2526.88
543.857	2492.88
544.071	2511.88
544.285	2574.88
544.498	2528.88
544.712	2539.88
544.925	2601.88
545.139	2592.88
545.352	2542.88
545.566	2538.88
545.779	2539.88
545.993	2509.88
546.206	2548.88
546.42	2604.88
546.633	2574.88
546.847	2522.88
547.06	2545.88
547.274	2536.88
547.487	2530.88
547.7	2544.88
547.914	2547.88
548.127	2544.88
548.34	2579.88
548.554	2527.88
548.767	2508.88
548.98	2584.88
549.193	2574.88
549.407	2522.88
549.62	2524.88
549.833	2601.88
550.046	2517.88
550.259	2536.88
550.473	2513.88
550.686	2577.88
550.899	2584.88
551.112	2529.88
551.325	2502.88
551.538	2516.88
551.751	2537.88
551.964	2524.88
552.177	2570.88
552.39	2610.88
552.603	2654.88
552.816	2679.88
553.029	2698.88
553.242	2746.88
553.455	2813.88
553.667	2772.88
553.88	2829.88
554.093	2842.88
554.306	2876.88
554.519	2854.88
554.732	2922.88
554.944	2963.88
555.157	2966.88
555.37	3077.88
555.583	3210.88
555.795	3372.88
556.008	3574.88
556.221	4068.88
556.433	4382.88
556.646	4331.88
556.859	4178.88
557.071	3992.88
557.284	3817.88
557.496	3791.88
557.709	3678.88
557.921	3609.88
558.134	3637.88
558.346	3650.88
558.559	3785.88
558.771	4028.88
558.984	4334.88
559.196	4764.88
559.409	4460.88
559.621	4138.88
559.833	3837.88
560.046	3668.88
560.258	3469.88
560.47	3260.88
560.683	3188.88
560.895	3071.88
561.107	3017.88
561.32	2846.88
561.532	2800.88
561.744	2801.88
561.956	2693.88
562.168	2672.88
562.381	2629.88
562.593	2616.88
562.805	2665.88
563.017	2709.88
563.229	2724.88
563.441	3144.88
563.653	2622.88
563.865	2432.88
564.077	2442.88
564.289	2383.88
564.501	2345.88
564.713	2356.88
564.925	2377.88
565.137	2334.88
565.349	2366.88
565.561	2344.88
565.773	2380.88
565.985	2370.88
566.197	2409.88
566.408	2482.88
566.62	2528.88
566.832	2590.88
567.044	2591.88
567.255	2576.88
567.467	2646.88
567.679	2675.88
567.891	2796.88
568.102	3121.88
568.314	3527.88
568.526	3119.88
568.737	2723.88
568.949	2487.88
569.161	2378.88
569.372	2234.88
569.584	2193.88
569.795	2149.88
570.007	2142.88
570.218	2180.88
570.43	2233.88
570.641	2035.88
570.853	1960.88
571.064	2050.88
571.276	1985.88
571.487	1943.88
571.698	1879.88
571.91	1880.88
572.121	1868.88
572.333	1884.88
572.544	1840.88
572.755	1994.88
572.966	2286.88
573.178	2100.88
573.389	1907.88
573.6	1812.88
573.811	1745.88
574.023	1736.88
574.234	1725.88
574.445	1758.88
574.656	1722.88
574.867	1716.88
575.078	1724.88
575.289	1749.88
575.501	1684.88
575.712	1672.88
575.923	1666.88
576.134	1692.88
576.345	1711.88
576.556	1704.88
576.767	1718.88
576.978	1718.88
577.188	1682.88
577.399	1673.88
577.61	1770.88
577.821	1740.88
578.032	1736.88
578.243	1773.88
578.454	1865.88
578.665	1910.88
578.875	1913.88
579.086	1959.88
579.297	2057.88
579.508	2173.88
579.718	2344.88
579.929	2694.88
580.14	3099.88
580.35	3214.88
580.561	2910.88
580.772	2619.88
580.982	2438.88
581.193	2340.88
581.403	2170.88
581.614	2062.88
581.825	2011.88
582.035	1896.88
582.246	1870.88
582.456	1804.88
582.667	1796.88
582.877	1737.88
583.087	1721.88
583.298	1621.88
583.508	1585.88
583.719	1573.88
583.929	1553.88
584.139	1520.88
584.35	1502.88
584.56	1485.88
584.77	1449.88
584.981	1436.88
585.191	1453.88
585.401	1361.88
585.611	1371.88
585.821	1376.88
586.032	1360.88
586.242	1342.88
586.452	1320.88
586.662	1299.88
586.872	1303.88
587.082	1292.88
587.292	1262.88
587.502	1271.88
587.713	1287.88
587.923	1233.88
588.133	1248.88
588.343	1213.88
588.553	1238.88
588.762	1202.88
588.972	1232.88
589.182	1218.88
589.392	1229.88
589.602	1202.88
589.812	1227.88
590.022	1189.88
590.232	1165.88
590.441	1179.88
590.651	1186.88
590.861	1165.88
591.071	1197.88
591.281	1162.88
591.49	1146.88
591.7	1165.88
591.91	1206.88
592.119	1214.88
592.329	1178.88
592.539	1206.88
592.748	1184.88
592.958	1223.88
593.167	1238.88
593.377	1242.88
593.587	1244.88
593.796	1228.88
594.006	1233.88
594.215	1228.88
594.424	1229.88
594.634	1190.88
594.843	1151.88
595.053	1155.88
595.262	1138.88
595.472	1118.88
595.681	1087.88
595.89	1130.88
596.1	1078.88
596.309	1066.88
596.518	1069.88
596.727	1060.88
596.937	1046.88
597.146	999.88
597.355	989.88
597.564	1031.88
597.774	1020.88
597.983	988.88
598.192	988.88
598.401	979.88
598.61	987.88
598.819	977.88
599.028	987.88
599.237	981.88
599.446	981.88
599.655	973.88
599.864	951.88
600.073	933.88
600.282	927.88
600.491	959.88
600.7	941.88
600.909	921.88
601.118	942.88
601.327	933.88
601.536	952.88
601.745	957.88
601.953	1060.88
602.162	1216.88
602.371	1071.88
602.58	995.88
602.789	949.88
602.997	953.88
603.206	951.88
603.415	913.88
603.623	925.88
603.832	907.88
604.041	928.88
604.249	877.88
604.458	913.88
604.666	869.88
604.875	867.88
605.084	894.88
605.292	876.88
605.501	903.88
605.709	884.88
605.918	895.88
606.126	931.88
606.334	907.88
606.543	930.88
606.751	998.88
606.96	1132.88
607.168	1160.88
607.376	1064.88
607.585	974.88
607.793	914.88
608.001	900.88
608.21	893.88
608.418	898.88
608.626	877.88
608.834	869.88
609.043	871.88
609.251	871.88
609.459	837.88
609.667	818.88
609.875	829.88
610.083	832.88
610.291	826.88
610.499	826.88
610.707	825.88
610.916	856.88
611.124	790.88
611.332	816.88
611.54	789.88
611.748	820.88
611.955	803.88
612.163	789.88
612.371	809.88
612.579	786.88
612.787	819.88
612.995	771.88
613.203	792.88
613.411	804.88
613.618	790.88
613.826	797.88
614.034	799.88
614.242	794.88
614.449	779.88
614.657	794.88
614.865	809.88
615.072	790.88
615.28	791.88
615.488	798.88
615.695	796.88
615.903	800.88
616.111	774.88
616.318	790.88
616.526	792.88
616.733	782.88
616.941	761.88
617.148	753.88
617.356	776.88
617.563	758.88
617.771	752.88
617.978	721.88
618.185	735.88
618.393	726.88
618.6	736.88
618.807	738.88
619.015	771.88
619.222	739.88
619.429	741.88
619.637	725.88
619.844	729.88
620.051	727.88
620.258	719.88
620.466	690.88
620.673	695.88
620.88	676.88
621.087	692.88
621.294	714.88
621.501	689.88
621.708	728.88
621.915	701.88
622.122	711.88
622.329	717.88
622.536	703.88
622.743	722.88
622.95	692.88
623.157	687.88
623.364	678.88
623.571	677.88
623.778	705.88
623.985	681.88
624.192	681.88
624.399	671.88
624.606	669.88
624.812	700.88
625.019	647.88
625.226	666.88
625.433	658.88
625.639	665.88
625.846	657.88
626.053	642.88
626.259	641.88
626.466	644.88
626.673	640.88
626.879	625.88
627.086	636.88
627.293	630.88
627.499	634.88
627.706	637.88
627.912	630.88
628.119	632.88
628.325	643.88
628.532	624.88
628.738	629.88
628.945	632.88
629.151	631.88
629.357	595.88
629.564	614.88
629.77	593.88
629.976	600.88
630.183	606.88
630.389	599.88
630.595	597.88
630.802	597.88
631.008	601.88
631.214	583.88
631.42	596.88
631.627	590.88
631.833	590.88
632.039	589.88
632.245	589.88
632.451	574.88
632.657	587.88
632.863	576.88
633.069	575.88
633.275	596.88
633.481	568.88
633.688	586.88
633.893	586.88
634.099	573.88
634.305	604.88
634.511	562.88
634.717	563.88
634.923	610.88
635.129	664.88
635.335	750.88
635.541	665.88
635.747	620.88
635.952	594.88
636.158	605.88
636.364	570.88
636.57	569.88
636.775	586.88
636.981	592.88
637.187	562.88
637.392	576.88
637.598	585.88
637.804	574.88
638.009	582.88
638.215	582.88
638.421	580.88
638.626	583.88
638.832	591.88
639.037	600.88
639.243	559.88
639.448	600.88
639.654	615.88
639.859	599.88
640.065	586.88
640.27	606.88
640.475	600.88
640.681	604.88
640.886	633.88
641.091	622.88
641.297	628.88
641.502	611.88
641.707	628.88
641.913	667.88
642.118	675.88
642.323	662.88
642.528	668.88
642.733	668.88
642.939	691.88
643.144	709.88
643.349	725.88
643.554	776.88
643.759	818.88
643.964	829.88
644.169	871.88
644.374	933.88
644.579	1010.88
644.784	1143.88
644.989	1269.88
645.194	1463.88
645.399	1823.88
645.604	1979.88
645.809	1456.88
646.014	1118.88
646.219	918.88
646.423	828.88
646.628	756.88
646.833	703.88
647.038	658.88
647.243	648.88
647.447	638.88
647.652	588.88
647.857	584.88
648.062	555.88
648.266	551.88
648.471	561.88
648.676	560.88
648.88	540.88
649.085	534.88
649.289	520.88
649.494	512.88
649.698	498.88
649.903	502.88
650.107	458.88
650.312	479.88
650.516	466.88
650.721	469.88
650.925	464.88
651.13	428.88
651.334	432.88
651.539	415.88
651.743	428.88
651.947	412.88
652.152	438.88
652.356	412.88
652.56	455.88
652.764	505.88
652.969	459.88
653.173	413.88
653.377	374.88
653.581	378.88
653.785	380.88
653.99	382.88
654.194	366.88
654.398	352.88
654.602	366.88
654.806	357.88
655.01	348.88
655.214	341.88
655.418	358.88
655.622	345.88
655.826	359.88
656.03	372.88
656.234	344.88
656.438	375.88
656.642	368.88
656.846	365.88
657.049	341.88
657.253	313.88
657.457	316.88
657.661	319.88
657.865	274.88
658.068	256.88
658.272	259.88
658.476	226.88
658.68	250.88
658.883	218.88
659.087	199.88
659.291	198.88
659.494	190.88
659.698	189.88
659.901	181.88
660.105	159.88
660.309	178.88
660.512	154.88
660.716	149.88
660.919	162.88
661.123	144.88
661.326	126.88
661.53	146.88
661.733	130.88
661.936	120.88
662.14	121.88
662.343	116.88
662.546	104.88
662.75	91.88
662.953	110.88
663.156	92.88
663.36	99.88
663.563	97.88
663.766	80.88
663.969	93.88
664.173	90.88
664.376	89.88
664.579	94.88
664.782	82.88
664.985	93.88
665.188	91.88
665.391	96.88
665.594	83.88
665.797	96.88
666	80.88
666.203	71.88
666.406	88.88
666.609	75.88
666.812	80.88
667.015	88.88
667.218	84.88
667.421	75.88
667.624	90.88
667.827	89.88
668.03	80.88
668.232	74.88
668.435	79.88
668.638	81.88
668.841	88.88
669.043	89.88
669.246	85.88
669.449	78.88
669.651	77.88
669.854	68.88
670.057	94.88
670.259	71.88
670.462	90.88
670.665	80.88
670.867	82.88
671.07	90.88
671.272	88.88
671.475	90.88
671.677	78.88
671.88	84.88
672.082	86.88
672.284	88.88
672.487	65.88
672.689	70.88
672.892	76.88
