Data from SnStandardFlinnAPT0064_LampEnergy5.5_LIBS07252019.E.O._I.C._HRD10591_15-14-46-491.txt Node
Date: Thu Jul 25 15:14:46 EDT 2019
User: cochatt
Spectrometer: HR+D1059
Trigger mode: 1
Integration Time (sec): 1.000000E-1
Scans to average: 1
Electric dark correction enabled: true
Nonlinearity correction enabled: false
Boxcar width: 0
XAxis mode: Wavelengths
Number of Pixels in Spectrum: 2048
>>>>>Begin Spectral Data<<<<<
223.165	-18.62
223.4	-18.62
223.635	-18.62
223.869	-10.62
224.104	-13.62
224.338	-7.62
224.573	-24.62
224.808	-11.62
225.042	-0.62
225.277	-10.62
225.511	4.38
225.746	-1.62
225.98	1.38
226.215	16.38
226.449	8.38
226.683	21.38
226.918	24.38
227.152	23.38
227.387	26.38
227.621	39.38
227.856	60.38
228.09	38.38
228.324	52.38
228.559	47.38
228.793	83.38
229.027	150.38
229.262	143.38
229.496	143.38
229.73	150.38
229.964	140.38
230.199	148.38
230.433	149.38
230.667	159.38
230.901	165.38
231.136	158.38
231.37	151.38
231.604	181.38
231.838	175.38
232.072	225.38
232.306	228.38
232.541	194.38
232.775	167.38
233.009	172.38
233.243	182.38
233.477	197.38
233.711	198.38
233.945	219.38
234.179	210.38
234.413	206.38
234.647	189.38
234.881	203.38
235.115	229.38
235.349	253.38
235.583	300.38
235.817	352.38
236.051	351.38
236.285	246.38
236.519	211.38
236.753	205.38
236.987	227.38
237.221	227.38
237.455	231.38
237.689	203.38
237.922	214.38
238.156	212.38
238.39	208.38
238.624	200.38
238.858	194.38
239.091	202.38
239.325	228.38
239.559	210.38
239.793	237.38
240.027	213.38
240.26	229.38
240.494	230.38
240.728	227.38
240.961	249.38
241.195	250.38
241.429	267.38
241.662	271.38
241.896	291.38
242.13	348.38
242.363	400.38
242.597	517.38
242.83	502.38
243.064	508.38
243.298	589.38
243.531	475.38
243.765	349.38
243.998	309.38
244.232	281.38
244.465	283.38
244.699	273.38
244.932	268.38
245.166	284.38
245.399	284.38
245.633	276.38
245.866	280.38
246.099	280.38
246.333	272.38
246.566	280.38
246.8	278.38
247.033	274.38
247.266	268.38
247.5	289.38
247.733	283.38
247.966	292.38
248.2	306.38
248.433	315.38
248.666	347.38
248.899	360.38
249.133	317.38
249.366	321.38
249.599	335.38
249.832	379.38
250.066	395.38
250.299	338.38
250.532	323.38
250.765	305.38
250.998	305.38
251.231	308.38
251.465	305.38
251.698	323.38
251.931	308.38
252.164	312.38
252.397	327.38
252.63	315.38
252.863	297.38
253.096	323.38
253.329	333.38
253.562	315.38
253.795	317.38
254.028	342.38
254.261	317.38
254.494	320.38
254.727	380.38
254.96	431.38
255.193	434.38
255.426	367.38
255.659	341.38
255.892	352.38
256.124	326.38
256.357	347.38
256.59	360.38
256.823	385.38
257.056	407.38
257.289	464.38
257.521	491.38
257.754	420.38
257.987	383.38
258.22	357.38
258.452	371.38
258.685	365.38
258.918	355.38
259.151	391.38
259.383	409.38
259.616	422.38
259.849	461.38
260.081	400.38
260.314	417.38
260.547	407.38
260.779	392.38
261.012	387.38
261.244	390.38
261.477	400.38
261.71	410.38
261.942	415.38
262.175	428.38
262.407	429.38
262.64	439.38
262.872	437.38
263.105	480.38
263.337	500.38
263.57	515.38
263.802	509.38
264.035	529.38
264.267	536.38
264.499	581.38
264.732	581.38
264.964	615.38
265.197	600.38
265.429	585.38
265.661	595.38
265.894	645.38
266.126	670.38
266.358	716.38
266.591	691.38
266.823	628.38
267.055	585.38
267.287	553.38
267.52	528.38
267.752	536.38
267.984	531.38
268.216	536.38
268.448	526.38
268.681	514.38
268.913	512.38
269.145	485.38
269.377	481.38
269.609	491.38
269.841	513.38
270.073	541.38
270.306	581.38
270.538	737.38
270.77	1035.38
271.002	1185.38
271.234	904.38
271.466	659.38
271.698	581.38
271.93	552.38
272.162	500.38
272.394	494.38
272.626	495.38
272.858	486.38
273.09	475.38
273.322	514.38
273.553	468.38
273.785	504.38
274.017	477.38
274.249	483.38
274.481	499.38
274.713	507.38
274.945	507.38
275.176	485.38
275.408	473.38
275.64	486.38
275.872	494.38
276.104	523.38
276.335	517.38
276.567	487.38
276.799	479.38
277.031	519.38
277.262	502.38
277.494	515.38
277.726	558.38
277.957	596.38
278.189	674.38
278.421	638.38
278.652	595.38
278.884	572.38
279.115	560.38
279.347	547.38
279.579	527.38
279.81	549.38
280.042	556.38
280.273	562.38
280.505	539.38
280.736	548.38
280.968	572.38
281.199	617.38
281.431	678.38
281.662	691.38
281.894	637.38
282.125	606.38
282.356	616.38
282.588	637.38
282.819	615.38
283.051	657.38
283.282	723.38
283.513	840.38
283.745	1156.38
283.976	1728.38
284.207	2358.38
284.439	2161.38
284.67	1435.38
284.901	1167.38
285.132	1121.38
285.364	1065.38
285.595	889.38
285.826	845.38
286.057	951.38
286.288	1204.38
286.52	1512.38
286.751	1470.38
286.982	1000.38
287.213	776.38
287.444	752.38
287.675	684.38
287.906	686.38
288.138	642.38
288.369	633.38
288.6	642.38
288.831	626.38
289.062	636.38
289.293	654.38
289.524	661.38
289.755	672.38
289.986	653.38
290.217	627.38
290.448	654.38
290.679	641.38
290.91	675.38
291.141	693.38
291.371	705.38
291.602	692.38
291.833	676.38
292.064	643.38
292.295	639.38
292.526	619.38
292.757	640.38
292.987	639.38
293.218	600.38
293.449	607.38
293.68	604.38
293.91	615.38
294.141	613.38
294.372	609.38
294.603	607.38
294.833	624.38
295.064	603.38
295.295	615.38
295.525	601.38
295.756	580.38
295.987	587.38
296.217	604.38
296.448	612.38
296.679	601.38
296.909	597.38
297.14	617.38
297.37	610.38
297.601	641.38
297.831	631.38
298.062	613.38
298.292	625.38
298.523	635.38
298.753	648.38
298.984	652.38
299.214	649.38
299.445	646.38
299.675	675.38
299.905	661.38
300.136	708.38
300.366	742.38
300.597	910.38
300.827	1189.38
301.057	1519.38
301.288	1521.38
301.518	1064.38
301.748	863.38
301.979	828.38
302.209	796.38
302.439	803.38
302.669	853.38
302.9	971.38
303.13	1248.38
303.36	1702.38
303.59	2243.38
303.82	2041.38
304.051	1335.38
304.281	1015.38
304.511	904.38
304.741	804.38
304.971	809.38
305.201	741.38
305.431	759.38
305.661	723.38
305.891	722.38
306.121	742.38
306.352	708.38
306.582	713.38
306.812	695.38
307.042	706.38
307.272	715.38
307.502	708.38
307.731	717.38
307.961	704.38
308.191	705.38
308.421	703.38
308.651	685.38
308.881	716.38
309.111	703.38
309.341	691.38
309.571	699.38
309.8	742.38
310.03	733.38
310.26	717.38
310.49	723.38
310.72	744.38
310.949	728.38
311.179	701.38
311.409	745.38
311.639	752.38
311.868	737.38
312.098	732.38
312.328	731.38
312.557	760.38
312.787	779.38
313.017	752.38
313.246	769.38
313.476	776.38
313.706	781.38
313.935	818.38
314.165	838.38
314.394	859.38
314.624	845.38
314.853	815.38
315.083	835.38
315.312	821.38
315.542	817.38
315.771	843.38
316.001	823.38
316.23	871.38
316.46	875.38
316.689	921.38
316.919	1097.38
317.148	1470.38
317.377	2115.38
317.607	2991.38
317.836	3112.38
318.065	1990.38
318.295	1366.38
318.524	1148.38
318.753	1030.38
318.983	979.38
319.212	936.38
319.441	916.38
319.67	895.38
319.9	870.38
320.129	874.38
320.358	856.38
320.587	869.38
320.816	888.38
321.046	884.38
321.275	900.38
321.504	892.38
321.733	901.38
321.962	935.38
322.191	920.38
322.42	918.38
322.649	917.38
322.878	943.38
323.108	951.38
323.337	968.38
323.566	964.38
323.795	965.38
324.024	950.38
324.253	994.38
324.482	1047.38
324.71	1058.38
324.939	1103.38
325.168	1118.38
325.397	1180.38
325.626	1348.38
325.855	1737.38
326.084	2589.38
326.313	3713.38
326.542	3981.38
326.77	2658.38
326.999	1851.38
327.228	1628.38
327.457	1571.38
327.686	1587.38
327.914	1695.38
328.143	1919.38
328.372	2206.38
328.6	2311.38
328.829	2216.38
329.058	1954.38
329.287	1783.38
329.515	1648.38
329.744	1575.38
329.972	1471.38
330.201	1408.38
330.43	1360.38
330.658	1319.38
330.887	1327.38
331.115	1283.38
331.344	1299.38
331.572	1306.38
331.801	1264.38
332.03	1297.38
332.258	1293.38
332.486	1351.38
332.715	1484.38
332.943	1697.38
333.172	1997.38
333.4	2005.38
333.629	1708.38
333.857	1604.38
334.085	1596.38
334.314	1674.38
334.542	1781.38
334.771	2021.38
334.999	2368.38
335.227	2826.38
335.455	3067.38
335.684	2930.38
335.912	2579.38
336.14	2265.38
336.369	2053.38
336.597	1861.38
336.825	1711.38
337.053	1645.38
337.281	1570.38
337.51	1455.38
337.738	1449.38
337.966	1350.38
338.194	1323.38
338.422	1289.38
338.65	1287.38
338.878	1239.38
339.106	1243.38
339.334	1219.38
339.562	1171.38
339.79	1197.38
340.018	1148.38
340.246	1159.38
340.474	1118.38
340.702	1115.38
340.93	1157.38
341.158	1135.38
341.386	1133.38
341.614	1142.38
341.842	1097.38
342.07	1096.38
342.298	1090.38
342.526	1036.38
342.754	1062.38
342.981	1040.38
343.209	1039.38
343.437	1073.38
343.665	1067.38
343.893	1087.38
344.12	1081.38
344.348	1069.38
344.576	1015.38
344.804	1055.38
345.031	1016.38
345.259	1007.38
345.487	1009.38
345.714	1012.38
345.942	958.38
346.17	989.38
346.397	983.38
346.625	958.38
346.853	990.38
347.08	966.38
347.308	967.38
347.535	960.38
347.763	958.38
347.99	956.38
348.218	949.38
348.445	946.38
348.673	936.38
348.9	934.38
349.128	953.38
349.355	965.38
349.583	960.38
349.81	928.38
350.037	934.38
350.265	936.38
350.492	951.38
350.72	939.38
350.947	928.38
351.174	911.38
351.402	923.38
351.629	926.38
351.856	927.38
352.083	936.38
352.311	902.38
352.538	950.38
352.765	925.38
352.992	905.38
353.22	935.38
353.447	937.38
353.674	927.38
353.901	926.38
354.128	919.38
354.355	935.38
354.583	939.38
354.81	947.38
355.037	942.38
355.264	953.38
355.491	945.38
355.718	939.38
355.945	944.38
356.172	955.38
356.399	967.38
356.626	968.38
356.853	950.38
357.08	989.38
357.307	964.38
357.534	988.38
357.761	984.38
357.988	983.38
358.215	979.38
358.441	992.38
358.668	990.38
358.895	993.38
359.122	976.38
359.349	973.38
359.576	980.38
359.802	968.38
360.029	998.38
360.256	1005.38
360.483	1001.38
360.709	1007.38
360.936	981.38
361.163	977.38
361.39	979.38
361.616	976.38
361.843	989.38
362.07	964.38
362.296	1006.38
362.523	990.38
362.749	1010.38
362.976	1033.38
363.203	1005.38
363.429	982.38
363.656	984.38
363.882	1013.38
364.109	994.38
364.335	955.38
364.562	990.38
364.788	1007.38
365.015	977.38
365.241	990.38
365.468	1004.38
365.694	1039.38
365.92	1045.38
366.147	1025.38
366.373	1020.38
366.599	1039.38
366.826	1014.38
367.052	987.38
367.278	1037.38
367.505	1026.38
367.731	1032.38
367.957	987.38
368.184	1014.38
368.41	1055.38
368.636	1017.38
368.862	1029.38
369.089	1021.38
369.315	1034.38
369.541	1040.38
369.767	1025.38
369.993	1053.38
370.219	1055.38
370.445	1033.38
370.672	1048.38
370.898	1039.38
371.124	1038.38
371.35	1053.38
371.576	1069.38
371.802	1055.38
372.028	1059.38
372.254	1055.38
372.48	1087.38
372.706	1100.38
372.932	1072.38
373.158	1097.38
373.384	1069.38
373.61	1094.38
373.835	1109.38
374.061	1101.38
374.287	1089.38
374.513	1104.38
374.739	1146.38
374.965	1136.38
375.191	1157.38
375.416	1100.38
375.642	1096.38
375.868	1080.38
376.094	1103.38
376.319	1083.38
376.545	1091.38
376.771	1073.38
376.997	1058.38
377.222	1089.38
377.448	1050.38
377.674	1057.38
377.899	1078.38
378.125	1069.38
378.35	1071.38
378.576	1051.38
378.802	1078.38
379.027	1085.38
379.253	1127.38
379.478	1140.38
379.704	1297.38
379.929	1623.38
380.155	2286.38
380.38	2434.38
380.606	1646.38
380.831	1271.38
381.057	1201.38
381.282	1115.38
381.507	1083.38
381.733	1053.38
381.958	1059.38
382.184	1049.38
382.409	1096.38
382.634	1070.38
382.86	1049.38
383.085	1046.38
383.31	1068.38
383.535	1066.38
383.761	1043.38
383.986	1069.38
384.211	1065.38
384.436	1059.38
384.662	1069.38
384.887	1075.38
385.112	1112.38
385.337	1101.38
385.562	1080.38
385.787	1095.38
386.013	1123.38
386.238	1097.38
386.463	1089.38
386.688	1140.38
386.913	1107.38
387.138	1115.38
387.363	1063.38
387.588	1080.38
387.813	1096.38
388.038	1080.38
388.263	1079.38
388.488	1126.38
388.713	1090.38
388.938	1086.38
389.163	1101.38
389.387	1079.38
389.612	1090.38
389.837	1092.38
390.062	1088.38
390.287	1097.38
390.512	1100.38
390.736	1090.38
390.961	1104.38
391.186	1101.38
391.411	1128.38
391.636	1148.38
391.86	1162.38
392.085	1159.38
392.31	1125.38
392.534	1131.38
392.759	1120.38
392.984	1103.38
393.208	1091.38
393.433	1091.38
393.658	1093.38
393.882	1077.38
394.107	1098.38
394.331	1105.38
394.556	1100.38
394.78	1104.38
395.005	1143.38
395.229	1135.38
395.454	1131.38
395.678	1128.38
395.903	1128.38
396.127	1123.38
396.352	1147.38
396.576	1140.38
396.801	1140.38
397.025	1143.38
397.249	1155.38
397.474	1176.38
397.698	1155.38
397.922	1161.38
398.147	1176.38
398.371	1171.38
398.595	1179.38
398.82	1235.38
399.044	1247.38
399.268	1340.38
399.492	1375.38
399.717	1436.38
399.941	1461.38
400.165	1371.38
400.389	1332.38
400.613	1266.38
400.837	1278.38
401.062	1230.38
401.286	1249.38
401.51	1214.38
401.734	1183.38
401.958	1174.38
402.182	1221.38
402.406	1223.38
402.63	1231.38
402.854	1279.38
403.078	1243.38
403.302	1248.38
403.526	1252.38
403.75	1283.38
403.974	1272.38
404.198	1279.38
404.422	1262.38
404.645	1260.38
404.869	1250.38
405.093	1254.38
405.317	1222.38
405.541	1279.38
405.765	1263.38
405.988	1284.38
406.212	1297.38
406.436	1305.38
406.66	1296.38
406.883	1286.38
407.107	1337.38
407.331	1357.38
407.555	1370.38
407.778	1343.38
408.002	1349.38
408.226	1334.38
408.449	1324.38
408.673	1297.38
408.896	1261.38
409.12	1263.38
409.344	1275.38
409.567	1236.38
409.791	1221.38
410.014	1252.38
410.238	1268.38
410.461	1253.38
410.685	1229.38
410.908	1237.38
411.132	1230.38
411.355	1203.38
411.578	1183.38
411.802	1185.38
412.025	1197.38
412.249	1245.38
412.472	1220.38
412.695	1189.38
412.919	1190.38
413.142	1176.38
413.365	1195.38
413.589	1198.38
413.812	1184.38
414.035	1176.38
414.258	1196.38
414.482	1212.38
414.705	1169.38
414.928	1159.38
415.151	1224.38
415.374	1183.38
415.597	1163.38
415.821	1149.38
416.044	1113.38
416.267	1161.38
416.49	1129.38
416.713	1175.38
416.936	1172.38
417.159	1147.38
417.382	1093.38
417.605	1135.38
417.828	1149.38
418.051	1138.38
418.274	1152.38
418.497	1149.38
418.72	1190.38
418.943	1182.38
419.166	1220.38
419.389	1238.38
419.611	1249.38
419.834	1215.38
420.057	1185.38
420.28	1162.38
420.503	1151.38
420.726	1128.38
420.948	1153.38
421.171	1139.38
421.394	1151.38
421.617	1166.38
421.839	1186.38
422.062	1154.38
422.285	1132.38
422.507	1187.38
422.73	1144.38
422.953	1175.38
423.175	1199.38
423.398	1204.38
423.621	1160.38
423.843	1156.38
424.066	1148.38
424.288	1160.38
424.511	1150.38
424.733	1173.38
424.956	1154.38
425.178	1135.38
425.401	1131.38
425.623	1144.38
425.846	1112.38
426.068	1103.38
426.291	1118.38
426.513	1088.38
426.735	1128.38
426.958	1100.38
427.18	1093.38
427.402	1097.38
427.625	1047.38
427.847	1090.38
428.069	1088.38
428.292	1095.38
428.514	1118.38
428.736	1064.38
428.958	1083.38
429.181	1069.38
429.403	1039.38
429.625	1060.38
429.847	1047.38
430.069	1092.38
430.292	1071.38
430.514	1113.38
430.736	1123.38
430.958	1086.38
431.18	1027.38
431.402	1041.38
431.624	1042.38
431.846	1053.38
432.068	1047.38
432.29	1041.38
432.512	1035.38
432.734	1044.38
432.956	1055.38
433.178	1078.38
433.4	1082.38
433.622	1074.38
433.844	1078.38
434.066	1087.38
434.287	1047.38
434.509	1060.38
434.731	1082.38
434.953	1078.38
435.175	1077.38
435.397	1095.38
435.618	1075.38
435.84	1035.38
436.062	1066.38
436.284	1056.38
436.505	1075.38
436.727	1061.38
436.949	1071.38
437.17	1056.38
437.392	1059.38
437.614	1040.38
437.835	999.38
438.057	987.38
438.278	1020.38
438.5	1052.38
438.721	1078.38
438.943	1075.38
439.165	1081.38
439.386	1077.38
439.608	1106.38
439.829	1099.38
440.05	1106.38
440.272	1150.38
440.493	1106.38
440.715	1102.38
440.936	1071.38
441.158	1114.38
441.379	1119.38
441.6	1143.38
441.822	1174.38
442.043	1174.38
442.264	1220.38
442.486	1137.38
442.707	1159.38
442.928	1136.38
443.149	1153.38
443.371	1125.38
443.592	1141.38
443.813	1133.38
444.034	1142.38
444.255	1191.38
444.476	1208.38
444.698	1208.38
444.919	1218.38
445.14	1303.38
445.361	1192.38
445.582	1167.38
445.803	1145.38
446.024	1119.38
446.245	1127.38
446.466	1147.38
446.687	1118.38
446.908	1129.38
447.129	1080.38
447.35	1097.38
447.571	1091.38
447.792	1072.38
448.013	1045.38
448.234	1051.38
448.455	1038.38
448.675	1060.38
448.896	1072.38
449.117	1070.38
449.338	1161.38
449.559	1172.38
449.779	1088.38
450	1035.38
450.221	1036.38
450.442	1029.38
450.662	1006.38
450.883	1027.38
451.104	990.38
451.324	991.38
451.545	1004.38
451.766	1017.38
451.986	1011.38
452.207	1062.38
452.428	1211.38
452.648	1558.38
452.869	1384.38
453.089	1128.38
453.31	1084.38
453.53	1105.38
453.751	1120.38
453.971	1156.38
454.192	1123.38
454.412	1024.38
454.633	999.38
454.853	984.38
455.073	963.38
455.294	975.38
455.514	977.38
455.734	972.38
455.955	966.38
456.175	957.38
456.395	957.38
456.616	965.38
456.836	981.38
457.056	969.38
457.276	967.38
457.497	1023.38
457.717	1037.38
457.937	1007.38
458.157	1009.38
458.377	1003.38
458.598	1010.38
458.818	1051.38
459.038	1039.38
459.258	1037.38
459.478	1074.38
459.698	1058.38
459.918	1088.38
460.138	1103.38
460.358	1140.38
460.578	1159.38
460.798	1152.38
461.018	1172.38
461.238	1173.38
461.458	1145.38
461.678	1177.38
461.898	1173.38
462.118	1166.38
462.338	1202.38
462.558	1229.38
462.777	1235.38
462.997	1261.38
463.217	1339.38
463.437	1346.38
463.657	1349.38
463.876	1357.38
464.096	1309.38
464.316	1232.38
464.536	1259.38
464.755	1207.38
464.975	1190.38
465.195	1172.38
465.414	1114.38
465.634	1093.38
465.854	1091.38
466.073	1065.38
466.293	1073.38
466.512	1070.38
466.732	1051.38
466.951	1099.38
467.171	1142.38
467.391	1145.38
467.61	1074.38
467.829	1068.38
468.049	1073.38
468.268	1061.38
468.488	1044.38
468.707	1011.38
468.927	1045.38
469.146	1021.38
469.365	1072.38
469.585	1061.38
469.804	1068.38
470.023	1065.38
470.243	1089.38
470.462	1116.38
470.681	1169.38
470.901	1236.38
471.12	1350.38
471.339	1354.38
471.558	1190.38
471.777	1143.38
471.997	1095.38
472.216	1056.38
472.435	1059.38
472.654	1036.38
472.873	1024.38
473.092	1048.38
473.311	1028.38
473.53	1061.38
473.749	1097.38
473.968	1093.38
474.187	1071.38
474.406	1039.38
474.625	1034.38
474.844	1017.38
475.063	1049.38
475.282	1056.38
475.501	1061.38
475.72	1048.38
475.939	1059.38
476.158	1083.38
476.377	1106.38
476.596	1083.38
476.814	1100.38
477.033	1088.38
477.252	1106.38
477.471	1124.38
477.69	1131.38
477.908	1165.38
478.127	1213.38
478.346	1189.38
478.564	1211.38
478.783	1224.38
479.002	1263.38
479.22	1239.38
479.439	1207.38
479.658	1240.38
479.876	1232.38
480.095	1239.38
480.313	1268.38
480.532	1273.38
480.751	1296.38
480.969	1236.38
481.188	1229.38
481.406	1272.38
481.624	1211.38
481.843	1197.38
482.061	1229.38
482.28	1216.38
482.498	1225.38
482.717	1232.38
482.935	1226.38
483.153	1261.38
483.372	1311.38
483.59	1307.38
483.808	1327.38
484.027	1351.38
484.245	1370.38
484.463	1492.38
484.681	1620.38
484.9	1512.38
485.118	1415.38
485.336	1391.38
485.554	1403.38
485.772	1473.38
485.99	1611.38
486.209	1755.38
486.427	1524.38
486.645	1382.38
486.863	1376.38
487.081	1320.38
487.299	1334.38
487.517	1290.38
487.735	1358.38
487.953	1354.38
488.171	1344.38
488.389	1354.38
488.607	1331.38
488.825	1310.38
489.043	1265.38
489.261	1273.38
489.479	1295.38
489.696	1297.38
489.914	1278.38
490.132	1293.38
490.35	1326.38
490.568	1319.38
490.786	1387.38
491.003	1348.38
491.221	1383.38
491.439	1396.38
491.657	1360.38
491.874	1391.38
492.092	1443.38
492.31	1435.38
492.527	1425.38
492.745	1405.38
492.963	1404.38
493.18	1384.38
493.398	1376.38
493.615	1390.38
493.833	1378.38
494.05	1362.38
494.268	1370.38
494.485	1404.38
494.703	1373.38
494.92	1435.38
495.138	1372.38
495.355	1354.38
495.573	1393.38
495.79	1347.38
496.008	1370.38
496.225	1403.38
496.442	1419.38
496.66	1495.38
496.877	1530.38
497.094	1509.38
497.312	1483.38
497.529	1460.38
497.746	1500.38
497.963	1503.38
498.181	1535.38
498.398	1581.38
498.615	1612.38
498.832	1636.38
499.049	1753.38
499.267	1813.38
499.484	1933.38
499.701	1991.38
499.918	2079.38
500.135	2212.38
500.352	2316.38
500.569	2370.38
500.786	2308.38
501.003	2256.38
501.22	2158.38
501.437	2020.38
501.654	1896.38
501.871	1806.38
502.088	1741.38
502.305	1712.38
502.522	1638.38
502.739	1656.38
502.956	1516.38
503.172	1532.38
503.389	1509.38
503.606	1466.38
503.823	1428.38
504.04	1395.38
504.256	1449.38
504.473	1407.38
504.69	1424.38
504.907	1408.38
505.123	1380.38
505.34	1376.38
505.557	1339.38
505.773	1323.38
505.99	1277.38
506.207	1239.38
506.423	1225.38
506.64	1232.38
506.856	1256.38
507.073	1219.38
507.289	1233.38
507.506	1196.38
507.722	1204.38
507.939	1200.38
508.155	1181.38
508.372	1190.38
508.588	1161.38
508.805	1171.38
509.021	1170.38
509.238	1151.38
509.454	1236.38
509.67	1273.38
509.887	1226.38
510.103	1195.38
510.319	1161.38
510.536	1145.38
510.752	1174.38
510.968	1134.38
511.184	1138.38
511.401	1135.38
511.617	1132.38
511.833	1131.38
512.049	1112.38
512.265	1103.38
512.481	1142.38
512.698	1137.38
512.914	1113.38
513.13	1097.38
513.346	1081.38
513.562	1107.38
513.778	1091.38
513.994	1152.38
514.21	1143.38
514.426	1157.38
514.642	1207.38
514.858	1133.38
515.074	1169.38
515.29	1159.38
515.506	1162.38
515.721	1127.38
515.937	1166.38
516.153	1141.38
516.369	1144.38
516.585	1173.38
516.801	1196.38
517.016	1204.38
517.232	1228.38
517.448	1252.38
517.664	1287.38
517.879	1236.38
518.095	1259.38
518.311	1226.38
518.527	1248.38
518.742	1200.38
518.958	1206.38
519.173	1242.38
519.389	1200.38
519.605	1165.38
519.82	1157.38
520.036	1164.38
520.251	1129.38
520.467	1136.38
520.682	1137.38
520.898	1110.38
521.113	1134.38
521.329	1103.38
521.544	1104.38
521.76	1091.38
521.975	1135.38
522.19	1125.38
522.406	1098.38
522.621	1097.38
522.836	1081.38
523.052	1095.38
523.267	1094.38
523.482	1084.38
523.698	1067.38
523.913	1094.38
524.128	1079.38
524.343	1118.38
524.559	1113.38
524.774	1094.38
524.989	1048.38
525.204	1093.38
525.419	1090.38
525.634	1098.38
525.849	1083.38
526.064	1075.38
526.28	1083.38
526.495	1087.38
526.71	1060.38
526.925	1079.38
527.14	1082.38
527.355	1086.38
527.57	1121.38
527.785	1102.38
527.999	1095.38
528.214	1117.38
528.429	1134.38
528.644	1130.38
528.859	1140.38
529.074	1169.38
529.289	1165.38
529.503	1164.38
529.718	1149.38
529.933	1162.38
530.148	1136.38
530.363	1108.38
530.577	1132.38
530.792	1143.38
531.007	1163.38
531.221	1133.38
531.436	1149.38
531.651	1142.38
531.865	1195.38
532.08	1186.38
532.295	1220.38
532.509	1237.38
532.724	1243.38
532.938	1294.38
533.153	1282.38
533.367	1349.38
533.582	1353.38
533.796	1376.38
534.011	1371.38
534.225	1333.38
534.44	1291.38
534.654	1306.38
534.868	1261.38
535.083	1264.38
535.297	1226.38
535.511	1207.38
535.726	1195.38
535.94	1189.38
536.154	1145.38
536.369	1143.38
536.583	1144.38
536.797	1135.38
537.011	1106.38
537.225	1116.38
537.44	1115.38
537.654	1129.38
537.868	1104.38
538.082	1088.38
538.296	1095.38
538.51	1089.38
538.724	1097.38
538.938	1094.38
539.153	1080.38
539.367	1092.38
539.581	1048.38
539.795	1052.38
540.009	1040.38
540.222	1038.38
540.436	1028.38
540.65	1063.38
540.864	1048.38
541.078	1116.38
541.292	1130.38
541.506	1313.38
541.72	1315.38
541.934	1203.38
542.147	1181.38
542.361	1171.38
542.575	1091.38
542.789	1051.38
543.002	1058.38
543.216	1012.38
543.43	1020.38
543.644	1014.38
543.857	1032.38
544.071	1039.38
544.285	1033.38
544.498	1049.38
544.712	1043.38
544.925	1065.38
545.139	1090.38
545.352	1044.38
545.566	1051.38
545.779	1068.38
545.993	1065.38
546.206	1059.38
546.42	1077.38
546.633	1099.38
546.847	1067.38
547.06	1095.38
547.274	1054.38
547.487	1091.38
547.7	1055.38
547.914	1070.38
548.127	1089.38
548.34	1061.38
548.554	1072.38
548.767	1051.38
548.98	1091.38
549.193	1061.38
549.407	1061.38
549.62	1074.38
549.833	1077.38
550.046	1094.38
550.259	1046.38
550.473	1063.38
550.686	1093.38
550.899	1081.38
551.112	1057.38
551.325	1043.38
551.538	1019.38
551.751	1000.38
551.964	1039.38
552.177	1029.38
552.39	1081.38
552.603	1095.38
552.816	1131.38
553.029	1119.38
553.242	1141.38
553.455	1147.38
553.667	1151.38
553.88	1146.38
554.093	1159.38
554.306	1151.38
554.519	1171.38
554.732	1148.38
554.944	1168.38
555.157	1195.38
555.37	1214.38
555.583	1214.38
555.795	1276.38
556.008	1327.38
556.221	1389.38
556.433	1451.38
556.646	1464.38
556.859	1438.38
557.071	1429.38
557.284	1383.38
557.496	1376.38
557.709	1399.38
557.921	1400.38
558.134	1356.38
558.346	1357.38
558.559	1446.38
558.771	1447.38
558.984	1546.38
559.196	1557.38
559.409	1560.38
559.621	1492.38
559.833	1421.38
560.046	1361.38
560.258	1324.38
560.47	1315.38
560.683	1253.38
560.895	1229.38
561.107	1187.38
561.32	1142.38
561.532	1121.38
561.744	1101.38
561.956	1091.38
562.168	1101.38
562.381	1088.38
562.593	1083.38
562.805	1082.38
563.017	1072.38
563.229	1082.38
563.441	1147.38
563.653	1038.38
563.865	1021.38
564.077	980.38
564.289	954.38
564.501	969.38
564.713	981.38
564.925	968.38
565.137	988.38
565.349	956.38
565.561	983.38
565.773	1005.38
565.985	1017.38
566.197	1016.38
566.408	1012.38
566.62	1063.38
566.832	1043.38
567.044	1042.38
567.255	1095.38
567.467	1076.38
567.679	1091.38
567.891	1153.38
568.102	1220.38
568.314	1356.38
568.526	1209.38
568.737	1069.38
568.949	976.38
569.161	927.38
569.372	879.38
569.584	878.38
569.795	881.38
570.007	848.38
570.218	838.38
570.43	882.38
570.641	823.38
570.853	815.38
571.064	841.38
571.276	812.38
571.487	807.38
571.698	778.38
571.91	777.38
572.121	753.38
572.333	753.38
572.544	743.38
572.755	803.38
572.966	892.38
573.178	801.38
573.389	769.38
573.6	733.38
573.811	723.38
574.023	738.38
574.234	744.38
574.445	734.38
574.656	702.38
574.867	699.38
575.078	729.38
575.289	707.38
575.501	703.38
575.712	700.38
575.923	683.38
576.134	705.38
576.345	685.38
576.556	703.38
576.767	706.38
576.978	712.38
577.188	704.38
577.399	742.38
577.61	674.38
577.821	696.38
578.032	729.38
578.243	721.38
578.454	722.38
578.665	739.38
578.875	763.38
579.086	792.38
579.297	811.38
579.508	823.38
579.718	899.38
579.929	958.38
580.14	1044.38
580.35	1078.38
580.561	999.38
580.772	952.38
580.982	932.38
581.193	906.38
581.403	844.38
581.614	850.38
581.825	801.38
582.035	785.38
582.246	763.38
582.456	719.38
582.667	728.38
582.877	712.38
583.087	686.38
583.298	648.38
583.508	660.38
583.719	631.38
583.929	634.38
584.139	647.38
584.35	614.38
584.56	614.38
584.77	581.38
584.981	605.38
585.191	609.38
585.401	600.38
585.611	587.38
585.821	586.38
586.032	581.38
586.242	567.38
586.452	579.38
586.662	554.38
586.872	563.38
587.082	520.38
587.292	562.38
587.502	539.38
587.713	532.38
587.923	529.38
588.133	509.38
588.343	522.38
588.553	547.38
588.762	536.38
588.972	515.38
589.182	521.38
589.392	541.38
589.602	516.38
589.812	507.38
590.022	521.38
590.232	502.38
590.441	512.38
590.651	511.38
590.861	506.38
591.071	500.38
591.281	513.38
591.49	523.38
591.7	505.38
591.91	512.38
592.119	483.38
592.329	512.38
592.539	507.38
592.748	523.38
592.958	525.38
593.167	532.38
593.377	511.38
593.587	540.38
593.796	527.38
594.006	547.38
594.215	532.38
594.424	549.38
594.634	529.38
594.843	515.38
595.053	515.38
595.262	489.38
595.472	487.38
595.681	480.38
595.89	459.38
596.1	482.38
596.309	483.38
596.518	480.38
596.727	464.38
596.937	440.38
597.146	452.38
597.355	438.38
597.564	421.38
597.774	448.38
597.983	438.38
598.192	438.38
598.401	433.38
598.61	436.38
598.819	403.38
599.028	445.38
599.237	414.38
599.446	426.38
599.655	420.38
599.864	438.38
600.073	419.38
600.282	403.38
600.491	408.38
600.7	412.38
600.909	420.38
601.118	416.38
601.327	419.38
601.536	393.38
601.745	433.38
601.953	440.38
602.162	517.38
602.371	453.38
602.58	431.38
602.789	428.38
602.997	394.38
603.206	413.38
603.415	410.38
603.623	433.38
603.832	422.38
604.041	424.38
604.249	393.38
604.458	415.38
604.666	381.38
604.875	386.38
605.084	397.38
605.292	391.38
605.501	396.38
605.709	423.38
605.918	418.38
606.126	410.38
606.334	400.38
606.543	414.38
606.751	421.38
606.96	492.38
607.168	492.38
607.376	455.38
607.585	433.38
607.793	454.38
608.001	417.38
608.21	404.38
608.418	406.38
608.626	379.38
608.834	405.38
609.043	389.38
609.251	367.38
609.459	399.38
609.667	384.38
609.875	382.38
610.083	401.38
610.291	368.38
610.499	396.38
610.707	388.38
610.916	395.38
611.124	381.38
611.332	391.38
611.54	389.38
611.748	375.38
611.955	363.38
612.163	380.38
612.371	384.38
612.579	369.38
612.787	369.38
612.995	367.38
613.203	388.38
613.411	359.38
613.618	379.38
613.826	381.38
614.034	391.38
614.242	367.38
614.449	382.38
614.657	373.38
614.865	358.38
615.072	368.38
615.28	356.38
615.488	385.38
615.695	373.38
615.903	371.38
616.111	359.38
616.318	363.38
616.526	375.38
616.733	382.38
616.941	365.38
617.148	381.38
617.356	375.38
617.563	383.38
617.771	374.38
617.978	359.38
618.185	366.38
618.393	369.38
618.6	343.38
618.807	345.38
619.015	344.38
619.222	333.38
619.429	341.38
619.637	354.38
619.844	347.38
620.051	344.38
620.258	332.38
620.466	328.38
620.673	334.38
620.88	337.38
621.087	340.38
621.294	324.38
621.501	346.38
621.708	336.38
621.915	339.38
622.122	334.38
622.329	317.38
622.536	333.38
622.743	322.38
622.95	330.38
623.157	333.38
623.364	324.38
623.571	329.38
623.778	315.38
623.985	315.38
624.192	333.38
624.399	317.38
624.606	329.38
624.812	316.38
625.019	328.38
625.226	318.38
625.433	332.38
625.639	318.38
625.846	320.38
626.053	293.38
626.259	297.38
626.466	296.38
626.673	290.38
626.879	297.38
627.086	306.38
627.293	297.38
627.499	308.38
627.706	315.38
627.912	303.38
628.119	300.38
628.325	300.38
628.532	305.38
628.738	295.38
628.945	321.38
629.151	286.38
629.357	302.38
629.564	287.38
629.77	294.38
629.976	292.38
630.183	292.38
630.389	287.38
630.595	282.38
630.802	288.38
631.008	276.38
631.214	271.38
631.42	292.38
631.627	307.38
631.833	290.38
632.039	278.38
632.245	288.38
632.451	283.38
632.657	287.38
632.863	285.38
633.069	299.38
633.275	279.38
633.481	281.38
633.688	277.38
633.893	286.38
634.099	294.38
634.305	299.38
634.511	284.38
634.717	290.38
634.923	281.38
635.129	304.38
635.335	333.38
635.541	310.38
635.747	283.38
635.952	292.38
636.158	299.38
636.364	292.38
636.57	261.38
636.775	290.38
636.981	266.38
637.187	277.38
637.392	292.38
637.598	300.38
637.804	291.38
638.009	301.38
638.215	296.38
638.421	277.38
638.626	269.38
638.832	292.38
639.037	275.38
639.243	281.38
639.448	296.38
639.654	308.38
639.859	296.38
640.065	279.38
640.27	298.38
640.475	301.38
640.681	287.38
640.886	273.38
641.091	283.38
641.297	287.38
641.502	295.38
641.707	300.38
641.913	310.38
642.118	311.38
642.323	315.38
642.528	326.38
642.733	322.38
642.939	337.38
643.144	349.38
643.349	332.38
643.554	337.38
643.759	344.38
643.964	368.38
644.169	393.38
644.374	406.38
644.579	433.38
644.784	459.38
644.989	513.38
645.194	550.38
645.399	617.38
645.604	604.38
645.809	513.38
646.014	425.38
646.219	396.38
646.423	358.38
646.628	331.38
646.833	318.38
647.038	302.38
647.243	308.38
647.447	299.38
647.652	283.38
647.857	278.38
648.062	269.38
648.266	267.38
648.471	277.38
648.676	269.38
648.88	281.38
649.085	281.38
649.289	257.38
649.494	252.38
649.698	260.38
649.903	266.38
650.107	257.38
650.312	252.38
650.516	254.38
650.721	235.38
650.925	222.38
651.13	236.38
651.334	238.38
651.539	230.38
651.743	211.38
651.947	232.38
652.152	222.38
652.356	217.38
652.56	214.38
652.764	249.38
652.969	220.38
653.173	217.38
653.377	204.38
653.581	215.38
653.785	212.38
653.99	191.38
654.194	200.38
654.398	198.38
654.602	183.38
654.806	206.38
655.01	189.38
655.214	189.38
655.418	187.38
655.622	198.38
655.826	196.38
656.03	187.38
656.234	208.38
656.438	220.38
656.642	217.38
656.846	226.38
657.049	186.38
657.253	180.38
657.457	175.38
657.661	168.38
657.865	165.38
658.068	156.38
658.272	145.38
658.476	126.38
658.68	137.38
658.883	137.38
659.087	127.38
659.291	118.38
659.494	123.38
659.698	122.38
659.901	124.38
660.105	111.38
660.309	103.38
660.512	107.38
660.716	119.38
660.919	110.38
661.123	109.38
661.326	108.38
661.53	100.38
661.733	104.38
661.936	97.38
662.14	90.38
662.343	86.38
662.546	91.38
662.75	95.38
662.953	87.38
663.156	82.38
663.36	85.38
663.563	97.38
663.766	84.38
663.969	86.38
664.173	86.38
664.376	70.38
664.579	92.38
664.782	87.38
664.985	99.38
665.188	75.38
665.391	83.38
665.594	86.38
665.797	80.38
666	79.38
666.203	83.38
666.406	78.38
666.609	86.38
666.812	88.38
667.015	84.38
667.218	83.38
667.421	68.38
667.624	76.38
667.827	73.38
668.03	68.38
668.232	79.38
668.435	84.38
668.638	79.38
668.841	79.38
669.043	76.38
669.246	74.38
669.449	86.38
669.651	86.38
669.854	83.38
670.057	93.38
670.259	73.38
670.462	88.38
670.665	89.38
670.867	80.38
671.07	83.38
671.272	73.38
671.475	88.38
671.677	73.38
671.88	80.38
672.082	79.38
672.284	70.38
672.487	86.38
672.689	59.38
672.892	85.38
