Data from SnStandardFlinnAPT0064_LampEnergy10_LIBS07252019.E.O._I.C._HRD10591_15-22-37-494.txt Node
Date: Thu Jul 25 15:22:37 EDT 2019
User: cochatt
Spectrometer: HR+D1059
Trigger mode: 1
Integration Time (sec): 1.000000E-1
Scans to average: 1
Electric dark correction enabled: true
Nonlinearity correction enabled: false
Boxcar width: 0
XAxis mode: Wavelengths
Number of Pixels in Spectrum: 2048
>>>>>Begin Spectral Data<<<<<
223.165	-16.75
223.4	-16.75
223.635	-16.75
223.869	-12.75
224.104	-16.75
224.338	-23.75
224.573	-18.75
224.808	-6.75
225.042	-10.75
225.277	-6.75
225.511	-2.75
225.746	15.25
225.98	-3.75
226.215	15.25
226.449	21.25
226.683	18.25
226.918	29.25
227.152	20.25
227.387	41.25
227.621	40.25
227.856	45.25
228.09	46.25
228.324	50.25
228.559	59.25
228.793	122.25
229.027	297.25
229.262	333.25
229.496	311.25
229.73	304.25
229.964	311.25
230.199	299.25
230.433	318.25
230.667	314.25
230.901	323.25
231.136	334.25
231.37	329.25
231.604	393.25
231.838	449.25
232.072	535.25
232.306	575.25
232.541	483.25
232.775	422.25
233.009	383.25
233.243	389.25
233.477	439.25
233.711	521.25
233.945	583.25
234.179	511.25
234.413	450.25
234.647	448.25
234.881	450.25
235.115	508.25
235.349	610.25
235.583	763.25
235.817	976.25
236.051	978.25
236.285	650.25
236.519	533.25
236.753	479.25
236.987	490.25
237.221	524.25
237.455	499.25
237.689	449.25
237.922	479.25
238.156	464.25
238.39	479.25
238.624	491.25
238.858	467.25
239.091	491.25
239.325	474.25
239.559	519.25
239.793	499.25
240.027	523.25
240.26	522.25
240.494	541.25
240.728	569.25
240.961	604.25
241.195	621.25
241.429	678.25
241.662	684.25
241.896	770.25
242.13	942.25
242.363	1236.25
242.597	1637.25
242.83	1539.25
243.064	1566.25
243.298	1877.25
243.531	1500.25
243.765	921.25
243.998	748.25
244.232	704.25
244.465	658.25
244.699	651.25
244.932	638.25
245.166	649.25
245.399	673.25
245.633	679.25
245.866	656.25
246.099	641.25
246.333	653.25
246.566	613.25
246.8	617.25
247.033	634.25
247.266	633.25
247.5	668.25
247.733	644.25
247.966	696.25
248.2	785.25
248.433	833.25
248.666	1003.25
248.899	953.25
249.133	834.25
249.366	859.25
249.599	947.25
249.832	1073.25
250.066	1076.25
250.299	836.25
250.532	785.25
250.765	764.25
250.998	722.25
251.231	725.25
251.465	747.25
251.698	714.25
251.931	725.25
252.164	747.25
252.397	753.25
252.63	776.25
252.863	790.25
253.096	835.25
253.329	793.25
253.562	776.25
253.795	777.25
254.028	773.25
254.261	823.25
254.494	874.25
254.727	1007.25
254.96	1242.25
255.193	1208.25
255.426	952.25
255.659	845.25
255.892	847.25
256.124	855.25
256.357	859.25
256.59	893.25
256.823	950.25
257.056	1069.25
257.289	1353.25
257.521	1494.25
257.754	1190.25
257.987	976.25
258.22	905.25
258.452	908.25
258.685	884.25
258.918	927.25
259.151	965.25
259.383	1083.25
259.616	1180.25
259.849	1285.25
260.081	1090.25
260.314	994.25
260.547	963.25
260.779	961.25
261.012	930.25
261.244	960.25
261.477	981.25
261.71	986.25
261.942	989.25
262.175	1021.25
262.407	1037.25
262.64	1046.25
262.872	1095.25
263.105	1135.25
263.337	1205.25
263.57	1273.25
263.802	1282.25
264.035	1337.25
264.267	1381.25
264.499	1398.25
264.732	1411.25
264.964	1436.25
265.197	1436.25
265.429	1441.25
265.661	1481.25
265.894	1560.25
266.126	1760.25
266.358	1957.25
266.591	1925.25
266.823	1596.25
267.055	1431.25
267.287	1354.25
267.52	1322.25
267.752	1281.25
267.984	1277.25
268.216	1254.25
268.448	1242.25
268.681	1238.25
268.913	1217.25
269.145	1252.25
269.377	1266.25
269.609	1235.25
269.841	1260.25
270.073	1378.25
270.306	1598.25
270.538	2131.25
270.77	3206.25
271.002	3926.25
271.234	2752.25
271.466	1825.25
271.698	1505.25
271.93	1370.25
272.162	1278.25
272.394	1284.25
272.626	1251.25
272.858	1224.25
273.09	1205.25
273.322	1230.25
273.553	1210.25
273.785	1190.25
274.017	1205.25
274.249	1215.25
274.481	1206.25
274.713	1177.25
274.945	1221.25
275.176	1234.25
275.408	1212.25
275.64	1245.25
275.872	1193.25
276.104	1226.25
276.335	1252.25
276.567	1296.25
276.799	1296.25
277.031	1298.25
277.262	1308.25
277.494	1420.25
277.726	1582.25
277.957	1794.25
278.189	2149.25
278.421	1960.25
278.652	1775.25
278.884	1670.25
279.115	1480.25
279.347	1452.25
279.579	1426.25
279.81	1378.25
280.042	1391.25
280.273	1441.25
280.505	1482.25
280.736	1482.25
280.968	1563.25
281.199	1746.25
281.431	2066.25
281.662	2088.25
281.894	1785.25
282.125	1630.25
282.356	1642.25
282.588	1660.25
282.819	1723.25
283.051	1753.25
283.282	1967.25
283.513	2439.25
283.745	3527.25
283.976	5651.25
284.207	8062.25
284.439	7352.25
284.67	4431.25
284.901	3651.25
285.132	3692.25
285.364	3591.25
285.595	2668.25
285.826	2412.25
286.057	2819.25
286.288	3842.25
286.52	5245.25
286.751	4861.25
286.982	2967.25
287.213	2254.25
287.444	1939.25
287.675	1839.25
287.906	1771.25
288.138	1675.25
288.369	1673.25
288.6	1695.25
288.831	1645.25
289.062	1628.25
289.293	1656.25
289.524	1675.25
289.755	1653.25
289.986	1691.25
290.217	1678.25
290.448	1685.25
290.679	1715.25
290.91	1737.25
291.141	1853.25
291.371	2053.25
291.602	2149.25
291.833	1911.25
292.064	1726.25
292.295	1639.25
292.526	1613.25
292.757	1618.25
292.987	1600.25
293.218	1567.25
293.449	1593.25
293.68	1576.25
293.91	1554.25
294.141	1541.25
294.372	1539.25
294.603	1608.25
294.833	1563.25
295.064	1556.25
295.295	1486.25
295.525	1541.25
295.756	1530.25
295.987	1529.25
296.217	1560.25
296.448	1539.25
296.679	1568.25
296.909	1609.25
297.14	1570.25
297.37	1596.25
297.601	1635.25
297.831	1593.25
298.062	1635.25
298.292	1632.25
298.523	1698.25
298.753	1691.25
298.984	1690.25
299.214	1702.25
299.445	1730.25
299.675	1751.25
299.905	1859.25
300.136	1883.25
300.366	2114.25
300.597	2739.25
300.827	3822.25
301.057	5325.25
301.288	5249.25
301.518	3271.25
301.748	2553.25
301.979	2356.25
302.209	2216.25
302.439	2265.25
302.669	2389.25
302.9	2915.25
303.13	4145.25
303.36	6209.25
303.59	8284.25
303.82	7146.25
304.051	4097.25
304.281	2969.25
304.511	2449.25
304.741	2273.25
304.971	2142.25
305.201	2038.25
305.431	1978.25
305.661	1957.25
305.891	1887.25
306.121	1868.25
306.352	1873.25
306.582	1802.25
306.812	1795.25
307.042	1830.25
307.272	1830.25
307.502	1816.25
307.731	1806.25
307.961	1851.25
308.191	1809.25
308.421	1779.25
308.651	1795.25
308.881	1766.25
309.111	1842.25
309.341	1781.25
309.571	1823.25
309.8	1849.25
310.03	1817.25
310.26	1812.25
310.49	1837.25
310.72	1870.25
310.949	1866.25
311.179	1887.25
311.409	1919.25
311.639	1936.25
311.868	1918.25
312.098	1939.25
312.328	1990.25
312.557	1945.25
312.787	1959.25
313.017	1973.25
313.246	1989.25
313.476	2005.25
313.706	2088.25
313.935	2165.25
314.165	2345.25
314.394	2487.25
314.624	2381.25
314.853	2124.25
315.083	2125.25
315.312	2155.25
315.542	2170.25
315.771	2170.25
316.001	2261.25
316.23	2294.25
316.46	2363.25
316.689	2592.25
316.919	3163.25
317.148	4648.25
317.377	7163.25
317.607	10568.25
317.836	10941.25
318.065	6463.25
318.295	4149.25
318.524	3341.25
318.753	2925.25
318.983	2677.25
319.212	2531.25
319.441	2490.25
319.67	2414.25
319.9	2429.25
320.129	2378.25
320.358	2321.25
320.587	2344.25
320.816	2339.25
321.046	2318.25
321.275	2348.25
321.504	2377.25
321.733	2385.25
321.962	2496.25
322.191	2503.25
322.42	2461.25
322.649	2461.25
322.878	2447.25
323.108	2490.25
323.337	2574.25
323.566	2544.25
323.795	2597.25
324.024	2676.25
324.253	2747.25
324.482	2813.25
324.71	2969.25
324.939	3215.25
325.168	3237.25
325.397	3309.25
325.626	3938.25
325.855	5559.25
326.084	8857.25
326.313	12853.25
326.542	13481.25
326.77	8945.25
326.999	5740.25
327.228	4827.25
327.457	4643.25
327.686	4716.25
327.914	4975.25
328.143	5886.25
328.372	6978.25
328.6	7739.25
328.829	6823.25
329.058	5580.25
329.287	4973.25
329.515	4512.25
329.744	4254.25
329.972	3955.25
330.201	3815.25
330.43	3717.25
330.658	3555.25
330.887	3589.25
331.115	3491.25
331.344	3490.25
331.572	3425.25
331.801	3475.25
332.03	3528.25
332.258	3527.25
332.486	3755.25
332.715	4270.25
332.943	5344.25
333.172	6644.25
333.4	6527.25
333.629	4883.25
333.857	4417.25
334.085	4376.25
334.314	4609.25
334.542	5033.25
334.771	5952.25
334.999	7306.25
335.227	9208.25
335.455	10250.25
335.684	9140.25
335.912	7510.25
336.14	6306.25
336.369	5590.25
336.597	5155.25
336.825	4648.25
337.053	4483.25
337.281	4205.25
337.51	3935.25
337.738	3851.25
337.966	3754.25
338.194	3525.25
338.422	3475.25
338.65	3368.25
338.878	3337.25
339.106	3243.25
339.334	3227.25
339.562	3119.25
339.79	3135.25
340.018	3069.25
340.246	3022.25
340.474	2968.25
340.702	3024.25
340.93	2982.25
341.158	3010.25
341.386	2995.25
341.614	2969.25
341.842	2924.25
342.07	2823.25
342.298	2803.25
342.526	2790.25
342.754	2787.25
342.981	2725.25
343.209	2715.25
343.437	2672.25
343.665	2807.25
343.893	2825.25
344.12	2804.25
344.348	2793.25
344.576	2741.25
344.804	2675.25
345.031	2646.25
345.259	2655.25
345.487	2625.25
345.714	2611.25
345.942	2548.25
346.17	2563.25
346.397	2487.25
346.625	2534.25
346.853	2525.25
347.08	2531.25
347.308	2519.25
347.535	2516.25
347.763	2510.25
347.99	2459.25
348.218	2446.25
348.445	2499.25
348.673	2422.25
348.9	2504.25
349.128	2467.25
349.355	2431.25
349.583	2424.25
349.81	2459.25
350.037	2443.25
350.265	2410.25
350.492	2403.25
350.72	2388.25
350.947	2393.25
351.174	2444.25
351.402	2403.25
351.629	2392.25
351.856	2339.25
352.083	2377.25
352.311	2389.25
352.538	2352.25
352.765	2383.25
352.992	2409.25
353.22	2379.25
353.447	2374.25
353.674	2364.25
353.901	2383.25
354.128	2428.25
354.355	2372.25
354.583	2429.25
354.81	2377.25
355.037	2427.25
355.264	2415.25
355.491	2470.25
355.718	2481.25
355.945	2479.25
356.172	2472.25
356.399	2455.25
356.626	2489.25
356.853	2480.25
357.08	2491.25
357.307	2580.25
357.534	2609.25
357.761	2618.25
357.988	2565.25
358.215	2526.25
358.441	2597.25
358.668	2543.25
358.895	2574.25
359.122	2510.25
359.349	2494.25
359.576	2540.25
359.802	2510.25
360.029	2554.25
360.256	2510.25
360.483	2581.25
360.709	2552.25
360.936	2555.25
361.163	2532.25
361.39	2559.25
361.616	2550.25
361.843	2587.25
362.07	2586.25
362.296	2587.25
362.523	2547.25
362.749	2579.25
362.976	2571.25
363.203	2549.25
363.429	2512.25
363.656	2577.25
363.882	2511.25
364.109	2514.25
364.335	2552.25
364.562	2552.25
364.788	2549.25
365.015	2595.25
365.241	2637.25
365.468	2805.25
365.694	2981.25
365.92	2829.25
366.147	2612.25
366.373	2580.25
366.599	2576.25
366.826	2635.25
367.052	2581.25
367.278	2653.25
367.505	2637.25
367.731	2635.25
367.957	2590.25
368.184	2638.25
368.41	2649.25
368.636	2661.25
368.862	2650.25
369.089	2622.25
369.315	2661.25
369.541	2684.25
369.767	2617.25
369.993	2680.25
370.219	2623.25
370.445	2671.25
370.672	2642.25
370.898	2671.25
371.124	2730.25
371.35	2739.25
371.576	2707.25
371.802	2724.25
372.028	2748.25
372.254	2751.25
372.48	2816.25
372.706	2788.25
372.932	2759.25
373.158	2799.25
373.384	2794.25
373.61	2761.25
373.835	2829.25
374.061	2809.25
374.287	2839.25
374.513	2794.25
374.739	2913.25
374.965	2850.25
375.191	2966.25
375.416	2902.25
375.642	2876.25
375.868	2877.25
376.094	2790.25
376.319	2841.25
376.545	2771.25
376.771	2742.25
376.997	2774.25
377.222	2773.25
377.448	2746.25
377.674	2750.25
377.899	2722.25
378.125	2733.25
378.35	2761.25
378.576	2744.25
378.802	2765.25
379.027	2790.25
379.253	2887.25
379.478	3097.25
379.704	3593.25
379.929	5241.25
380.155	8090.25
380.38	8681.25
380.606	5249.25
380.831	3687.25
381.057	3176.25
381.282	2960.25
381.507	2831.25
381.733	2761.25
381.958	2757.25
382.184	2751.25
382.409	2726.25
382.634	2738.25
382.86	2695.25
383.085	2678.25
383.31	2695.25
383.535	2691.25
383.761	2674.25
383.986	2686.25
384.211	2751.25
384.436	2752.25
384.662	2769.25
384.887	2751.25
385.112	2749.25
385.337	2820.25
385.562	2790.25
385.787	2818.25
386.013	2796.25
386.238	2821.25
386.463	2763.25
386.688	2794.25
386.913	2809.25
387.138	2765.25
387.363	2757.25
387.588	2722.25
387.813	2761.25
388.038	2772.25
388.263	2790.25
388.488	2821.25
388.713	2796.25
388.938	2798.25
389.163	2742.25
389.387	2722.25
389.612	2741.25
389.837	2765.25
390.062	2738.25
390.287	2814.25
390.512	2810.25
390.736	2889.25
390.961	2851.25
391.186	2896.25
391.411	2914.25
391.636	2903.25
391.86	2916.25
392.085	2930.25
392.31	2929.25
392.534	2892.25
392.759	2801.25
392.984	2804.25
393.208	2841.25
393.433	2859.25
393.658	2888.25
393.882	2796.25
394.107	2792.25
394.331	2780.25
394.556	2792.25
394.78	2819.25
395.005	2825.25
395.229	2841.25
395.454	2880.25
395.678	2933.25
395.903	2895.25
396.127	2875.25
396.352	2860.25
396.576	2876.25
396.801	2857.25
397.025	2921.25
397.249	2916.25
397.474	2885.25
397.698	2902.25
397.922	2949.25
398.147	2949.25
398.371	3006.25
398.595	3038.25
398.82	3129.25
399.044	3182.25
399.268	3306.25
399.492	3561.25
399.717	3693.25
399.941	3638.25
400.165	3543.25
400.389	3419.25
400.613	3289.25
400.837	3186.25
401.062	3099.25
401.286	3112.25
401.51	3121.25
401.734	3001.25
401.958	3021.25
402.182	3044.25
402.406	3040.25
402.63	3050.25
402.854	3113.25
403.078	3097.25
403.302	3143.25
403.526	3134.25
403.75	3145.25
403.974	3220.25
404.198	3141.25
404.422	3194.25
404.645	3153.25
404.869	3191.25
405.093	3197.25
405.317	3164.25
405.541	3224.25
405.765	3271.25
405.988	3281.25
406.212	3272.25
406.436	3241.25
406.66	3265.25
406.883	3269.25
407.107	3412.25
407.331	3470.25
407.555	3502.25
407.778	3449.25
408.002	3440.25
408.226	3385.25
408.449	3364.25
408.673	3333.25
408.896	3270.25
409.12	3230.25
409.344	3266.25
409.567	3190.25
409.791	3185.25
410.014	3199.25
410.238	3150.25
410.461	3171.25
410.685	3151.25
410.908	3092.25
411.132	3107.25
411.355	3056.25
411.578	3025.25
411.802	3080.25
412.025	3032.25
412.249	3076.25
412.472	3042.25
412.695	2983.25
412.919	2971.25
413.142	2978.25
413.365	2996.25
413.589	3025.25
413.812	2949.25
414.035	3008.25
414.258	3014.25
414.482	2969.25
414.705	3019.25
414.928	3025.25
415.151	2971.25
415.374	2973.25
415.597	2925.25
415.821	2855.25
416.044	2923.25
416.267	2866.25
416.49	2911.25
416.713	2793.25
416.936	2876.25
417.159	2873.25
417.382	2839.25
417.605	2805.25
417.828	2870.25
418.051	2865.25
418.274	2879.25
418.497	2874.25
418.72	2965.25
418.943	2941.25
419.166	3041.25
419.389	3225.25
419.611	3165.25
419.834	3068.25
420.057	3021.25
420.28	2938.25
420.503	2891.25
420.726	2919.25
420.948	2872.25
421.171	2885.25
421.394	2849.25
421.617	2891.25
421.839	2870.25
422.062	2917.25
422.285	2802.25
422.507	2904.25
422.73	2937.25
422.953	2931.25
423.175	2972.25
423.398	2949.25
423.621	2855.25
423.843	2915.25
424.066	2906.25
424.288	2858.25
424.511	2842.25
424.733	2849.25
424.956	2843.25
425.178	2841.25
425.401	2852.25
425.623	2850.25
425.846	2803.25
426.068	2812.25
426.291	2764.25
426.513	2741.25
426.735	2716.25
426.958	2742.25
427.18	2683.25
427.402	2741.25
427.625	2741.25
427.847	2663.25
428.069	2714.25
428.292	2697.25
428.514	2681.25
428.736	2694.25
428.958	2680.25
429.181	2627.25
429.403	2634.25
429.625	2620.25
429.847	2679.25
430.069	2729.25
430.292	2806.25
430.514	2830.25
430.736	2834.25
430.958	2709.25
431.18	2611.25
431.402	2639.25
431.624	2585.25
431.846	2586.25
432.068	2636.25
432.29	2624.25
432.512	2614.25
432.734	2667.25
432.956	2637.25
433.178	2623.25
433.4	2638.25
433.622	2591.25
433.844	2684.25
434.066	2657.25
434.287	2675.25
434.509	2702.25
434.731	2702.25
434.953	2740.25
435.175	2755.25
435.397	2726.25
435.618	2706.25
435.84	2670.25
436.062	2611.25
436.284	2632.25
436.505	2629.25
436.727	2659.25
436.949	2648.25
437.17	2611.25
437.392	2570.25
437.614	2547.25
437.835	2511.25
438.057	2551.25
438.278	2538.25
438.5	2533.25
438.721	2595.25
438.943	2688.25
439.165	2749.25
439.386	2721.25
439.608	2712.25
439.829	2729.25
440.05	2788.25
440.272	2852.25
440.493	2733.25
440.715	2673.25
440.936	2763.25
441.158	2730.25
441.379	2768.25
441.6	2883.25
441.822	2909.25
442.043	3050.25
442.264	3158.25
442.486	3013.25
442.707	2897.25
442.928	2791.25
443.149	2823.25
443.371	2797.25
443.592	2866.25
443.813	2919.25
444.034	2845.25
444.255	2936.25
444.476	2895.25
444.698	2972.25
444.919	3071.25
445.14	3107.25
445.361	2957.25
445.582	2821.25
445.803	2837.25
446.024	2823.25
446.245	2789.25
446.466	2833.25
446.687	2748.25
446.908	2763.25
447.129	2673.25
447.35	2656.25
447.571	2626.25
447.792	2581.25
448.013	2581.25
448.234	2623.25
448.455	2609.25
448.675	2612.25
448.896	2645.25
449.117	2748.25
449.338	2989.25
449.559	3112.25
449.779	2829.25
450	2650.25
450.221	2565.25
450.442	2598.25
450.662	2555.25
450.883	2508.25
451.104	2513.25
451.324	2487.25
451.545	2528.25
451.766	2509.25
451.986	2582.25
452.207	2798.25
452.428	3637.25
452.648	5494.25
452.869	4540.25
453.089	3073.25
453.31	2920.25
453.53	2940.25
453.751	3043.25
453.971	3191.25
454.192	3143.25
454.412	2711.25
454.633	2542.25
454.853	2461.25
455.073	2442.25
455.294	2433.25
455.514	2429.25
455.734	2444.25
455.955	2379.25
456.175	2411.25
456.395	2419.25
456.616	2430.25
456.836	2432.25
457.056	2473.25
457.276	2455.25
457.497	2603.25
457.717	2676.25
457.937	2563.25
458.157	2576.25
458.377	2594.25
458.598	2604.25
458.818	2589.25
459.038	2597.25
459.258	2646.25
459.478	2665.25
459.698	2671.25
459.918	2685.25
460.138	2773.25
460.358	2797.25
460.578	2824.25
460.798	2827.25
461.018	2888.25
461.238	2861.25
461.458	2900.25
461.678	2871.25
461.898	3013.25
462.118	2949.25
462.338	3070.25
462.558	3037.25
462.777	3159.25
462.997	3233.25
463.217	3423.25
463.437	3492.25
463.657	3571.25
463.876	3590.25
464.096	3342.25
464.316	3177.25
464.536	3165.25
464.755	3074.25
464.975	3047.25
465.195	2960.25
465.414	2854.25
465.634	2737.25
465.854	2734.25
466.073	2704.25
466.293	2662.25
466.512	2665.25
466.732	2673.25
466.951	2819.25
467.171	3002.25
467.391	2963.25
467.61	2727.25
467.829	2633.25
468.049	2599.25
468.268	2540.25
468.488	2546.25
468.707	2562.25
468.927	2593.25
469.146	2548.25
469.365	2565.25
469.585	2588.25
469.804	2642.25
470.023	2687.25
470.243	2739.25
470.462	2841.25
470.681	2983.25
470.901	3297.25
471.12	3754.25
471.339	3845.25
471.558	3134.25
471.777	2847.25
471.997	2755.25
472.216	2740.25
472.435	2647.25
472.654	2650.25
472.873	2579.25
473.092	2587.25
473.311	2603.25
473.53	2625.25
473.749	2645.25
473.968	2746.25
474.187	2655.25
474.406	2595.25
474.625	2577.25
474.844	2586.25
475.063	2623.25
475.282	2594.25
475.501	2621.25
475.72	2623.25
475.939	2691.25
476.158	2736.25
476.377	2793.25
476.596	2743.25
476.814	2765.25
477.033	2717.25
477.252	2766.25
477.471	2822.25
477.69	2888.25
477.908	2927.25
478.127	2981.25
478.346	2911.25
478.564	2979.25
478.783	3030.25
479.002	3098.25
479.22	3044.25
479.439	3082.25
479.658	3111.25
479.876	3126.25
480.095	3145.25
480.313	3199.25
480.532	3219.25
480.751	3195.25
480.969	3163.25
481.188	3114.25
481.406	3133.25
481.624	3166.25
481.843	3105.25
482.061	3178.25
482.28	3133.25
482.498	3125.25
482.717	3130.25
482.935	3169.25
483.153	3255.25
483.372	3236.25
483.59	3286.25
483.808	3301.25
484.027	3387.25
484.245	3607.25
484.463	4095.25
484.681	4597.25
484.9	4105.25
485.118	3817.25
485.336	3723.25
485.554	3791.25
485.772	3993.25
485.99	4578.25
486.209	4917.25
486.427	4146.25
486.645	3658.25
486.863	3505.25
487.081	3421.25
487.299	3383.25
487.517	3343.25
487.735	3422.25
487.953	3381.25
488.171	3341.25
488.389	3314.25
488.607	3302.25
488.825	3217.25
489.043	3278.25
489.261	3228.25
489.479	3240.25
489.696	3261.25
489.914	3252.25
490.132	3261.25
490.35	3251.25
490.568	3289.25
490.786	3306.25
491.003	3385.25
491.221	3377.25
491.439	3395.25
491.657	3345.25
491.874	3372.25
492.092	3408.25
492.31	3440.25
492.527	3441.25
492.745	3431.25
492.963	3441.25
493.18	3393.25
493.398	3386.25
493.615	3459.25
493.833	3338.25
494.05	3417.25
494.268	3389.25
494.485	3422.25
494.703	3442.25
494.92	3398.25
495.138	3403.25
495.355	3433.25
495.573	3446.25
495.79	3412.25
496.008	3477.25
496.225	3571.25
496.442	3520.25
496.66	3688.25
496.877	3853.25
497.094	3779.25
497.312	3699.25
497.529	3705.25
497.746	3768.25
497.963	3893.25
498.181	3908.25
498.398	3966.25
498.615	4077.25
498.832	4250.25
499.049	4461.25
499.267	4812.25
499.484	5098.25
499.701	5070.25
499.918	5168.25
500.135	5422.25
500.352	5714.25
500.569	5723.25
500.786	5660.25
501.003	5493.25
501.22	5268.25
501.437	4992.25
501.654	4797.25
501.871	4521.25
502.088	4322.25
502.305	4291.25
502.522	4131.25
502.739	4066.25
502.956	3861.25
503.172	3821.25
503.389	3735.25
503.606	3614.25
503.823	3641.25
504.04	3554.25
504.256	3492.25
504.473	3591.25
504.69	3543.25
504.907	3533.25
505.123	3466.25
505.34	3341.25
505.557	3289.25
505.773	3263.25
505.99	3206.25
506.207	3151.25
506.423	3130.25
506.64	3126.25
506.856	3087.25
507.073	3044.25
507.289	3022.25
507.506	2980.25
507.722	2996.25
507.939	2995.25
508.155	2988.25
508.372	3011.25
508.588	2955.25
508.805	2991.25
509.021	2939.25
509.238	3009.25
509.454	3113.25
509.67	3390.25
509.887	3162.25
510.103	2999.25
510.319	2951.25
510.536	2941.25
510.752	2955.25
510.968	2901.25
511.184	2852.25
511.401	2839.25
511.617	2894.25
511.833	2844.25
512.049	2841.25
512.265	2801.25
512.481	2850.25
512.698	2885.25
512.914	2809.25
513.13	2832.25
513.346	2847.25
513.562	2833.25
513.778	2810.25
513.994	2869.25
514.21	2939.25
514.426	3171.25
514.642	3286.25
514.858	3001.25
515.074	2917.25
515.29	2938.25
515.506	2847.25
515.721	2910.25
515.937	2947.25
516.153	2923.25
516.369	2953.25
516.585	2979.25
516.801	3025.25
517.016	3069.25
517.232	3157.25
517.448	3171.25
517.664	3207.25
517.879	3223.25
518.095	3269.25
518.311	3187.25
518.527	3150.25
518.742	3138.25
518.958	3151.25
519.173	3237.25
519.389	3133.25
519.605	2990.25
519.82	2943.25
520.036	2914.25
520.251	2867.25
520.467	2860.25
520.682	2857.25
520.898	2791.25
521.113	2796.25
521.329	2777.25
521.544	2834.25
521.76	2816.25
521.975	2777.25
522.19	2786.25
522.406	2740.25
522.621	2765.25
522.836	2721.25
523.052	2737.25
523.267	2707.25
523.482	2709.25
523.698	2719.25
523.913	2739.25
524.128	2697.25
524.343	2687.25
524.559	2719.25
524.774	2686.25
524.989	2729.25
525.204	2689.25
525.419	2681.25
525.634	2741.25
525.849	2726.25
526.064	2704.25
526.28	2647.25
526.495	2710.25
526.71	2723.25
526.925	2681.25
527.14	2695.25
527.355	2690.25
527.57	2707.25
527.785	2778.25
527.999	2755.25
528.214	2807.25
528.429	2822.25
528.644	2780.25
528.859	2830.25
529.074	2855.25
529.289	2897.25
529.503	2879.25
529.718	2860.25
529.933	2868.25
530.148	2859.25
530.363	2870.25
530.577	2884.25
530.792	2880.25
531.007	2919.25
531.221	2927.25
531.436	2996.25
531.651	2983.25
531.865	3052.25
532.08	3072.25
532.295	3173.25
532.509	3421.25
532.724	3359.25
532.938	3417.25
533.153	3546.25
533.367	3816.25
533.582	3993.25
533.796	3948.25
534.011	3796.25
534.225	3577.25
534.44	3428.25
534.654	3387.25
534.868	3297.25
535.083	3205.25
535.297	3176.25
535.511	3060.25
535.726	3046.25
535.94	3024.25
536.154	2965.25
536.369	2931.25
536.583	2879.25
536.797	2873.25
537.011	2849.25
537.225	2777.25
537.44	2804.25
537.654	2833.25
537.868	2749.25
538.082	2725.25
538.296	2682.25
538.51	2668.25
538.724	2710.25
538.938	2708.25
539.153	2715.25
539.367	2673.25
539.581	2645.25
539.795	2638.25
540.009	2563.25
540.222	2591.25
540.436	2562.25
540.65	2628.25
540.864	2609.25
541.078	2733.25
541.292	2837.25
541.506	3356.25
541.72	3546.25
541.934	3067.25
542.147	2844.25
542.361	2758.25
542.575	2631.25
542.789	2558.25
543.002	2542.25
543.216	2529.25
543.43	2510.25
543.644	2464.25
543.857	2511.25
544.071	2556.25
544.285	2538.25
544.498	2517.25
544.712	2519.25
544.925	2543.25
545.139	2515.25
545.352	2509.25
545.566	2502.25
545.779	2521.25
545.993	2542.25
546.206	2492.25
546.42	2462.25
546.633	2460.25
546.847	2531.25
547.06	2517.25
547.274	2560.25
547.487	2537.25
547.7	2527.25
547.914	2528.25
548.127	2548.25
548.34	2541.25
548.554	2516.25
548.767	2569.25
548.98	2537.25
549.193	2542.25
549.407	2519.25
549.62	2569.25
549.833	2554.25
550.046	2538.25
550.259	2449.25
550.473	2503.25
550.686	2533.25
550.899	2508.25
551.112	2522.25
551.325	2542.25
551.538	2531.25
551.751	2516.25
551.964	2560.25
552.177	2581.25
552.39	2620.25
552.603	2670.25
552.816	2718.25
553.029	2732.25
553.242	2715.25
553.455	2747.25
553.667	2827.25
553.88	2818.25
554.093	2835.25
554.306	2868.25
554.519	2790.25
554.732	2942.25
554.944	2931.25
555.157	3001.25
555.37	3117.25
555.583	3207.25
555.795	3404.25
556.008	3661.25
556.221	4131.25
556.433	4468.25
556.646	4433.25
556.859	4194.25
557.071	3977.25
557.284	3905.25
557.496	3794.25
557.709	3722.25
557.921	3627.25
558.134	3574.25
558.346	3650.25
558.559	3777.25
558.771	4049.25
558.984	4451.25
559.196	4806.25
559.409	4553.25
559.621	4126.25
559.833	3875.25
560.046	3677.25
560.258	3459.25
560.47	3250.25
560.683	3210.25
560.895	3059.25
561.107	2957.25
561.32	2825.25
561.532	2774.25
561.744	2759.25
561.956	2668.25
562.168	2653.25
562.381	2634.25
562.593	2587.25
562.805	2623.25
563.017	2683.25
563.229	2723.25
563.441	3162.25
563.653	2602.25
563.865	2426.25
564.077	2429.25
564.289	2373.25
564.501	2368.25
564.713	2373.25
564.925	2326.25
565.137	2324.25
565.349	2302.25
565.561	2360.25
565.773	2391.25
565.985	2428.25
566.197	2404.25
566.408	2438.25
566.62	2505.25
566.832	2549.25
567.044	2578.25
567.255	2610.25
567.467	2630.25
567.679	2685.25
567.891	2853.25
568.102	3115.25
568.314	3618.25
568.526	3089.25
568.737	2701.25
568.949	2477.25
569.161	2332.25
569.372	2253.25
569.584	2194.25
569.795	2101.25
570.007	2156.25
570.218	2199.25
570.43	2246.25
570.641	2094.25
570.853	1971.25
571.064	1959.25
571.276	1987.25
571.487	1939.25
571.698	1869.25
571.91	1881.25
572.121	1883.25
572.333	1862.25
572.544	1892.25
572.755	1984.25
572.966	2314.25
573.178	2123.25
573.389	1891.25
573.6	1805.25
573.811	1751.25
574.023	1731.25
574.234	1694.25
574.445	1679.25
574.656	1674.25
574.867	1709.25
575.078	1700.25
575.289	1710.25
575.501	1714.25
575.712	1698.25
575.923	1722.25
576.134	1680.25
576.345	1703.25
576.556	1708.25
576.767	1729.25
576.978	1697.25
577.188	1725.25
577.399	1730.25
577.61	1734.25
577.821	1750.25
578.032	1749.25
578.243	1773.25
578.454	1851.25
578.665	1876.25
578.875	1924.25
579.086	1965.25
579.297	2109.25
579.508	2221.25
579.718	2394.25
579.929	2750.25
580.14	3220.25
580.35	3289.25
580.561	2959.25
580.772	2670.25
580.982	2460.25
581.193	2277.25
581.403	2199.25
581.614	2081.25
581.825	1998.25
582.035	1887.25
582.246	1846.25
582.456	1809.25
582.667	1774.25
582.877	1735.25
583.087	1710.25
583.298	1677.25
583.508	1615.25
583.719	1546.25
583.929	1527.25
584.139	1515.25
584.35	1471.25
584.56	1473.25
584.77	1476.25
584.981	1434.25
585.191	1412.25
585.401	1404.25
585.611	1382.25
585.821	1373.25
586.032	1326.25
586.242	1338.25
586.452	1348.25
586.662	1304.25
586.872	1307.25
587.082	1294.25
587.292	1310.25
587.502	1256.25
587.713	1261.25
587.923	1265.25
588.133	1251.25
588.343	1246.25
588.553	1238.25
588.762	1223.25
588.972	1212.25
589.182	1234.25
589.392	1210.25
589.602	1213.25
589.812	1219.25
590.022	1198.25
590.232	1182.25
590.441	1182.25
590.651	1162.25
590.861	1155.25
591.071	1172.25
591.281	1165.25
591.49	1134.25
591.7	1175.25
591.91	1179.25
592.119	1185.25
592.329	1228.25
592.539	1185.25
592.748	1191.25
592.958	1213.25
593.167	1197.25
593.377	1219.25
593.587	1256.25
593.796	1230.25
594.006	1223.25
594.215	1205.25
594.424	1231.25
594.634	1182.25
594.843	1182.25
595.053	1146.25
595.262	1161.25
595.472	1152.25
595.681	1115.25
595.89	1117.25
596.1	1099.25
596.309	1050.25
596.518	1082.25
596.727	1059.25
596.937	1039.25
597.146	1042.25
597.355	1011.25
597.564	1025.25
597.774	998.25
597.983	981.25
598.192	1020.25
598.401	974.25
598.61	962.25
598.819	985.25
599.028	977.25
599.237	962.25
599.446	950.25
599.655	958.25
599.864	936.25
600.073	951.25
600.282	941.25
600.491	937.25
600.7	959.25
600.909	936.25
601.118	966.25
601.327	954.25
601.536	946.25
601.745	962.25
601.953	1077.25
602.162	1209.25
602.371	1054.25
602.58	975.25
602.789	971.25
602.997	950.25
603.206	927.25
603.415	911.25
603.623	921.25
603.832	939.25
604.041	930.25
604.249	908.25
604.458	875.25
604.666	878.25
604.875	882.25
605.084	878.25
605.292	919.25
605.501	893.25
605.709	907.25
605.918	894.25
606.126	911.25
606.334	934.25
606.543	940.25
606.751	1029.25
606.96	1121.25
607.168	1263.25
607.376	1082.25
607.585	955.25
607.793	911.25
608.001	921.25
608.21	892.25
608.418	894.25
608.626	879.25
608.834	852.25
609.043	858.25
609.251	860.25
609.459	861.25
609.667	860.25
609.875	835.25
610.083	834.25
610.291	805.25
610.499	830.25
610.707	807.25
610.916	839.25
611.124	846.25
611.332	828.25
611.54	813.25
611.748	843.25
611.955	795.25
612.163	821.25
612.371	777.25
612.579	788.25
612.787	823.25
612.995	810.25
613.203	807.25
613.411	775.25
613.618	775.25
613.826	778.25
614.034	779.25
614.242	796.25
614.449	791.25
614.657	803.25
614.865	757.25
615.072	807.25
615.28	803.25
615.488	805.25
615.695	810.25
615.903	797.25
616.111	793.25
616.318	795.25
616.526	786.25
616.733	800.25
616.941	786.25
617.148	783.25
617.356	778.25
617.563	781.25
617.771	787.25
617.978	753.25
618.185	755.25
618.393	743.25
618.6	743.25
618.807	749.25
619.015	753.25
619.222	738.25
619.429	741.25
619.637	711.25
619.844	706.25
620.051	683.25
620.258	731.25
620.466	690.25
620.673	718.25
620.88	698.25
621.087	689.25
621.294	701.25
621.501	687.25
621.708	698.25
621.915	694.25
622.122	686.25
622.329	687.25
622.536	685.25
622.743	679.25
622.95	683.25
623.157	690.25
623.364	680.25
623.571	681.25
623.778	674.25
623.985	683.25
624.192	656.25
624.399	686.25
624.606	680.25
624.812	679.25
625.019	684.25
625.226	640.25
625.433	652.25
625.639	644.25
625.846	644.25
626.053	632.25
626.259	663.25
626.466	635.25
626.673	630.25
626.879	633.25
627.086	617.25
627.293	633.25
627.499	625.25
627.706	655.25
627.912	627.25
628.119	605.25
628.325	640.25
628.532	629.25
628.738	638.25
628.945	627.25
629.151	636.25
629.357	623.25
629.564	615.25
629.77	638.25
629.976	607.25
630.183	614.25
630.389	600.25
630.595	615.25
630.802	613.25
631.008	594.25
631.214	594.25
631.42	615.25
631.627	582.25
631.833	587.25
632.039	589.25
632.245	595.25
632.451	574.25
632.657	596.25
632.863	575.25
633.069	571.25
633.275	584.25
633.481	585.25
633.688	573.25
633.893	557.25
634.099	586.25
634.305	589.25
634.511	601.25
634.717	586.25
634.923	600.25
635.129	662.25
635.335	758.25
635.541	681.25
635.747	645.25
635.952	597.25
636.158	596.25
636.364	587.25
636.57	583.25
636.775	572.25
636.981	577.25
637.187	575.25
637.392	595.25
637.598	595.25
637.804	585.25
638.009	572.25
638.215	581.25
638.421	582.25
638.626	596.25
638.832	601.25
639.037	580.25
639.243	582.25
639.448	609.25
639.654	591.25
639.859	587.25
640.065	622.25
640.27	610.25
640.475	574.25
640.681	614.25
640.886	612.25
641.091	607.25
641.297	617.25
641.502	620.25
641.707	639.25
641.913	647.25
642.118	640.25
642.323	645.25
642.528	669.25
642.733	657.25
642.939	680.25
643.144	715.25
643.349	715.25
643.554	747.25
643.759	783.25
643.964	814.25
644.169	876.25
644.374	927.25
644.579	1017.25
644.784	1144.25
644.989	1294.25
645.194	1537.25
645.399	1907.25
645.604	2134.25
645.809	1521.25
646.014	1130.25
646.219	971.25
646.423	813.25
646.628	754.25
646.833	693.25
647.038	631.25
647.243	652.25
647.447	623.25
647.652	605.25
647.857	563.25
648.062	574.25
648.266	567.25
648.471	566.25
648.676	559.25
648.88	523.25
649.085	544.25
649.289	521.25
649.494	488.25
649.698	490.25
649.903	506.25
650.107	472.25
650.312	477.25
650.516	474.25
650.721	466.25
650.925	442.25
651.13	446.25
651.334	426.25
651.539	429.25
651.743	434.25
651.947	415.25
652.152	411.25
652.356	449.25
652.56	465.25
652.764	522.25
652.969	447.25
653.173	415.25
653.377	384.25
653.581	403.25
653.785	393.25
653.99	372.25
654.194	362.25
654.398	366.25
654.602	358.25
654.806	363.25
655.01	354.25
655.214	334.25
655.418	351.25
655.622	358.25
655.826	361.25
656.03	365.25
656.234	357.25
656.438	362.25
656.642	368.25
656.846	364.25
657.049	325.25
657.253	328.25
657.457	310.25
657.661	285.25
657.865	297.25
658.068	278.25
658.272	249.25
658.476	236.25
658.68	221.25
658.883	207.25
659.087	201.25
659.291	199.25
659.494	195.25
659.698	185.25
659.901	182.25
660.105	187.25
660.309	153.25
660.512	148.25
660.716	143.25
660.919	156.25
661.123	146.25
661.326	155.25
661.53	135.25
661.733	113.25
661.936	142.25
662.14	122.25
662.343	116.25
662.546	110.25
662.75	117.25
662.953	100.25
663.156	101.25
663.36	101.25
663.563	93.25
663.766	101.25
663.969	77.25
664.173	101.25
664.376	88.25
664.579	82.25
664.782	82.25
664.985	78.25
665.188	86.25
665.391	98.25
665.594	77.25
665.797	83.25
666	91.25
666.203	89.25
666.406	82.25
666.609	86.25
666.812	93.25
667.015	99.25
667.218	93.25
667.421	88.25
667.624	87.25
667.827	90.25
668.03	74.25
668.232	70.25
668.435	77.25
668.638	84.25
668.841	96.25
669.043	94.25
669.246	87.25
669.449	91.25
669.651	105.25
669.854	81.25
670.057	83.25
670.259	82.25
670.462	85.25
670.665	83.25
670.867	89.25
671.07	80.25
671.272	93.25
671.475	77.25
671.677	87.25
671.88	76.25
672.082	93.25
672.284	90.25
672.487	96.25
672.689	95.25
672.892	83.25
