Data from SnStandardFlinnAPT0064_LampEnergy5.5_LIBS07252019.E.O._I.C._HRD10591_15-14-53-491.txt Node
Date: Thu Jul 25 15:14:53 EDT 2019
User: cochatt
Spectrometer: HR+D1059
Trigger mode: 1
Integration Time (sec): 1.000000E-1
Scans to average: 1
Electric dark correction enabled: true
Nonlinearity correction enabled: false
Boxcar width: 0
XAxis mode: Wavelengths
Number of Pixels in Spectrum: 2048
>>>>>Begin Spectral Data<<<<<
223.165	-16.62
223.4	-16.62
223.635	-16.62
223.869	-13.62
224.104	-22.62
224.338	-12.62
224.573	-10.62
224.808	-17.62
225.042	-4.62
225.277	-5.62
225.511	1.38
225.746	8.38
225.98	-1.62
226.215	-14.62
226.449	20.38
226.683	30.38
226.918	26.38
227.152	33.38
227.387	34.38
227.621	30.38
227.856	55.38
228.09	43.38
228.324	57.38
228.559	45.38
228.793	71.38
229.027	134.38
229.262	159.38
229.496	154.38
229.73	155.38
229.964	155.38
230.199	144.38
230.433	155.38
230.667	155.38
230.901	166.38
231.136	154.38
231.37	166.38
231.604	176.38
231.838	192.38
232.072	230.38
232.306	222.38
232.541	208.38
232.775	185.38
233.009	194.38
233.243	199.38
233.477	214.38
233.711	228.38
233.945	244.38
234.179	224.38
234.413	204.38
234.647	200.38
234.881	219.38
235.115	214.38
235.349	235.38
235.583	319.38
235.817	370.38
236.051	364.38
236.285	262.38
236.519	219.38
236.753	208.38
236.987	230.38
237.221	247.38
237.455	218.38
237.689	204.38
237.922	214.38
238.156	212.38
238.39	226.38
238.624	217.38
238.858	218.38
239.091	231.38
239.325	210.38
239.559	223.38
239.793	232.38
240.027	248.38
240.26	239.38
240.494	237.38
240.728	242.38
240.961	250.38
241.195	262.38
241.429	287.38
241.662	278.38
241.896	308.38
242.13	356.38
242.363	439.38
242.597	535.38
242.83	563.38
243.064	532.38
243.298	609.38
243.531	506.38
243.765	360.38
243.998	308.38
244.232	302.38
244.465	271.38
244.699	280.38
244.932	278.38
245.166	295.38
245.399	296.38
245.633	290.38
245.866	301.38
246.099	292.38
246.333	290.38
246.566	293.38
246.8	278.38
247.033	272.38
247.266	294.38
247.5	272.38
247.733	292.38
247.966	297.38
248.2	314.38
248.433	347.38
248.666	363.38
248.899	365.38
249.133	333.38
249.366	348.38
249.599	361.38
249.832	398.38
250.066	395.38
250.299	333.38
250.532	334.38
250.765	305.38
250.998	322.38
251.231	309.38
251.465	299.38
251.698	315.38
251.931	314.38
252.164	291.38
252.397	326.38
252.63	349.38
252.863	321.38
253.096	322.38
253.329	318.38
253.562	317.38
253.795	333.38
254.028	328.38
254.261	355.38
254.494	353.38
254.727	406.38
254.96	443.38
255.193	438.38
255.426	367.38
255.659	353.38
255.892	340.38
256.124	354.38
256.357	363.38
256.59	375.38
256.823	392.38
257.056	420.38
257.289	485.38
257.521	514.38
257.754	434.38
257.987	383.38
258.22	388.38
258.452	364.38
258.685	374.38
258.918	393.38
259.151	398.38
259.383	408.38
259.616	463.38
259.849	452.38
260.081	412.38
260.314	398.38
260.547	396.38
260.779	398.38
261.012	390.38
261.244	405.38
261.477	411.38
261.71	416.38
261.942	413.38
262.175	416.38
262.407	422.38
262.64	461.38
262.872	455.38
263.105	489.38
263.337	518.38
263.57	522.38
263.802	538.38
264.035	536.38
264.267	565.38
264.499	567.38
264.732	592.38
264.964	608.38
265.197	598.38
265.429	598.38
265.661	613.38
265.894	655.38
266.126	670.38
266.358	733.38
266.591	733.38
266.823	662.38
267.055	620.38
267.287	570.38
267.52	555.38
267.752	548.38
267.984	563.38
268.216	546.38
268.448	529.38
268.681	538.38
268.913	521.38
269.145	519.38
269.377	514.38
269.609	512.38
269.841	523.38
270.073	536.38
270.306	632.38
270.538	770.38
270.77	1067.38
271.002	1266.38
271.234	932.38
271.466	668.38
271.698	573.38
271.93	542.38
272.162	540.38
272.394	525.38
272.626	522.38
272.858	507.38
273.09	492.38
273.322	502.38
273.553	475.38
273.785	496.38
274.017	478.38
274.249	499.38
274.481	495.38
274.713	502.38
274.945	498.38
275.176	511.38
275.408	499.38
275.64	461.38
275.872	500.38
276.104	496.38
276.335	500.38
276.567	487.38
276.799	515.38
277.031	532.38
277.262	535.38
277.494	552.38
277.726	589.38
277.957	655.38
278.189	708.38
278.421	675.38
278.652	617.38
278.884	610.38
279.115	576.38
279.347	555.38
279.579	540.38
279.81	538.38
280.042	556.38
280.273	538.38
280.505	579.38
280.736	564.38
280.968	600.38
281.199	628.38
281.431	684.38
281.662	693.38
281.894	641.38
282.125	630.38
282.356	631.38
282.588	631.38
282.819	613.38
283.051	676.38
283.282	710.38
283.513	869.38
283.745	1208.38
283.976	1837.38
284.207	2575.38
284.439	2287.38
284.67	1452.38
284.901	1187.38
285.132	1188.38
285.364	1124.38
285.595	910.38
285.826	842.38
286.057	936.38
286.288	1285.38
286.52	1672.38
286.751	1558.38
286.982	1028.38
287.213	820.38
287.444	729.38
287.675	708.38
287.906	684.38
288.138	674.38
288.369	654.38
288.6	664.38
288.831	659.38
289.062	663.38
289.293	660.38
289.524	645.38
289.755	682.38
289.986	663.38
290.217	698.38
290.448	676.38
290.679	665.38
290.91	668.38
291.141	709.38
291.371	737.38
291.602	728.38
291.833	716.38
292.064	658.38
292.295	661.38
292.526	646.38
292.757	622.38
292.987	617.38
293.218	626.38
293.449	626.38
293.68	629.38
293.91	625.38
294.141	637.38
294.372	604.38
294.603	630.38
294.833	634.38
295.064	618.38
295.295	624.38
295.525	612.38
295.756	620.38
295.987	613.38
296.217	612.38
296.448	599.38
296.679	611.38
296.909	635.38
297.14	649.38
297.37	635.38
297.601	624.38
297.831	628.38
298.062	642.38
298.292	627.38
298.523	650.38
298.753	653.38
298.984	691.38
299.214	658.38
299.445	688.38
299.675	663.38
299.905	692.38
300.136	709.38
300.366	774.38
300.597	958.38
300.827	1243.38
301.057	1618.38
301.288	1609.38
301.518	1120.38
301.748	930.38
301.979	873.38
302.209	820.38
302.439	835.38
302.669	886.38
302.9	1012.38
303.13	1337.38
303.36	1820.38
303.59	2434.38
303.82	2150.38
304.051	1344.38
304.281	1021.38
304.511	884.38
304.741	852.38
304.971	814.38
305.201	760.38
305.431	781.38
305.661	767.38
305.891	740.38
306.121	722.38
306.352	740.38
306.582	739.38
306.812	718.38
307.042	709.38
307.272	741.38
307.502	718.38
307.731	694.38
307.961	712.38
308.191	720.38
308.421	702.38
308.651	730.38
308.881	725.38
309.111	725.38
309.341	717.38
309.571	714.38
309.8	736.38
310.03	750.38
310.26	717.38
310.49	703.38
310.72	720.38
310.949	734.38
311.179	754.38
311.409	747.38
311.639	783.38
311.868	751.38
312.098	740.38
312.328	761.38
312.557	754.38
312.787	783.38
313.017	758.38
313.246	774.38
313.476	780.38
313.706	790.38
313.935	829.38
314.165	866.38
314.394	889.38
314.624	862.38
314.853	807.38
315.083	832.38
315.312	842.38
315.542	862.38
315.771	810.38
316.001	851.38
316.23	883.38
316.46	872.38
316.689	946.38
316.919	1098.38
317.148	1494.38
317.377	2238.38
317.607	3235.38
317.836	3310.38
318.065	2060.38
318.295	1410.38
318.524	1174.38
318.753	1079.38
318.983	1013.38
319.212	901.38
319.441	908.38
319.67	936.38
319.9	897.38
320.129	865.38
320.358	908.38
320.587	870.38
320.816	876.38
321.046	903.38
321.275	882.38
321.504	933.38
321.733	951.38
321.962	926.38
322.191	935.38
322.42	948.38
322.649	943.38
322.878	946.38
323.108	935.38
323.337	976.38
323.566	959.38
323.795	980.38
324.024	998.38
324.253	1039.38
324.482	1076.38
324.71	1115.38
324.939	1123.38
325.168	1168.38
325.397	1210.38
325.626	1407.38
325.855	1838.38
326.084	2726.38
326.313	3926.38
326.542	4236.38
326.77	2764.38
326.999	1954.38
327.228	1659.38
327.457	1622.38
327.686	1650.38
327.914	1731.38
328.143	1990.38
328.372	2213.38
328.6	2362.38
328.829	2294.38
329.058	2034.38
329.287	1826.38
329.515	1680.38
329.744	1586.38
329.972	1498.38
330.201	1448.38
330.43	1394.38
330.658	1373.38
330.887	1344.38
331.115	1297.38
331.344	1308.38
331.572	1245.38
331.801	1311.38
332.03	1297.38
332.258	1333.38
332.486	1378.38
332.715	1501.38
332.943	1813.38
333.172	2115.38
333.4	2118.38
333.629	1737.38
333.857	1632.38
334.085	1614.38
334.314	1721.38
334.542	1806.38
334.771	2072.38
334.999	2446.38
335.227	2961.38
335.455	3240.38
335.684	3034.38
335.912	2636.38
336.14	2316.38
336.369	2070.38
336.597	1920.38
336.825	1754.38
337.053	1667.38
337.281	1586.38
337.51	1508.38
337.738	1463.38
337.966	1395.38
338.194	1364.38
338.422	1323.38
338.65	1277.38
338.878	1290.38
339.106	1240.38
339.334	1202.38
339.562	1223.38
339.79	1182.38
340.018	1164.38
340.246	1149.38
340.474	1150.38
340.702	1150.38
340.93	1164.38
341.158	1155.38
341.386	1178.38
341.614	1129.38
341.842	1123.38
342.07	1098.38
342.298	1077.38
342.526	1051.38
342.754	1062.38
342.981	1053.38
343.209	1054.38
343.437	1070.38
343.665	1080.38
343.893	1098.38
344.12	1112.38
344.348	1073.38
344.576	1045.38
344.804	1044.38
345.031	991.38
345.259	1022.38
345.487	1012.38
345.714	1001.38
345.942	997.38
346.17	979.38
346.397	1011.38
346.625	996.38
346.853	1000.38
347.08	982.38
347.308	978.38
347.535	988.38
347.763	985.38
347.99	994.38
348.218	981.38
348.445	966.38
348.673	977.38
348.9	992.38
349.128	960.38
349.355	967.38
349.583	934.38
349.81	947.38
350.037	928.38
350.265	941.38
350.492	946.38
350.72	936.38
350.947	926.38
351.174	966.38
351.402	943.38
351.629	928.38
351.856	958.38
352.083	942.38
352.311	956.38
352.538	940.38
352.765	950.38
352.992	933.38
353.22	938.38
353.447	934.38
353.674	898.38
353.901	949.38
354.128	958.38
354.355	932.38
354.583	959.38
354.81	950.38
355.037	961.38
355.264	948.38
355.491	956.38
355.718	958.38
355.945	986.38
356.172	990.38
356.399	959.38
356.626	987.38
356.853	998.38
357.08	987.38
357.307	963.38
357.534	1005.38
357.761	1010.38
357.988	1024.38
358.215	1007.38
358.441	986.38
358.668	972.38
358.895	998.38
359.122	994.38
359.349	1031.38
359.576	1004.38
359.802	986.38
360.029	993.38
360.256	1018.38
360.483	1007.38
360.709	983.38
360.936	978.38
361.163	995.38
361.39	988.38
361.616	985.38
361.843	1031.38
362.07	1012.38
362.296	1005.38
362.523	991.38
362.749	990.38
362.976	1008.38
363.203	1027.38
363.429	969.38
363.656	1004.38
363.882	1016.38
364.109	1020.38
364.335	996.38
364.562	1017.38
364.788	979.38
365.015	1021.38
365.241	1013.38
365.468	1048.38
365.694	1105.38
365.92	1068.38
366.147	1031.38
366.373	1029.38
366.599	1026.38
366.826	1014.38
367.052	1034.38
367.278	1046.38
367.505	1031.38
367.731	1010.38
367.957	997.38
368.184	1054.38
368.41	1038.38
368.636	1050.38
368.862	1059.38
369.089	1040.38
369.315	1062.38
369.541	1044.38
369.767	1070.38
369.993	1060.38
370.219	1040.38
370.445	1049.38
370.672	1064.38
370.898	1086.38
371.124	1017.38
371.35	1073.38
371.576	1065.38
371.802	1074.38
372.028	1079.38
372.254	1087.38
372.48	1094.38
372.706	1128.38
372.932	1138.38
373.158	1154.38
373.384	1095.38
373.61	1115.38
373.835	1096.38
374.061	1108.38
374.287	1116.38
374.513	1147.38
374.739	1125.38
374.965	1158.38
375.191	1182.38
375.416	1103.38
375.642	1122.38
375.868	1143.38
376.094	1113.38
376.319	1104.38
376.545	1097.38
376.771	1119.38
376.997	1092.38
377.222	1074.38
377.448	1095.38
377.674	1051.38
377.899	1098.38
378.125	1090.38
378.35	1082.38
378.576	1087.38
378.802	1088.38
379.027	1090.38
379.253	1124.38
379.478	1162.38
379.704	1287.38
379.929	1706.38
380.155	2445.38
380.38	2570.38
380.606	1687.38
380.831	1309.38
381.057	1182.38
381.282	1121.38
381.507	1148.38
381.733	1087.38
381.958	1082.38
382.184	1091.38
382.409	1095.38
382.634	1071.38
382.86	1091.38
383.085	1061.38
383.31	1078.38
383.535	1074.38
383.761	1079.38
383.986	1087.38
384.211	1078.38
384.436	1111.38
384.662	1099.38
384.887	1106.38
385.112	1100.38
385.337	1106.38
385.562	1104.38
385.787	1119.38
386.013	1103.38
386.238	1114.38
386.463	1120.38
386.688	1103.38
386.913	1124.38
387.138	1119.38
387.363	1115.38
387.588	1098.38
387.813	1107.38
388.038	1090.38
388.263	1084.38
388.488	1118.38
388.713	1115.38
388.938	1106.38
389.163	1110.38
389.387	1095.38
389.612	1085.38
389.837	1090.38
390.062	1116.38
390.287	1094.38
390.512	1111.38
390.736	1124.38
390.961	1146.38
391.186	1127.38
391.411	1156.38
391.636	1155.38
391.86	1178.38
392.085	1172.38
392.31	1094.38
392.534	1117.38
392.759	1126.38
392.984	1123.38
393.208	1151.38
393.433	1122.38
393.658	1095.38
393.882	1114.38
394.107	1117.38
394.331	1125.38
394.556	1140.38
394.78	1129.38
395.005	1154.38
395.229	1123.38
395.454	1176.38
395.678	1153.38
395.903	1162.38
396.127	1145.38
396.352	1144.38
396.576	1160.38
396.801	1148.38
397.025	1148.38
397.249	1146.38
397.474	1149.38
397.698	1152.38
397.922	1210.38
398.147	1155.38
398.371	1189.38
398.595	1213.38
398.82	1224.38
399.044	1278.38
399.268	1333.38
399.492	1409.38
399.717	1424.38
399.941	1484.38
400.165	1390.38
400.389	1355.38
400.613	1348.38
400.837	1294.38
401.062	1278.38
401.286	1257.38
401.51	1212.38
401.734	1219.38
401.958	1260.38
402.182	1225.38
402.406	1249.38
402.63	1241.38
402.854	1265.38
403.078	1239.38
403.302	1232.38
403.526	1283.38
403.75	1277.38
403.974	1283.38
404.198	1289.38
404.422	1261.38
404.645	1260.38
404.869	1289.38
405.093	1285.38
405.317	1276.38
405.541	1269.38
405.765	1320.38
405.988	1310.38
406.212	1302.38
406.436	1283.38
406.66	1333.38
406.883	1322.38
407.107	1343.38
407.331	1382.38
407.555	1362.38
407.778	1391.38
408.002	1367.38
408.226	1330.38
408.449	1304.38
408.673	1312.38
408.896	1321.38
409.12	1292.38
409.344	1273.38
409.567	1279.38
409.791	1275.38
410.014	1254.38
410.238	1253.38
410.461	1240.38
410.685	1267.38
410.908	1261.38
411.132	1242.38
411.355	1199.38
411.578	1231.38
411.802	1227.38
412.025	1231.38
412.249	1211.38
412.472	1230.38
412.695	1187.38
412.919	1198.38
413.142	1210.38
413.365	1209.38
413.589	1215.38
413.812	1186.38
414.035	1148.38
414.258	1175.38
414.482	1206.38
414.705	1231.38
414.928	1214.38
415.151	1194.38
415.374	1211.38
415.597	1218.38
415.821	1164.38
416.044	1160.38
416.267	1170.38
416.49	1121.38
416.713	1144.38
416.936	1147.38
417.159	1145.38
417.382	1160.38
417.605	1150.38
417.828	1171.38
418.051	1206.38
418.274	1174.38
418.497	1191.38
418.72	1214.38
418.943	1180.38
419.166	1226.38
419.389	1314.38
419.611	1282.38
419.834	1235.38
420.057	1185.38
420.28	1182.38
420.503	1160.38
420.726	1153.38
420.948	1148.38
421.171	1151.38
421.394	1163.38
421.617	1160.38
421.839	1202.38
422.062	1190.38
422.285	1154.38
422.507	1186.38
422.73	1157.38
422.953	1161.38
423.175	1159.38
423.398	1163.38
423.621	1141.38
423.843	1180.38
424.066	1172.38
424.288	1184.38
424.511	1167.38
424.733	1159.38
424.956	1178.38
425.178	1167.38
425.401	1152.38
425.623	1169.38
425.846	1154.38
426.068	1124.38
426.291	1126.38
426.513	1100.38
426.735	1105.38
426.958	1140.38
427.18	1110.38
427.402	1125.38
427.625	1089.38
427.847	1076.38
428.069	1072.38
428.292	1078.38
428.514	1070.38
428.736	1060.38
428.958	1090.38
429.181	1074.38
429.403	1066.38
429.625	1074.38
429.847	1076.38
430.069	1100.38
430.292	1123.38
430.514	1132.38
430.736	1187.38
430.958	1101.38
431.18	1084.38
431.402	1063.38
431.624	1076.38
431.846	1032.38
432.068	1053.38
432.29	1067.38
432.512	1075.38
432.734	1093.38
432.956	1058.38
433.178	1104.38
433.4	1090.38
433.622	1101.38
433.844	1107.38
434.066	1064.38
434.287	1096.38
434.509	1091.38
434.731	1088.38
434.953	1118.38
435.175	1146.38
435.397	1108.38
435.618	1122.38
435.84	1079.38
436.062	1076.38
436.284	1062.38
436.505	1092.38
436.727	1076.38
436.949	1068.38
437.17	1072.38
437.392	1034.38
437.614	1043.38
437.835	1019.38
438.057	1040.38
438.278	1020.38
438.5	1071.38
438.721	1058.38
438.943	1092.38
439.165	1042.38
439.386	1103.38
439.608	1085.38
439.829	1100.38
440.05	1127.38
440.272	1157.38
440.493	1140.38
440.715	1107.38
440.936	1117.38
441.158	1140.38
441.379	1112.38
441.6	1149.38
441.822	1164.38
442.043	1215.38
442.264	1254.38
442.486	1172.38
442.707	1166.38
442.928	1148.38
443.149	1179.38
443.371	1134.38
443.592	1168.38
443.813	1154.38
444.034	1174.38
444.255	1179.38
444.476	1192.38
444.698	1255.38
444.919	1253.38
445.14	1335.38
445.361	1241.38
445.582	1181.38
445.803	1182.38
446.024	1140.38
446.245	1165.38
446.466	1148.38
446.687	1134.38
446.908	1141.38
447.129	1118.38
447.35	1076.38
447.571	1094.38
447.792	1051.38
448.013	1069.38
448.234	1028.38
448.455	1056.38
448.675	1111.38
448.896	1095.38
449.117	1118.38
449.338	1174.38
449.559	1182.38
449.779	1086.38
450	1051.38
450.221	1041.38
450.442	1034.38
450.662	999.38
450.883	1031.38
451.104	996.38
451.324	1039.38
451.545	1028.38
451.766	1027.38
451.986	1027.38
452.207	1082.38
452.428	1250.38
452.648	1662.38
452.869	1472.38
453.089	1161.38
453.31	1097.38
453.53	1118.38
453.751	1112.38
453.971	1139.38
454.192	1166.38
454.412	1067.38
454.633	1012.38
454.853	1030.38
455.073	979.38
455.294	994.38
455.514	1002.38
455.734	1005.38
455.955	964.38
456.175	977.38
456.395	970.38
456.616	994.38
456.836	987.38
457.056	993.38
457.276	980.38
457.497	1048.38
457.717	1050.38
457.937	1026.38
458.157	1014.38
458.377	1017.38
458.598	1044.38
458.818	1074.38
459.038	1048.38
459.258	1022.38
459.478	1064.38
459.698	1060.38
459.918	1087.38
460.138	1116.38
460.358	1160.38
460.578	1156.38
460.798	1140.38
461.018	1135.38
461.238	1174.38
461.458	1148.38
461.678	1138.38
461.898	1187.38
462.118	1193.38
462.338	1193.38
462.558	1246.38
462.777	1227.38
462.997	1312.38
463.217	1342.38
463.437	1403.38
463.657	1340.38
463.876	1374.38
464.096	1294.38
464.316	1251.38
464.536	1254.38
464.755	1245.38
464.975	1226.38
465.195	1173.38
465.414	1143.38
465.634	1143.38
465.854	1141.38
466.073	1113.38
466.293	1081.38
466.512	1073.38
466.732	1084.38
466.951	1114.38
467.171	1160.38
467.391	1147.38
467.61	1088.38
467.829	1057.38
468.049	1068.38
468.268	1085.38
468.488	1056.38
468.707	1036.38
468.927	1058.38
469.146	1059.38
469.365	1069.38
469.585	1061.38
469.804	1078.38
470.023	1107.38
470.243	1138.38
470.462	1178.38
470.681	1197.38
470.901	1282.38
471.12	1414.38
471.339	1435.38
471.558	1258.38
471.777	1160.38
471.997	1138.38
472.216	1066.38
472.435	1071.38
472.654	1049.38
472.873	1058.38
473.092	1056.38
473.311	1040.38
473.53	1048.38
473.749	1062.38
473.968	1124.38
474.187	1091.38
474.406	1043.38
474.625	1072.38
474.844	1067.38
475.063	1067.38
475.282	1100.38
475.501	1073.38
475.72	1088.38
475.939	1086.38
476.158	1099.38
476.377	1117.38
476.596	1099.38
476.814	1091.38
477.033	1088.38
477.252	1111.38
477.471	1151.38
477.69	1140.38
477.908	1195.38
478.127	1194.38
478.346	1224.38
478.564	1232.38
478.783	1216.38
479.002	1252.38
479.22	1224.38
479.439	1249.38
479.658	1253.38
479.876	1214.38
480.095	1282.38
480.313	1306.38
480.532	1308.38
480.751	1284.38
480.969	1282.38
481.188	1226.38
481.406	1235.38
481.624	1231.38
481.843	1250.38
482.061	1256.38
482.28	1256.38
482.498	1255.38
482.717	1266.38
482.935	1288.38
483.153	1301.38
483.372	1322.38
483.59	1340.38
483.808	1286.38
484.027	1309.38
484.245	1396.38
484.463	1504.38
484.681	1698.38
484.9	1553.38
485.118	1470.38
485.336	1433.38
485.554	1457.38
485.772	1504.38
485.99	1672.38
486.209	1792.38
486.427	1540.38
486.645	1407.38
486.863	1403.38
487.081	1367.38
487.299	1318.38
487.517	1303.38
487.735	1361.38
487.953	1381.38
488.171	1350.38
488.389	1346.38
488.607	1359.38
488.825	1311.38
489.043	1316.38
489.261	1310.38
489.479	1304.38
489.696	1301.38
489.914	1316.38
490.132	1329.38
490.35	1322.38
490.568	1335.38
490.786	1372.38
491.003	1416.38
491.221	1394.38
491.439	1391.38
491.657	1396.38
491.874	1406.38
492.092	1425.38
492.31	1451.38
492.527	1424.38
492.745	1406.38
492.963	1397.38
493.18	1350.38
493.398	1371.38
493.615	1403.38
493.833	1402.38
494.05	1421.38
494.268	1413.38
494.485	1412.38
494.703	1442.38
494.92	1400.38
495.138	1389.38
495.355	1422.38
495.573	1385.38
495.79	1398.38
496.008	1423.38
496.225	1433.38
496.442	1460.38
496.66	1487.38
496.877	1506.38
497.094	1506.38
497.312	1486.38
497.529	1488.38
497.746	1490.38
497.963	1546.38
498.181	1568.38
498.398	1561.38
498.615	1658.38
498.832	1680.38
499.049	1771.38
499.267	1863.38
499.484	1971.38
499.701	2047.38
499.918	2120.38
500.135	2218.38
500.352	2366.38
500.569	2378.38
500.786	2368.38
501.003	2290.38
501.22	2188.38
501.437	2067.38
501.654	1902.38
501.871	1856.38
502.088	1780.38
502.305	1710.38
502.522	1674.38
502.739	1593.38
502.956	1575.38
503.172	1509.38
503.389	1488.38
503.606	1469.38
503.823	1424.38
504.04	1470.38
504.256	1449.38
504.473	1428.38
504.69	1396.38
504.907	1375.38
505.123	1372.38
505.34	1351.38
505.557	1310.38
505.773	1310.38
505.99	1271.38
506.207	1256.38
506.423	1266.38
506.64	1250.38
506.856	1272.38
507.073	1250.38
507.289	1231.38
507.506	1195.38
507.722	1213.38
507.939	1208.38
508.155	1202.38
508.372	1182.38
508.588	1183.38
508.805	1160.38
509.021	1190.38
509.238	1220.38
509.454	1231.38
509.67	1282.38
509.887	1194.38
510.103	1183.38
510.319	1176.38
510.536	1147.38
510.752	1170.38
510.968	1171.38
511.184	1160.38
511.401	1172.38
511.617	1125.38
511.833	1103.38
512.049	1114.38
512.265	1101.38
512.481	1168.38
512.698	1078.38
512.914	1129.38
513.13	1104.38
513.346	1123.38
513.562	1156.38
513.778	1128.38
513.994	1156.38
514.21	1179.38
514.426	1221.38
514.642	1242.38
514.858	1205.38
515.074	1164.38
515.29	1144.38
515.506	1175.38
515.721	1204.38
515.937	1159.38
516.153	1176.38
516.369	1173.38
516.585	1188.38
516.801	1214.38
517.016	1183.38
517.232	1245.38
517.448	1275.38
517.664	1303.38
517.879	1277.38
518.095	1296.38
518.311	1288.38
518.527	1262.38
518.742	1259.38
518.958	1270.38
519.173	1225.38
519.389	1214.38
519.605	1196.38
519.82	1172.38
520.036	1177.38
520.251	1129.38
520.467	1125.38
520.682	1122.38
520.898	1150.38
521.113	1141.38
521.329	1111.38
521.544	1121.38
521.76	1103.38
521.975	1111.38
522.19	1112.38
522.406	1114.38
522.621	1117.38
522.836	1110.38
523.052	1117.38
523.267	1123.38
523.482	1101.38
523.698	1122.38
523.913	1070.38
524.128	1140.38
524.343	1110.38
524.559	1120.38
524.774	1079.38
524.989	1133.38
525.204	1110.38
525.419	1116.38
525.634	1097.38
525.849	1103.38
526.064	1102.38
526.28	1106.38
526.495	1088.38
526.71	1110.38
526.925	1108.38
527.14	1071.38
527.355	1091.38
527.57	1117.38
527.785	1091.38
527.999	1120.38
528.214	1145.38
528.429	1112.38
528.644	1126.38
528.859	1176.38
529.074	1203.38
529.289	1187.38
529.503	1175.38
529.718	1197.38
529.933	1154.38
530.148	1141.38
530.363	1171.38
530.577	1132.38
530.792	1148.38
531.007	1162.38
531.221	1161.38
531.436	1175.38
531.651	1169.38
531.865	1180.38
532.08	1213.38
532.295	1198.38
532.509	1306.38
532.724	1283.38
532.938	1248.38
533.153	1314.38
533.367	1378.38
533.582	1419.38
533.796	1423.38
534.011	1406.38
534.225	1321.38
534.44	1323.38
534.654	1348.38
534.868	1332.38
535.083	1288.38
535.297	1258.38
535.511	1229.38
535.726	1218.38
535.94	1227.38
536.154	1191.38
536.369	1180.38
536.583	1183.38
536.797	1138.38
537.011	1131.38
537.225	1125.38
537.44	1114.38
537.654	1142.38
537.868	1123.38
538.082	1103.38
538.296	1094.38
538.51	1074.38
538.724	1083.38
538.938	1099.38
539.153	1103.38
539.367	1110.38
539.581	1074.38
539.795	1036.38
540.009	1071.38
540.222	1055.38
540.436	1068.38
540.65	1056.38
540.864	1084.38
541.078	1081.38
541.292	1157.38
541.506	1300.38
541.72	1392.38
541.934	1228.38
542.147	1205.38
542.361	1156.38
542.575	1124.38
542.789	1071.38
543.002	1031.38
543.216	1044.38
543.43	1048.38
543.644	1030.38
543.857	1039.38
544.071	1049.38
544.285	1059.38
544.498	1052.38
544.712	1073.38
544.925	1091.38
545.139	1062.38
545.352	1067.38
545.566	1042.38
545.779	1083.38
545.993	1100.38
546.206	1087.38
546.42	1075.38
546.633	1085.38
546.847	1061.38
547.06	1072.38
547.274	1095.38
547.487	1076.38
547.7	1109.38
547.914	1088.38
548.127	1076.38
548.34	1067.38
548.554	1060.38
548.767	1090.38
548.98	1077.38
549.193	1055.38
549.407	1069.38
549.62	1072.38
549.833	1076.38
550.046	1086.38
550.259	1088.38
550.473	1037.38
550.686	1062.38
550.899	1096.38
551.112	1048.38
551.325	1060.38
551.538	1057.38
551.751	1036.38
551.964	1048.38
552.177	1046.38
552.39	1102.38
552.603	1098.38
552.816	1145.38
553.029	1147.38
553.242	1169.38
553.455	1169.38
553.667	1166.38
553.88	1183.38
554.093	1174.38
554.306	1202.38
554.519	1212.38
554.732	1181.38
554.944	1229.38
555.157	1239.38
555.37	1254.38
555.583	1254.38
555.795	1306.38
556.008	1418.38
556.221	1466.38
556.433	1534.38
556.646	1542.38
556.859	1514.38
557.071	1522.38
557.284	1463.38
557.496	1454.38
557.709	1387.38
557.921	1388.38
558.134	1379.38
558.346	1426.38
558.559	1451.38
558.771	1480.38
558.984	1578.38
559.196	1637.38
559.409	1650.38
559.621	1549.38
559.833	1445.38
560.046	1383.38
560.258	1338.38
560.47	1346.38
560.683	1281.38
560.895	1224.38
561.107	1202.38
561.32	1212.38
561.532	1157.38
561.744	1118.38
561.956	1121.38
562.168	1111.38
562.381	1090.38
562.593	1106.38
562.805	1090.38
563.017	1069.38
563.229	1080.38
563.441	1157.38
563.653	1070.38
563.865	993.38
564.077	1032.38
564.289	976.38
564.501	997.38
564.713	1007.38
564.925	999.38
565.137	990.38
565.349	988.38
565.561	983.38
565.773	997.38
565.985	1012.38
566.197	1036.38
566.408	1042.38
566.62	1071.38
566.832	1078.38
567.044	1095.38
567.255	1094.38
567.467	1117.38
567.679	1110.38
567.891	1172.38
568.102	1231.38
568.314	1414.38
568.526	1229.38
568.737	1103.38
568.949	1010.38
569.161	952.38
569.372	921.38
569.584	889.38
569.795	887.38
570.007	862.38
570.218	905.38
570.43	878.38
570.641	868.38
570.853	827.38
571.064	827.38
571.276	822.38
571.487	776.38
571.698	828.38
571.91	805.38
572.121	794.38
572.333	774.38
572.544	750.38
572.755	818.38
572.966	912.38
573.178	834.38
573.389	780.38
573.6	751.38
573.811	742.38
574.023	736.38
574.234	742.38
574.445	719.38
574.656	723.38
574.867	739.38
575.078	718.38
575.289	729.38
575.501	732.38
575.712	719.38
575.923	726.38
576.134	705.38
576.345	737.38
576.556	743.38
576.767	716.38
576.978	740.38
577.188	739.38
577.399	740.38
577.61	728.38
577.821	740.38
578.032	728.38
578.243	739.38
578.454	763.38
578.665	782.38
578.875	778.38
579.086	799.38
579.297	818.38
579.508	862.38
579.718	898.38
579.929	975.38
580.14	1084.38
580.35	1128.38
580.561	1087.38
580.772	1000.38
580.982	951.38
581.193	905.38
581.403	879.38
581.614	836.38
581.825	796.38
582.035	791.38
582.246	755.38
582.456	744.38
582.667	719.38
582.877	703.38
583.087	718.38
583.298	690.38
583.508	675.38
583.719	663.38
583.929	634.38
584.139	656.38
584.35	628.38
584.56	623.38
584.77	636.38
584.981	610.38
585.191	619.38
585.401	580.38
585.611	603.38
585.821	607.38
586.032	574.38
586.242	588.38
586.452	590.38
586.662	566.38
586.872	577.38
587.082	564.38
587.292	547.38
587.502	535.38
587.713	534.38
587.923	541.38
588.133	562.38
588.343	546.38
588.553	544.38
588.762	533.38
588.972	508.38
589.182	540.38
589.392	542.38
589.602	520.38
589.812	522.38
590.022	527.38
590.232	517.38
590.441	506.38
590.651	526.38
590.861	506.38
591.071	510.38
591.281	513.38
591.49	516.38
591.7	521.38
591.91	514.38
592.119	517.38
592.329	538.38
592.539	528.38
592.748	536.38
592.958	542.38
593.167	516.38
593.377	533.38
593.587	551.38
593.796	512.38
594.006	546.38
594.215	537.38
594.424	535.38
594.634	549.38
594.843	537.38
595.053	539.38
595.262	489.38
595.472	495.38
595.681	500.38
595.89	493.38
596.1	501.38
596.309	499.38
596.518	472.38
596.727	472.38
596.937	447.38
597.146	442.38
597.355	473.38
597.564	438.38
597.774	463.38
597.983	436.38
598.192	443.38
598.401	460.38
598.61	432.38
598.819	445.38
599.028	436.38
599.237	433.38
599.446	440.38
599.655	432.38
599.864	435.38
600.073	420.38
600.282	429.38
600.491	411.38
600.7	438.38
600.909	422.38
601.118	439.38
601.327	418.38
601.536	456.38
601.745	452.38
601.953	473.38
602.162	518.38
602.371	452.38
602.58	462.38
602.789	458.38
602.997	446.38
603.206	435.38
603.415	425.38
603.623	423.38
603.832	401.38
604.041	420.38
604.249	429.38
604.458	408.38
604.666	411.38
604.875	408.38
605.084	399.38
605.292	430.38
605.501	416.38
605.709	410.38
605.918	439.38
606.126	421.38
606.334	429.38
606.543	412.38
606.751	441.38
606.96	486.38
607.168	522.38
607.376	466.38
607.585	423.38
607.793	405.38
608.001	418.38
608.21	400.38
608.418	395.38
608.626	403.38
608.834	418.38
609.043	406.38
609.251	402.38
609.459	382.38
609.667	404.38
609.875	394.38
610.083	403.38
610.291	390.38
610.499	396.38
610.707	407.38
610.916	397.38
611.124	384.38
611.332	367.38
611.54	392.38
611.748	390.38
611.955	402.38
612.163	371.38
612.371	392.38
612.579	392.38
612.787	377.38
612.995	384.38
613.203	375.38
613.411	386.38
613.618	372.38
613.826	372.38
614.034	392.38
614.242	406.38
614.449	383.38
614.657	378.38
614.865	364.38
615.072	374.38
615.28	393.38
615.488	411.38
615.695	394.38
615.903	376.38
616.111	366.38
616.318	396.38
616.526	374.38
616.733	367.38
616.941	376.38
617.148	382.38
617.356	367.38
617.563	372.38
617.771	364.38
617.978	378.38
618.185	347.38
618.393	376.38
618.6	359.38
618.807	357.38
619.015	395.38
619.222	363.38
619.429	366.38
619.637	355.38
619.844	347.38
620.051	336.38
620.258	346.38
620.466	346.38
620.673	327.38
620.88	330.38
621.087	349.38
621.294	338.38
621.501	323.38
621.708	343.38
621.915	345.38
622.122	340.38
622.329	350.38
622.536	344.38
622.743	332.38
622.95	349.38
623.157	349.38
623.364	327.38
623.571	340.38
623.778	344.38
623.985	340.38
624.192	344.38
624.399	341.38
624.606	330.38
624.812	318.38
625.019	332.38
625.226	325.38
625.433	312.38
625.639	304.38
625.846	301.38
626.053	298.38
626.259	338.38
626.466	330.38
626.673	321.38
626.879	319.38
627.086	323.38
627.293	298.38
627.499	313.38
627.706	317.38
627.912	324.38
628.119	322.38
628.325	311.38
628.532	327.38
628.738	328.38
628.945	306.38
629.151	288.38
629.357	291.38
629.564	299.38
629.77	304.38
629.976	277.38
630.183	298.38
630.389	302.38
630.595	300.38
630.802	287.38
631.008	288.38
631.214	303.38
631.42	307.38
631.627	302.38
631.833	280.38
632.039	298.38
632.245	286.38
632.451	286.38
632.657	300.38
632.863	290.38
633.069	291.38
633.275	292.38
633.481	284.38
633.688	290.38
633.893	293.38
634.099	310.38
634.305	303.38
634.511	281.38
634.717	293.38
634.923	299.38
635.129	306.38
635.335	340.38
635.541	319.38
635.747	319.38
635.952	303.38
636.158	274.38
636.364	320.38
636.57	276.38
636.775	278.38
636.981	299.38
637.187	303.38
637.392	307.38
637.598	303.38
637.804	298.38
638.009	300.38
638.215	299.38
638.421	293.38
638.626	283.38
638.832	297.38
639.037	321.38
639.243	297.38
639.448	303.38
639.654	307.38
639.859	286.38
640.065	294.38
640.27	312.38
640.475	302.38
640.681	298.38
640.886	306.38
641.091	308.38
641.297	318.38
641.502	310.38
641.707	315.38
641.913	314.38
642.118	302.38
642.323	323.38
642.528	320.38
642.733	328.38
642.939	329.38
643.144	350.38
643.349	350.38
643.554	384.38
643.759	357.38
643.964	359.38
644.169	399.38
644.374	393.38
644.579	432.38
644.784	479.38
644.989	503.38
645.194	541.38
645.399	632.38
645.604	629.38
645.809	534.38
646.014	447.38
646.219	406.38
646.423	372.38
646.628	352.38
646.833	338.38
647.038	328.38
647.243	320.38
647.447	326.38
647.652	303.38
647.857	277.38
648.062	291.38
648.266	297.38
648.471	283.38
648.676	276.38
648.88	265.38
649.085	274.38
649.289	270.38
649.494	267.38
649.698	247.38
649.903	245.38
650.107	246.38
650.312	263.38
650.516	244.38
650.721	242.38
650.925	235.38
651.13	232.38
651.334	229.38
651.539	231.38
651.743	223.38
651.947	219.38
652.152	221.38
652.356	231.38
652.56	237.38
652.764	253.38
652.969	221.38
653.173	211.38
653.377	222.38
653.581	208.38
653.785	188.38
653.99	207.38
654.194	202.38
654.398	194.38
654.602	200.38
654.806	199.38
655.01	193.38
655.214	204.38
655.418	203.38
655.622	193.38
655.826	206.38
656.03	198.38
656.234	199.38
656.438	212.38
656.642	215.38
656.846	227.38
657.049	199.38
657.253	184.38
657.457	181.38
657.661	175.38
657.865	165.38
658.068	157.38
658.272	152.38
658.476	155.38
658.68	141.38
658.883	142.38
659.087	139.38
659.291	139.38
659.494	134.38
659.698	120.38
659.901	124.38
660.105	122.38
660.309	121.38
660.512	109.38
660.716	122.38
660.919	106.38
661.123	140.38
661.326	118.38
661.53	119.38
661.733	98.38
661.936	106.38
662.14	106.38
662.343	84.38
662.546	92.38
662.75	90.38
662.953	96.38
663.156	102.38
663.36	96.38
663.563	82.38
663.766	89.38
663.969	84.38
664.173	82.38
664.376	91.38
664.579	91.38
664.782	85.38
664.985	80.38
665.188	102.38
665.391	98.38
665.594	86.38
665.797	85.38
666	91.38
666.203	69.38
666.406	98.38
666.609	71.38
666.812	87.38
667.015	87.38
667.218	100.38
667.421	76.38
667.624	83.38
667.827	88.38
668.03	100.38
668.232	91.38
668.435	92.38
668.638	86.38
668.841	85.38
669.043	82.38
669.246	88.38
669.449	78.38
669.651	86.38
669.854	87.38
670.057	78.38
670.259	81.38
670.462	77.38
670.665	97.38
670.867	84.38
671.07	83.38
671.272	89.38
671.475	80.38
671.677	92.38
671.88	88.38
672.082	94.38
672.284	68.38
672.487	86.38
672.689	70.38
672.892	89.38
