Data from SnStandardFlinnAPT0064_LampEnergy5.5_LIBS07252019.E.O._I.C._HRD10591_15-14-48-540.txt Node
Date: Thu Jul 25 15:14:48 EDT 2019
User: cochatt
Spectrometer: HR+D1059
Trigger mode: 1
Integration Time (sec): 1.000000E-1
Scans to average: 1
Electric dark correction enabled: true
Nonlinearity correction enabled: false
Boxcar width: 0
XAxis mode: Wavelengths
Number of Pixels in Spectrum: 2048
>>>>>Begin Spectral Data<<<<<
223.165	-13.12
223.4	-13.12
223.635	-13.12
223.869	-14.12
224.104	-11.12
224.338	-13.12
224.573	-30.12
224.808	-18.12
225.042	-15.12
225.277	-4.12
225.511	-0.12
225.746	11.88
225.98	-15.12
226.215	9.88
226.449	17.88
226.683	22.88
226.918	31.88
227.152	39.88
227.387	30.88
227.621	34.88
227.856	38.88
228.09	57.88
228.324	48.88
228.559	44.88
228.793	83.88
229.027	141.88
229.262	140.88
229.496	145.88
229.73	130.88
229.964	142.88
230.199	143.88
230.433	162.88
230.667	142.88
230.901	154.88
231.136	155.88
231.37	170.88
231.604	167.88
231.838	197.88
232.072	214.88
232.306	232.88
232.541	205.88
232.775	185.88
233.009	183.88
233.243	184.88
233.477	194.88
233.711	213.88
233.945	228.88
234.179	218.88
234.413	202.88
234.647	200.88
234.881	217.88
235.115	221.88
235.349	257.88
235.583	289.88
235.817	346.88
236.051	354.88
236.285	258.88
236.519	229.88
236.753	215.88
236.987	236.88
237.221	208.88
237.455	225.88
237.689	203.88
237.922	221.88
238.156	210.88
238.39	216.88
238.624	216.88
238.858	205.88
239.091	211.88
239.325	223.88
239.559	232.88
239.793	205.88
240.027	222.88
240.26	225.88
240.494	241.88
240.728	236.88
240.961	248.88
241.195	263.88
241.429	264.88
241.662	284.88
241.896	298.88
242.13	352.88
242.363	451.88
242.597	547.88
242.83	509.88
243.064	524.88
243.298	616.88
243.531	516.88
243.765	367.88
243.998	330.88
244.232	269.88
244.465	265.88
244.699	269.88
244.932	287.88
245.166	265.88
245.399	294.88
245.633	271.88
245.866	288.88
246.099	276.88
246.333	274.88
246.566	290.88
246.8	273.88
247.033	273.88
247.266	268.88
247.5	265.88
247.733	285.88
247.966	284.88
248.2	310.88
248.433	334.88
248.666	364.88
248.899	360.88
249.133	330.88
249.366	343.88
249.599	357.88
249.832	386.88
250.066	383.88
250.299	347.88
250.532	332.88
250.765	327.88
250.998	317.88
251.231	312.88
251.465	308.88
251.698	335.88
251.931	316.88
252.164	315.88
252.397	327.88
252.63	328.88
252.863	327.88
253.096	329.88
253.329	333.88
253.562	316.88
253.795	336.88
254.028	325.88
254.261	336.88
254.494	361.88
254.727	397.88
254.96	480.88
255.193	450.88
255.426	370.88
255.659	372.88
255.892	375.88
256.124	327.88
256.357	369.88
256.59	383.88
256.823	373.88
257.056	426.88
257.289	468.88
257.521	500.88
257.754	417.88
257.987	398.88
258.22	389.88
258.452	363.88
258.685	375.88
258.918	393.88
259.151	398.88
259.383	424.88
259.616	450.88
259.849	465.88
260.081	422.88
260.314	394.88
260.547	397.88
260.779	393.88
261.012	396.88
261.244	408.88
261.477	414.88
261.71	386.88
261.942	404.88
262.175	425.88
262.407	460.88
262.64	431.88
262.872	465.88
263.105	479.88
263.337	513.88
263.57	528.88
263.802	548.88
264.035	535.88
264.267	554.88
264.499	567.88
264.732	589.88
264.964	588.88
265.197	589.88
265.429	572.88
265.661	614.88
265.894	630.88
266.126	653.88
266.358	738.88
266.591	721.88
266.823	639.88
267.055	590.88
267.287	560.88
267.52	548.88
267.752	540.88
267.984	516.88
268.216	525.88
268.448	528.88
268.681	519.88
268.913	521.88
269.145	500.88
269.377	495.88
269.609	515.88
269.841	518.88
270.073	545.88
270.306	593.88
270.538	761.88
270.77	1047.88
271.002	1252.88
271.234	972.88
271.466	679.88
271.698	579.88
271.93	552.88
272.162	521.88
272.394	506.88
272.626	507.88
272.858	476.88
273.09	481.88
273.322	529.88
273.553	495.88
273.785	473.88
274.017	492.88
274.249	515.88
274.481	486.88
274.713	490.88
274.945	506.88
275.176	489.88
275.408	490.88
275.64	480.88
275.872	458.88
276.104	527.88
276.335	513.88
276.567	516.88
276.799	512.88
277.031	512.88
277.262	524.88
277.494	525.88
277.726	560.88
277.957	635.88
278.189	700.88
278.421	678.88
278.652	629.88
278.884	593.88
279.115	572.88
279.347	562.88
279.579	548.88
279.81	555.88
280.042	523.88
280.273	547.88
280.505	540.88
280.736	572.88
280.968	603.88
281.199	647.88
281.431	698.88
281.662	704.88
281.894	645.88
282.125	595.88
282.356	599.88
282.588	604.88
282.819	613.88
283.051	672.88
283.282	734.88
283.513	882.88
283.745	1176.88
283.976	1801.88
284.207	2538.88
284.439	2262.88
284.67	1474.88
284.901	1205.88
285.132	1126.88
285.364	1085.88
285.595	914.88
285.826	871.88
286.057	983.88
286.288	1261.88
286.52	1635.88
286.751	1541.88
286.982	1016.88
287.213	793.88
287.444	762.88
287.675	728.88
287.906	687.88
288.138	657.88
288.369	645.88
288.6	659.88
288.831	663.88
289.062	658.88
289.293	673.88
289.524	665.88
289.755	664.88
289.986	689.88
290.217	680.88
290.448	660.88
290.679	661.88
290.91	676.88
291.141	676.88
291.371	699.88
291.602	705.88
291.833	691.88
292.064	651.88
292.295	672.88
292.526	631.88
292.757	645.88
292.987	638.88
293.218	628.88
293.449	620.88
293.68	609.88
293.91	639.88
294.141	627.88
294.372	635.88
294.603	609.88
294.833	620.88
295.064	639.88
295.295	632.88
295.525	633.88
295.756	617.88
295.987	625.88
296.217	613.88
296.448	617.88
296.679	611.88
296.909	642.88
297.14	640.88
297.37	654.88
297.601	646.88
297.831	617.88
298.062	627.88
298.292	643.88
298.523	634.88
298.753	668.88
298.984	653.88
299.214	673.88
299.445	685.88
299.675	666.88
299.905	715.88
300.136	720.88
300.366	782.88
300.597	954.88
300.827	1249.88
301.057	1621.88
301.288	1590.88
301.518	1125.88
301.748	893.88
301.979	866.88
302.209	831.88
302.439	824.88
302.669	876.88
302.9	1011.88
303.13	1337.88
303.36	1863.88
303.59	2448.88
303.82	2143.88
304.051	1369.88
304.281	1017.88
304.511	889.88
304.741	836.88
304.971	825.88
305.201	763.88
305.431	792.88
305.661	748.88
305.891	735.88
306.121	707.88
306.352	721.88
306.582	737.88
306.812	704.88
307.042	708.88
307.272	718.88
307.502	715.88
307.731	749.88
307.961	726.88
308.191	709.88
308.421	700.88
308.651	719.88
308.881	724.88
309.111	735.88
309.341	709.88
309.571	714.88
309.8	733.88
310.03	729.88
310.26	721.88
310.49	742.88
310.72	768.88
310.949	738.88
311.179	747.88
311.409	744.88
311.639	743.88
311.868	745.88
312.098	785.88
312.328	755.88
312.557	760.88
312.787	764.88
313.017	784.88
313.246	777.88
313.476	764.88
313.706	781.88
313.935	844.88
314.165	860.88
314.394	865.88
314.624	851.88
314.853	821.88
315.083	799.88
315.312	837.88
315.542	823.88
315.771	820.88
316.001	827.88
316.23	889.88
316.46	897.88
316.689	986.88
316.919	1104.88
317.148	1543.88
317.377	2225.88
317.607	3183.88
317.836	3328.88
318.065	2042.88
318.295	1391.88
318.524	1175.88
318.753	1051.88
318.983	980.88
319.212	958.88
319.441	936.88
319.67	940.88
319.9	890.88
320.129	921.88
320.358	869.88
320.587	892.88
320.816	877.88
321.046	905.88
321.275	887.88
321.504	915.88
321.733	923.88
321.962	918.88
322.191	950.88
322.42	939.88
322.649	928.88
322.878	948.88
323.108	929.88
323.337	949.88
323.566	968.88
323.795	980.88
324.024	1014.88
324.253	1021.88
324.482	1047.88
324.71	1075.88
324.939	1127.88
325.168	1164.88
325.397	1187.88
325.626	1360.88
325.855	1815.88
326.084	2703.88
326.313	3964.88
326.542	4183.88
326.77	2833.88
326.999	1935.88
327.228	1691.88
327.457	1637.88
327.686	1656.88
327.914	1750.88
328.143	1967.88
328.372	2257.88
328.6	2409.88
328.829	2279.88
329.058	2042.88
329.287	1832.88
329.515	1713.88
329.744	1549.88
329.972	1483.88
330.201	1438.88
330.43	1384.88
330.658	1348.88
330.887	1319.88
331.115	1342.88
331.344	1302.88
331.572	1299.88
331.801	1314.88
332.03	1305.88
332.258	1325.88
332.486	1377.88
332.715	1491.88
332.943	1743.88
333.172	2047.88
333.4	2061.88
333.629	1707.88
333.857	1622.88
334.085	1633.88
334.314	1685.88
334.542	1832.88
334.771	2085.88
334.999	2444.88
335.227	2911.88
335.455	3245.88
335.684	3093.88
335.912	2641.88
336.14	2290.88
336.369	2069.88
336.597	1923.88
336.825	1785.88
337.053	1699.88
337.281	1606.88
337.51	1525.88
337.738	1457.88
337.966	1393.88
338.194	1360.88
338.422	1330.88
338.65	1321.88
338.878	1257.88
339.106	1210.88
339.334	1245.88
339.562	1235.88
339.79	1211.88
340.018	1190.88
340.246	1171.88
340.474	1167.88
340.702	1174.88
340.93	1164.88
341.158	1121.88
341.386	1112.88
341.614	1165.88
341.842	1118.88
342.07	1104.88
342.298	1088.88
342.526	1060.88
342.754	1063.88
342.981	1060.88
343.209	1028.88
343.437	1076.88
343.665	1061.88
343.893	1095.88
344.12	1102.88
344.348	1044.88
344.576	1051.88
344.804	1074.88
345.031	1008.88
345.259	1002.88
345.487	1017.88
345.714	1029.88
345.942	979.88
346.17	1010.88
346.397	1013.88
346.625	1009.88
346.853	995.88
347.08	975.88
347.308	974.88
347.535	969.88
347.763	984.88
347.99	1002.88
348.218	976.88
348.445	986.88
348.673	962.88
348.9	947.88
349.128	957.88
349.355	955.88
349.583	976.88
349.81	955.88
350.037	950.88
350.265	927.88
350.492	940.88
350.72	910.88
350.947	942.88
351.174	949.88
351.402	963.88
351.629	948.88
351.856	944.88
352.083	923.88
352.311	920.88
352.538	938.88
352.765	959.88
352.992	942.88
353.22	928.88
353.447	937.88
353.674	934.88
353.901	937.88
354.128	943.88
354.355	920.88
354.583	960.88
354.81	947.88
355.037	943.88
355.264	956.88
355.491	997.88
355.718	951.88
355.945	958.88
356.172	963.88
356.399	967.88
356.626	989.88
356.853	959.88
357.08	1004.88
357.307	991.88
357.534	988.88
357.761	1013.88
357.988	1019.88
358.215	993.88
358.441	1007.88
358.668	997.88
358.895	991.88
359.122	1000.88
359.349	1012.88
359.576	983.88
359.802	978.88
360.029	978.88
360.256	984.88
360.483	983.88
360.709	1046.88
360.936	1037.88
361.163	1000.88
361.39	986.88
361.616	1021.88
361.843	979.88
362.07	1034.88
362.296	1023.88
362.523	1012.88
362.749	1031.88
362.976	993.88
363.203	988.88
363.429	962.88
363.656	1003.88
363.882	1003.88
364.109	1017.88
364.335	980.88
364.562	1011.88
364.788	1000.88
365.015	1000.88
365.241	1023.88
365.468	1051.88
365.694	1055.88
365.92	1063.88
366.147	1035.88
366.373	1051.88
366.599	1018.88
366.826	1012.88
367.052	995.88
367.278	1027.88
367.505	1081.88
367.731	1001.88
367.957	1037.88
368.184	1049.88
368.41	1067.88
368.636	1039.88
368.862	1055.88
369.089	1052.88
369.315	1047.88
369.541	1024.88
369.767	1045.88
369.993	1049.88
370.219	1047.88
370.445	1032.88
370.672	1048.88
370.898	1059.88
371.124	1094.88
371.35	1079.88
371.576	1081.88
371.802	1069.88
372.028	1072.88
372.254	1061.88
372.48	1060.88
372.706	1122.88
372.932	1116.88
373.158	1090.88
373.384	1098.88
373.61	1107.88
373.835	1123.88
374.061	1067.88
374.287	1117.88
374.513	1119.88
374.739	1159.88
374.965	1155.88
375.191	1170.88
375.416	1144.88
375.642	1109.88
375.868	1109.88
376.094	1126.88
376.319	1108.88
376.545	1097.88
376.771	1091.88
376.997	1074.88
377.222	1085.88
377.448	1087.88
377.674	1072.88
377.899	1087.88
378.125	1060.88
378.35	1051.88
378.576	1073.88
378.802	1085.88
379.027	1092.88
379.253	1126.88
379.478	1137.88
379.704	1297.88
379.929	1705.88
380.155	2448.88
380.38	2591.88
380.606	1711.88
380.831	1333.88
381.057	1206.88
381.282	1133.88
381.507	1079.88
381.733	1103.88
381.958	1067.88
382.184	1085.88
382.409	1079.88
382.634	1055.88
382.86	1057.88
383.085	1069.88
383.31	1096.88
383.535	1043.88
383.761	1061.88
383.986	1084.88
384.211	1105.88
384.436	1082.88
384.662	1114.88
384.887	1104.88
385.112	1095.88
385.337	1127.88
385.562	1097.88
385.787	1066.88
386.013	1101.88
386.238	1103.88
386.463	1135.88
386.688	1134.88
386.913	1077.88
387.138	1114.88
387.363	1108.88
387.588	1077.88
387.813	1109.88
388.038	1104.88
388.263	1082.88
388.488	1107.88
388.713	1140.88
388.938	1134.88
389.163	1100.88
389.387	1121.88
389.612	1104.88
389.837	1106.88
390.062	1082.88
390.287	1124.88
390.512	1116.88
390.736	1136.88
390.961	1139.88
391.186	1124.88
391.411	1173.88
391.636	1180.88
391.86	1158.88
392.085	1172.88
392.31	1143.88
392.534	1151.88
392.759	1164.88
392.984	1127.88
393.208	1132.88
393.433	1136.88
393.658	1107.88
393.882	1097.88
394.107	1110.88
394.331	1128.88
394.556	1108.88
394.78	1136.88
395.005	1126.88
395.229	1145.88
395.454	1164.88
395.678	1167.88
395.903	1145.88
396.127	1138.88
396.352	1138.88
396.576	1165.88
396.801	1143.88
397.025	1163.88
397.249	1174.88
397.474	1157.88
397.698	1161.88
397.922	1173.88
398.147	1177.88
398.371	1189.88
398.595	1230.88
398.82	1225.88
399.044	1304.88
399.268	1331.88
399.492	1439.88
399.717	1442.88
399.941	1511.88
400.165	1400.88
400.389	1363.88
400.613	1293.88
400.837	1263.88
401.062	1286.88
401.286	1237.88
401.51	1247.88
401.734	1214.88
401.958	1240.88
402.182	1235.88
402.406	1232.88
402.63	1243.88
402.854	1270.88
403.078	1268.88
403.302	1285.88
403.526	1256.88
403.75	1257.88
403.974	1298.88
404.198	1251.88
404.422	1263.88
404.645	1283.88
404.869	1275.88
405.093	1282.88
405.317	1250.88
405.541	1277.88
405.765	1303.88
405.988	1302.88
406.212	1287.88
406.436	1309.88
406.66	1305.88
406.883	1297.88
407.107	1379.88
407.331	1342.88
407.555	1399.88
407.778	1387.88
408.002	1376.88
408.226	1360.88
408.449	1338.88
408.673	1337.88
408.896	1284.88
409.12	1303.88
409.344	1281.88
409.567	1268.88
409.791	1287.88
410.014	1260.88
410.238	1254.88
410.461	1252.88
410.685	1298.88
410.908	1243.88
411.132	1256.88
411.355	1222.88
411.578	1219.88
411.802	1242.88
412.025	1208.88
412.249	1228.88
412.472	1225.88
412.695	1201.88
412.919	1225.88
413.142	1191.88
413.365	1189.88
413.589	1210.88
413.812	1186.88
414.035	1173.88
414.258	1192.88
414.482	1189.88
414.705	1244.88
414.928	1185.88
415.151	1217.88
415.374	1216.88
415.597	1184.88
415.821	1163.88
416.044	1159.88
416.267	1144.88
416.49	1152.88
416.713	1166.88
416.936	1141.88
417.159	1151.88
417.382	1157.88
417.605	1126.88
417.828	1155.88
418.051	1186.88
418.274	1208.88
418.497	1201.88
418.72	1168.88
418.943	1150.88
419.166	1178.88
419.389	1319.88
419.611	1235.88
419.834	1219.88
420.057	1207.88
420.28	1164.88
420.503	1148.88
420.726	1179.88
420.948	1140.88
421.171	1132.88
421.394	1173.88
421.617	1171.88
421.839	1180.88
422.062	1185.88
422.285	1167.88
422.507	1196.88
422.73	1198.88
422.953	1193.88
423.175	1185.88
423.398	1193.88
423.621	1191.88
423.843	1212.88
424.066	1175.88
424.288	1146.88
424.511	1161.88
424.733	1175.88
424.956	1192.88
425.178	1148.88
425.401	1155.88
425.623	1145.88
425.846	1114.88
426.068	1141.88
426.291	1123.88
426.513	1153.88
426.735	1141.88
426.958	1116.88
427.18	1082.88
427.402	1141.88
427.625	1085.88
427.847	1065.88
428.069	1069.88
428.292	1077.88
428.514	1068.88
428.736	1071.88
428.958	1081.88
429.181	1084.88
429.403	1080.88
429.625	1046.88
429.847	1088.88
430.069	1100.88
430.292	1115.88
430.514	1149.88
430.736	1143.88
430.958	1109.88
431.18	1098.88
431.402	1034.88
431.624	1069.88
431.846	1080.88
432.068	1033.88
432.29	1043.88
432.512	1063.88
432.734	1072.88
432.956	1064.88
433.178	1079.88
433.4	1092.88
433.622	1143.88
433.844	1069.88
434.066	1080.88
434.287	1049.88
434.509	1078.88
434.731	1079.88
434.953	1097.88
435.175	1111.88
435.397	1112.88
435.618	1087.88
435.84	1074.88
436.062	1081.88
436.284	1112.88
436.505	1083.88
436.727	1087.88
436.949	1069.88
437.17	1084.88
437.392	1050.88
437.614	1049.88
437.835	1040.88
438.057	1034.88
438.278	1017.88
438.5	1072.88
438.721	1064.88
438.943	1068.88
439.165	1114.88
439.386	1130.88
439.608	1100.88
439.829	1097.88
440.05	1122.88
440.272	1151.88
440.493	1121.88
440.715	1115.88
440.936	1124.88
441.158	1124.88
441.379	1104.88
441.6	1154.88
441.822	1192.88
442.043	1241.88
442.264	1227.88
442.486	1191.88
442.707	1157.88
442.928	1135.88
443.149	1149.88
443.371	1151.88
443.592	1161.88
443.813	1169.88
444.034	1185.88
444.255	1172.88
444.476	1176.88
444.698	1247.88
444.919	1247.88
445.14	1331.88
445.361	1227.88
445.582	1173.88
445.803	1145.88
446.024	1155.88
446.245	1167.88
446.466	1137.88
446.687	1133.88
446.908	1162.88
447.129	1106.88
447.35	1102.88
447.571	1069.88
447.792	1060.88
448.013	1061.88
448.234	1044.88
448.455	1046.88
448.675	1043.88
448.896	1101.88
449.117	1099.88
449.338	1183.88
449.559	1205.88
449.779	1116.88
450	1025.88
450.221	1049.88
450.442	1019.88
450.662	1048.88
450.883	1015.88
451.104	1050.88
451.324	1027.88
451.545	1026.88
451.766	1048.88
451.986	1038.88
452.207	1082.88
452.428	1263.88
452.648	1683.88
452.869	1437.88
453.089	1147.88
453.31	1101.88
453.53	1091.88
453.751	1137.88
453.971	1185.88
454.192	1151.88
454.412	1073.88
454.633	1000.88
454.853	998.88
455.073	993.88
455.294	955.88
455.514	1011.88
455.734	964.88
455.955	957.88
456.175	986.88
456.395	981.88
456.616	984.88
456.836	987.88
457.056	980.88
457.276	974.88
457.497	1063.88
457.717	1047.88
457.937	1059.88
458.157	1055.88
458.377	1048.88
458.598	1041.88
458.818	1065.88
459.038	1048.88
459.258	1031.88
459.478	1057.88
459.698	1062.88
459.918	1095.88
460.138	1085.88
460.358	1092.88
460.578	1145.88
460.798	1173.88
461.018	1173.88
461.238	1153.88
461.458	1204.88
461.678	1177.88
461.898	1205.88
462.118	1204.88
462.338	1217.88
462.558	1232.88
462.777	1252.88
462.997	1315.88
463.217	1327.88
463.437	1395.88
463.657	1349.88
463.876	1325.88
464.096	1344.88
464.316	1274.88
464.536	1268.88
464.755	1251.88
464.975	1211.88
465.195	1180.88
465.414	1135.88
465.634	1093.88
465.854	1094.88
466.073	1080.88
466.293	1083.88
466.512	1089.88
466.732	1083.88
466.951	1129.88
467.171	1146.88
467.391	1189.88
467.61	1115.88
467.829	1095.88
468.049	1084.88
468.268	1047.88
468.488	1027.88
468.707	1045.88
468.927	1084.88
469.146	1050.88
469.365	1091.88
469.585	1068.88
469.804	1099.88
470.023	1112.88
470.243	1096.88
470.462	1145.88
470.681	1181.88
470.901	1278.88
471.12	1417.88
471.339	1408.88
471.558	1212.88
471.777	1148.88
471.997	1110.88
472.216	1063.88
472.435	1055.88
472.654	1062.88
472.873	1080.88
473.092	1048.88
473.311	1071.88
473.53	1077.88
473.749	1080.88
473.968	1095.88
474.187	1075.88
474.406	1044.88
474.625	1053.88
474.844	1083.88
475.063	1052.88
475.282	1054.88
475.501	1038.88
475.72	1057.88
475.939	1088.88
476.158	1135.88
476.377	1102.88
476.596	1103.88
476.814	1104.88
477.033	1076.88
477.252	1133.88
477.471	1177.88
477.69	1180.88
477.908	1200.88
478.127	1191.88
478.346	1205.88
478.564	1217.88
478.783	1242.88
479.002	1254.88
479.22	1227.88
479.439	1276.88
479.658	1263.88
479.876	1267.88
480.095	1256.88
480.313	1255.88
480.532	1306.88
480.751	1273.88
480.969	1279.88
481.188	1266.88
481.406	1240.88
481.624	1223.88
481.843	1254.88
482.061	1255.88
482.28	1250.88
482.498	1242.88
482.717	1274.88
482.935	1256.88
483.153	1315.88
483.372	1333.88
483.59	1341.88
483.808	1315.88
484.027	1331.88
484.245	1393.88
484.463	1495.88
484.681	1645.88
484.9	1522.88
485.118	1482.88
485.336	1457.88
485.554	1466.88
485.772	1500.88
485.99	1708.88
486.209	1775.88
486.427	1524.88
486.645	1419.88
486.863	1402.88
487.081	1330.88
487.299	1362.88
487.517	1324.88
487.735	1369.88
487.953	1352.88
488.171	1369.88
488.389	1348.88
488.607	1312.88
488.825	1287.88
489.043	1289.88
489.261	1291.88
489.479	1288.88
489.696	1340.88
489.914	1312.88
490.132	1319.88
490.35	1297.88
490.568	1351.88
490.786	1405.88
491.003	1335.88
491.221	1402.88
491.439	1409.88
491.657	1380.88
491.874	1443.88
492.092	1427.88
492.31	1456.88
492.527	1410.88
492.745	1413.88
492.963	1432.88
493.18	1399.88
493.398	1417.88
493.615	1422.88
493.833	1425.88
494.05	1404.88
494.268	1403.88
494.485	1389.88
494.703	1378.88
494.92	1407.88
495.138	1397.88
495.355	1397.88
495.573	1450.88
495.79	1407.88
496.008	1413.88
496.225	1452.88
496.442	1436.88
496.66	1479.88
496.877	1493.88
497.094	1561.88
497.312	1510.88
497.529	1444.88
497.746	1511.88
497.963	1496.88
498.181	1556.88
498.398	1610.88
498.615	1637.88
498.832	1674.88
499.049	1817.88
499.267	1870.88
499.484	1991.88
499.701	2021.88
499.918	2085.88
500.135	2243.88
500.352	2361.88
500.569	2411.88
500.786	2369.88
501.003	2262.88
501.22	2161.88
501.437	2073.88
501.654	1941.88
501.871	1863.88
502.088	1746.88
502.305	1674.88
502.522	1639.88
502.739	1627.88
502.956	1571.88
503.172	1538.88
503.389	1519.88
503.606	1473.88
503.823	1450.88
504.04	1456.88
504.256	1427.88
504.473	1426.88
504.69	1429.88
504.907	1425.88
505.123	1380.88
505.34	1331.88
505.557	1332.88
505.773	1324.88
505.99	1297.88
506.207	1279.88
506.423	1289.88
506.64	1245.88
506.856	1283.88
507.073	1247.88
507.289	1220.88
507.506	1190.88
507.722	1206.88
507.939	1203.88
508.155	1218.88
508.372	1173.88
508.588	1183.88
508.805	1205.88
509.021	1180.88
509.238	1200.88
509.454	1247.88
509.67	1298.88
509.887	1225.88
510.103	1212.88
510.319	1183.88
510.536	1169.88
510.752	1145.88
510.968	1158.88
511.184	1143.88
511.401	1163.88
511.617	1140.88
511.833	1113.88
512.049	1126.88
512.265	1128.88
512.481	1091.88
512.698	1122.88
512.914	1094.88
513.13	1125.88
513.346	1125.88
513.562	1161.88
513.778	1127.88
513.994	1141.88
514.21	1193.88
514.426	1188.88
514.642	1227.88
514.858	1197.88
515.074	1137.88
515.29	1157.88
515.506	1159.88
515.721	1148.88
515.937	1153.88
516.153	1159.88
516.369	1186.88
516.585	1201.88
516.801	1216.88
517.016	1256.88
517.232	1278.88
517.448	1285.88
517.664	1285.88
517.879	1269.88
518.095	1299.88
518.311	1245.88
518.527	1253.88
518.742	1261.88
518.958	1259.88
519.173	1239.88
519.389	1224.88
519.605	1200.88
519.82	1205.88
520.036	1180.88
520.251	1170.88
520.467	1141.88
520.682	1155.88
520.898	1122.88
521.113	1136.88
521.329	1125.88
521.544	1122.88
521.76	1115.88
521.975	1127.88
522.19	1136.88
522.406	1091.88
522.621	1116.88
522.836	1104.88
523.052	1087.88
523.267	1134.88
523.482	1090.88
523.698	1119.88
523.913	1084.88
524.128	1096.88
524.343	1103.88
524.559	1093.88
524.774	1072.88
524.989	1105.88
525.204	1079.88
525.419	1098.88
525.634	1083.88
525.849	1123.88
526.064	1079.88
526.28	1082.88
526.495	1089.88
526.71	1083.88
526.925	1112.88
527.14	1099.88
527.355	1079.88
527.57	1073.88
527.785	1101.88
527.999	1107.88
528.214	1127.88
528.429	1143.88
528.644	1145.88
528.859	1153.88
529.074	1189.88
529.289	1191.88
529.503	1187.88
529.718	1177.88
529.933	1160.88
530.148	1155.88
530.363	1169.88
530.577	1124.88
530.792	1120.88
531.007	1143.88
531.221	1159.88
531.436	1167.88
531.651	1200.88
531.865	1200.88
532.08	1180.88
532.295	1212.88
532.509	1267.88
532.724	1307.88
532.938	1316.88
533.153	1321.88
533.367	1375.88
533.582	1367.88
533.796	1401.88
534.011	1371.88
534.225	1350.88
534.44	1320.88
534.654	1333.88
534.868	1291.88
535.083	1268.88
535.297	1234.88
535.511	1240.88
535.726	1249.88
535.94	1210.88
536.154	1209.88
536.369	1177.88
536.583	1164.88
536.797	1149.88
537.011	1143.88
537.225	1120.88
537.44	1157.88
537.654	1139.88
537.868	1110.88
538.082	1126.88
538.296	1105.88
538.51	1082.88
538.724	1098.88
538.938	1085.88
539.153	1076.88
539.367	1107.88
539.581	1056.88
539.795	1056.88
540.009	1063.88
540.222	1045.88
540.436	1067.88
540.65	1059.88
540.864	1069.88
541.078	1083.88
541.292	1161.88
541.506	1294.88
541.72	1339.88
541.934	1224.88
542.147	1212.88
542.361	1124.88
542.575	1083.88
542.789	1084.88
543.002	1047.88
543.216	1025.88
543.43	1038.88
543.644	1019.88
543.857	1057.88
544.071	1066.88
544.285	1095.88
544.498	1073.88
544.712	1083.88
544.925	1092.88
545.139	1118.88
545.352	1083.88
545.566	1052.88
545.779	1096.88
545.993	1087.88
546.206	1092.88
546.42	1079.88
546.633	1053.88
546.847	1091.88
547.06	1071.88
547.274	1084.88
547.487	1066.88
547.7	1076.88
547.914	1102.88
548.127	1113.88
548.34	1074.88
548.554	1065.88
548.767	1075.88
548.98	1067.88
549.193	1088.88
549.407	1073.88
549.62	1052.88
549.833	1094.88
550.046	1088.88
550.259	1057.88
550.473	1073.88
550.686	1060.88
550.899	1068.88
551.112	1060.88
551.325	1068.88
551.538	1052.88
551.751	1036.88
551.964	1059.88
552.177	1080.88
552.39	1100.88
552.603	1108.88
552.816	1119.88
553.029	1144.88
553.242	1147.88
553.455	1185.88
553.667	1188.88
553.88	1165.88
554.093	1190.88
554.306	1170.88
554.519	1173.88
554.732	1186.88
554.944	1208.88
555.157	1240.88
555.37	1260.88
555.583	1276.88
555.795	1288.88
556.008	1401.88
556.221	1468.88
556.433	1568.88
556.646	1557.88
556.859	1509.88
557.071	1507.88
557.284	1437.88
557.496	1421.88
557.709	1440.88
557.921	1449.88
558.134	1416.88
558.346	1437.88
558.559	1450.88
558.771	1516.88
558.984	1599.88
559.196	1642.88
559.409	1599.88
559.621	1539.88
559.833	1458.88
560.046	1389.88
560.258	1382.88
560.47	1322.88
560.683	1240.88
560.895	1210.88
561.107	1193.88
561.32	1171.88
561.532	1150.88
561.744	1118.88
561.956	1104.88
562.168	1116.88
562.381	1071.88
562.593	1057.88
562.805	1087.88
563.017	1067.88
563.229	1105.88
563.441	1162.88
563.653	1080.88
563.865	1039.88
564.077	1019.88
564.289	974.88
564.501	963.88
564.713	988.88
564.925	981.88
565.137	976.88
565.349	980.88
565.561	1010.88
565.773	992.88
565.985	996.88
566.197	1010.88
566.408	996.88
566.62	1044.88
566.832	1097.88
567.044	1115.88
567.255	1089.88
567.467	1098.88
567.679	1121.88
567.891	1152.88
568.102	1270.88
568.314	1415.88
568.526	1223.88
568.737	1095.88
568.949	1031.88
569.161	971.88
569.372	917.88
569.584	920.88
569.795	888.88
570.007	873.88
570.218	897.88
570.43	903.88
570.641	852.88
570.853	851.88
571.064	837.88
571.276	811.88
571.487	809.88
571.698	804.88
571.91	787.88
572.121	800.88
572.333	785.88
572.544	787.88
572.755	823.88
572.966	897.88
573.178	831.88
573.389	781.88
573.6	754.88
573.811	751.88
574.023	713.88
574.234	723.88
574.445	709.88
574.656	728.88
574.867	736.88
575.078	710.88
575.289	726.88
575.501	718.88
575.712	701.88
575.923	707.88
576.134	692.88
576.345	721.88
576.556	742.88
576.767	715.88
576.978	736.88
577.188	730.88
577.399	706.88
577.61	727.88
577.821	704.88
578.032	739.88
578.243	735.88
578.454	737.88
578.665	764.88
578.875	799.88
579.086	799.88
579.297	832.88
579.508	859.88
579.718	889.88
579.929	972.88
580.14	1083.88
580.35	1104.88
580.561	1065.88
580.772	994.88
580.982	935.88
581.193	896.88
581.403	866.88
581.614	868.88
581.825	820.88
582.035	799.88
582.246	774.88
582.456	752.88
582.667	727.88
582.877	723.88
583.087	707.88
583.298	698.88
583.508	680.88
583.719	653.88
583.929	641.88
584.139	630.88
584.35	638.88
584.56	610.88
584.77	628.88
584.981	609.88
585.191	616.88
585.401	565.88
585.611	587.88
585.821	584.88
586.032	604.88
586.242	617.88
586.452	587.88
586.662	589.88
586.872	562.88
587.082	572.88
587.292	566.88
587.502	540.88
587.713	557.88
587.923	555.88
588.133	554.88
588.343	540.88
588.553	525.88
588.762	532.88
588.972	533.88
589.182	526.88
589.392	537.88
589.602	524.88
589.812	501.88
590.022	519.88
590.232	527.88
590.441	514.88
590.651	502.88
590.861	505.88
591.071	505.88
591.281	535.88
591.49	505.88
591.7	517.88
591.91	520.88
592.119	527.88
592.329	521.88
592.539	507.88
592.748	530.88
592.958	534.88
593.167	533.88
593.377	536.88
593.587	560.88
593.796	550.88
594.006	547.88
594.215	539.88
594.424	544.88
594.634	536.88
594.843	517.88
595.053	543.88
595.262	519.88
595.472	503.88
595.681	495.88
595.89	479.88
596.1	459.88
596.309	470.88
596.518	487.88
596.727	464.88
596.937	482.88
597.146	461.88
597.355	470.88
597.564	456.88
597.774	429.88
597.983	468.88
598.192	423.88
598.401	455.88
598.61	426.88
598.819	441.88
599.028	442.88
599.237	421.88
599.446	444.88
599.655	420.88
599.864	425.88
600.073	412.88
600.282	424.88
600.491	430.88
600.7	420.88
600.909	436.88
601.118	429.88
601.327	417.88
601.536	427.88
601.745	439.88
601.953	472.88
602.162	505.88
602.371	456.88
602.58	443.88
602.789	440.88
602.997	408.88
603.206	432.88
603.415	410.88
603.623	439.88
603.832	410.88
604.041	412.88
604.249	382.88
604.458	422.88
604.666	404.88
604.875	408.88
605.084	402.88
605.292	402.88
605.501	402.88
605.709	402.88
605.918	405.88
606.126	402.88
606.334	418.88
606.543	427.88
606.751	452.88
606.96	465.88
607.168	513.88
607.376	451.88
607.585	440.88
607.793	431.88
608.001	417.88
608.21	405.88
608.418	402.88
608.626	393.88
608.834	405.88
609.043	418.88
609.251	402.88
609.459	387.88
609.667	392.88
609.875	403.88
610.083	385.88
610.291	392.88
610.499	377.88
610.707	401.88
610.916	384.88
611.124	380.88
611.332	379.88
611.54	386.88
611.748	379.88
611.955	388.88
612.163	383.88
612.371	379.88
612.579	379.88
612.787	391.88
612.995	380.88
613.203	381.88
613.411	387.88
613.618	384.88
613.826	393.88
614.034	365.88
614.242	379.88
614.449	349.88
614.657	378.88
614.865	356.88
615.072	357.88
615.28	384.88
615.488	389.88
615.695	382.88
615.903	384.88
616.111	382.88
616.318	377.88
616.526	372.88
616.733	363.88
616.941	362.88
617.148	371.88
617.356	368.88
617.563	375.88
617.771	354.88
617.978	363.88
618.185	372.88
618.393	374.88
618.6	354.88
618.807	377.88
619.015	373.88
619.222	354.88
619.429	364.88
619.637	359.88
619.844	362.88
620.051	349.88
620.258	361.88
620.466	373.88
620.673	330.88
620.88	319.88
621.087	332.88
621.294	329.88
621.501	319.88
621.708	331.88
621.915	338.88
622.122	333.88
622.329	340.88
622.536	335.88
622.743	360.88
622.95	346.88
623.157	325.88
623.364	355.88
623.571	343.88
623.778	339.88
623.985	336.88
624.192	341.88
624.399	346.88
624.606	342.88
624.812	340.88
625.019	315.88
625.226	332.88
625.433	324.88
625.639	313.88
625.846	289.88
626.053	310.88
626.259	298.88
626.466	317.88
626.673	316.88
626.879	306.88
627.086	306.88
627.293	291.88
627.499	292.88
627.706	320.88
627.912	299.88
628.119	319.88
628.325	308.88
628.532	309.88
628.738	306.88
628.945	305.88
629.151	315.88
629.357	298.88
629.564	294.88
629.77	309.88
629.976	311.88
630.183	296.88
630.389	300.88
630.595	320.88
630.802	309.88
631.008	290.88
631.214	307.88
631.42	301.88
631.627	307.88
631.833	300.88
632.039	296.88
632.245	271.88
632.451	286.88
632.657	303.88
632.863	296.88
633.069	281.88
633.275	305.88
633.481	288.88
633.688	293.88
633.893	305.88
634.099	291.88
634.305	278.88
634.511	281.88
634.717	293.88
634.923	301.88
635.129	316.88
635.335	338.88
635.541	317.88
635.747	283.88
635.952	304.88
636.158	293.88
636.364	279.88
636.57	293.88
636.775	297.88
636.981	300.88
637.187	303.88
637.392	309.88
637.598	292.88
637.804	311.88
638.009	283.88
638.215	281.88
638.421	303.88
638.626	284.88
638.832	300.88
639.037	312.88
639.243	300.88
639.448	292.88
639.654	289.88
639.859	293.88
640.065	304.88
640.27	320.88
640.475	295.88
640.681	303.88
640.886	307.88
641.091	324.88
641.297	310.88
641.502	296.88
641.707	317.88
641.913	321.88
642.118	308.88
642.323	321.88
642.528	327.88
642.733	333.88
642.939	328.88
643.144	348.88
643.349	342.88
643.554	359.88
643.759	357.88
643.964	375.88
644.169	408.88
644.374	408.88
644.579	437.88
644.784	469.88
644.989	494.88
645.194	588.88
645.399	643.88
645.604	646.88
645.809	528.88
646.014	438.88
646.219	398.88
646.423	373.88
646.628	352.88
646.833	325.88
647.038	293.88
647.243	322.88
647.447	289.88
647.652	307.88
647.857	290.88
648.062	292.88
648.266	281.88
648.471	286.88
648.676	278.88
648.88	272.88
649.085	261.88
649.289	260.88
649.494	265.88
649.698	257.88
649.903	234.88
650.107	247.88
650.312	257.88
650.516	243.88
650.721	240.88
650.925	239.88
651.13	223.88
651.334	240.88
651.539	240.88
651.743	235.88
651.947	226.88
652.152	243.88
652.356	227.88
652.56	227.88
652.764	239.88
652.969	243.88
653.173	229.88
653.377	210.88
653.581	204.88
653.785	213.88
653.99	204.88
654.194	201.88
654.398	222.88
654.602	195.88
654.806	183.88
655.01	195.88
655.214	193.88
655.418	202.88
655.622	212.88
655.826	202.88
656.03	200.88
656.234	224.88
656.438	205.88
656.642	222.88
656.846	204.88
657.049	195.88
657.253	188.88
657.457	175.88
657.661	182.88
657.865	156.88
658.068	166.88
658.272	160.88
658.476	136.88
658.68	139.88
658.883	137.88
659.087	133.88
659.291	131.88
659.494	119.88
659.698	124.88
659.901	122.88
660.105	131.88
660.309	113.88
660.512	117.88
660.716	122.88
660.919	115.88
661.123	102.88
661.326	119.88
661.53	106.88
661.733	89.88
661.936	83.88
662.14	85.88
662.343	90.88
662.546	87.88
662.75	85.88
662.953	95.88
663.156	84.88
663.36	84.88
663.563	76.88
663.766	90.88
663.969	95.88
664.173	85.88
664.376	75.88
664.579	79.88
664.782	91.88
664.985	102.88
665.188	91.88
665.391	80.88
665.594	93.88
665.797	75.88
666	80.88
666.203	84.88
666.406	75.88
666.609	93.88
666.812	85.88
667.015	98.88
667.218	68.88
667.421	79.88
667.624	77.88
667.827	76.88
668.03	86.88
668.232	80.88
668.435	82.88
668.638	85.88
668.841	81.88
669.043	97.88
669.246	89.88
669.449	77.88
669.651	104.88
669.854	90.88
670.057	81.88
670.259	77.88
670.462	85.88
670.665	97.88
670.867	82.88
671.07	78.88
671.272	79.88
671.475	85.88
671.677	89.88
671.88	72.88
672.082	88.88
672.284	84.88
672.487	61.88
672.689	91.88
672.892	75.88
