Data from SnStandardFlinnAPT0064_LampEnergy5.5_LIBS07252019.E.O._I.C._HRD10591_15-16-15-491.txt Node
Date: Thu Jul 25 15:16:15 EDT 2019
User: cochatt
Spectrometer: HR+D1059
Trigger mode: 1
Integration Time (sec): 1.000000E-1
Scans to average: 1
Electric dark correction enabled: true
Nonlinearity correction enabled: false
Boxcar width: 0
XAxis mode: Wavelengths
Number of Pixels in Spectrum: 2048
>>>>>Begin Spectral Data<<<<<
223.165	-18.31
223.4	-18.31
223.635	-18.31
223.869	1.69
224.104	-13.31
224.338	-13.31
224.573	-28.31
224.808	-19.31
225.042	-11.31
225.277	-4.31
225.511	-8.31
225.746	16.69
225.98	-6.31
226.215	4.69
226.449	15.69
226.683	33.69
226.918	24.69
227.152	25.69
227.387	38.69
227.621	53.69
227.856	44.69
228.09	46.69
228.324	45.69
228.559	71.69
228.793	85.69
229.027	149.69
229.262	163.69
229.496	147.69
229.73	157.69
229.964	174.69
230.199	151.69
230.433	165.69
230.667	170.69
230.901	177.69
231.136	185.69
231.37	185.69
231.604	195.69
231.838	206.69
232.072	230.69
232.306	254.69
232.541	206.69
232.775	220.69
233.009	209.69
233.243	203.69
233.477	221.69
233.711	239.69
233.945	255.69
234.179	238.69
234.413	222.69
234.647	216.69
234.881	222.69
235.115	249.69
235.349	298.69
235.583	325.69
235.817	416.69
236.051	414.69
236.285	302.69
236.519	263.69
236.753	230.69
236.987	230.69
237.221	239.69
237.455	241.69
237.689	220.69
237.922	218.69
238.156	238.69
238.39	226.69
238.624	237.69
238.858	234.69
239.091	226.69
239.325	236.69
239.559	256.69
239.793	226.69
240.027	252.69
240.26	256.69
240.494	258.69
240.728	275.69
240.961	290.69
241.195	290.69
241.429	309.69
241.662	323.69
241.896	356.69
242.13	397.69
242.363	500.69
242.597	642.69
242.83	602.69
243.064	613.69
243.298	716.69
243.531	612.69
243.765	409.69
243.998	355.69
244.232	301.69
244.465	307.69
244.699	279.69
244.932	309.69
245.166	308.69
245.399	314.69
245.633	323.69
245.866	317.69
246.099	297.69
246.333	299.69
246.566	312.69
246.8	298.69
247.033	299.69
247.266	303.69
247.5	280.69
247.733	329.69
247.966	323.69
248.2	337.69
248.433	379.69
248.666	414.69
248.899	421.69
249.133	372.69
249.366	358.69
249.599	381.69
249.832	437.69
250.066	451.69
250.299	381.69
250.532	341.69
250.765	354.69
250.998	333.69
251.231	328.69
251.465	330.69
251.698	345.69
251.931	335.69
252.164	334.69
252.397	351.69
252.63	349.69
252.863	342.69
253.096	349.69
253.329	326.69
253.562	347.69
253.795	354.69
254.028	376.69
254.261	357.69
254.494	377.69
254.727	424.69
254.96	489.69
255.193	509.69
255.426	412.69
255.659	391.69
255.892	377.69
256.124	369.69
256.357	381.69
256.59	399.69
256.823	418.69
257.056	458.69
257.289	550.69
257.521	581.69
257.754	479.69
257.987	413.69
258.22	417.69
258.452	392.69
258.685	414.69
258.918	410.69
259.151	430.69
259.383	450.69
259.616	502.69
259.849	507.69
260.081	468.69
260.314	447.69
260.547	405.69
260.779	433.69
261.012	422.69
261.244	437.69
261.477	449.69
261.71	446.69
261.942	477.69
262.175	489.69
262.407	478.69
262.64	479.69
262.872	490.69
263.105	514.69
263.337	545.69
263.57	558.69
263.802	587.69
264.035	573.69
264.267	588.69
264.499	617.69
264.732	629.69
264.964	644.69
265.197	637.69
265.429	641.69
265.661	649.69
265.894	694.69
266.126	754.69
266.358	800.69
266.591	762.69
266.823	700.69
267.055	641.69
267.287	603.69
267.52	583.69
267.752	567.69
267.984	555.69
268.216	550.69
268.448	551.69
268.681	545.69
268.913	543.69
269.145	541.69
269.377	535.69
269.609	533.69
269.841	578.69
270.073	582.69
270.306	694.69
270.538	886.69
270.77	1261.69
271.002	1519.69
271.234	1080.69
271.466	750.69
271.698	633.69
271.93	567.69
272.162	569.69
272.394	545.69
272.626	525.69
272.858	537.69
273.09	539.69
273.322	563.69
273.553	511.69
273.785	538.69
274.017	531.69
274.249	519.69
274.481	522.69
274.713	519.69
274.945	537.69
275.176	548.69
275.408	566.69
275.64	547.69
275.872	546.69
276.104	561.69
276.335	574.69
276.567	566.69
276.799	532.69
277.031	562.69
277.262	565.69
277.494	601.69
277.726	641.69
277.957	744.69
278.189	806.69
278.421	771.69
278.652	694.69
278.884	652.69
279.115	636.69
279.347	606.69
279.579	602.69
279.81	610.69
280.042	596.69
280.273	620.69
280.505	627.69
280.736	604.69
280.968	639.69
281.199	726.69
281.431	799.69
281.662	795.69
281.894	727.69
282.125	676.69
282.356	673.69
282.588	693.69
282.819	723.69
283.051	733.69
283.282	826.69
283.513	1014.69
283.745	1380.69
283.976	2219.69
284.207	3093.69
284.439	2772.69
284.67	1718.69
284.901	1355.69
285.132	1335.69
285.364	1278.69
285.595	1055.69
285.826	943.69
286.057	1119.69
286.288	1491.69
286.52	1960.69
286.751	1834.69
286.982	1172.69
287.213	905.69
287.444	805.69
287.675	755.69
287.906	741.69
288.138	708.69
288.369	730.69
288.6	698.69
288.831	726.69
289.062	731.69
289.293	739.69
289.524	708.69
289.755	717.69
289.986	731.69
290.217	731.69
290.448	719.69
290.679	723.69
290.91	745.69
291.141	757.69
291.371	837.69
291.602	818.69
291.833	761.69
292.064	730.69
292.295	703.69
292.526	678.69
292.757	693.69
292.987	672.69
293.218	675.69
293.449	682.69
293.68	675.69
293.91	655.69
294.141	660.69
294.372	670.69
294.603	676.69
294.833	663.69
295.064	667.69
295.295	660.69
295.525	677.69
295.756	692.69
295.987	653.69
296.217	674.69
296.448	661.69
296.679	691.69
296.909	692.69
297.14	693.69
297.37	673.69
297.601	674.69
297.831	690.69
298.062	692.69
298.292	690.69
298.523	728.69
298.753	707.69
298.984	728.69
299.214	712.69
299.445	739.69
299.675	736.69
299.905	760.69
300.136	794.69
300.366	881.69
300.597	1094.69
300.827	1451.69
301.057	1965.69
301.288	1936.69
301.518	1314.69
301.748	1026.69
301.979	936.69
302.209	923.69
302.439	911.69
302.669	982.69
302.9	1125.69
303.13	1591.69
303.36	2270.69
303.59	3005.69
303.82	2620.69
304.051	1548.69
304.281	1152.69
304.511	979.69
304.741	883.69
304.971	876.69
305.201	847.69
305.431	817.69
305.661	821.69
305.891	792.69
306.121	794.69
306.352	783.69
306.582	798.69
306.812	790.69
307.042	794.69
307.272	817.69
307.502	783.69
307.731	739.69
307.961	777.69
308.191	770.69
308.421	779.69
308.651	746.69
308.881	778.69
309.111	793.69
309.341	743.69
309.571	794.69
309.8	771.69
310.03	793.69
310.26	751.69
310.49	796.69
310.72	779.69
310.949	814.69
311.179	792.69
311.409	793.69
311.639	811.69
311.868	818.69
312.098	833.69
312.328	795.69
312.557	805.69
312.787	837.69
313.017	846.69
313.246	839.69
313.476	838.69
313.706	878.69
313.935	908.69
314.165	935.69
314.394	953.69
314.624	950.69
314.853	902.69
315.083	901.69
315.312	891.69
315.542	938.69
315.771	915.69
316.001	923.69
316.23	957.69
316.46	976.69
316.689	1069.69
316.919	1285.69
317.148	1787.69
317.377	2717.69
317.607	4048.69
317.836	4114.69
318.065	2424.69
318.295	1599.69
318.524	1285.69
318.753	1185.69
318.983	1062.69
319.212	1053.69
319.441	1049.69
319.67	990.69
319.9	974.69
320.129	999.69
320.358	990.69
320.587	978.69
320.816	984.69
321.046	988.69
321.275	951.69
321.504	1002.69
321.733	1010.69
321.962	1037.69
322.191	1044.69
322.42	1015.69
322.649	1025.69
322.878	1019.69
323.108	1037.69
323.337	1048.69
323.566	1052.69
323.795	1059.69
324.024	1084.69
324.253	1101.69
324.482	1155.69
324.71	1220.69
324.939	1235.69
325.168	1270.69
325.397	1329.69
325.626	1561.69
325.855	2159.69
326.084	3306.69
326.313	4947.69
326.542	5085.69
326.77	3261.69
326.999	2168.69
327.228	1867.69
327.457	1768.69
327.686	1811.69
327.914	1921.69
328.143	2170.69
328.372	2542.69
328.6	2711.69
328.829	2523.69
329.058	2186.69
329.287	1949.69
329.515	1811.69
329.744	1682.69
329.972	1620.69
330.201	1576.69
330.43	1479.69
330.658	1448.69
330.887	1441.69
331.115	1408.69
331.344	1399.69
331.572	1404.69
331.801	1387.69
332.03	1419.69
332.258	1418.69
332.486	1512.69
332.715	1672.69
332.943	2005.69
333.172	2417.69
333.4	2419.69
333.629	1894.69
333.857	1720.69
334.085	1774.69
334.314	1860.69
334.542	1983.69
334.771	2252.69
334.999	2732.69
335.227	3326.69
335.455	3621.69
335.684	3321.69
335.912	2907.69
336.14	2489.69
336.369	2193.69
336.597	2053.69
336.825	1881.69
337.053	1825.69
337.281	1728.69
337.51	1603.69
337.738	1579.69
337.966	1497.69
338.194	1436.69
338.422	1418.69
338.65	1370.69
338.878	1353.69
339.106	1342.69
339.334	1317.69
339.562	1302.69
339.79	1276.69
340.018	1252.69
340.246	1203.69
340.474	1255.69
340.702	1267.69
340.93	1244.69
341.158	1239.69
341.386	1229.69
341.614	1248.69
341.842	1210.69
342.07	1207.69
342.298	1162.69
342.526	1138.69
342.754	1139.69
342.981	1155.69
343.209	1130.69
343.437	1155.69
343.665	1171.69
343.893	1166.69
344.12	1181.69
344.348	1170.69
344.576	1116.69
344.804	1132.69
345.031	1072.69
345.259	1094.69
345.487	1118.69
345.714	1103.69
345.942	1076.69
346.17	1057.69
346.397	1053.69
346.625	1039.69
346.853	1032.69
347.08	1050.69
347.308	1054.69
347.535	1084.69
347.763	1060.69
347.99	1048.69
348.218	1041.69
348.445	1067.69
348.673	1065.69
348.9	1042.69
349.128	1047.69
349.355	1046.69
349.583	1047.69
349.81	1056.69
350.037	1045.69
350.265	1031.69
350.492	1015.69
350.72	1012.69
350.947	1020.69
351.174	1013.69
351.402	997.69
351.629	1021.69
351.856	1009.69
352.083	1009.69
352.311	987.69
352.538	997.69
352.765	1011.69
352.992	1021.69
353.22	1029.69
353.447	1011.69
353.674	992.69
353.901	1013.69
354.128	1022.69
354.355	1034.69
354.583	1000.69
354.81	1039.69
355.037	1023.69
355.264	1051.69
355.491	1045.69
355.718	1055.69
355.945	1060.69
356.172	1081.69
356.399	1046.69
356.626	1059.69
356.853	1038.69
357.08	1053.69
357.307	1075.69
357.534	1079.69
357.761	1065.69
357.988	1066.69
358.215	1102.69
358.441	1063.69
358.668	1067.69
358.895	1081.69
359.122	1075.69
359.349	1057.69
359.576	1080.69
359.802	1069.69
360.029	1043.69
360.256	1074.69
360.483	1081.69
360.709	1071.69
360.936	1062.69
361.163	1097.69
361.39	1091.69
361.616	1074.69
361.843	1090.69
362.07	1078.69
362.296	1080.69
362.523	1081.69
362.749	1050.69
362.976	1066.69
363.203	1089.69
363.429	1070.69
363.656	1065.69
363.882	1067.69
364.109	1086.69
364.335	1079.69
364.562	1087.69
364.788	1068.69
365.015	1086.69
365.241	1115.69
365.468	1160.69
365.694	1185.69
365.92	1183.69
366.147	1108.69
366.373	1107.69
366.599	1091.69
366.826	1098.69
367.052	1101.69
367.278	1139.69
367.505	1099.69
367.731	1103.69
367.957	1111.69
368.184	1106.69
368.41	1147.69
368.636	1113.69
368.862	1110.69
369.089	1102.69
369.315	1099.69
369.541	1121.69
369.767	1122.69
369.993	1104.69
370.219	1099.69
370.445	1115.69
370.672	1098.69
370.898	1142.69
371.124	1142.69
371.35	1138.69
371.576	1156.69
371.802	1178.69
372.028	1181.69
372.254	1191.69
372.48	1179.69
372.706	1179.69
372.932	1195.69
373.158	1162.69
373.384	1188.69
373.61	1205.69
373.835	1191.69
374.061	1191.69
374.287	1206.69
374.513	1211.69
374.739	1232.69
374.965	1234.69
375.191	1237.69
375.416	1226.69
375.642	1171.69
375.868	1191.69
376.094	1172.69
376.319	1178.69
376.545	1191.69
376.771	1162.69
376.997	1172.69
377.222	1189.69
377.448	1153.69
377.674	1181.69
377.899	1155.69
378.125	1159.69
378.35	1159.69
378.576	1167.69
378.802	1210.69
379.027	1176.69
379.253	1216.69
379.478	1263.69
379.704	1463.69
379.929	2015.69
380.155	2926.69
380.38	3089.69
380.606	1997.69
380.831	1453.69
381.057	1304.69
381.282	1239.69
381.507	1192.69
381.733	1169.69
381.958	1172.69
382.184	1154.69
382.409	1159.69
382.634	1122.69
382.86	1123.69
383.085	1150.69
383.31	1141.69
383.535	1178.69
383.761	1163.69
383.986	1190.69
384.211	1173.69
384.436	1177.69
384.662	1166.69
384.887	1169.69
385.112	1165.69
385.337	1177.69
385.562	1193.69
385.787	1164.69
386.013	1180.69
386.238	1182.69
386.463	1189.69
386.688	1201.69
386.913	1177.69
387.138	1191.69
387.363	1188.69
387.588	1195.69
387.813	1194.69
388.038	1163.69
388.263	1174.69
388.488	1168.69
388.713	1170.69
388.938	1197.69
389.163	1197.69
389.387	1176.69
389.612	1203.69
389.837	1204.69
390.062	1168.69
390.287	1208.69
390.512	1223.69
390.736	1210.69
390.961	1244.69
391.186	1225.69
391.411	1220.69
391.636	1242.69
391.86	1281.69
392.085	1269.69
392.31	1283.69
392.534	1226.69
392.759	1240.69
392.984	1231.69
393.208	1211.69
393.433	1253.69
393.658	1261.69
393.882	1211.69
394.107	1224.69
394.331	1205.69
394.556	1212.69
394.78	1247.69
395.005	1218.69
395.229	1243.69
395.454	1251.69
395.678	1232.69
395.903	1213.69
396.127	1244.69
396.352	1214.69
396.576	1229.69
396.801	1242.69
397.025	1290.69
397.249	1269.69
397.474	1293.69
397.698	1274.69
397.922	1289.69
398.147	1273.69
398.371	1259.69
398.595	1295.69
398.82	1360.69
399.044	1385.69
399.268	1439.69
399.492	1529.69
399.717	1589.69
399.941	1609.69
400.165	1530.69
400.389	1484.69
400.613	1391.69
400.837	1372.69
401.062	1350.69
401.286	1299.69
401.51	1323.69
401.734	1309.69
401.958	1335.69
402.182	1322.69
402.406	1325.69
402.63	1324.69
402.854	1336.69
403.078	1355.69
403.302	1370.69
403.526	1372.69
403.75	1375.69
403.974	1370.69
404.198	1359.69
404.422	1403.69
404.645	1405.69
404.869	1339.69
405.093	1375.69
405.317	1384.69
405.541	1409.69
405.765	1390.69
405.988	1387.69
406.212	1372.69
406.436	1389.69
406.66	1440.69
406.883	1404.69
407.107	1438.69
407.331	1484.69
407.555	1479.69
407.778	1465.69
408.002	1479.69
408.226	1455.69
408.449	1412.69
408.673	1381.69
408.896	1390.69
409.12	1379.69
409.344	1388.69
409.567	1349.69
409.791	1380.69
410.014	1369.69
410.238	1377.69
410.461	1327.69
410.685	1322.69
410.908	1331.69
411.132	1358.69
411.355	1326.69
411.578	1309.69
411.802	1319.69
412.025	1309.69
412.249	1345.69
412.472	1310.69
412.695	1296.69
412.919	1331.69
413.142	1281.69
413.365	1287.69
413.589	1303.69
413.812	1289.69
414.035	1313.69
414.258	1282.69
414.482	1296.69
414.705	1292.69
414.928	1310.69
415.151	1302.69
415.374	1302.69
415.597	1309.69
415.821	1258.69
416.044	1223.69
416.267	1240.69
416.49	1285.69
416.713	1228.69
416.936	1243.69
417.159	1266.69
417.382	1233.69
417.605	1225.69
417.828	1228.69
418.051	1227.69
418.274	1259.69
418.497	1253.69
418.72	1276.69
418.943	1277.69
419.166	1310.69
419.389	1373.69
419.611	1349.69
419.834	1317.69
420.057	1323.69
420.28	1239.69
420.503	1251.69
420.726	1232.69
420.948	1208.69
421.171	1246.69
421.394	1261.69
421.617	1255.69
421.839	1267.69
422.062	1265.69
422.285	1241.69
422.507	1277.69
422.73	1287.69
422.953	1268.69
423.175	1281.69
423.398	1273.69
423.621	1250.69
423.843	1258.69
424.066	1255.69
424.288	1270.69
424.511	1271.69
424.733	1257.69
424.956	1234.69
425.178	1231.69
425.401	1240.69
425.623	1265.69
425.846	1231.69
426.068	1189.69
426.291	1192.69
426.513	1239.69
426.735	1194.69
426.958	1245.69
427.18	1177.69
427.402	1177.69
427.625	1181.69
427.847	1206.69
428.069	1139.69
428.292	1173.69
428.514	1186.69
428.736	1161.69
428.958	1150.69
429.181	1161.69
429.403	1140.69
429.625	1139.69
429.847	1150.69
430.069	1149.69
430.292	1176.69
430.514	1230.69
430.736	1230.69
430.958	1168.69
431.18	1142.69
431.402	1148.69
431.624	1137.69
431.846	1153.69
432.068	1134.69
432.29	1107.69
432.512	1108.69
432.734	1148.69
432.956	1150.69
433.178	1172.69
433.4	1193.69
433.622	1165.69
433.844	1188.69
434.066	1168.69
434.287	1143.69
434.509	1153.69
434.731	1178.69
434.953	1206.69
435.175	1205.69
435.397	1206.69
435.618	1167.69
435.84	1167.69
436.062	1134.69
436.284	1117.69
436.505	1125.69
436.727	1171.69
436.949	1130.69
437.17	1135.69
437.392	1128.69
437.614	1122.69
437.835	1105.69
438.057	1123.69
438.278	1128.69
438.5	1125.69
438.721	1137.69
438.943	1150.69
439.165	1181.69
439.386	1225.69
439.608	1202.69
439.829	1188.69
440.05	1251.69
440.272	1251.69
440.493	1225.69
440.715	1180.69
440.936	1191.69
441.158	1216.69
441.379	1210.69
441.6	1234.69
441.822	1235.69
442.043	1325.69
442.264	1354.69
442.486	1284.69
442.707	1265.69
442.928	1221.69
443.149	1216.69
443.371	1236.69
443.592	1243.69
443.813	1222.69
444.034	1238.69
444.255	1239.69
444.476	1308.69
444.698	1361.69
444.919	1323.69
445.14	1401.69
445.361	1356.69
445.582	1301.69
445.803	1227.69
446.024	1246.69
446.245	1209.69
446.466	1222.69
446.687	1199.69
446.908	1226.69
447.129	1192.69
447.35	1167.69
447.571	1202.69
447.792	1132.69
448.013	1128.69
448.234	1147.69
448.455	1136.69
448.675	1148.69
448.896	1163.69
449.117	1197.69
449.338	1310.69
449.559	1330.69
449.779	1189.69
450	1153.69
450.221	1118.69
450.442	1118.69
450.662	1115.69
450.883	1101.69
451.104	1113.69
451.324	1103.69
451.545	1119.69
451.766	1118.69
451.986	1139.69
452.207	1165.69
452.428	1443.69
452.648	1938.69
452.869	1685.69
453.089	1276.69
453.31	1207.69
453.53	1214.69
453.751	1250.69
453.971	1294.69
454.192	1309.69
454.412	1154.69
454.633	1096.69
454.853	1080.69
455.073	1048.69
455.294	1059.69
455.514	1042.69
455.734	1006.69
455.955	1035.69
456.175	1053.69
456.395	1082.69
456.616	1057.69
456.836	1061.69
457.056	1070.69
457.276	1084.69
457.497	1123.69
457.717	1135.69
457.937	1095.69
458.157	1092.69
458.377	1083.69
458.598	1108.69
458.818	1130.69
459.038	1140.69
459.258	1102.69
459.478	1151.69
459.698	1146.69
459.918	1186.69
460.138	1173.69
460.358	1237.69
460.578	1214.69
460.798	1251.69
461.018	1265.69
461.238	1235.69
461.458	1258.69
461.678	1253.69
461.898	1292.69
462.118	1269.69
462.338	1335.69
462.558	1327.69
462.777	1382.69
462.997	1414.69
463.217	1479.69
463.437	1459.69
463.657	1481.69
463.876	1483.69
464.096	1419.69
464.316	1371.69
464.536	1366.69
464.755	1337.69
464.975	1303.69
465.195	1275.69
465.414	1242.69
465.634	1202.69
465.854	1199.69
466.073	1187.69
466.293	1166.69
466.512	1139.69
466.732	1164.69
466.951	1210.69
467.171	1267.69
467.391	1233.69
467.61	1186.69
467.829	1137.69
468.049	1121.69
468.268	1147.69
468.488	1130.69
468.707	1131.69
468.927	1140.69
469.146	1109.69
469.365	1128.69
469.585	1139.69
469.804	1169.69
470.023	1193.69
470.243	1213.69
470.462	1213.69
470.681	1279.69
470.901	1399.69
471.12	1589.69
471.339	1574.69
471.558	1322.69
471.777	1254.69
471.997	1167.69
472.216	1168.69
472.435	1149.69
472.654	1107.69
472.873	1120.69
473.092	1130.69
473.311	1145.69
473.53	1128.69
473.749	1161.69
473.968	1165.69
474.187	1141.69
474.406	1138.69
474.625	1161.69
474.844	1142.69
475.063	1135.69
475.282	1155.69
475.501	1124.69
475.72	1137.69
475.939	1149.69
476.158	1176.69
476.377	1231.69
476.596	1181.69
476.814	1190.69
477.033	1175.69
477.252	1191.69
477.471	1209.69
477.69	1261.69
477.908	1270.69
478.127	1253.69
478.346	1273.69
478.564	1321.69
478.783	1329.69
479.002	1306.69
479.22	1359.69
479.439	1360.69
479.658	1347.69
479.876	1370.69
480.095	1363.69
480.313	1389.69
480.532	1408.69
480.751	1385.69
480.969	1369.69
481.188	1362.69
481.406	1326.69
481.624	1333.69
481.843	1349.69
482.061	1354.69
482.28	1380.69
482.498	1308.69
482.717	1324.69
482.935	1386.69
483.153	1432.69
483.372	1399.69
483.59	1381.69
483.808	1386.69
484.027	1445.69
484.245	1517.69
484.463	1687.69
484.681	1843.69
484.9	1662.69
485.118	1615.69
485.336	1571.69
485.554	1561.69
485.772	1635.69
485.99	1898.69
486.209	2004.69
486.427	1705.69
486.645	1546.69
486.863	1485.69
487.081	1451.69
487.299	1452.69
487.517	1437.69
487.735	1450.69
487.953	1475.69
488.171	1483.69
488.389	1490.69
488.607	1458.69
488.825	1428.69
489.043	1391.69
489.261	1367.69
489.479	1403.69
489.696	1402.69
489.914	1411.69
490.132	1410.69
490.35	1426.69
490.568	1411.69
490.786	1470.69
491.003	1495.69
491.221	1494.69
491.439	1495.69
491.657	1485.69
491.874	1503.69
492.092	1547.69
492.31	1555.69
492.527	1530.69
492.745	1506.69
492.963	1553.69
493.18	1535.69
493.398	1510.69
493.615	1510.69
493.833	1514.69
494.05	1509.69
494.268	1449.69
494.485	1483.69
494.703	1474.69
494.92	1527.69
495.138	1521.69
495.355	1513.69
495.573	1505.69
495.79	1486.69
496.008	1494.69
496.225	1511.69
496.442	1506.69
496.66	1573.69
496.877	1685.69
497.094	1644.69
497.312	1601.69
497.529	1582.69
497.746	1655.69
497.963	1621.69
498.181	1645.69
498.398	1668.69
498.615	1734.69
498.832	1805.69
499.049	1882.69
499.267	2003.69
499.484	2141.69
499.701	2164.69
499.918	2275.69
500.135	2394.69
500.352	2530.69
500.569	2566.69
500.786	2514.69
501.003	2462.69
501.22	2302.69
501.437	2177.69
501.654	2052.69
501.871	1960.69
502.088	1877.69
502.305	1828.69
502.522	1773.69
502.739	1704.69
502.956	1676.69
503.172	1669.69
503.389	1581.69
503.606	1592.69
503.823	1569.69
504.04	1558.69
504.256	1573.69
504.473	1562.69
504.69	1511.69
504.907	1487.69
505.123	1494.69
505.34	1439.69
505.557	1417.69
505.773	1402.69
505.99	1399.69
506.207	1358.69
506.423	1367.69
506.64	1330.69
506.856	1310.69
507.073	1299.69
507.289	1324.69
507.506	1304.69
507.722	1287.69
507.939	1301.69
508.155	1281.69
508.372	1265.69
508.588	1274.69
508.805	1238.69
509.021	1277.69
509.238	1296.69
509.454	1331.69
509.67	1407.69
509.887	1317.69
510.103	1297.69
510.319	1257.69
510.536	1286.69
510.752	1231.69
510.968	1240.69
511.184	1202.69
511.401	1198.69
511.617	1222.69
511.833	1231.69
512.049	1202.69
512.265	1208.69
512.481	1203.69
512.698	1202.69
512.914	1197.69
513.13	1250.69
513.346	1217.69
513.562	1185.69
513.778	1187.69
513.994	1232.69
514.21	1232.69
514.426	1265.69
514.642	1380.69
514.858	1271.69
515.074	1242.69
515.29	1230.69
515.506	1219.69
515.721	1241.69
515.937	1239.69
516.153	1245.69
516.369	1228.69
516.585	1301.69
516.801	1267.69
517.016	1317.69
517.232	1341.69
517.448	1366.69
517.664	1402.69
517.879	1358.69
518.095	1382.69
518.311	1392.69
518.527	1341.69
518.742	1318.69
518.958	1342.69
519.173	1359.69
519.389	1333.69
519.605	1256.69
519.82	1231.69
520.036	1257.69
520.251	1226.69
520.467	1217.69
520.682	1223.69
520.898	1188.69
521.113	1180.69
521.329	1193.69
521.544	1193.69
521.76	1216.69
521.975	1184.69
522.19	1214.69
522.406	1207.69
522.621	1169.69
522.836	1192.69
523.052	1189.69
523.267	1154.69
523.482	1214.69
523.698	1173.69
523.913	1155.69
524.128	1172.69
524.343	1185.69
524.559	1154.69
524.774	1190.69
524.989	1185.69
525.204	1171.69
525.419	1193.69
525.634	1196.69
525.849	1179.69
526.064	1177.69
526.28	1158.69
526.495	1144.69
526.71	1171.69
526.925	1166.69
527.14	1191.69
527.355	1183.69
527.57	1141.69
527.785	1182.69
527.999	1191.69
528.214	1179.69
528.429	1207.69
528.644	1221.69
528.859	1244.69
529.074	1248.69
529.289	1257.69
529.503	1296.69
529.718	1258.69
529.933	1228.69
530.148	1235.69
530.363	1238.69
530.577	1237.69
530.792	1223.69
531.007	1230.69
531.221	1237.69
531.436	1257.69
531.651	1251.69
531.865	1306.69
532.08	1286.69
532.295	1305.69
532.509	1356.69
532.724	1349.69
532.938	1388.69
533.153	1420.69
533.367	1475.69
533.582	1542.69
533.796	1557.69
534.011	1484.69
534.225	1444.69
534.44	1386.69
534.654	1401.69
534.868	1375.69
535.083	1363.69
535.297	1364.69
535.511	1339.69
535.726	1359.69
535.94	1295.69
536.154	1269.69
536.369	1267.69
536.583	1245.69
536.797	1221.69
537.011	1197.69
537.225	1196.69
537.44	1187.69
537.654	1171.69
537.868	1162.69
538.082	1180.69
538.296	1177.69
538.51	1151.69
538.724	1158.69
538.938	1153.69
539.153	1165.69
539.367	1182.69
539.581	1181.69
539.795	1138.69
540.009	1090.69
540.222	1112.69
540.436	1141.69
540.65	1149.69
540.864	1126.69
541.078	1181.69
541.292	1217.69
541.506	1467.69
541.72	1534.69
541.934	1321.69
542.147	1275.69
542.361	1191.69
542.575	1149.69
542.789	1164.69
543.002	1133.69
543.216	1137.69
543.43	1098.69
543.644	1112.69
543.857	1154.69
544.071	1100.69
544.285	1140.69
544.498	1135.69
544.712	1137.69
544.925	1124.69
545.139	1155.69
545.352	1085.69
545.566	1122.69
545.779	1128.69
545.993	1124.69
546.206	1154.69
546.42	1141.69
546.633	1131.69
546.847	1155.69
547.06	1165.69
547.274	1137.69
547.487	1173.69
547.7	1158.69
547.914	1165.69
548.127	1117.69
548.34	1148.69
548.554	1142.69
548.767	1113.69
548.98	1151.69
549.193	1147.69
549.407	1143.69
549.62	1175.69
549.833	1149.69
550.046	1137.69
550.259	1137.69
550.473	1147.69
550.686	1137.69
550.899	1156.69
551.112	1134.69
551.325	1129.69
551.538	1143.69
551.751	1135.69
551.964	1135.69
552.177	1124.69
552.39	1192.69
552.603	1190.69
552.816	1225.69
553.029	1195.69
553.242	1219.69
553.455	1248.69
553.667	1261.69
553.88	1223.69
554.093	1243.69
554.306	1254.69
554.519	1261.69
554.732	1286.69
554.944	1292.69
555.157	1314.69
555.37	1356.69
555.583	1396.69
555.795	1441.69
556.008	1475.69
556.221	1577.69
556.433	1674.69
556.646	1689.69
556.859	1638.69
557.071	1571.69
557.284	1568.69
557.496	1541.69
557.709	1513.69
557.921	1512.69
558.134	1509.69
558.346	1512.69
558.559	1550.69
558.771	1613.69
558.984	1747.69
559.196	1815.69
559.409	1766.69
559.621	1686.69
559.833	1533.69
560.046	1524.69
560.258	1426.69
560.47	1397.69
560.683	1398.69
560.895	1321.69
561.107	1282.69
561.32	1244.69
561.532	1213.69
561.744	1190.69
561.956	1193.69
562.168	1187.69
562.381	1154.69
562.593	1161.69
562.805	1146.69
563.017	1170.69
563.229	1154.69
563.441	1255.69
563.653	1138.69
563.865	1070.69
564.077	1086.69
564.289	1025.69
564.501	1023.69
564.713	1047.69
564.925	1039.69
565.137	1037.69
565.349	1044.69
565.561	1054.69
565.773	1070.69
565.985	1056.69
566.197	1082.69
566.408	1103.69
566.62	1150.69
566.832	1170.69
567.044	1178.69
567.255	1143.69
567.467	1175.69
567.679	1197.69
567.891	1246.69
568.102	1363.69
568.314	1551.69
568.526	1366.69
568.737	1163.69
568.949	1102.69
569.161	1045.69
569.372	990.69
569.584	953.69
569.795	933.69
570.007	959.69
570.218	949.69
570.43	968.69
570.641	905.69
570.853	866.69
571.064	883.69
571.276	874.69
571.487	837.69
571.698	863.69
571.91	805.69
572.121	833.69
572.333	839.69
572.544	822.69
572.755	886.69
572.966	988.69
573.178	926.69
573.389	852.69
573.6	765.69
573.811	793.69
574.023	786.69
574.234	774.69
574.445	734.69
574.656	753.69
574.867	781.69
575.078	773.69
575.289	762.69
575.501	762.69
575.712	742.69
575.923	753.69
576.134	742.69
576.345	770.69
576.556	781.69
576.767	738.69
576.978	775.69
577.188	777.69
577.399	783.69
577.61	773.69
577.821	765.69
578.032	750.69
578.243	788.69
578.454	809.69
578.665	834.69
578.875	828.69
579.086	861.69
579.297	858.69
579.508	925.69
579.718	993.69
579.929	1073.69
580.14	1235.69
580.35	1228.69
580.561	1159.69
580.772	1106.69
580.982	1034.69
581.193	983.69
581.403	947.69
581.614	873.69
581.825	837.69
582.035	834.69
582.246	818.69
582.456	793.69
582.667	797.69
582.877	767.69
583.087	766.69
583.298	719.69
583.508	685.69
583.719	709.69
583.929	687.69
584.139	682.69
584.35	675.69
584.56	647.69
584.77	647.69
584.981	643.69
585.191	674.69
585.401	654.69
585.611	628.69
585.821	623.69
586.032	615.69
586.242	611.69
586.452	623.69
586.662	602.69
586.872	601.69
587.082	582.69
587.292	589.69
587.502	597.69
587.713	552.69
587.923	566.69
588.133	569.69
588.343	581.69
588.553	571.69
588.762	561.69
588.972	565.69
589.182	588.69
589.392	550.69
589.602	551.69
589.812	566.69
590.022	547.69
590.232	552.69
590.441	536.69
590.651	524.69
590.861	555.69
591.071	549.69
591.281	536.69
591.49	541.69
591.7	543.69
591.91	551.69
592.119	540.69
592.329	561.69
592.539	546.69
592.748	584.69
592.958	582.69
593.167	582.69
593.377	567.69
593.587	595.69
593.796	563.69
594.006	566.69
594.215	567.69
594.424	574.69
594.634	559.69
594.843	570.69
595.053	550.69
595.262	536.69
595.472	523.69
595.681	517.69
595.89	514.69
596.1	528.69
596.309	503.69
596.518	513.69
596.727	493.69
596.937	490.69
597.146	512.69
597.355	491.69
597.564	460.69
597.774	494.69
597.983	491.69
598.192	477.69
598.401	460.69
598.61	452.69
598.819	459.69
599.028	464.69
599.237	470.69
599.446	456.69
599.655	470.69
599.864	450.69
600.073	469.69
600.282	470.69
600.491	461.69
600.7	470.69
600.909	420.69
601.118	449.69
601.327	465.69
601.536	454.69
601.745	478.69
601.953	502.69
602.162	565.69
602.371	483.69
602.58	461.69
602.789	453.69
602.997	479.69
603.206	450.69
603.415	482.69
603.623	454.69
603.832	442.69
604.041	427.69
604.249	448.69
604.458	441.69
604.666	445.69
604.875	429.69
605.084	445.69
605.292	427.69
605.501	452.69
605.709	447.69
605.918	450.69
606.126	450.69
606.334	439.69
606.543	438.69
606.751	470.69
606.96	535.69
607.168	585.69
607.376	512.69
607.585	474.69
607.793	430.69
608.001	455.69
608.21	443.69
608.418	433.69
608.626	430.69
608.834	441.69
609.043	425.69
609.251	433.69
609.459	423.69
609.667	421.69
609.875	386.69
610.083	392.69
610.291	407.69
610.499	412.69
610.707	429.69
610.916	418.69
611.124	420.69
611.332	411.69
611.54	410.69
611.748	397.69
611.955	403.69
612.163	403.69
612.371	404.69
612.579	407.69
612.787	399.69
612.995	407.69
613.203	420.69
613.411	398.69
613.618	375.69
613.826	408.69
614.034	394.69
614.242	417.69
614.449	403.69
614.657	403.69
614.865	394.69
615.072	399.69
615.28	415.69
615.488	386.69
615.695	398.69
615.903	398.69
616.111	382.69
616.318	395.69
616.526	383.69
616.733	374.69
616.941	394.69
617.148	387.69
617.356	380.69
617.563	398.69
617.771	390.69
617.978	385.69
618.185	393.69
618.393	395.69
618.6	393.69
618.807	384.69
619.015	375.69
619.222	352.69
619.429	374.69
619.637	369.69
619.844	373.69
620.051	375.69
620.258	367.69
620.466	360.69
620.673	337.69
620.88	361.69
621.087	355.69
621.294	358.69
621.501	348.69
621.708	377.69
621.915	371.69
622.122	362.69
622.329	363.69
622.536	361.69
622.743	375.69
622.95	363.69
623.157	366.69
623.364	347.69
623.571	336.69
623.778	361.69
623.985	337.69
624.192	346.69
624.399	358.69
624.606	361.69
624.812	342.69
625.019	349.69
625.226	348.69
625.433	343.69
625.639	345.69
625.846	344.69
626.053	339.69
626.259	342.69
626.466	320.69
626.673	315.69
626.879	324.69
627.086	315.69
627.293	325.69
627.499	339.69
627.706	338.69
627.912	326.69
628.119	318.69
628.325	314.69
628.532	322.69
628.738	327.69
628.945	314.69
629.151	320.69
629.357	313.69
629.564	322.69
629.77	326.69
629.976	314.69
630.183	319.69
630.389	328.69
630.595	319.69
630.802	328.69
631.008	312.69
631.214	325.69
631.42	334.69
631.627	317.69
631.833	318.69
632.039	310.69
632.245	330.69
632.451	303.69
632.657	302.69
632.863	291.69
633.069	299.69
633.275	312.69
633.481	306.69
633.688	310.69
633.893	299.69
634.099	299.69
634.305	317.69
634.511	309.69
634.717	297.69
634.923	309.69
635.129	339.69
635.335	364.69
635.541	329.69
635.747	316.69
635.952	304.69
636.158	297.69
636.364	303.69
636.57	329.69
636.775	293.69
636.981	323.69
637.187	297.69
637.392	290.69
637.598	302.69
637.804	305.69
638.009	311.69
638.215	306.69
638.421	312.69
638.626	309.69
638.832	317.69
639.037	302.69
639.243	312.69
639.448	316.69
639.654	337.69
639.859	310.69
640.065	319.69
640.27	335.69
640.475	318.69
640.681	310.69
640.886	311.69
641.091	343.69
641.297	313.69
641.502	303.69
641.707	341.69
641.913	339.69
642.118	338.69
642.323	347.69
642.528	351.69
642.733	342.69
642.939	357.69
643.144	359.69
643.349	386.69
643.554	371.69
643.759	400.69
643.964	396.69
644.169	413.69
644.374	422.69
644.579	486.69
644.784	492.69
644.989	560.69
645.194	645.69
645.399	710.69
645.604	742.69
645.809	602.69
646.014	486.69
646.219	435.69
646.423	387.69
646.628	384.69
646.833	354.69
647.038	329.69
647.243	323.69
647.447	330.69
647.652	313.69
647.857	297.69
648.062	298.69
648.266	317.69
648.471	306.69
648.676	284.69
648.88	285.69
649.085	287.69
649.289	310.69
649.494	281.69
649.698	282.69
649.903	264.69
650.107	243.69
650.312	268.69
650.516	263.69
650.721	250.69
650.925	235.69
651.13	247.69
651.334	250.69
651.539	249.69
651.743	248.69
651.947	249.69
652.152	249.69
652.356	227.69
652.56	242.69
652.764	281.69
652.969	263.69
653.173	231.69
653.377	227.69
653.581	236.69
653.785	214.69
653.99	230.69
654.194	202.69
654.398	219.69
654.602	210.69
654.806	210.69
655.01	218.69
655.214	194.69
655.418	198.69
655.622	216.69
655.826	219.69
656.03	225.69
656.234	212.69
656.438	226.69
656.642	238.69
656.846	221.69
657.049	189.69
657.253	187.69
657.457	195.69
657.661	185.69
657.865	175.69
658.068	169.69
658.272	162.69
658.476	164.69
658.68	163.69
658.883	133.69
659.087	137.69
659.291	151.69
659.494	137.69
659.698	139.69
659.901	130.69
660.105	116.69
660.309	129.69
660.512	129.69
660.716	116.69
660.919	120.69
661.123	126.69
661.326	116.69
661.53	106.69
661.733	112.69
661.936	117.69
662.14	95.69
662.343	102.69
662.546	108.69
662.75	105.69
662.953	97.69
663.156	94.69
663.36	95.69
663.563	96.69
663.766	85.69
663.969	88.69
664.173	91.69
664.376	75.69
664.579	79.69
664.782	75.69
664.985	80.69
665.188	102.69
665.391	96.69
665.594	87.69
665.797	80.69
666	95.69
666.203	89.69
666.406	86.69
666.609	89.69
666.812	87.69
667.015	88.69
667.218	101.69
667.421	92.69
667.624	83.69
667.827	73.69
668.03	93.69
668.232	80.69
668.435	88.69
668.638	78.69
668.841	89.69
669.043	88.69
669.246	101.69
669.449	85.69
669.651	95.69
669.854	73.69
670.057	100.69
670.259	97.69
670.462	98.69
670.665	85.69
670.867	95.69
671.07	92.69
671.272	92.69
671.475	86.69
671.677	76.69
671.88	67.69
672.082	79.69
672.284	90.69
672.487	83.69
672.689	99.69
672.892	87.69
