Data from SnStandardFlinnAPT0064_QswitchEnergy10_LIBS07252019.E.O._I.C._HRD10591_15-27-37-973.txt Node
Date: Thu Jul 25 15:27:37 EDT 2019
User: cochatt
Spectrometer: HR+D1059
Trigger mode: 1
Integration Time (sec): 1.000000E-1
Scans to average: 1
Electric dark correction enabled: true
Nonlinearity correction enabled: false
Boxcar width: 0
XAxis mode: Wavelengths
Number of Pixels in Spectrum: 2048
>>>>>Begin Spectral Data<<<<<
223.165	-14.62
223.4	-14.62
223.635	-14.62
223.869	-25.62
224.104	-9.62
224.338	-12.62
224.573	-14.62
224.808	-18.62
225.042	-13.62
225.277	6.38
225.511	2.38
225.746	2.38
225.98	-8.62
226.215	5.38
226.449	19.38
226.683	23.38
226.918	35.38
227.152	23.38
227.387	26.38
227.621	38.38
227.856	48.38
228.09	46.38
228.324	35.38
228.559	52.38
228.793	65.38
229.027	71.38
229.262	66.38
229.496	73.38
229.73	66.38
229.964	78.38
230.199	72.38
230.433	72.38
230.667	78.38
230.901	78.38
231.136	84.38
231.37	75.38
231.604	90.38
231.838	79.38
232.072	93.38
232.306	95.38
232.541	95.38
232.775	87.38
233.009	84.38
233.243	85.38
233.477	87.38
233.711	83.38
233.945	104.38
234.179	91.38
234.413	86.38
234.647	93.38
234.881	74.38
235.115	81.38
235.349	78.38
235.583	112.38
235.817	133.38
236.051	126.38
236.285	92.38
236.519	97.38
236.753	76.38
236.987	64.38
237.221	83.38
237.455	84.38
237.689	63.38
237.922	68.38
238.156	77.38
238.39	70.38
238.624	70.38
238.858	93.38
239.091	74.38
239.325	78.38
239.559	70.38
239.793	85.38
240.027	87.38
240.26	79.38
240.494	73.38
240.728	68.38
240.961	77.38
241.195	82.38
241.429	83.38
241.662	81.38
241.896	81.38
242.13	93.38
242.363	135.38
242.597	148.38
242.83	146.38
243.064	125.38
243.298	159.38
243.531	130.38
243.765	103.38
243.998	87.38
244.232	92.38
244.465	59.38
244.699	66.38
244.932	73.38
245.166	77.38
245.399	85.38
245.633	87.38
245.866	77.38
246.099	82.38
246.333	71.38
246.566	73.38
246.8	81.38
247.033	73.38
247.266	84.38
247.5	87.38
247.733	79.38
247.966	75.38
248.2	98.38
248.433	99.38
248.666	116.38
248.899	110.38
249.133	93.38
249.366	92.38
249.599	98.38
249.832	109.38
250.066	131.38
250.299	85.38
250.532	82.38
250.765	81.38
250.998	68.38
251.231	89.38
251.465	75.38
251.698	74.38
251.931	80.38
252.164	83.38
252.397	97.38
252.63	96.38
252.863	87.38
253.096	73.38
253.329	92.38
253.562	95.38
253.795	80.38
254.028	85.38
254.261	81.38
254.494	94.38
254.727	113.38
254.96	139.38
255.193	139.38
255.426	85.38
255.659	80.38
255.892	86.38
256.124	81.38
256.357	77.38
256.59	84.38
256.823	87.38
257.056	102.38
257.289	124.38
257.521	156.38
257.754	114.38
257.987	77.38
258.22	94.38
258.452	65.38
258.685	77.38
258.918	90.38
259.151	88.38
259.383	104.38
259.616	132.38
259.849	124.38
260.081	104.38
260.314	63.38
260.547	82.38
260.779	84.38
261.012	90.38
261.244	81.38
261.477	88.38
261.71	82.38
261.942	68.38
262.175	74.38
262.407	82.38
262.64	75.38
262.872	79.38
263.105	82.38
263.337	87.38
263.57	78.38
263.802	81.38
264.035	87.38
264.267	95.38
264.499	86.38
264.732	100.38
264.964	83.38
265.197	85.38
265.429	91.38
265.661	96.38
265.894	83.38
266.126	121.38
266.358	151.38
266.591	144.38
266.823	92.38
267.055	85.38
267.287	93.38
267.52	79.38
267.752	85.38
267.984	96.38
268.216	88.38
268.448	96.38
268.681	80.38
268.913	86.38
269.145	86.38
269.377	84.38
269.609	94.38
269.841	80.38
270.073	85.38
270.306	105.38
270.538	187.38
270.77	292.38
271.002	352.38
271.234	174.38
271.466	95.38
271.698	90.38
271.93	81.38
272.162	86.38
272.394	98.38
272.626	85.38
272.858	84.38
273.09	79.38
273.322	89.38
273.553	89.38
273.785	89.38
274.017	82.38
274.249	90.38
274.481	85.38
274.713	80.38
274.945	83.38
275.176	99.38
275.408	97.38
275.64	69.38
275.872	87.38
276.104	85.38
276.335	93.38
276.567	93.38
276.799	86.38
277.031	94.38
277.262	95.38
277.494	101.38
277.726	126.38
277.957	182.38
278.189	224.38
278.421	216.38
278.652	192.38
278.884	160.38
279.115	133.38
279.347	98.38
279.579	104.38
279.81	90.38
280.042	100.38
280.273	84.38
280.505	99.38
280.736	102.38
280.968	120.38
281.199	166.38
281.431	227.38
281.662	256.38
281.894	150.38
282.125	114.38
282.356	108.38
282.588	103.38
282.819	123.38
283.051	120.38
283.282	128.38
283.513	176.38
283.745	286.38
283.976	496.38
284.207	767.38
284.439	546.38
284.67	259.38
284.901	245.38
285.132	321.38
285.364	353.38
285.595	204.38
285.826	164.38
286.057	237.38
286.288	385.38
286.52	560.38
286.751	470.38
286.982	189.38
287.213	118.38
287.444	110.38
287.675	97.38
287.906	89.38
288.138	95.38
288.369	76.38
288.6	82.38
288.831	96.38
289.062	92.38
289.293	87.38
289.524	88.38
289.755	85.38
289.986	101.38
290.217	93.38
290.448	92.38
290.679	113.38
290.91	104.38
291.141	142.38
291.371	232.38
291.602	272.38
291.833	188.38
292.064	104.38
292.295	93.38
292.526	86.38
292.757	78.38
292.987	111.38
293.218	98.38
293.449	89.38
293.68	81.38
293.91	98.38
294.141	96.38
294.372	84.38
294.603	93.38
294.833	92.38
295.064	89.38
295.295	85.38
295.525	95.38
295.756	83.38
295.987	86.38
296.217	87.38
296.448	81.38
296.679	103.38
296.909	80.38
297.14	96.38
297.37	87.38
297.601	90.38
297.831	72.38
298.062	94.38
298.292	87.38
298.523	97.38
298.753	94.38
298.984	102.38
299.214	101.38
299.445	98.38
299.675	111.38
299.905	117.38
300.136	120.38
300.366	139.38
300.597	240.38
300.827	416.38
301.057	651.38
301.288	565.38
301.518	250.38
301.748	146.38
301.979	121.38
302.209	122.38
302.439	136.38
302.669	157.38
302.9	258.38
303.13	472.38
303.36	817.38
303.59	1140.38
303.82	803.38
304.051	267.38
304.281	154.38
304.511	123.38
304.741	96.38
304.971	98.38
305.201	121.38
305.431	103.38
305.661	108.38
305.891	101.38
306.121	100.38
306.352	112.38
306.582	114.38
306.812	117.38
307.042	104.38
307.272	73.38
307.502	95.38
307.731	103.38
307.961	110.38
308.191	110.38
308.421	99.38
308.651	97.38
308.881	108.38
309.111	97.38
309.341	111.38
309.571	102.38
309.8	99.38
310.03	97.38
310.26	100.38
310.49	108.38
310.72	118.38
310.949	112.38
311.179	104.38
311.409	94.38
311.639	111.38
311.868	105.38
312.098	108.38
312.328	100.38
312.557	116.38
312.787	129.38
313.017	110.38
313.246	118.38
313.476	122.38
313.706	119.38
313.935	130.38
314.165	177.38
314.394	220.38
314.624	165.38
314.853	132.38
315.083	117.38
315.312	108.38
315.542	118.38
315.771	124.38
316.001	118.38
316.23	130.38
316.46	156.38
316.689	163.38
316.919	252.38
317.148	482.38
317.377	861.38
317.607	1392.38
317.836	1260.38
318.065	480.38
318.295	212.38
318.524	146.38
318.753	105.38
318.983	116.38
319.212	128.38
319.441	120.38
319.67	102.38
319.9	108.38
320.129	122.38
320.358	104.38
320.587	113.38
320.816	134.38
321.046	121.38
321.275	129.38
321.504	126.38
321.733	132.38
321.962	157.38
322.191	164.38
322.42	124.38
322.649	134.38
322.878	131.38
323.108	119.38
323.337	113.38
323.566	118.38
323.795	117.38
324.024	139.38
324.253	147.38
324.482	156.38
324.71	236.38
324.939	258.38
325.168	230.38
325.397	194.38
325.626	257.38
325.855	452.38
326.084	895.38
326.313	1497.38
326.542	1474.38
326.77	584.38
326.999	257.38
327.228	202.38
327.457	205.38
327.686	212.38
327.914	154.38
328.143	124.38
328.372	118.38
328.6	120.38
328.829	112.38
329.058	123.38
329.287	120.38
329.515	111.38
329.744	111.38
329.972	108.38
330.201	117.38
330.43	125.38
330.658	106.38
330.887	106.38
331.115	112.38
331.344	105.38
331.572	130.38
331.801	127.38
332.03	126.38
332.258	134.38
332.486	158.38
332.715	268.38
332.943	474.38
333.172	703.38
333.4	628.38
333.629	241.38
333.857	156.38
334.085	122.38
334.314	138.38
334.542	98.38
334.771	117.38
334.999	124.38
335.227	110.38
335.455	119.38
335.684	125.38
335.912	120.38
336.14	116.38
336.369	127.38
336.597	101.38
336.825	105.38
337.053	100.38
337.281	112.38
337.51	108.38
337.738	112.38
337.966	122.38
338.194	110.38
338.422	109.38
338.65	113.38
338.878	110.38
339.106	130.38
339.334	108.38
339.562	106.38
339.79	108.38
340.018	111.38
340.246	105.38
340.474	115.38
340.702	88.38
340.93	114.38
341.158	110.38
341.386	102.38
341.614	116.38
341.842	114.38
342.07	107.38
342.298	119.38
342.526	112.38
342.754	101.38
342.981	86.38
343.209	106.38
343.437	108.38
343.665	118.38
343.893	126.38
344.12	103.38
344.348	104.38
344.576	103.38
344.804	111.38
345.031	99.38
345.259	104.38
345.487	97.38
345.714	120.38
345.942	108.38
346.17	106.38
346.397	101.38
346.625	108.38
346.853	94.38
347.08	99.38
347.308	102.38
347.535	100.38
347.763	96.38
347.99	111.38
348.218	108.38
348.445	110.38
348.673	119.38
348.9	120.38
349.128	109.38
349.355	128.38
349.583	112.38
349.81	111.38
350.037	117.38
350.265	106.38
350.492	120.38
350.72	99.38
350.947	109.38
351.174	105.38
351.402	96.38
351.629	104.38
351.856	112.38
352.083	105.38
352.311	108.38
352.538	106.38
352.765	99.38
352.992	102.38
353.22	101.38
353.447	95.38
353.674	103.38
353.901	112.38
354.128	104.38
354.355	104.38
354.583	101.38
354.81	103.38
355.037	113.38
355.264	101.38
355.491	110.38
355.718	106.38
355.945	101.38
356.172	86.38
356.399	99.38
356.626	108.38
356.853	103.38
357.08	99.38
357.307	99.38
357.534	110.38
357.761	97.38
357.988	108.38
358.215	104.38
358.441	106.38
358.668	114.38
358.895	112.38
359.122	121.38
359.349	111.38
359.576	128.38
359.802	101.38
360.029	117.38
360.256	110.38
360.483	103.38
360.709	108.38
360.936	102.38
361.163	114.38
361.39	88.38
361.616	115.38
361.843	116.38
362.07	108.38
362.296	102.38
362.523	104.38
362.749	89.38
362.976	114.38
363.203	110.38
363.429	107.38
363.656	113.38
363.882	98.38
364.109	113.38
364.335	99.38
364.562	123.38
364.788	96.38
365.015	96.38
365.241	118.38
365.468	191.38
365.694	261.38
365.92	180.38
366.147	88.38
366.373	93.38
366.599	95.38
366.826	93.38
367.052	97.38
367.278	85.38
367.505	104.38
367.731	111.38
367.957	95.38
368.184	112.38
368.41	118.38
368.636	117.38
368.862	101.38
369.089	98.38
369.315	111.38
369.541	96.38
369.767	94.38
369.993	107.38
370.219	110.38
370.445	121.38
370.672	99.38
370.898	101.38
371.124	98.38
371.35	96.38
371.576	95.38
371.802	90.38
372.028	111.38
372.254	103.38
372.48	98.38
372.706	99.38
372.932	110.38
373.158	108.38
373.384	112.38
373.61	105.38
373.835	120.38
374.061	105.38
374.287	102.38
374.513	118.38
374.739	117.38
374.965	89.38
375.191	106.38
375.416	89.38
375.642	111.38
375.868	94.38
376.094	93.38
376.319	109.38
376.545	109.38
376.771	94.38
376.997	101.38
377.222	107.38
377.448	124.38
377.674	103.38
377.899	108.38
378.125	117.38
378.35	105.38
378.576	118.38
378.802	119.38
379.027	124.38
379.253	112.38
379.478	162.38
379.704	305.38
379.929	714.38
380.155	1500.38
380.38	1492.38
380.606	479.38
380.831	176.38
381.057	145.38
381.282	121.38
381.507	127.38
381.733	101.38
381.958	86.38
382.184	104.38
382.409	106.38
382.634	94.38
382.86	89.38
383.085	106.38
383.31	104.38
383.535	109.38
383.761	109.38
383.986	105.38
384.211	89.38
384.436	109.38
384.662	91.38
384.887	100.38
385.112	109.38
385.337	99.38
385.562	101.38
385.787	105.38
386.013	97.38
386.238	108.38
386.463	104.38
386.688	103.38
386.913	95.38
387.138	120.38
387.363	109.38
387.588	108.38
387.813	103.38
388.038	102.38
388.263	113.38
388.488	118.38
388.713	104.38
388.938	114.38
389.163	98.38
389.387	106.38
389.612	98.38
389.837	103.38
390.062	102.38
390.287	104.38
390.512	110.38
390.736	89.38
390.961	93.38
391.186	81.38
391.411	103.38
391.636	86.38
391.86	76.38
392.085	104.38
392.31	98.38
392.534	99.38
392.759	104.38
392.984	107.38
393.208	114.38
393.433	127.38
393.658	129.38
393.882	103.38
394.107	96.38
394.331	101.38
394.556	104.38
394.78	102.38
395.005	92.38
395.229	97.38
395.454	102.38
395.678	106.38
395.903	103.38
396.127	110.38
396.352	105.38
396.576	105.38
396.801	117.38
397.025	125.38
397.249	111.38
397.474	102.38
397.698	91.38
397.922	78.38
398.147	95.38
398.371	86.38
398.595	94.38
398.82	97.38
399.044	86.38
399.268	100.38
399.492	89.38
399.717	92.38
399.941	111.38
400.165	105.38
400.389	101.38
400.613	94.38
400.837	93.38
401.062	86.38
401.286	93.38
401.51	109.38
401.734	105.38
401.958	95.38
402.182	89.38
402.406	94.38
402.63	81.38
402.854	79.38
403.078	89.38
403.302	90.38
403.526	89.38
403.75	74.38
403.974	86.38
404.198	82.38
404.422	98.38
404.645	93.38
404.869	103.38
405.093	92.38
405.317	88.38
405.541	95.38
405.765	118.38
405.988	138.38
406.212	112.38
406.436	102.38
406.66	108.38
406.883	94.38
407.107	90.38
407.331	93.38
407.555	96.38
407.778	81.38
408.002	88.38
408.226	108.38
408.449	104.38
408.673	97.38
408.896	84.38
409.12	82.38
409.344	88.38
409.567	86.38
409.791	102.38
410.014	104.38
410.238	110.38
410.461	94.38
410.685	92.38
410.908	89.38
411.132	99.38
411.355	101.38
411.578	85.38
411.802	97.38
412.025	91.38
412.249	88.38
412.472	94.38
412.695	85.38
412.919	98.38
413.142	102.38
413.365	79.38
413.589	100.38
413.812	94.38
414.035	92.38
414.258	94.38
414.482	96.38
414.705	104.38
414.928	99.38
415.151	97.38
415.374	101.38
415.597	104.38
415.821	78.38
416.044	78.38
416.267	97.38
416.49	103.38
416.713	81.38
416.936	105.38
417.159	97.38
417.382	99.38
417.605	98.38
417.828	93.38
418.051	87.38
418.274	87.38
418.497	95.38
418.72	90.38
418.943	98.38
419.166	117.38
419.389	112.38
419.611	98.38
419.834	99.38
420.057	102.38
420.28	97.38
420.503	112.38
420.726	90.38
420.948	87.38
421.171	95.38
421.394	90.38
421.617	90.38
421.839	101.38
422.062	87.38
422.285	98.38
422.507	95.38
422.73	116.38
422.953	134.38
423.175	101.38
423.398	93.38
423.621	82.38
423.843	89.38
424.066	97.38
424.288	101.38
424.511	93.38
424.733	104.38
424.956	88.38
425.178	92.38
425.401	74.38
425.623	98.38
425.846	97.38
426.068	112.38
426.291	99.38
426.513	84.38
426.735	83.38
426.958	86.38
427.18	108.38
427.402	88.38
427.625	96.38
427.847	91.38
428.069	87.38
428.292	97.38
428.514	103.38
428.736	88.38
428.958	89.38
429.181	101.38
429.403	89.38
429.625	104.38
429.847	100.38
430.069	110.38
430.292	108.38
430.514	97.38
430.736	103.38
430.958	107.38
431.18	93.38
431.402	96.38
431.624	101.38
431.846	96.38
432.068	84.38
432.29	96.38
432.512	85.38
432.734	97.38
432.956	104.38
433.178	92.38
433.4	83.38
433.622	101.38
433.844	90.38
434.066	81.38
434.287	93.38
434.509	92.38
434.731	94.38
434.953	96.38
435.175	105.38
435.397	111.38
435.618	99.38
435.84	90.38
436.062	93.38
436.284	78.38
436.505	96.38
436.727	87.38
436.949	104.38
437.17	98.38
437.392	98.38
437.614	96.38
437.835	102.38
438.057	96.38
438.278	96.38
438.5	98.38
438.721	86.38
438.943	102.38
439.165	119.38
439.386	115.38
439.608	92.38
439.829	89.38
440.05	114.38
440.272	122.38
440.493	87.38
440.715	80.38
440.936	92.38
441.158	99.38
441.379	89.38
441.6	96.38
441.822	96.38
442.043	112.38
442.264	134.38
442.486	103.38
442.707	92.38
442.928	110.38
443.149	110.38
443.371	95.38
443.592	97.38
443.813	100.38
444.034	102.38
444.255	100.38
444.476	84.38
444.698	88.38
444.919	95.38
445.14	194.38
445.361	137.38
445.582	96.38
445.803	97.38
446.024	109.38
446.245	93.38
446.466	88.38
446.687	110.38
446.908	114.38
447.129	86.38
447.35	80.38
447.571	97.38
447.792	102.38
448.013	87.38
448.234	91.38
448.455	89.38
448.675	107.38
448.896	114.38
449.117	119.38
449.338	116.38
449.559	132.38
449.779	112.38
450	101.38
450.221	94.38
450.442	112.38
450.662	111.38
450.883	95.38
451.104	86.38
451.324	113.38
451.545	114.38
451.766	110.38
451.986	144.38
452.207	192.38
452.428	497.38
452.648	1252.38
452.869	724.38
453.089	187.38
453.31	134.38
453.53	125.38
453.751	134.38
453.971	150.38
454.192	143.38
454.412	111.38
454.633	112.38
454.853	110.38
455.073	94.38
455.294	83.38
455.514	97.38
455.734	98.38
455.955	75.38
456.175	88.38
456.395	89.38
456.616	86.38
456.836	102.38
457.056	106.38
457.276	95.38
457.497	112.38
457.717	118.38
457.937	98.38
458.157	90.38
458.377	98.38
458.598	87.38
458.818	85.38
459.038	97.38
459.258	86.38
459.478	91.38
459.698	86.38
459.918	99.38
460.138	97.38
460.358	79.38
460.578	85.38
460.798	93.38
461.018	81.38
461.238	98.38
461.458	87.38
461.678	94.38
461.898	96.38
462.118	85.38
462.338	102.38
462.558	113.38
462.777	102.38
462.997	102.38
463.217	114.38
463.437	116.38
463.657	170.38
463.876	175.38
464.096	108.38
464.316	91.38
464.536	95.38
464.755	99.38
464.975	94.38
465.195	98.38
465.414	85.38
465.634	80.38
465.854	95.38
466.073	82.38
466.293	81.38
466.512	93.38
466.732	92.38
466.951	113.38
467.171	148.38
467.391	124.38
467.61	107.38
467.829	93.38
468.049	78.38
468.268	103.38
468.488	89.38
468.707	97.38
468.927	93.38
469.146	92.38
469.365	102.38
469.585	89.38
469.804	87.38
470.023	97.38
470.243	91.38
470.462	98.38
470.681	118.38
470.901	132.38
471.12	188.38
471.339	200.38
471.558	133.38
471.777	105.38
471.997	97.38
472.216	99.38
472.435	99.38
472.654	95.38
472.873	90.38
473.092	95.38
473.311	90.38
473.53	82.38
473.749	110.38
473.968	105.38
474.187	94.38
474.406	80.38
474.625	69.38
474.844	104.38
475.063	90.38
475.282	89.38
475.501	80.38
475.72	97.38
475.939	95.38
476.158	93.38
476.377	91.38
476.596	97.38
476.814	83.38
477.033	89.38
477.252	98.38
477.471	84.38
477.69	95.38
477.908	95.38
478.127	95.38
478.346	98.38
478.564	86.38
478.783	103.38
479.002	92.38
479.22	79.38
479.439	111.38
479.658	96.38
479.876	89.38
480.095	80.38
480.313	82.38
480.532	93.38
480.751	93.38
480.969	97.38
481.188	79.38
481.406	91.38
481.624	99.38
481.843	117.38
482.061	93.38
482.28	82.38
482.498	91.38
482.717	95.38
482.935	104.38
483.153	111.38
483.372	101.38
483.59	112.38
483.808	114.38
484.027	116.38
484.245	119.38
484.463	158.38
484.681	226.38
484.9	140.38
485.118	111.38
485.336	94.38
485.554	112.38
485.772	115.38
485.99	176.38
486.209	227.38
486.427	160.38
486.645	105.38
486.863	110.38
487.081	104.38
487.299	110.38
487.517	93.38
487.735	85.38
487.953	101.38
488.171	95.38
488.389	103.38
488.607	89.38
488.825	101.38
489.043	96.38
489.261	76.38
489.479	95.38
489.696	92.38
489.914	112.38
490.132	101.38
490.35	102.38
490.568	82.38
490.786	86.38
491.003	94.38
491.221	101.38
491.439	103.38
491.657	97.38
491.874	100.38
492.092	103.38
492.31	99.38
492.527	96.38
492.745	115.38
492.963	114.38
493.18	102.38
493.398	94.38
493.615	106.38
493.833	97.38
494.05	93.38
494.268	106.38
494.485	101.38
494.703	104.38
494.92	108.38
495.138	107.38
495.355	94.38
495.573	91.38
495.79	95.38
496.008	85.38
496.225	80.38
496.442	104.38
496.66	128.38
496.877	168.38
497.094	137.38
497.312	102.38
497.529	104.38
497.746	104.38
497.963	101.38
498.181	103.38
498.398	98.38
498.615	89.38
498.832	108.38
499.049	106.38
499.267	114.38
499.484	153.38
499.701	104.38
499.918	102.38
500.135	97.38
500.352	95.38
500.569	88.38
500.786	97.38
501.003	94.38
501.22	87.38
501.437	88.38
501.654	94.38
501.871	85.38
502.088	99.38
502.305	89.38
502.522	99.38
502.739	115.38
502.956	94.38
503.172	85.38
503.389	80.38
503.606	102.38
503.823	89.38
504.04	98.38
504.256	95.38
504.473	88.38
504.69	88.38
504.907	100.38
505.123	105.38
505.34	94.38
505.557	106.38
505.773	93.38
505.99	93.38
506.207	103.38
506.423	106.38
506.64	102.38
506.856	113.38
507.073	96.38
507.289	75.38
507.506	113.38
507.722	96.38
507.939	98.38
508.155	81.38
508.372	79.38
508.588	97.38
508.805	77.38
509.021	91.38
509.238	97.38
509.454	128.38
509.67	151.38
509.887	99.38
510.103	106.38
510.319	100.38
510.536	100.38
510.752	113.38
510.968	110.38
511.184	100.38
511.401	107.38
511.617	92.38
511.833	92.38
512.049	98.38
512.265	113.38
512.481	86.38
512.698	90.38
512.914	84.38
513.13	87.38
513.346	99.38
513.562	93.38
513.778	81.38
513.994	88.38
514.21	98.38
514.426	129.38
514.642	163.38
514.858	119.38
515.074	97.38
515.29	99.38
515.506	80.38
515.721	93.38
515.937	95.38
516.153	93.38
516.369	101.38
516.585	100.38
516.801	93.38
517.016	87.38
517.232	101.38
517.448	110.38
517.664	89.38
517.879	98.38
518.095	104.38
518.311	89.38
518.527	92.38
518.742	90.38
518.958	115.38
519.173	136.38
519.389	106.38
519.605	104.38
519.82	96.38
520.036	95.38
520.251	101.38
520.467	92.38
520.682	81.38
520.898	97.38
521.113	92.38
521.329	89.38
521.544	96.38
521.76	84.38
521.975	85.38
522.19	103.38
522.406	86.38
522.621	102.38
522.836	88.38
523.052	89.38
523.267	86.38
523.482	108.38
523.698	96.38
523.913	92.38
524.128	100.38
524.343	84.38
524.559	97.38
524.774	86.38
524.989	111.38
525.204	90.38
525.419	79.38
525.634	106.38
525.849	86.38
526.064	92.38
526.28	97.38
526.495	90.38
526.71	96.38
526.925	101.38
527.14	92.38
527.355	101.38
527.57	112.38
527.785	98.38
527.999	102.38
528.214	87.38
528.429	99.38
528.644	108.38
528.859	87.38
529.074	81.38
529.289	95.38
529.503	101.38
529.718	102.38
529.933	89.38
530.148	103.38
530.363	94.38
530.577	108.38
530.792	93.38
531.007	92.38
531.221	112.38
531.436	99.38
531.651	88.38
531.865	94.38
532.08	96.38
532.295	103.38
532.509	128.38
532.724	108.38
532.938	98.38
533.153	99.38
533.367	101.38
533.582	112.38
533.796	85.38
534.011	89.38
534.225	101.38
534.44	87.38
534.654	99.38
534.868	102.38
535.083	80.38
535.297	91.38
535.511	90.38
535.726	95.38
535.94	94.38
536.154	83.38
536.369	74.38
536.583	93.38
536.797	105.38
537.011	103.38
537.225	106.38
537.44	102.38
537.654	89.38
537.868	98.38
538.082	94.38
538.296	84.38
538.51	114.38
538.724	104.38
538.938	88.38
539.153	96.38
539.367	91.38
539.581	90.38
539.795	98.38
540.009	83.38
540.222	89.38
540.436	98.38
540.65	95.38
540.864	101.38
541.078	111.38
541.292	128.38
541.506	201.38
541.72	187.38
541.934	121.38
542.147	98.38
542.361	98.38
542.575	90.38
542.789	88.38
543.002	101.38
543.216	102.38
543.43	104.38
543.644	98.38
543.857	97.38
544.071	85.38
544.285	117.38
544.498	88.38
544.712	105.38
544.925	101.38
545.139	99.38
545.352	100.38
545.566	98.38
545.779	112.38
545.993	101.38
546.206	90.38
546.42	98.38
546.633	108.38
546.847	101.38
547.06	101.38
547.274	97.38
547.487	95.38
547.7	92.38
547.914	94.38
548.127	97.38
548.34	89.38
548.554	82.38
548.767	99.38
548.98	89.38
549.193	85.38
549.407	97.38
549.62	114.38
549.833	108.38
550.046	108.38
550.259	100.38
550.473	86.38
550.686	101.38
550.899	99.38
551.112	108.38
551.325	95.38
551.538	111.38
551.751	94.38
551.964	103.38
552.177	106.38
552.39	113.38
552.603	102.38
552.816	105.38
553.029	95.38
553.242	120.38
553.455	100.38
553.667	108.38
553.88	86.38
554.093	102.38
554.306	91.38
554.519	97.38
554.732	112.38
554.944	104.38
555.157	103.38
555.37	88.38
555.583	92.38
555.795	104.38
556.008	122.38
556.221	144.38
556.433	129.38
556.646	117.38
556.859	102.38
557.071	108.38
557.284	124.38
557.496	108.38
557.709	99.38
557.921	108.38
558.134	88.38
558.346	93.38
558.559	87.38
558.771	100.38
558.984	80.38
559.196	100.38
559.409	79.38
559.621	92.38
559.833	90.38
560.046	91.38
560.258	100.38
560.47	96.38
560.683	93.38
560.895	80.38
561.107	87.38
561.32	85.38
561.532	100.38
561.744	104.38
561.956	100.38
562.168	110.38
562.381	110.38
562.593	108.38
562.805	125.38
563.017	166.38
563.229	243.38
563.441	534.38
563.653	185.38
563.865	113.38
564.077	89.38
564.289	96.38
564.501	104.38
564.713	92.38
564.925	103.38
565.137	92.38
565.349	86.38
565.561	92.38
565.773	90.38
565.985	91.38
566.197	85.38
566.408	93.38
566.62	94.38
566.832	103.38
567.044	98.38
567.255	86.38
567.467	97.38
567.679	93.38
567.891	111.38
568.102	174.38
568.314	242.38
568.526	130.38
568.737	104.38
568.949	100.38
569.161	100.38
569.372	98.38
569.584	96.38
569.795	81.38
570.007	114.38
570.218	117.38
570.43	148.38
570.641	111.38
570.853	94.38
571.064	88.38
571.276	96.38
571.487	85.38
571.698	96.38
571.91	96.38
572.121	97.38
572.333	98.38
572.544	110.38
572.755	122.38
572.966	198.38
573.178	124.38
573.389	104.38
573.6	96.38
573.811	98.38
574.023	85.38
574.234	101.38
574.445	90.38
574.656	112.38
574.867	84.38
575.078	98.38
575.289	93.38
575.501	72.38
575.712	90.38
575.923	97.38
576.134	108.38
576.345	101.38
576.556	83.38
576.767	73.38
576.978	85.38
577.188	112.38
577.399	84.38
577.61	92.38
577.821	104.38
578.032	97.38
578.243	117.38
578.454	92.38
578.665	85.38
578.875	81.38
579.086	86.38
579.297	90.38
579.508	74.38
579.718	97.38
579.929	101.38
580.14	101.38
580.35	88.38
580.561	78.38
580.772	106.38
580.982	103.38
581.193	82.38
581.403	92.38
581.614	99.38
581.825	85.38
582.035	91.38
582.246	94.38
582.456	106.38
582.667	96.38
582.877	119.38
583.087	108.38
583.298	90.38
583.508	99.38
583.719	101.38
583.929	90.38
584.139	97.38
584.35	93.38
584.56	86.38
584.77	102.38
584.981	77.38
585.191	86.38
585.401	95.38
585.611	90.38
585.821	88.38
586.032	84.38
586.242	86.38
586.452	94.38
586.662	78.38
586.872	102.38
587.082	81.38
587.292	97.38
587.502	83.38
587.713	79.38
587.923	87.38
588.133	89.38
588.343	86.38
588.553	80.38
588.762	94.38
588.972	100.38
589.182	114.38
589.392	103.38
589.602	83.38
589.812	105.38
590.022	95.38
590.232	80.38
590.441	85.38
590.651	75.38
590.861	82.38
591.071	99.38
591.281	107.38
591.49	85.38
591.7	92.38
591.91	82.38
592.119	83.38
592.329	96.38
592.539	85.38
592.748	88.38
592.958	88.38
593.167	88.38
593.377	106.38
593.587	102.38
593.796	98.38
594.006	77.38
594.215	89.38
594.424	104.38
594.634	96.38
594.843	90.38
595.053	85.38
595.262	94.38
595.472	88.38
595.681	74.38
595.89	96.38
596.1	86.38
596.309	91.38
596.518	91.38
596.727	77.38
596.937	84.38
597.146	92.38
597.355	97.38
597.564	104.38
597.774	87.38
597.983	108.38
598.192	71.38
598.401	89.38
598.61	92.38
598.819	87.38
599.028	76.38
599.237	87.38
599.446	81.38
599.655	93.38
599.864	89.38
600.073	99.38
600.282	96.38
600.491	92.38
600.7	84.38
600.909	86.38
601.118	86.38
601.327	90.38
601.536	85.38
601.745	104.38
601.953	120.38
602.162	146.38
602.371	115.38
602.58	97.38
602.789	85.38
602.997	87.38
603.206	90.38
603.415	86.38
603.623	100.38
603.832	96.38
604.041	111.38
604.249	94.38
604.458	99.38
604.666	81.38
604.875	86.38
605.084	84.38
605.292	84.38
605.501	96.38
605.709	100.38
605.918	102.38
606.126	104.38
606.334	93.38
606.543	100.38
606.751	123.38
606.96	159.38
607.168	176.38
607.376	120.38
607.585	112.38
607.793	115.38
608.001	95.38
608.21	89.38
608.418	83.38
608.626	97.38
608.834	100.38
609.043	92.38
609.251	78.38
609.459	97.38
609.667	86.38
609.875	73.38
610.083	85.38
610.291	87.38
610.499	89.38
610.707	86.38
610.916	79.38
611.124	80.38
611.332	85.38
611.54	85.38
611.748	100.38
611.955	96.38
612.163	97.38
612.371	100.38
612.579	87.38
612.787	73.38
612.995	104.38
613.203	94.38
613.411	85.38
613.618	98.38
613.826	99.38
614.034	96.38
614.242	83.38
614.449	86.38
614.657	108.38
614.865	97.38
615.072	106.38
615.28	118.38
615.488	98.38
615.695	101.38
615.903	101.38
616.111	92.38
616.318	118.38
616.526	92.38
616.733	88.38
616.941	81.38
617.148	90.38
617.356	105.38
617.563	97.38
617.771	81.38
617.978	77.38
618.185	83.38
618.393	82.38
618.6	87.38
618.807	93.38
619.015	88.38
619.222	101.38
619.429	92.38
619.637	83.38
619.844	87.38
620.051	85.38
620.258	81.38
620.466	92.38
620.673	90.38
620.88	94.38
621.087	81.38
621.294	87.38
621.501	92.38
621.708	79.38
621.915	81.38
622.122	79.38
622.329	87.38
622.536	87.38
622.743	90.38
622.95	73.38
623.157	76.38
623.364	90.38
623.571	88.38
623.778	97.38
623.985	83.38
624.192	102.38
624.399	102.38
624.606	98.38
624.812	80.38
625.019	93.38
625.226	85.38
625.433	97.38
625.639	83.38
625.846	83.38
626.053	90.38
626.259	90.38
626.466	88.38
626.673	81.38
626.879	89.38
627.086	92.38
627.293	91.38
627.499	79.38
627.706	86.38
627.912	81.38
628.119	84.38
628.325	88.38
628.532	93.38
628.738	97.38
628.945	92.38
629.151	77.38
629.357	77.38
629.564	84.38
629.77	84.38
629.976	80.38
630.183	89.38
630.389	80.38
630.595	88.38
630.802	92.38
631.008	100.38
631.214	90.38
631.42	96.38
631.627	105.38
631.833	94.38
632.039	87.38
632.245	94.38
632.451	95.38
632.657	89.38
632.863	93.38
633.069	87.38
633.275	98.38
633.481	90.38
633.688	79.38
633.893	79.38
634.099	95.38
634.305	86.38
634.511	89.38
634.717	88.38
634.923	97.38
635.129	105.38
635.335	119.38
635.541	93.38
635.747	97.38
635.952	90.38
636.158	76.38
636.364	101.38
636.57	92.38
636.775	82.38
636.981	89.38
637.187	87.38
637.392	92.38
637.598	86.38
637.804	92.38
638.009	89.38
638.215	84.38
638.421	80.38
638.626	92.38
638.832	86.38
639.037	81.38
639.243	56.38
639.448	93.38
639.654	85.38
639.859	95.38
640.065	105.38
640.27	81.38
640.475	69.38
640.681	86.38
640.886	88.38
641.091	84.38
641.297	93.38
641.502	94.38
641.707	78.38
641.913	76.38
642.118	97.38
642.323	88.38
642.528	94.38
642.733	63.38
642.939	87.38
643.144	86.38
643.349	85.38
643.554	82.38
643.759	80.38
643.964	81.38
644.169	93.38
644.374	93.38
644.579	88.38
644.784	74.38
644.989	93.38
645.194	90.38
645.399	91.38
645.604	85.38
645.809	86.38
646.014	88.38
646.219	87.38
646.423	89.38
646.628	89.38
646.833	98.38
647.038	74.38
647.243	71.38
647.447	86.38
647.652	87.38
647.857	85.38
648.062	98.38
648.266	91.38
648.471	75.38
648.676	91.38
648.88	88.38
649.085	87.38
649.289	81.38
649.494	95.38
649.698	99.38
649.903	92.38
650.107	87.38
650.312	78.38
650.516	80.38
650.721	91.38
650.925	90.38
651.13	86.38
651.334	84.38
651.539	81.38
651.743	79.38
651.947	69.38
652.152	76.38
652.356	84.38
652.56	100.38
652.764	110.38
652.969	99.38
653.173	76.38
653.377	91.38
653.581	81.38
653.785	83.38
653.99	81.38
654.194	71.38
654.398	77.38
654.602	94.38
654.806	86.38
655.01	85.38
655.214	82.38
655.418	68.38
655.622	77.38
655.826	62.38
656.03	74.38
656.234	88.38
656.438	91.38
656.642	91.38
656.846	80.38
657.049	76.38
657.253	70.38
657.457	86.38
657.661	68.38
657.865	88.38
658.068	81.38
658.272	84.38
658.476	77.38
658.68	91.38
658.883	74.38
659.087	56.38
659.291	83.38
659.494	81.38
659.698	86.38
659.901	84.38
660.105	77.38
660.309	80.38
660.512	92.38
660.716	87.38
660.919	91.38
661.123	93.38
661.326	70.38
661.53	88.38
661.733	92.38
661.936	82.38
662.14	93.38
662.343	77.38
662.546	73.38
662.75	83.38
662.953	92.38
663.156	65.38
663.36	82.38
663.563	75.38
663.766	94.38
663.969	77.38
664.173	92.38
664.376	86.38
664.579	83.38
664.782	81.38
664.985	81.38
665.188	91.38
665.391	83.38
665.594	67.38
665.797	84.38
666	86.38
666.203	79.38
666.406	77.38
666.609	67.38
666.812	68.38
667.015	80.38
667.218	78.38
667.421	70.38
667.624	80.38
667.827	90.38
668.03	100.38
668.232	83.38
668.435	77.38
668.638	89.38
668.841	86.38
669.043	85.38
669.246	82.38
669.449	84.38
669.651	83.38
669.854	68.38
670.057	63.38
670.259	71.38
670.462	74.38
670.665	92.38
670.867	77.38
671.07	85.38
671.272	85.38
671.475	88.38
671.677	84.38
671.88	87.38
672.082	82.38
672.284	84.38
672.487	66.38
672.689	71.38
672.892	77.38
