Data from SnStandardFlinnAPT0064_LampEnergy10_LIBS07252019.E.O._I.C._HRD10591_15-21-53-494.txt Node
Date: Thu Jul 25 15:21:53 EDT 2019
User: cochatt
Spectrometer: HR+D1059
Trigger mode: 1
Integration Time (sec): 1.000000E-1
Scans to average: 1
Electric dark correction enabled: true
Nonlinearity correction enabled: false
Boxcar width: 0
XAxis mode: Wavelengths
Number of Pixels in Spectrum: 2048
>>>>>Begin Spectral Data<<<<<
223.165	-16.12
223.4	-16.12
223.635	-16.12
223.869	-1.12
224.104	-12.12
224.338	-22.12
224.573	-20.12
224.808	-20.12
225.042	-3.12
225.277	-9.12
225.511	-10.12
225.746	6.88
225.98	7.88
226.215	10.88
226.449	25.88
226.683	19.88
226.918	19.88
227.152	22.88
227.387	28.88
227.621	47.88
227.856	39.88
228.09	50.88
228.324	53.88
228.559	56.88
228.793	119.88
229.027	324.88
229.262	331.88
229.496	290.88
229.73	287.88
229.964	293.88
230.199	316.88
230.433	286.88
230.667	310.88
230.901	318.88
231.136	332.88
231.37	343.88
231.604	390.88
231.838	437.88
232.072	495.88
232.306	534.88
232.541	482.88
232.775	417.88
233.009	420.88
233.243	410.88
233.477	460.88
233.711	514.88
233.945	562.88
234.179	488.88
234.413	455.88
234.647	442.88
234.881	477.88
235.115	528.88
235.349	623.88
235.583	751.88
235.817	951.88
236.051	914.88
236.285	635.88
236.519	534.88
236.753	471.88
236.987	494.88
237.221	528.88
237.455	510.88
237.689	454.88
237.922	461.88
238.156	458.88
238.39	478.88
238.624	480.88
238.858	473.88
239.091	479.88
239.325	474.88
239.559	496.88
239.793	506.88
240.027	514.88
240.26	532.88
240.494	546.88
240.728	584.88
240.961	602.88
241.195	636.88
241.429	663.88
241.662	693.88
241.896	760.88
242.13	936.88
242.363	1232.88
242.597	1541.88
242.83	1497.88
243.064	1475.88
243.298	1740.88
243.531	1434.88
243.765	942.88
243.998	766.88
244.232	683.88
244.465	667.88
244.699	656.88
244.932	636.88
245.166	644.88
245.399	660.88
245.633	683.88
245.866	677.88
246.099	640.88
246.333	643.88
246.566	651.88
246.8	633.88
247.033	603.88
247.266	624.88
247.5	639.88
247.733	676.88
247.966	724.88
248.2	739.88
248.433	858.88
248.666	981.88
248.899	898.88
249.133	849.88
249.366	872.88
249.599	938.88
249.832	1072.88
250.066	1034.88
250.299	833.88
250.532	789.88
250.765	753.88
250.998	734.88
251.231	750.88
251.465	724.88
251.698	744.88
251.931	737.88
252.164	744.88
252.397	774.88
252.63	770.88
252.863	790.88
253.096	767.88
253.329	779.88
253.562	798.88
253.795	785.88
254.028	793.88
254.261	808.88
254.494	873.88
254.727	1012.88
254.96	1202.88
255.193	1209.88
255.426	960.88
255.659	850.88
255.892	858.88
256.124	856.88
256.357	847.88
256.59	930.88
256.823	974.88
257.056	1102.88
257.289	1331.88
257.521	1458.88
257.754	1164.88
257.987	970.88
258.22	899.88
258.452	899.88
258.685	891.88
258.918	944.88
259.151	1007.88
259.383	1024.88
259.616	1213.88
259.849	1241.88
260.081	1102.88
260.314	993.88
260.547	937.88
260.779	951.88
261.012	955.88
261.244	928.88
261.477	959.88
261.71	970.88
261.942	997.88
262.175	1008.88
262.407	1030.88
262.64	1059.88
262.872	1092.88
263.105	1142.88
263.337	1198.88
263.57	1280.88
263.802	1306.88
264.035	1302.88
264.267	1329.88
264.499	1390.88
264.732	1434.88
264.964	1424.88
265.197	1416.88
265.429	1420.88
265.661	1458.88
265.894	1556.88
266.126	1729.88
266.358	1932.88
266.591	1903.88
266.823	1584.88
267.055	1458.88
267.287	1370.88
267.52	1283.88
267.752	1304.88
267.984	1275.88
268.216	1254.88
268.448	1228.88
268.681	1246.88
268.913	1216.88
269.145	1222.88
269.377	1222.88
269.609	1263.88
269.841	1245.88
270.073	1367.88
270.306	1584.88
270.538	2086.88
270.77	3118.88
271.002	3807.88
271.234	2646.88
271.466	1857.88
271.698	1561.88
271.93	1384.88
272.162	1301.88
272.394	1270.88
272.626	1219.88
272.858	1247.88
273.09	1207.88
273.322	1196.88
273.553	1203.88
273.785	1232.88
274.017	1177.88
274.249	1223.88
274.481	1180.88
274.713	1191.88
274.945	1198.88
275.176	1228.88
275.408	1211.88
275.64	1240.88
275.872	1243.88
276.104	1259.88
276.335	1254.88
276.567	1292.88
276.799	1278.88
277.031	1282.88
277.262	1320.88
277.494	1414.88
277.726	1530.88
277.957	1827.88
278.189	2057.88
278.421	1950.88
278.652	1719.88
278.884	1630.88
279.115	1496.88
279.347	1432.88
279.579	1351.88
279.81	1394.88
280.042	1380.88
280.273	1452.88
280.505	1456.88
280.736	1480.88
280.968	1588.88
281.199	1795.88
281.431	2068.88
281.662	2046.88
281.894	1733.88
282.125	1605.88
282.356	1638.88
282.588	1627.88
282.819	1652.88
283.051	1784.88
283.282	1944.88
283.513	2410.88
283.745	3497.88
283.976	5423.88
284.207	7624.88
284.439	7021.88
284.67	4359.88
284.901	3626.88
285.132	3649.88
285.364	3470.88
285.595	2683.88
285.826	2368.88
286.057	2844.88
286.288	3724.88
286.52	5015.88
286.751	4691.88
286.982	2964.88
287.213	2232.88
287.444	1974.88
287.675	1828.88
287.906	1736.88
288.138	1736.88
288.369	1663.88
288.6	1684.88
288.831	1672.88
289.062	1650.88
289.293	1648.88
289.524	1681.88
289.755	1714.88
289.986	1717.88
290.217	1699.88
290.448	1699.88
290.679	1720.88
290.91	1782.88
291.141	1820.88
291.371	2005.88
291.602	2092.88
291.833	1923.88
292.064	1738.88
292.295	1671.88
292.526	1646.88
292.757	1579.88
292.987	1566.88
293.218	1567.88
293.449	1574.88
293.68	1573.88
293.91	1597.88
294.141	1560.88
294.372	1603.88
294.603	1583.88
294.833	1523.88
295.064	1551.88
295.295	1571.88
295.525	1535.88
295.756	1546.88
295.987	1548.88
296.217	1540.88
296.448	1549.88
296.679	1582.88
296.909	1584.88
297.14	1576.88
297.37	1619.88
297.601	1600.88
297.831	1604.88
298.062	1609.88
298.292	1610.88
298.523	1633.88
298.753	1672.88
298.984	1701.88
299.214	1702.88
299.445	1765.88
299.675	1781.88
299.905	1819.88
300.136	1904.88
300.366	2110.88
300.597	2749.88
300.827	3758.88
301.057	5049.88
301.288	5050.88
301.518	3247.88
301.748	2506.88
301.979	2326.88
302.209	2276.88
302.439	2325.88
302.669	2444.88
302.9	2910.88
303.13	4116.88
303.36	5900.88
303.59	7895.88
303.82	6923.88
304.051	4126.88
304.281	2964.88
304.511	2519.88
304.741	2263.88
304.971	2163.88
305.201	2020.88
305.431	1977.88
305.661	1953.88
305.891	1917.88
306.121	1866.88
306.352	1897.88
306.582	1838.88
306.812	1869.88
307.042	1858.88
307.272	1805.88
307.502	1796.88
307.731	1823.88
307.961	1792.88
308.191	1795.88
308.421	1760.88
308.651	1803.88
308.881	1758.88
309.111	1814.88
309.341	1814.88
309.571	1805.88
309.8	1864.88
310.03	1867.88
310.26	1838.88
310.49	1848.88
310.72	1854.88
310.949	1842.88
311.179	1894.88
311.409	1893.88
311.639	1936.88
311.868	1918.88
312.098	1927.88
312.328	2008.88
312.557	1954.88
312.787	1957.88
313.017	1954.88
313.246	1995.88
313.476	2006.88
313.706	2091.88
313.935	2156.88
314.165	2343.88
314.394	2443.88
314.624	2335.88
314.853	2178.88
315.083	2113.88
315.312	2128.88
315.542	2181.88
315.771	2249.88
316.001	2255.88
316.23	2303.88
316.46	2395.88
316.689	2634.88
316.919	3191.88
317.148	4530.88
317.377	6922.88
317.607	10056.88
317.836	10410.88
318.065	6359.88
318.295	4175.88
318.524	3365.88
318.753	2901.88
318.983	2671.88
319.212	2555.88
319.441	2514.88
319.67	2429.88
319.9	2375.88
320.129	2328.88
320.358	2342.88
320.587	2316.88
320.816	2338.88
321.046	2350.88
321.275	2286.88
321.504	2388.88
321.733	2443.88
321.962	2508.88
322.191	2547.88
322.42	2492.88
322.649	2491.88
322.878	2465.88
323.108	2450.88
323.337	2529.88
323.566	2526.88
323.795	2591.88
324.024	2641.88
324.253	2771.88
324.482	2841.88
324.71	2920.88
324.939	3131.88
325.168	3257.88
325.397	3318.88
325.626	3942.88
325.855	5490.88
326.084	8404.88
326.313	12294.88
326.542	12996.88
326.77	8762.88
326.999	5818.88
327.228	4840.88
327.457	4648.88
327.686	4728.88
327.914	5095.88
328.143	5906.88
328.372	6923.88
328.6	7487.88
328.829	6721.88
329.058	5629.88
329.287	4955.88
329.515	4575.88
329.744	4217.88
329.972	4036.88
330.201	3883.88
330.43	3688.88
330.658	3589.88
330.887	3500.88
331.115	3460.88
331.344	3447.88
331.572	3432.88
331.801	3477.88
332.03	3488.88
332.258	3526.88
332.486	3758.88
332.715	4304.88
332.943	5225.88
333.172	6425.88
333.4	6514.88
333.629	4843.88
333.857	4445.88
334.085	4446.88
334.314	4659.88
334.542	5000.88
334.771	6002.88
334.999	7255.88
335.227	9053.88
335.455	10008.88
335.684	9067.88
335.912	7502.88
336.14	6373.88
336.369	5616.88
336.597	5122.88
336.825	4774.88
337.053	4424.88
337.281	4216.88
337.51	4014.88
337.738	3851.88
337.966	3738.88
338.194	3559.88
338.422	3412.88
338.65	3355.88
338.878	3290.88
339.106	3202.88
339.334	3189.88
339.562	3171.88
339.79	3050.88
340.018	3088.88
340.246	3029.88
340.474	2996.88
340.702	3017.88
340.93	3060.88
341.158	2992.88
341.386	2990.88
341.614	2969.88
341.842	2881.88
342.07	2834.88
342.298	2756.88
342.526	2788.88
342.754	2771.88
342.981	2698.88
343.209	2712.88
343.437	2764.88
343.665	2783.88
343.893	2830.88
344.12	2791.88
344.348	2757.88
344.576	2749.88
344.804	2688.88
345.031	2649.88
345.259	2650.88
345.487	2592.88
345.714	2597.88
345.942	2532.88
346.17	2499.88
346.397	2514.88
346.625	2527.88
346.853	2544.88
347.08	2543.88
347.308	2515.88
347.535	2533.88
347.763	2551.88
347.99	2479.88
348.218	2486.88
348.445	2450.88
348.673	2430.88
348.9	2442.88
349.128	2430.88
349.355	2457.88
349.583	2431.88
349.81	2453.88
350.037	2411.88
350.265	2382.88
350.492	2378.88
350.72	2396.88
350.947	2376.88
351.174	2402.88
351.402	2424.88
351.629	2371.88
351.856	2366.88
352.083	2385.88
352.311	2415.88
352.538	2395.88
352.765	2370.88
352.992	2356.88
353.22	2393.88
353.447	2356.88
353.674	2363.88
353.901	2403.88
354.128	2403.88
354.355	2403.88
354.583	2456.88
354.81	2439.88
355.037	2418.88
355.264	2426.88
355.491	2466.88
355.718	2430.88
355.945	2465.88
356.172	2420.88
356.399	2457.88
356.626	2498.88
356.853	2533.88
357.08	2485.88
357.307	2567.88
357.534	2531.88
357.761	2614.88
357.988	2604.88
358.215	2614.88
358.441	2565.88
358.668	2525.88
358.895	2603.88
359.122	2558.88
359.349	2558.88
359.576	2556.88
359.802	2507.88
360.029	2542.88
360.256	2549.88
360.483	2556.88
360.709	2520.88
360.936	2526.88
361.163	2533.88
361.39	2512.88
361.616	2558.88
361.843	2590.88
362.07	2544.88
362.296	2554.88
362.523	2526.88
362.749	2546.88
362.976	2602.88
363.203	2543.88
363.429	2486.88
363.656	2494.88
363.882	2547.88
364.109	2531.88
364.335	2564.88
364.562	2585.88
364.788	2537.88
365.015	2569.88
365.241	2608.88
365.468	2763.88
365.694	2894.88
365.92	2843.88
366.147	2658.88
366.373	2616.88
366.599	2602.88
366.826	2623.88
367.052	2603.88
367.278	2648.88
367.505	2572.88
367.731	2629.88
367.957	2593.88
368.184	2588.88
368.41	2654.88
368.636	2682.88
368.862	2662.88
369.089	2622.88
369.315	2607.88
369.541	2658.88
369.767	2663.88
369.993	2678.88
370.219	2646.88
370.445	2642.88
370.672	2689.88
370.898	2660.88
371.124	2724.88
371.35	2770.88
371.576	2767.88
371.802	2763.88
372.028	2752.88
372.254	2734.88
372.48	2792.88
372.706	2793.88
372.932	2780.88
373.158	2836.88
373.384	2763.88
373.61	2795.88
373.835	2828.88
374.061	2831.88
374.287	2825.88
374.513	2816.88
374.739	2883.88
374.965	2982.88
375.191	2931.88
375.416	2847.88
375.642	2853.88
375.868	2865.88
376.094	2818.88
376.319	2800.88
376.545	2816.88
376.771	2744.88
376.997	2743.88
377.222	2760.88
377.448	2737.88
377.674	2750.88
377.899	2719.88
378.125	2747.88
378.35	2738.88
378.576	2707.88
378.802	2761.88
379.027	2849.88
379.253	2879.88
379.478	3089.88
379.704	3596.88
379.929	5090.88
380.155	7703.88
380.38	8299.88
380.606	5172.88
380.831	3679.88
381.057	3207.88
381.282	2942.88
381.507	2886.88
381.733	2798.88
381.958	2784.88
382.184	2737.88
382.409	2720.88
382.634	2706.88
382.86	2647.88
383.085	2680.88
383.31	2648.88
383.535	2694.88
383.761	2681.88
383.986	2691.88
384.211	2738.88
384.436	2742.88
384.662	2769.88
384.887	2786.88
385.112	2774.88
385.337	2800.88
385.562	2764.88
385.787	2806.88
386.013	2805.88
386.238	2791.88
386.463	2833.88
386.688	2751.88
386.913	2736.88
387.138	2783.88
387.363	2715.88
387.588	2721.88
387.813	2758.88
388.038	2763.88
388.263	2764.88
388.488	2735.88
388.713	2780.88
388.938	2759.88
389.163	2745.88
389.387	2765.88
389.612	2770.88
389.837	2781.88
390.062	2739.88
390.287	2775.88
390.512	2791.88
390.736	2863.88
390.961	2849.88
391.186	2905.88
391.411	2900.88
391.636	2911.88
391.86	2986.88
392.085	2949.88
392.31	2938.88
392.534	2896.88
392.759	2793.88
392.984	2830.88
393.208	2823.88
393.433	2830.88
393.658	2844.88
393.882	2825.88
394.107	2838.88
394.331	2839.88
394.556	2814.88
394.78	2911.88
395.005	2816.88
395.229	2829.88
395.454	2906.88
395.678	2873.88
395.903	2915.88
396.127	2906.88
396.352	2896.88
396.576	2858.88
396.801	2899.88
397.025	2908.88
397.249	2943.88
397.474	2928.88
397.698	2938.88
397.922	2926.88
398.147	2897.88
398.371	3000.88
398.595	3016.88
398.82	3122.88
399.044	3197.88
399.268	3306.88
399.492	3561.88
399.717	3648.88
399.941	3650.88
400.165	3526.88
400.389	3416.88
400.613	3276.88
400.837	3184.88
401.062	3142.88
401.286	3092.88
401.51	3078.88
401.734	3095.88
401.958	3076.88
402.182	3073.88
402.406	3066.88
402.63	3075.88
402.854	3123.88
403.078	3097.88
403.302	3133.88
403.526	3161.88
403.75	3134.88
403.974	3234.88
404.198	3172.88
404.422	3217.88
404.645	3132.88
404.869	3175.88
405.093	3179.88
405.317	3202.88
405.541	3237.88
405.765	3292.88
405.988	3302.88
406.212	3269.88
406.436	3340.88
406.66	3326.88
406.883	3300.88
407.107	3360.88
407.331	3413.88
407.555	3478.88
407.778	3412.88
408.002	3427.88
408.226	3408.88
408.449	3399.88
408.673	3316.88
408.896	3254.88
409.12	3206.88
409.344	3220.88
409.567	3173.88
409.791	3200.88
410.014	3194.88
410.238	3162.88
410.461	3176.88
410.685	3145.88
410.908	3112.88
411.132	3106.88
411.355	3087.88
411.578	3014.88
411.802	3018.88
412.025	3044.88
412.249	3102.88
412.472	3048.88
412.695	3064.88
412.919	2974.88
413.142	2962.88
413.365	3034.88
413.589	3068.88
413.812	3001.88
414.035	2956.88
414.258	3035.88
414.482	3012.88
414.705	3013.88
414.928	2984.88
415.151	2973.88
415.374	2947.88
415.597	2938.88
415.821	2894.88
416.044	2843.88
416.267	2859.88
416.49	2883.88
416.713	2898.88
416.936	2918.88
417.159	2852.88
417.382	2836.88
417.605	2816.88
417.828	2805.88
418.051	2885.88
418.274	2886.88
418.497	2911.88
418.72	2954.88
418.943	2893.88
419.166	3045.88
419.389	3186.88
419.611	3138.88
419.834	3072.88
420.057	3032.88
420.28	2879.88
420.503	2828.88
420.726	2878.88
420.948	2843.88
421.171	2852.88
421.394	2926.88
421.617	2886.88
421.839	2854.88
422.062	2929.88
422.285	2822.88
422.507	2942.88
422.73	2946.88
422.953	2948.88
423.175	2982.88
423.398	2979.88
423.621	2871.88
423.843	2902.88
424.066	2910.88
424.288	2826.88
424.511	2855.88
424.733	2830.88
424.956	2877.88
425.178	2875.88
425.401	2849.88
425.623	2854.88
425.846	2763.88
426.068	2820.88
426.291	2802.88
426.513	2735.88
426.735	2734.88
426.958	2804.88
427.18	2697.88
427.402	2732.88
427.625	2724.88
427.847	2666.88
428.069	2670.88
428.292	2674.88
428.514	2704.88
428.736	2651.88
428.958	2688.88
429.181	2616.88
429.403	2655.88
429.625	2617.88
429.847	2606.88
430.069	2724.88
430.292	2823.88
430.514	2812.88
430.736	2843.88
430.958	2696.88
431.18	2659.88
431.402	2622.88
431.624	2654.88
431.846	2613.88
432.068	2602.88
432.29	2630.88
432.512	2610.88
432.734	2636.88
432.956	2653.88
433.178	2674.88
433.4	2624.88
433.622	2655.88
433.844	2617.88
434.066	2669.88
434.287	2651.88
434.509	2671.88
434.731	2694.88
434.953	2700.88
435.175	2797.88
435.397	2772.88
435.618	2684.88
435.84	2643.88
436.062	2637.88
436.284	2651.88
436.505	2643.88
436.727	2660.88
436.949	2594.88
437.17	2558.88
437.392	2609.88
437.614	2600.88
437.835	2514.88
438.057	2544.88
438.278	2515.88
438.5	2525.88
438.721	2615.88
438.943	2668.88
439.165	2736.88
439.386	2757.88
439.608	2694.88
439.829	2740.88
440.05	2773.88
440.272	2839.88
440.493	2779.88
440.715	2731.88
440.936	2751.88
441.158	2736.88
441.379	2755.88
441.6	2872.88
441.822	2942.88
442.043	3075.88
442.264	3131.88
442.486	2969.88
442.707	2844.88
442.928	2833.88
443.149	2835.88
443.371	2805.88
443.592	2799.88
443.813	2849.88
444.034	2839.88
444.255	2844.88
444.476	2936.88
444.698	3054.88
444.919	3027.88
445.14	3127.88
445.361	2954.88
445.582	2853.88
445.803	2834.88
446.024	2784.88
446.245	2823.88
446.466	2801.88
446.687	2736.88
446.908	2726.88
447.129	2652.88
447.35	2644.88
447.571	2633.88
447.792	2592.88
448.013	2601.88
448.234	2563.88
448.455	2573.88
448.675	2599.88
448.896	2687.88
449.117	2736.88
449.338	2992.88
449.559	3090.88
449.779	2790.88
450	2614.88
450.221	2537.88
450.442	2534.88
450.662	2521.88
450.883	2505.88
451.104	2526.88
451.324	2478.88
451.545	2499.88
451.766	2583.88
451.986	2625.88
452.207	2740.88
452.428	3603.88
452.648	5376.88
452.869	4491.88
453.089	3151.88
453.31	2931.88
453.53	2889.88
453.751	3030.88
453.971	3106.88
454.192	3009.88
454.412	2715.88
454.633	2537.88
454.853	2496.88
455.073	2428.88
455.294	2434.88
455.514	2441.88
455.734	2408.88
455.955	2402.88
456.175	2423.88
456.395	2428.88
456.616	2463.88
456.836	2486.88
457.056	2487.88
457.276	2491.88
457.497	2635.88
457.717	2628.88
457.937	2544.88
458.157	2524.88
458.377	2585.88
458.598	2558.88
458.818	2551.88
459.038	2608.88
459.258	2634.88
459.478	2652.88
459.698	2665.88
459.918	2740.88
460.138	2690.88
460.358	2810.88
460.578	2807.88
460.798	2860.88
461.018	2837.88
461.238	2853.88
461.458	2915.88
461.678	2885.88
461.898	3037.88
462.118	3024.88
462.338	3081.88
462.558	3119.88
462.777	3127.88
462.997	3226.88
463.217	3358.88
463.437	3493.88
463.657	3542.88
463.876	3509.88
464.096	3392.88
464.316	3208.88
464.536	3213.88
464.755	3099.88
464.975	2998.88
465.195	2906.88
465.414	2877.88
465.634	2767.88
465.854	2781.88
466.073	2714.88
466.293	2647.88
466.512	2681.88
466.732	2706.88
466.951	2798.88
467.171	2991.88
467.391	2962.88
467.61	2752.88
467.829	2606.88
468.049	2587.88
468.268	2594.88
468.488	2582.88
468.707	2599.88
468.927	2559.88
469.146	2582.88
469.365	2599.88
469.585	2651.88
469.804	2683.88
470.023	2676.88
470.243	2754.88
470.462	2789.88
470.681	2997.88
470.901	3267.88
471.12	3715.88
471.339	3670.88
471.558	3119.88
471.777	2893.88
471.997	2757.88
472.216	2710.88
472.435	2666.88
472.654	2636.88
472.873	2590.88
473.092	2644.88
473.311	2625.88
473.53	2638.88
473.749	2665.88
473.968	2816.88
474.187	2620.88
474.406	2578.88
474.625	2601.88
474.844	2630.88
475.063	2631.88
475.282	2656.88
475.501	2634.88
475.72	2639.88
475.939	2638.88
476.158	2680.88
476.377	2786.88
476.596	2792.88
476.814	2752.88
477.033	2734.88
477.252	2791.88
477.471	2858.88
477.69	2898.88
477.908	2944.88
478.127	2955.88
478.346	2910.88
478.564	2998.88
478.783	3029.88
479.002	3088.88
479.22	3080.88
479.439	3093.88
479.658	3140.88
479.876	3164.88
480.095	3191.88
480.313	3230.88
480.532	3279.88
480.751	3256.88
480.969	3215.88
481.188	3160.88
481.406	3143.88
481.624	3141.88
481.843	3143.88
482.061	3146.88
482.28	3183.88
482.498	3188.88
482.717	3173.88
482.935	3156.88
483.153	3207.88
483.372	3294.88
483.59	3289.88
483.808	3395.88
484.027	3418.88
484.245	3596.88
484.463	3996.88
484.681	4438.88
484.9	4087.88
485.118	3769.88
485.336	3707.88
485.554	3780.88
485.772	4015.88
485.99	4496.88
486.209	4748.88
486.427	4107.88
486.645	3690.88
486.863	3547.88
487.081	3452.88
487.299	3389.88
487.517	3362.88
487.735	3385.88
487.953	3406.88
488.171	3340.88
488.389	3339.88
488.607	3267.88
488.825	3287.88
489.043	3231.88
489.261	3260.88
489.479	3258.88
489.696	3227.88
489.914	3274.88
490.132	3285.88
490.35	3262.88
490.568	3291.88
490.786	3385.88
491.003	3366.88
491.221	3410.88
491.439	3405.88
491.657	3387.88
491.874	3426.88
492.092	3382.88
492.31	3351.88
492.527	3424.88
492.745	3472.88
492.963	3366.88
493.18	3404.88
493.398	3351.88
493.615	3443.88
493.833	3430.88
494.05	3426.88
494.268	3438.88
494.485	3435.88
494.703	3441.88
494.92	3427.88
495.138	3428.88
495.355	3329.88
495.573	3430.88
495.79	3443.88
496.008	3466.88
496.225	3545.88
496.442	3560.88
496.66	3678.88
496.877	3845.88
497.094	3783.88
497.312	3723.88
497.529	3619.88
497.746	3743.88
497.963	3798.88
498.181	3896.88
498.398	3974.88
498.615	4107.88
498.832	4263.88
499.049	4439.88
499.267	4789.88
499.484	5075.88
499.701	5056.88
499.918	5211.88
500.135	5521.88
500.352	5762.88
500.569	5862.88
500.786	5767.88
501.003	5590.88
501.22	5353.88
501.437	5031.88
501.654	4763.88
501.871	4617.88
502.088	4407.88
502.305	4228.88
502.522	4108.88
502.739	4068.88
502.956	3886.88
503.172	3840.88
503.389	3691.88
503.606	3635.88
503.823	3644.88
504.04	3589.88
504.256	3587.88
504.473	3525.88
504.69	3599.88
504.907	3523.88
505.123	3491.88
505.34	3376.88
505.557	3266.88
505.773	3206.88
505.99	3226.88
506.207	3170.88
506.423	3114.88
506.64	3094.88
506.856	3031.88
507.073	3037.88
507.289	3034.88
507.506	3003.88
507.722	3077.88
507.939	2981.88
508.155	3008.88
508.372	2964.88
508.588	2968.88
508.805	2952.88
509.021	2942.88
509.238	2948.88
509.454	3143.88
509.67	3321.88
509.887	3123.88
510.103	2957.88
510.319	2953.88
510.536	2963.88
510.752	2939.88
510.968	2867.88
511.184	2826.88
511.401	2861.88
511.617	2896.88
511.833	2882.88
512.049	2833.88
512.265	2860.88
512.481	2828.88
512.698	2802.88
512.914	2789.88
513.13	2829.88
513.346	2832.88
513.562	2842.88
513.778	2850.88
513.994	2902.88
514.21	2991.88
514.426	3128.88
514.642	3230.88
514.858	3016.88
515.074	2933.88
515.29	2918.88
515.506	2883.88
515.721	2926.88
515.937	2880.88
516.153	2936.88
516.369	2952.88
516.585	3007.88
516.801	3052.88
517.016	3094.88
517.232	3163.88
517.448	3195.88
517.664	3258.88
517.879	3200.88
518.095	3243.88
518.311	3251.88
518.527	3130.88
518.742	3166.88
518.958	3201.88
519.173	3306.88
519.389	3147.88
519.605	3054.88
519.82	2960.88
520.036	2960.88
520.251	2846.88
520.467	2859.88
520.682	2789.88
520.898	2779.88
521.113	2799.88
521.329	2749.88
521.544	2752.88
521.76	2818.88
521.975	2800.88
522.19	2759.88
522.406	2773.88
522.621	2752.88
522.836	2698.88
523.052	2756.88
523.267	2695.88
523.482	2750.88
523.698	2725.88
523.913	2710.88
524.128	2708.88
524.343	2705.88
524.559	2690.88
524.774	2676.88
524.989	2682.88
525.204	2744.88
525.419	2688.88
525.634	2697.88
525.849	2695.88
526.064	2666.88
526.28	2689.88
526.495	2710.88
526.71	2746.88
526.925	2723.88
527.14	2712.88
527.355	2723.88
527.57	2695.88
527.785	2745.88
527.999	2751.88
528.214	2751.88
528.429	2779.88
528.644	2792.88
528.859	2834.88
529.074	2854.88
529.289	2880.88
529.503	2915.88
529.718	2890.88
529.933	2813.88
530.148	2901.88
530.363	2929.88
530.577	2895.88
530.792	2877.88
531.007	2891.88
531.221	2970.88
531.436	2967.88
531.651	2999.88
531.865	3012.88
532.08	3076.88
532.295	3164.88
532.509	3338.88
532.724	3363.88
532.938	3425.88
533.153	3496.88
533.367	3772.88
533.582	3934.88
533.796	3838.88
534.011	3692.88
534.225	3526.88
534.44	3408.88
534.654	3409.88
534.868	3291.88
535.083	3283.88
535.297	3175.88
535.511	3174.88
535.726	3120.88
535.94	3063.88
536.154	2986.88
536.369	2903.88
536.583	2896.88
536.797	2876.88
537.011	2866.88
537.225	2795.88
537.44	2811.88
537.654	2809.88
537.868	2766.88
538.082	2744.88
538.296	2694.88
538.51	2670.88
538.724	2736.88
538.938	2703.88
539.153	2648.88
539.367	2684.88
539.581	2673.88
539.795	2571.88
540.009	2629.88
540.222	2582.88
540.436	2625.88
540.65	2601.88
540.864	2628.88
541.078	2649.88
541.292	2733.88
541.506	3241.88
541.72	3450.88
541.934	2946.88
542.147	2784.88
542.361	2755.88
542.575	2609.88
542.789	2577.88
543.002	2582.88
543.216	2533.88
543.43	2479.88
543.644	2489.88
543.857	2513.88
544.071	2481.88
544.285	2543.88
544.498	2536.88
544.712	2526.88
544.925	2516.88
545.139	2489.88
545.352	2519.88
545.566	2550.88
545.779	2520.88
545.993	2536.88
546.206	2552.88
546.42	2570.88
546.633	2526.88
546.847	2519.88
547.06	2515.88
547.274	2495.88
547.487	2520.88
547.7	2539.88
547.914	2485.88
548.127	2527.88
548.34	2508.88
548.554	2533.88
548.767	2532.88
548.98	2539.88
549.193	2520.88
549.407	2542.88
549.62	2566.88
549.833	2542.88
550.046	2558.88
550.259	2545.88
550.473	2527.88
550.686	2511.88
550.899	2588.88
551.112	2550.88
551.325	2560.88
551.538	2592.88
551.751	2529.88
551.964	2527.88
552.177	2585.88
552.39	2582.88
552.603	2647.88
552.816	2680.88
553.029	2734.88
553.242	2830.88
553.455	2807.88
553.667	2786.88
553.88	2812.88
554.093	2792.88
554.306	2810.88
554.519	2849.88
554.732	2876.88
554.944	2954.88
555.157	3011.88
555.37	3089.88
555.583	3206.88
555.795	3398.88
556.008	3657.88
556.221	3997.88
556.433	4313.88
556.646	4374.88
556.859	4186.88
557.071	3969.88
557.284	3868.88
557.496	3706.88
557.709	3707.88
557.921	3624.88
558.134	3592.88
558.346	3623.88
558.559	3792.88
558.771	4027.88
558.984	4348.88
559.196	4737.88
559.409	4446.88
559.621	4160.88
559.833	3840.88
560.046	3638.88
560.258	3456.88
560.47	3326.88
560.683	3186.88
560.895	3049.88
561.107	2956.88
561.32	2919.88
561.532	2833.88
561.744	2731.88
561.956	2677.88
562.168	2666.88
562.381	2667.88
562.593	2654.88
562.805	2717.88
563.017	2696.88
563.229	2755.88
563.441	3141.88
563.653	2652.88
563.865	2440.88
564.077	2452.88
564.289	2356.88
564.501	2383.88
564.713	2321.88
564.925	2344.88
565.137	2375.88
565.349	2315.88
565.561	2355.88
565.773	2375.88
565.985	2389.88
566.197	2461.88
566.408	2419.88
566.62	2519.88
566.832	2629.88
567.044	2620.88
567.255	2569.88
567.467	2663.88
567.679	2686.88
567.891	2788.88
568.102	3116.88
568.314	3519.88
568.526	3107.88
568.737	2688.88
568.949	2477.88
569.161	2354.88
569.372	2286.88
569.584	2173.88
569.795	2103.88
570.007	2114.88
570.218	2141.88
570.43	2191.88
570.641	2059.88
570.853	1955.88
571.064	1963.88
571.276	1950.88
571.487	1916.88
571.698	1894.88
571.91	1855.88
572.121	1850.88
572.333	1841.88
572.544	1866.88
572.755	2020.88
572.966	2230.88
573.178	2115.88
573.389	1891.88
573.6	1819.88
573.811	1740.88
574.023	1759.88
574.234	1717.88
574.445	1703.88
574.656	1700.88
574.867	1744.88
575.078	1688.88
575.289	1730.88
575.501	1708.88
575.712	1696.88
575.923	1684.88
576.134	1702.88
576.345	1707.88
576.556	1695.88
576.767	1700.88
576.978	1724.88
577.188	1729.88
577.399	1746.88
577.61	1748.88
577.821	1761.88
578.032	1763.88
578.243	1769.88
578.454	1851.88
578.665	1858.88
578.875	1891.88
579.086	1978.88
579.297	2046.88
579.508	2188.88
579.718	2405.88
579.929	2715.88
580.14	3133.88
580.35	3218.88
580.561	2943.88
580.772	2634.88
580.982	2427.88
581.193	2320.88
581.403	2175.88
581.614	2057.88
581.825	2007.88
582.035	1909.88
582.246	1843.88
582.456	1780.88
582.667	1766.88
582.877	1748.88
583.087	1713.88
583.298	1649.88
583.508	1615.88
583.719	1566.88
583.929	1512.88
584.139	1520.88
584.35	1524.88
584.56	1465.88
584.77	1462.88
584.981	1459.88
585.191	1437.88
585.401	1419.88
585.611	1344.88
585.821	1384.88
586.032	1335.88
586.242	1360.88
586.452	1341.88
586.662	1299.88
586.872	1301.88
587.082	1275.88
587.292	1241.88
587.502	1251.88
587.713	1283.88
587.923	1269.88
588.133	1231.88
588.343	1263.88
588.553	1233.88
588.762	1208.88
588.972	1232.88
589.182	1222.88
589.392	1208.88
589.602	1201.88
589.812	1198.88
590.022	1194.88
590.232	1157.88
590.441	1198.88
590.651	1161.88
590.861	1145.88
591.071	1211.88
591.281	1195.88
591.49	1172.88
591.7	1206.88
591.91	1163.88
592.119	1163.88
592.329	1172.88
592.539	1166.88
592.748	1231.88
592.958	1218.88
593.167	1234.88
593.377	1230.88
593.587	1229.88
593.796	1228.88
594.006	1254.88
594.215	1219.88
594.424	1230.88
594.634	1192.88
594.843	1155.88
595.053	1195.88
595.262	1185.88
595.472	1098.88
595.681	1088.88
595.89	1126.88
596.1	1083.88
596.309	1046.88
596.518	1083.88
596.727	1043.88
596.937	1065.88
597.146	1038.88
597.355	1010.88
597.564	1038.88
597.774	1007.88
597.983	1004.88
598.192	963.88
598.401	979.88
598.61	967.88
598.819	971.88
599.028	965.88
599.237	998.88
599.446	938.88
599.655	995.88
599.864	960.88
600.073	943.88
600.282	950.88
600.491	955.88
600.7	926.88
600.909	941.88
601.118	936.88
601.327	942.88
601.536	951.88
601.745	988.88
601.953	1070.88
602.162	1178.88
602.371	1072.88
602.58	1002.88
602.789	951.88
602.997	952.88
603.206	942.88
603.415	929.88
603.623	916.88
603.832	911.88
604.041	906.88
604.249	887.88
604.458	894.88
604.666	880.88
604.875	887.88
605.084	880.88
605.292	901.88
605.501	868.88
605.709	893.88
605.918	888.88
606.126	914.88
606.334	904.88
606.543	907.88
606.751	995.88
606.96	1126.88
607.168	1168.88
607.376	1026.88
607.585	954.88
607.793	926.88
608.001	908.88
608.21	886.88
608.418	896.88
608.626	855.88
608.834	863.88
609.043	844.88
609.251	837.88
609.459	845.88
609.667	823.88
609.875	857.88
610.083	827.88
610.291	838.88
610.499	809.88
610.707	806.88
610.916	809.88
611.124	806.88
611.332	805.88
611.54	828.88
611.748	826.88
611.955	802.88
612.163	811.88
612.371	800.88
612.579	794.88
612.787	781.88
612.995	804.88
613.203	800.88
613.411	788.88
613.618	793.88
613.826	798.88
614.034	761.88
614.242	786.88
614.449	779.88
614.657	808.88
614.865	769.88
615.072	781.88
615.28	809.88
615.488	791.88
615.695	827.88
615.903	787.88
616.111	771.88
616.318	762.88
616.526	781.88
616.733	768.88
616.941	768.88
617.148	802.88
617.356	796.88
617.563	759.88
617.771	778.88
617.978	743.88
618.185	740.88
618.393	756.88
618.6	740.88
618.807	734.88
619.015	767.88
619.222	737.88
619.429	735.88
619.637	725.88
619.844	710.88
620.051	724.88
620.258	720.88
620.466	699.88
620.673	690.88
620.88	699.88
621.087	667.88
621.294	677.88
621.501	702.88
621.708	698.88
621.915	680.88
622.122	700.88
622.329	699.88
622.536	694.88
622.743	677.88
622.95	706.88
623.157	699.88
623.364	688.88
623.571	700.88
623.778	687.88
623.985	690.88
624.192	691.88
624.399	674.88
624.606	671.88
624.812	681.88
625.019	664.88
625.226	651.88
625.433	658.88
625.639	644.88
625.846	642.88
626.053	628.88
626.259	650.88
626.466	616.88
626.673	657.88
626.879	606.88
627.086	632.88
627.293	609.88
627.499	620.88
627.706	624.88
627.912	617.88
628.119	629.88
628.325	642.88
628.532	637.88
628.738	635.88
628.945	640.88
629.151	610.88
629.357	599.88
629.564	606.88
629.77	610.88
629.976	623.88
630.183	613.88
630.389	605.88
630.595	601.88
630.802	616.88
631.008	586.88
631.214	586.88
631.42	575.88
631.627	593.88
631.833	608.88
632.039	592.88
632.245	594.88
632.451	584.88
632.657	590.88
632.863	571.88
633.069	570.88
633.275	566.88
633.481	567.88
633.688	598.88
633.893	584.88
634.099	585.88
634.305	582.88
634.511	583.88
634.717	588.88
634.923	606.88
635.129	662.88
635.335	777.88
635.541	686.88
635.747	644.88
635.952	608.88
636.158	586.88
636.364	600.88
636.57	575.88
636.775	572.88
636.981	587.88
637.187	567.88
637.392	564.88
637.598	595.88
637.804	584.88
638.009	578.88
638.215	581.88
638.421	608.88
638.626	572.88
638.832	564.88
639.037	586.88
639.243	588.88
639.448	599.88
639.654	592.88
639.859	588.88
640.065	601.88
640.27	605.88
640.475	592.88
640.681	591.88
640.886	633.88
641.091	638.88
641.297	620.88
641.502	638.88
641.707	649.88
641.913	642.88
642.118	644.88
642.323	651.88
642.528	666.88
642.733	692.88
642.939	689.88
643.144	722.88
643.349	741.88
643.554	745.88
643.759	791.88
643.964	834.88
644.169	878.88
644.374	922.88
644.579	1034.88
644.784	1121.88
644.989	1286.88
645.194	1495.88
645.399	1808.88
645.604	1963.88
645.809	1462.88
646.014	1118.88
646.219	896.88
646.423	858.88
646.628	738.88
646.833	716.88
647.038	680.88
647.243	633.88
647.447	610.88
647.652	600.88
647.857	591.88
648.062	578.88
648.266	549.88
648.471	561.88
648.676	570.88
648.88	563.88
649.085	545.88
649.289	521.88
649.494	498.88
649.698	508.88
649.903	495.88
650.107	504.88
650.312	495.88
650.516	456.88
650.721	453.88
650.925	441.88
651.13	426.88
651.334	436.88
651.539	443.88
651.743	425.88
651.947	438.88
652.152	433.88
652.356	422.88
652.56	474.88
652.764	490.88
652.969	451.88
653.173	433.88
653.377	405.88
653.581	385.88
653.785	391.88
653.99	378.88
654.194	345.88
654.398	361.88
654.602	361.88
654.806	346.88
655.01	335.88
655.214	335.88
655.418	348.88
655.622	343.88
655.826	355.88
656.03	354.88
656.234	375.88
656.438	388.88
656.642	394.88
656.846	371.88
657.049	351.88
657.253	337.88
657.457	298.88
657.661	279.88
657.865	260.88
658.068	276.88
658.272	249.88
658.476	248.88
658.68	223.88
658.883	224.88
659.087	207.88
659.291	211.88
659.494	204.88
659.698	185.88
659.901	185.88
660.105	166.88
660.309	176.88
660.512	169.88
660.716	153.88
660.919	145.88
661.123	137.88
661.326	150.88
661.53	134.88
661.733	112.88
661.936	104.88
662.14	122.88
662.343	126.88
662.546	103.88
662.75	118.88
662.953	102.88
663.156	107.88
663.36	98.88
663.563	96.88
663.766	85.88
663.969	89.88
664.173	96.88
664.376	88.88
664.579	79.88
664.782	95.88
664.985	91.88
665.188	83.88
665.391	87.88
665.594	86.88
665.797	80.88
666	80.88
666.203	94.88
666.406	79.88
666.609	99.88
666.812	90.88
667.015	88.88
667.218	85.88
667.421	94.88
667.624	83.88
667.827	86.88
668.03	83.88
668.232	80.88
668.435	79.88
668.638	91.88
668.841	92.88
669.043	80.88
669.246	85.88
669.449	88.88
669.651	91.88
669.854	88.88
670.057	79.88
670.259	83.88
670.462	95.88
670.665	74.88
670.867	70.88
671.07	83.88
671.272	77.88
671.475	96.88
671.677	76.88
671.88	81.88
672.082	78.88
672.284	89.88
672.487	75.88
672.689	86.88
672.892	83.88
