Data from SnStandardFlinnAPT0064_LampEnergy5.5_LIBS07252019.E.O._I.C._HRD10591_15-15-20-491.txt Node
Date: Thu Jul 25 15:15:20 EDT 2019
User: cochatt
Spectrometer: HR+D1059
Trigger mode: 1
Integration Time (sec): 1.000000E-1
Scans to average: 1
Electric dark correction enabled: true
Nonlinearity correction enabled: false
Boxcar width: 0
XAxis mode: Wavelengths
Number of Pixels in Spectrum: 2048
>>>>>Begin Spectral Data<<<<<
223.165	-14.19
223.4	-14.19
223.635	-14.19
223.869	-22.19
224.104	-14.19
224.338	-13.19
224.573	-12.19
224.808	-22.19
225.042	0.81
225.277	-10.19
225.511	-10.19
225.746	16.81
225.98	9.81
226.215	-0.19
226.449	16.81
226.683	27.81
226.918	20.81
227.152	25.81
227.387	33.81
227.621	38.81
227.856	55.81
228.09	46.81
228.324	44.81
228.559	66.81
228.793	84.81
229.027	134.81
229.262	152.81
229.496	148.81
229.73	143.81
229.964	155.81
230.199	148.81
230.433	170.81
230.667	167.81
230.901	157.81
231.136	166.81
231.37	172.81
231.604	185.81
231.838	193.81
232.072	222.81
232.306	219.81
232.541	206.81
232.775	193.81
233.009	199.81
233.243	209.81
233.477	222.81
233.711	234.81
233.945	236.81
234.179	224.81
234.413	217.81
234.647	220.81
234.881	207.81
235.115	227.81
235.349	273.81
235.583	311.81
235.817	394.81
236.051	355.81
236.285	263.81
236.519	251.81
236.753	216.81
236.987	225.81
237.221	231.81
237.455	235.81
237.689	231.81
237.922	232.81
238.156	237.81
238.39	229.81
238.624	229.81
238.858	222.81
239.091	231.81
239.325	222.81
239.559	224.81
239.793	227.81
240.027	239.81
240.26	231.81
240.494	238.81
240.728	254.81
240.961	263.81
241.195	298.81
241.429	295.81
241.662	288.81
241.896	310.81
242.13	379.81
242.363	445.81
242.597	559.81
242.83	537.81
243.064	568.81
243.298	629.81
243.531	565.81
243.765	376.81
243.998	320.81
244.232	307.81
244.465	286.81
244.699	291.81
244.932	282.81
245.166	289.81
245.399	296.81
245.633	295.81
245.866	295.81
246.099	291.81
246.333	298.81
246.566	283.81
246.8	270.81
247.033	287.81
247.266	292.81
247.5	283.81
247.733	305.81
247.966	315.81
248.2	325.81
248.433	375.81
248.666	369.81
248.899	356.81
249.133	343.81
249.366	345.81
249.599	380.81
249.832	417.81
250.066	417.81
250.299	354.81
250.532	331.81
250.765	325.81
250.998	323.81
251.231	333.81
251.465	337.81
251.698	329.81
251.931	327.81
252.164	326.81
252.397	340.81
252.63	336.81
252.863	369.81
253.096	342.81
253.329	345.81
253.562	340.81
253.795	327.81
254.028	354.81
254.261	367.81
254.494	372.81
254.727	413.81
254.96	445.81
255.193	460.81
255.426	390.81
255.659	370.81
255.892	371.81
256.124	362.81
256.357	379.81
256.59	376.81
256.823	418.81
257.056	417.81
257.289	489.81
257.521	507.81
257.754	453.81
257.987	392.81
258.22	396.81
258.452	399.81
258.685	398.81
258.918	390.81
259.151	405.81
259.383	443.81
259.616	478.81
259.849	497.81
260.081	455.81
260.314	413.81
260.547	401.81
260.779	409.81
261.012	426.81
261.244	407.81
261.477	405.81
261.71	445.81
261.942	441.81
262.175	434.81
262.407	449.81
262.64	463.81
262.872	468.81
263.105	491.81
263.337	533.81
263.57	538.81
263.802	548.81
264.035	533.81
264.267	588.81
264.499	585.81
264.732	591.81
264.964	629.81
265.197	633.81
265.429	614.81
265.661	635.81
265.894	654.81
266.126	701.81
266.358	773.81
266.591	747.81
266.823	627.81
267.055	611.81
267.287	590.81
267.52	562.81
267.752	553.81
267.984	581.81
268.216	536.81
268.448	559.81
268.681	513.81
268.913	521.81
269.145	533.81
269.377	541.81
269.609	533.81
269.841	537.81
270.073	552.81
270.306	605.81
270.538	805.81
270.77	1094.81
271.002	1329.81
271.234	997.81
271.466	710.81
271.698	606.81
271.93	533.81
272.162	562.81
272.394	535.81
272.626	538.81
272.858	525.81
273.09	525.81
273.322	518.81
273.553	498.81
273.785	518.81
274.017	497.81
274.249	517.81
274.481	521.81
274.713	523.81
274.945	510.81
275.176	518.81
275.408	491.81
275.64	505.81
275.872	518.81
276.104	513.81
276.335	508.81
276.567	530.81
276.799	548.81
277.031	554.81
277.262	545.81
277.494	577.81
277.726	610.81
277.957	662.81
278.189	738.81
278.421	703.81
278.652	662.81
278.884	633.81
279.115	598.81
279.347	583.81
279.579	563.81
279.81	576.81
280.042	557.81
280.273	579.81
280.505	586.81
280.736	604.81
280.968	606.81
281.199	656.81
281.431	723.81
281.662	747.81
281.894	665.81
282.125	645.81
282.356	651.81
282.588	679.81
282.819	670.81
283.051	713.81
283.282	767.81
283.513	939.81
283.745	1239.81
283.976	1957.81
284.207	2677.81
284.439	2419.81
284.67	1545.81
284.901	1258.81
285.132	1230.81
285.364	1126.81
285.595	957.81
285.826	883.81
286.057	996.81
286.288	1323.81
286.52	1711.81
286.751	1608.81
286.982	1067.81
287.213	832.81
287.444	781.81
287.675	725.81
287.906	717.81
288.138	691.81
288.369	678.81
288.6	691.81
288.831	683.81
289.062	706.81
289.293	684.81
289.524	687.81
289.755	674.81
289.986	699.81
290.217	685.81
290.448	691.81
290.679	683.81
290.91	687.81
291.141	723.81
291.371	746.81
291.602	764.81
291.833	777.81
292.064	709.81
292.295	663.81
292.526	652.81
292.757	643.81
292.987	641.81
293.218	673.81
293.449	685.81
293.68	649.81
293.91	641.81
294.141	665.81
294.372	635.81
294.603	649.81
294.833	666.81
295.064	660.81
295.295	639.81
295.525	651.81
295.756	659.81
295.987	634.81
296.217	660.81
296.448	636.81
296.679	645.81
296.909	669.81
297.14	666.81
297.37	680.81
297.601	674.81
297.831	666.81
298.062	672.81
298.292	663.81
298.523	665.81
298.753	689.81
298.984	689.81
299.214	685.81
299.445	696.81
299.675	714.81
299.905	733.81
300.136	730.81
300.366	836.81
300.597	1013.81
300.827	1294.81
301.057	1738.81
301.288	1707.81
301.518	1137.81
301.748	949.81
301.979	885.81
302.209	835.81
302.439	859.81
302.669	917.81
302.9	1041.81
303.13	1380.81
303.36	1961.81
303.59	2553.81
303.82	2241.81
304.051	1435.81
304.281	1077.81
304.511	951.81
304.741	881.81
304.971	833.81
305.201	824.81
305.431	771.81
305.661	756.81
305.891	763.81
306.121	749.81
306.352	753.81
306.582	751.81
306.812	737.81
307.042	739.81
307.272	754.81
307.502	757.81
307.731	754.81
307.961	735.81
308.191	761.81
308.421	749.81
308.651	734.81
308.881	750.81
309.111	737.81
309.341	748.81
309.571	751.81
309.8	751.81
310.03	757.81
310.26	777.81
310.49	769.81
310.72	742.81
310.949	771.81
311.179	783.81
311.409	758.81
311.639	790.81
311.868	772.81
312.098	781.81
312.328	796.81
312.557	793.81
312.787	804.81
313.017	791.81
313.246	795.81
313.476	809.81
313.706	861.81
313.935	854.81
314.165	877.81
314.394	916.81
314.624	861.81
314.853	854.81
315.083	885.81
315.312	886.81
315.542	893.81
315.771	888.81
316.001	907.81
316.23	905.81
316.46	945.81
316.689	994.81
316.919	1161.81
317.148	1576.81
317.377	2350.81
317.607	3428.81
317.836	3531.81
318.065	2155.81
318.295	1461.81
318.524	1225.81
318.753	1109.81
318.983	1037.81
319.212	1005.81
319.441	1003.81
319.67	972.81
319.9	967.81
320.129	933.81
320.358	965.81
320.587	950.81
320.816	939.81
321.046	942.81
321.275	924.81
321.504	941.81
321.733	971.81
321.962	988.81
322.191	972.81
322.42	1006.81
322.649	997.81
322.878	995.81
323.108	988.81
323.337	998.81
323.566	1032.81
323.795	1019.81
324.024	1030.81
324.253	1050.81
324.482	1092.81
324.71	1147.81
324.939	1193.81
325.168	1250.81
325.397	1261.81
325.626	1447.81
325.855	1923.81
326.084	2922.81
326.313	4206.81
326.542	4425.81
326.77	2949.81
326.999	2045.81
327.228	1731.81
327.457	1692.81
327.686	1714.81
327.914	1795.81
328.143	2041.81
328.372	2313.81
328.6	2512.81
328.829	2359.81
329.058	2124.81
329.287	1921.81
329.515	1724.81
329.744	1657.81
329.972	1559.81
330.201	1479.81
330.43	1432.81
330.658	1401.81
330.887	1394.81
331.115	1395.81
331.344	1362.81
331.572	1344.81
331.801	1340.81
332.03	1382.81
332.258	1348.81
332.486	1422.81
332.715	1557.81
332.943	1868.81
333.172	2201.81
333.4	2179.81
333.629	1780.81
333.857	1686.81
334.085	1693.81
334.314	1787.81
334.542	1845.81
334.771	2169.81
334.999	2529.81
335.227	3051.81
335.455	3373.81
335.684	3191.81
335.912	2748.81
336.14	2396.81
336.369	2170.81
336.597	1971.81
336.825	1864.81
337.053	1745.81
337.281	1653.81
337.51	1568.81
337.738	1540.81
337.966	1449.81
338.194	1432.81
338.422	1340.81
338.65	1400.81
338.878	1290.81
339.106	1294.81
339.334	1265.81
339.562	1226.81
339.79	1239.81
340.018	1258.81
340.246	1212.81
340.474	1208.81
340.702	1210.81
340.93	1231.81
341.158	1207.81
341.386	1175.81
341.614	1202.81
341.842	1179.81
342.07	1155.81
342.298	1139.81
342.526	1135.81
342.754	1116.81
342.981	1115.81
343.209	1111.81
343.437	1120.81
343.665	1146.81
343.893	1140.81
344.12	1153.81
344.348	1166.81
344.576	1108.81
344.804	1061.81
345.031	1066.81
345.259	1049.81
345.487	1037.81
345.714	1059.81
345.942	1059.81
346.17	1042.81
346.397	1015.81
346.625	1043.81
346.853	1034.81
347.08	1027.81
347.308	1042.81
347.535	1043.81
347.763	1033.81
347.99	1006.81
348.218	1002.81
348.445	1018.81
348.673	997.81
348.9	1029.81
349.128	994.81
349.355	1007.81
349.583	991.81
349.81	1006.81
350.037	998.81
350.265	962.81
350.492	990.81
350.72	983.81
350.947	1012.81
351.174	1012.81
351.402	1015.81
351.629	1007.81
351.856	965.81
352.083	974.81
352.311	984.81
352.538	977.81
352.765	975.81
352.992	966.81
353.22	987.81
353.447	971.81
353.674	955.81
353.901	972.81
354.128	999.81
354.355	986.81
354.583	965.81
354.81	971.81
355.037	990.81
355.264	1010.81
355.491	966.81
355.718	999.81
355.945	1016.81
356.172	1033.81
356.399	1013.81
356.626	1029.81
356.853	1022.81
357.08	1015.81
357.307	1045.81
357.534	1053.81
357.761	1026.81
357.988	1038.81
358.215	1044.81
358.441	1029.81
358.668	1031.81
358.895	1033.81
359.122	1043.81
359.349	1035.81
359.576	1019.81
359.802	1057.81
360.029	1037.81
360.256	1065.81
360.483	1056.81
360.709	1046.81
360.936	1053.81
361.163	1039.81
361.39	1033.81
361.616	1060.81
361.843	1049.81
362.07	1027.81
362.296	1023.81
362.523	1021.81
362.749	1045.81
362.976	1028.81
363.203	1054.81
363.429	1048.81
363.656	1049.81
363.882	1047.81
364.109	1057.81
364.335	1045.81
364.562	1057.81
364.788	1065.81
365.015	1054.81
365.241	1039.81
365.468	1085.81
365.694	1111.81
365.92	1101.81
366.147	1052.81
366.373	1065.81
366.599	1087.81
366.826	1049.81
367.052	1077.81
367.278	1084.81
367.505	1074.81
367.731	1075.81
367.957	1058.81
368.184	1051.81
368.41	1103.81
368.636	1084.81
368.862	1093.81
369.089	1094.81
369.315	1091.81
369.541	1082.81
369.767	1101.81
369.993	1115.81
370.219	1060.81
370.445	1103.81
370.672	1097.81
370.898	1065.81
371.124	1090.81
371.35	1117.81
371.576	1129.81
371.802	1130.81
372.028	1116.81
372.254	1122.81
372.48	1116.81
372.706	1143.81
372.932	1134.81
373.158	1143.81
373.384	1179.81
373.61	1157.81
373.835	1139.81
374.061	1139.81
374.287	1151.81
374.513	1187.81
374.739	1210.81
374.965	1193.81
375.191	1185.81
375.416	1162.81
375.642	1178.81
375.868	1191.81
376.094	1171.81
376.319	1148.81
376.545	1135.81
376.771	1145.81
376.997	1121.81
377.222	1127.81
377.448	1121.81
377.674	1117.81
377.899	1146.81
378.125	1148.81
378.35	1140.81
378.576	1126.81
378.802	1143.81
379.027	1148.81
379.253	1165.81
379.478	1179.81
379.704	1361.81
379.929	1807.81
380.155	2565.81
380.38	2683.81
380.606	1797.81
380.831	1376.81
381.057	1236.81
381.282	1197.81
381.507	1161.81
381.733	1151.81
381.958	1089.81
382.184	1149.81
382.409	1118.81
382.634	1126.81
382.86	1099.81
383.085	1113.81
383.31	1132.81
383.535	1141.81
383.761	1142.81
383.986	1153.81
384.211	1124.81
384.436	1130.81
384.662	1134.81
384.887	1139.81
385.112	1148.81
385.337	1149.81
385.562	1149.81
385.787	1163.81
386.013	1173.81
386.238	1168.81
386.463	1193.81
386.688	1172.81
386.913	1130.81
387.138	1119.81
387.363	1141.81
387.588	1149.81
387.813	1171.81
388.038	1163.81
388.263	1162.81
388.488	1164.81
388.713	1159.81
388.938	1151.81
389.163	1146.81
389.387	1145.81
389.612	1127.81
389.837	1149.81
390.062	1149.81
390.287	1174.81
390.512	1181.81
390.736	1198.81
390.961	1198.81
391.186	1166.81
391.411	1188.81
391.636	1219.81
391.86	1234.81
392.085	1235.81
392.31	1252.81
392.534	1204.81
392.759	1216.81
392.984	1155.81
393.208	1163.81
393.433	1183.81
393.658	1175.81
393.882	1159.81
394.107	1184.81
394.331	1175.81
394.556	1199.81
394.78	1202.81
395.005	1182.81
395.229	1211.81
395.454	1206.81
395.678	1223.81
395.903	1205.81
396.127	1207.81
396.352	1153.81
396.576	1199.81
396.801	1158.81
397.025	1187.81
397.249	1212.81
397.474	1216.81
397.698	1226.81
397.922	1211.81
398.147	1221.81
398.371	1247.81
398.595	1292.81
398.82	1331.81
399.044	1343.81
399.268	1402.81
399.492	1477.81
399.717	1565.81
399.941	1526.81
400.165	1491.81
400.389	1438.81
400.613	1341.81
400.837	1349.81
401.062	1322.81
401.286	1297.81
401.51	1258.81
401.734	1258.81
401.958	1290.81
402.182	1312.81
402.406	1295.81
402.63	1273.81
402.854	1304.81
403.078	1275.81
403.302	1356.81
403.526	1334.81
403.75	1318.81
403.974	1345.81
404.198	1340.81
404.422	1334.81
404.645	1340.81
404.869	1322.81
405.093	1349.81
405.317	1339.81
405.541	1366.81
405.765	1341.81
405.988	1369.81
406.212	1347.81
406.436	1318.81
406.66	1365.81
406.883	1370.81
407.107	1378.81
407.331	1452.81
407.555	1431.81
407.778	1457.81
408.002	1443.81
408.226	1376.81
408.449	1449.81
408.673	1381.81
408.896	1365.81
409.12	1360.81
409.344	1326.81
409.567	1338.81
409.791	1310.81
410.014	1319.81
410.238	1296.81
410.461	1303.81
410.685	1300.81
410.908	1325.81
411.132	1313.81
411.355	1310.81
411.578	1274.81
411.802	1292.81
412.025	1288.81
412.249	1307.81
412.472	1293.81
412.695	1257.81
412.919	1244.81
413.142	1242.81
413.365	1266.81
413.589	1277.81
413.812	1239.81
414.035	1233.81
414.258	1259.81
414.482	1272.81
414.705	1273.81
414.928	1257.81
415.151	1272.81
415.374	1226.81
415.597	1237.81
415.821	1242.81
416.044	1230.81
416.267	1215.81
416.49	1190.81
416.713	1224.81
416.936	1218.81
417.159	1197.81
417.382	1198.81
417.605	1194.81
417.828	1189.81
418.051	1204.81
418.274	1227.81
418.497	1210.81
418.72	1277.81
418.943	1237.81
419.166	1303.81
419.389	1387.81
419.611	1307.81
419.834	1300.81
420.057	1242.81
420.28	1213.81
420.503	1198.81
420.726	1201.81
420.948	1241.81
421.171	1223.81
421.394	1201.81
421.617	1226.81
421.839	1238.81
422.062	1271.81
422.285	1218.81
422.507	1241.81
422.73	1214.81
422.953	1215.81
423.175	1230.81
423.398	1253.81
423.621	1212.81
423.843	1252.81
424.066	1223.81
424.288	1212.81
424.511	1225.81
424.733	1259.81
424.956	1222.81
425.178	1221.81
425.401	1224.81
425.623	1213.81
425.846	1156.81
426.068	1208.81
426.291	1175.81
426.513	1185.81
426.735	1172.81
426.958	1222.81
427.18	1130.81
427.402	1168.81
427.625	1187.81
427.847	1119.81
428.069	1103.81
428.292	1175.81
428.514	1126.81
428.736	1157.81
428.958	1125.81
429.181	1144.81
429.403	1113.81
429.625	1111.81
429.847	1133.81
430.069	1147.81
430.292	1159.81
430.514	1219.81
430.736	1173.81
430.958	1157.81
431.18	1126.81
431.402	1129.81
431.624	1128.81
431.846	1116.81
432.068	1077.81
432.29	1097.81
432.512	1100.81
432.734	1125.81
432.956	1171.81
433.178	1152.81
433.4	1137.81
433.622	1127.81
433.844	1139.81
434.066	1141.81
434.287	1119.81
434.509	1123.81
434.731	1156.81
434.953	1163.81
435.175	1188.81
435.397	1168.81
435.618	1115.81
435.84	1118.81
436.062	1101.81
436.284	1110.81
436.505	1120.81
436.727	1119.81
436.949	1111.81
437.17	1121.81
437.392	1098.81
437.614	1070.81
437.835	1063.81
438.057	1077.81
438.278	1077.81
438.5	1126.81
438.721	1111.81
438.943	1118.81
439.165	1109.81
439.386	1135.81
439.608	1169.81
439.829	1165.81
440.05	1201.81
440.272	1219.81
440.493	1152.81
440.715	1174.81
440.936	1147.81
441.158	1201.81
441.379	1210.81
441.6	1216.81
441.822	1251.81
442.043	1295.81
442.264	1301.81
442.486	1207.81
442.707	1245.81
442.928	1247.81
443.149	1174.81
443.371	1199.81
443.592	1219.81
443.813	1209.81
444.034	1230.81
444.255	1236.81
444.476	1234.81
444.698	1273.81
444.919	1310.81
445.14	1377.81
445.361	1292.81
445.582	1255.81
445.803	1213.81
446.024	1206.81
446.245	1171.81
446.466	1197.81
446.687	1183.81
446.908	1185.81
447.129	1156.81
447.35	1157.81
447.571	1173.81
447.792	1106.81
448.013	1072.81
448.234	1099.81
448.455	1134.81
448.675	1117.81
448.896	1141.81
449.117	1159.81
449.338	1217.81
449.559	1271.81
449.779	1159.81
450	1117.81
450.221	1095.81
450.442	1124.81
450.662	1046.81
450.883	1069.81
451.104	1083.81
451.324	1073.81
451.545	1089.81
451.766	1078.81
451.986	1057.81
452.207	1121.81
452.428	1313.81
452.648	1747.81
452.869	1502.81
453.089	1214.81
453.31	1168.81
453.53	1149.81
453.751	1163.81
453.971	1229.81
454.192	1245.81
454.412	1088.81
454.633	1089.81
454.853	1040.81
455.073	1033.81
455.294	1052.81
455.514	1044.81
455.734	1037.81
455.955	1012.81
456.175	1020.81
456.395	1026.81
456.616	1034.81
456.836	1030.81
457.056	1066.81
457.276	1044.81
457.497	1073.81
457.717	1077.81
457.937	1073.81
458.157	1049.81
458.377	1089.81
458.598	1092.81
458.818	1077.81
459.038	1095.81
459.258	1102.81
459.478	1090.81
459.698	1110.81
459.918	1159.81
460.138	1165.81
460.358	1198.81
460.578	1180.81
460.798	1219.81
461.018	1205.81
461.238	1221.81
461.458	1218.81
461.678	1223.81
461.898	1239.81
462.118	1272.81
462.338	1281.81
462.558	1317.81
462.777	1301.81
462.997	1369.81
463.217	1398.81
463.437	1435.81
463.657	1421.81
463.876	1421.81
464.096	1363.81
464.316	1315.81
464.536	1329.81
464.755	1309.81
464.975	1257.81
465.195	1234.81
465.414	1205.81
465.634	1157.81
465.854	1141.81
466.073	1125.81
466.293	1117.81
466.512	1122.81
466.732	1129.81
466.951	1173.81
467.171	1233.81
467.391	1228.81
467.61	1146.81
467.829	1095.81
468.049	1091.81
468.268	1073.81
468.488	1058.81
468.707	1091.81
468.927	1098.81
469.146	1094.81
469.365	1117.81
469.585	1099.81
469.804	1149.81
470.023	1146.81
470.243	1159.81
470.462	1190.81
470.681	1225.81
470.901	1329.81
471.12	1511.81
471.339	1469.81
471.558	1276.81
471.777	1193.81
471.997	1193.81
472.216	1117.81
472.435	1109.81
472.654	1074.81
472.873	1076.81
473.092	1093.81
473.311	1095.81
473.53	1122.81
473.749	1134.81
473.968	1170.81
474.187	1135.81
474.406	1119.81
474.625	1098.81
474.844	1108.81
475.063	1125.81
475.282	1097.81
475.501	1120.81
475.72	1108.81
475.939	1116.81
476.158	1135.81
476.377	1159.81
476.596	1137.81
476.814	1177.81
477.033	1156.81
477.252	1143.81
477.471	1192.81
477.69	1253.81
477.908	1240.81
478.127	1259.81
478.346	1253.81
478.564	1265.81
478.783	1304.81
479.002	1285.81
479.22	1314.81
479.439	1302.81
479.658	1316.81
479.876	1278.81
480.095	1330.81
480.313	1347.81
480.532	1335.81
480.751	1370.81
480.969	1333.81
481.188	1310.81
481.406	1244.81
481.624	1306.81
481.843	1313.81
482.061	1308.81
482.28	1325.81
482.498	1303.81
482.717	1304.81
482.935	1358.81
483.153	1352.81
483.372	1355.81
483.59	1373.81
483.808	1371.81
484.027	1406.81
484.245	1473.81
484.463	1585.81
484.681	1751.81
484.9	1622.81
485.118	1521.81
485.336	1523.81
485.554	1529.81
485.772	1572.81
485.99	1717.81
486.209	1871.81
486.427	1617.81
486.645	1504.81
486.863	1430.81
487.081	1461.81
487.299	1433.81
487.517	1404.81
487.735	1414.81
487.953	1476.81
488.171	1411.81
488.389	1420.81
488.607	1409.81
488.825	1362.81
489.043	1337.81
489.261	1358.81
489.479	1347.81
489.696	1373.81
489.914	1387.81
490.132	1354.81
490.35	1413.81
490.568	1401.81
490.786	1413.81
491.003	1416.81
491.221	1463.81
491.439	1469.81
491.657	1465.81
491.874	1487.81
492.092	1491.81
492.31	1543.81
492.527	1527.81
492.745	1475.81
492.963	1461.81
493.18	1450.81
493.398	1479.81
493.615	1485.81
493.833	1447.81
494.05	1459.81
494.268	1486.81
494.485	1446.81
494.703	1467.81
494.92	1443.81
495.138	1464.81
495.355	1514.81
495.573	1490.81
495.79	1482.81
496.008	1480.81
496.225	1478.81
496.442	1499.81
496.66	1526.81
496.877	1579.81
497.094	1557.81
497.312	1564.81
497.529	1546.81
497.746	1608.81
497.963	1598.81
498.181	1621.81
498.398	1637.81
498.615	1669.81
498.832	1738.81
499.049	1848.81
499.267	1937.81
499.484	2089.81
499.701	2125.81
499.918	2250.81
500.135	2351.81
500.352	2496.81
500.569	2519.81
500.786	2510.81
501.003	2437.81
501.22	2274.81
501.437	2131.81
501.654	2027.81
501.871	1931.81
502.088	1880.81
502.305	1785.81
502.522	1741.81
502.739	1741.81
502.956	1662.81
503.172	1590.81
503.389	1549.81
503.606	1507.81
503.823	1513.81
504.04	1525.81
504.256	1483.81
504.473	1489.81
504.69	1477.81
504.907	1496.81
505.123	1453.81
505.34	1388.81
505.557	1385.81
505.773	1374.81
505.99	1391.81
506.207	1336.81
506.423	1317.81
506.64	1315.81
506.856	1299.81
507.073	1309.81
507.289	1290.81
507.506	1275.81
507.722	1286.81
507.939	1272.81
508.155	1255.81
508.372	1221.81
508.588	1238.81
508.805	1230.81
509.021	1236.81
509.238	1238.81
509.454	1288.81
509.67	1355.81
509.887	1289.81
510.103	1284.81
510.319	1221.81
510.536	1220.81
510.752	1195.81
510.968	1198.81
511.184	1201.81
511.401	1189.81
511.617	1172.81
511.833	1213.81
512.049	1150.81
512.265	1145.81
512.481	1167.81
512.698	1167.81
512.914	1168.81
513.13	1149.81
513.346	1185.81
513.562	1180.81
513.778	1193.81
513.994	1176.81
514.21	1228.81
514.426	1260.81
514.642	1302.81
514.858	1255.81
515.074	1201.81
515.29	1213.81
515.506	1181.81
515.721	1201.81
515.937	1215.81
516.153	1191.81
516.369	1222.81
516.585	1285.81
516.801	1260.81
517.016	1293.81
517.232	1302.81
517.448	1341.81
517.664	1379.81
517.879	1358.81
518.095	1357.81
518.311	1340.81
518.527	1305.81
518.742	1309.81
518.958	1315.81
519.173	1330.81
519.389	1303.81
519.605	1269.81
519.82	1215.81
520.036	1250.81
520.251	1183.81
520.467	1220.81
520.682	1221.81
520.898	1199.81
521.113	1196.81
521.329	1169.81
521.544	1157.81
521.76	1185.81
521.975	1139.81
522.19	1179.81
522.406	1186.81
522.621	1158.81
522.836	1145.81
523.052	1151.81
523.267	1153.81
523.482	1140.81
523.698	1130.81
523.913	1130.81
524.128	1133.81
524.343	1133.81
524.559	1143.81
524.774	1134.81
524.989	1159.81
525.204	1153.81
525.419	1135.81
525.634	1122.81
525.849	1161.81
526.064	1159.81
526.28	1151.81
526.495	1123.81
526.71	1119.81
526.925	1121.81
527.14	1132.81
527.355	1139.81
527.57	1151.81
527.785	1126.81
527.999	1140.81
528.214	1153.81
528.429	1183.81
528.644	1205.81
528.859	1210.81
529.074	1216.81
529.289	1227.81
529.503	1252.81
529.718	1189.81
529.933	1217.81
530.148	1210.81
530.363	1195.81
530.577	1193.81
530.792	1205.81
531.007	1209.81
531.221	1217.81
531.436	1222.81
531.651	1226.81
531.865	1256.81
532.08	1262.81
532.295	1280.81
532.509	1335.81
532.724	1295.81
532.938	1307.81
533.153	1385.81
533.367	1429.81
533.582	1479.81
533.796	1455.81
534.011	1471.81
534.225	1409.81
534.44	1383.81
534.654	1355.81
534.868	1331.81
535.083	1313.81
535.297	1310.81
535.511	1281.81
535.726	1299.81
535.94	1270.81
536.154	1205.81
536.369	1217.81
536.583	1209.81
536.797	1230.81
537.011	1182.81
537.225	1174.81
537.44	1167.81
537.654	1182.81
537.868	1156.81
538.082	1127.81
538.296	1161.81
538.51	1143.81
538.724	1153.81
538.938	1143.81
539.153	1141.81
539.367	1122.81
539.581	1121.81
539.795	1090.81
540.009	1110.81
540.222	1078.81
540.436	1077.81
540.65	1094.81
540.864	1099.81
541.078	1147.81
541.292	1191.81
541.506	1360.81
541.72	1422.81
541.934	1274.81
542.147	1241.81
542.361	1220.81
542.575	1131.81
542.789	1125.81
543.002	1088.81
543.216	1081.81
543.43	1083.81
543.644	1081.81
543.857	1093.81
544.071	1089.81
544.285	1119.81
544.498	1137.81
544.712	1123.81
544.925	1061.81
545.139	1109.81
545.352	1085.81
545.566	1113.81
545.779	1125.81
545.993	1129.81
546.206	1159.81
546.42	1112.81
546.633	1110.81
546.847	1113.81
547.06	1144.81
547.274	1149.81
547.487	1125.81
547.7	1110.81
547.914	1115.81
548.127	1130.81
548.34	1131.81
548.554	1101.81
548.767	1077.81
548.98	1138.81
549.193	1135.81
549.407	1126.81
549.62	1104.81
549.833	1109.81
550.046	1125.81
550.259	1110.81
550.473	1102.81
550.686	1120.81
550.899	1128.81
551.112	1102.81
551.325	1095.81
551.538	1086.81
551.751	1089.81
551.964	1089.81
552.177	1108.81
552.39	1166.81
552.603	1171.81
552.816	1181.81
553.029	1179.81
553.242	1164.81
553.455	1188.81
553.667	1233.81
553.88	1213.81
554.093	1190.81
554.306	1220.81
554.519	1190.81
554.732	1220.81
554.944	1247.81
555.157	1249.81
555.37	1293.81
555.583	1321.81
555.795	1358.81
556.008	1430.81
556.221	1485.81
556.433	1564.81
556.646	1571.81
556.859	1545.81
557.071	1521.81
557.284	1535.81
557.496	1485.81
557.709	1473.81
557.921	1459.81
558.134	1450.81
558.346	1461.81
558.559	1525.81
558.771	1580.81
558.984	1623.81
559.196	1725.81
559.409	1635.81
559.621	1596.81
559.833	1528.81
560.046	1463.81
560.258	1403.81
560.47	1376.81
560.683	1311.81
560.895	1292.81
561.107	1269.81
561.32	1227.81
561.532	1240.81
561.744	1176.81
561.956	1160.81
562.168	1173.81
562.381	1128.81
562.593	1100.81
562.805	1122.81
563.017	1099.81
563.229	1103.81
563.441	1265.81
563.653	1141.81
563.865	1078.81
564.077	1054.81
564.289	1027.81
564.501	1010.81
564.713	1023.81
564.925	1030.81
565.137	1019.81
565.349	1012.81
565.561	1040.81
565.773	1021.81
565.985	1043.81
566.197	1031.81
566.408	1059.81
566.62	1110.81
566.832	1143.81
567.044	1149.81
567.255	1129.81
567.467	1160.81
567.679	1168.81
567.891	1199.81
568.102	1305.81
568.314	1469.81
568.526	1302.81
568.737	1148.81
568.949	1070.81
569.161	1011.81
569.372	979.81
569.584	918.81
569.795	901.81
570.007	925.81
570.218	920.81
570.43	925.81
570.641	876.81
570.853	887.81
571.064	859.81
571.276	854.81
571.487	858.81
571.698	859.81
571.91	853.81
572.121	783.81
572.333	815.81
572.544	813.81
572.755	855.81
572.966	937.81
573.178	871.81
573.389	803.81
573.6	788.81
573.811	742.81
574.023	748.81
574.234	778.81
574.445	739.81
574.656	746.81
574.867	745.81
575.078	758.81
575.289	749.81
575.501	749.81
575.712	750.81
575.923	734.81
576.134	746.81
576.345	733.81
576.556	719.81
576.767	765.81
576.978	750.81
577.188	763.81
577.399	774.81
577.61	737.81
577.821	732.81
578.032	762.81
578.243	766.81
578.454	767.81
578.665	797.81
578.875	831.81
579.086	826.81
579.297	841.81
579.508	901.81
579.718	936.81
579.929	1021.81
580.14	1115.81
580.35	1146.81
580.561	1107.81
580.772	1047.81
580.982	993.81
581.193	937.81
581.403	934.81
581.614	876.81
581.825	853.81
582.035	817.81
582.246	785.81
582.456	772.81
582.667	719.81
582.877	741.81
583.087	701.81
583.298	727.81
583.508	685.81
583.719	689.81
583.929	674.81
584.139	655.81
584.35	649.81
584.56	650.81
584.77	641.81
584.981	626.81
585.191	629.81
585.401	627.81
585.611	626.81
585.821	632.81
586.032	601.81
586.242	599.81
586.452	611.81
586.662	578.81
586.872	579.81
587.082	564.81
587.292	578.81
587.502	598.81
587.713	558.81
587.923	558.81
588.133	572.81
588.343	561.81
588.553	569.81
588.762	575.81
588.972	559.81
589.182	554.81
589.392	555.81
589.602	546.81
589.812	542.81
590.022	534.81
590.232	529.81
590.441	537.81
590.651	536.81
590.861	541.81
591.071	549.81
591.281	549.81
591.49	558.81
591.7	538.81
591.91	540.81
592.119	535.81
592.329	536.81
592.539	563.81
592.748	541.81
592.958	571.81
593.167	549.81
593.377	570.81
593.587	554.81
593.796	553.81
594.006	565.81
594.215	567.81
594.424	566.81
594.634	559.81
594.843	557.81
595.053	533.81
595.262	513.81
595.472	514.81
595.681	490.81
595.89	507.81
596.1	493.81
596.309	505.81
596.518	517.81
596.727	496.81
596.937	488.81
597.146	490.81
597.355	473.81
597.564	473.81
597.774	459.81
597.983	472.81
598.192	457.81
598.401	452.81
598.61	461.81
598.819	457.81
599.028	458.81
599.237	435.81
599.446	432.81
599.655	446.81
599.864	441.81
600.073	450.81
600.282	444.81
600.491	461.81
600.7	434.81
600.909	441.81
601.118	443.81
601.327	431.81
601.536	430.81
601.745	459.81
601.953	491.81
602.162	533.81
602.371	489.81
602.58	453.81
602.789	465.81
602.997	425.81
603.206	440.81
603.415	445.81
603.623	419.81
603.832	435.81
604.041	420.81
604.249	435.81
604.458	414.81
604.666	406.81
604.875	409.81
605.084	412.81
605.292	420.81
605.501	429.81
605.709	430.81
605.918	431.81
606.126	432.81
606.334	431.81
606.543	461.81
606.751	456.81
606.96	515.81
607.168	543.81
607.376	469.81
607.585	449.81
607.793	436.81
608.001	436.81
608.21	420.81
608.418	422.81
608.626	438.81
608.834	404.81
609.043	426.81
609.251	431.81
609.459	414.81
609.667	410.81
609.875	424.81
610.083	407.81
610.291	399.81
610.499	419.81
610.707	411.81
610.916	383.81
611.124	414.81
611.332	410.81
611.54	408.81
611.748	391.81
611.955	407.81
612.163	393.81
612.371	431.81
612.579	407.81
612.787	398.81
612.995	376.81
613.203	390.81
613.411	391.81
613.618	396.81
613.826	387.81
614.034	410.81
614.242	401.81
614.449	369.81
614.657	377.81
614.865	379.81
615.072	389.81
615.28	392.81
615.488	394.81
615.695	398.81
615.903	397.81
616.111	381.81
616.318	368.81
616.526	364.81
616.733	381.81
616.941	369.81
617.148	371.81
617.356	367.81
617.563	353.81
617.771	391.81
617.978	395.81
618.185	403.81
618.393	374.81
618.6	386.81
618.807	369.81
619.015	380.81
619.222	373.81
619.429	374.81
619.637	354.81
619.844	372.81
620.051	346.81
620.258	357.81
620.466	366.81
620.673	351.81
620.88	369.81
621.087	356.81
621.294	345.81
621.501	350.81
621.708	327.81
621.915	351.81
622.122	364.81
622.329	363.81
622.536	357.81
622.743	345.81
622.95	351.81
623.157	355.81
623.364	352.81
623.571	333.81
623.778	340.81
623.985	331.81
624.192	347.81
624.399	350.81
624.606	336.81
624.812	338.81
625.019	351.81
625.226	334.81
625.433	365.81
625.639	321.81
625.846	321.81
626.053	325.81
626.259	313.81
626.466	315.81
626.673	320.81
626.879	336.81
627.086	323.81
627.293	293.81
627.499	310.81
627.706	325.81
627.912	317.81
628.119	349.81
628.325	331.81
628.532	337.81
628.738	330.81
628.945	323.81
629.151	315.81
629.357	318.81
629.564	312.81
629.77	315.81
629.976	322.81
630.183	302.81
630.389	298.81
630.595	323.81
630.802	305.81
631.008	310.81
631.214	319.81
631.42	294.81
631.627	297.81
631.833	316.81
632.039	310.81
632.245	305.81
632.451	302.81
632.657	286.81
632.863	314.81
633.069	298.81
633.275	309.81
633.481	287.81
633.688	310.81
633.893	307.81
634.099	278.81
634.305	299.81
634.511	297.81
634.717	300.81
634.923	328.81
635.129	326.81
635.335	345.81
635.541	323.81
635.747	308.81
635.952	298.81
636.158	305.81
636.364	309.81
636.57	300.81
636.775	319.81
636.981	309.81
637.187	319.81
637.392	307.81
637.598	282.81
637.804	272.81
638.009	284.81
638.215	301.81
638.421	314.81
638.626	276.81
638.832	297.81
639.037	312.81
639.243	290.81
639.448	310.81
639.654	303.81
639.859	302.81
640.065	307.81
640.27	311.81
640.475	305.81
640.681	317.81
640.886	316.81
641.091	320.81
641.297	322.81
641.502	330.81
641.707	317.81
641.913	323.81
642.118	333.81
642.323	326.81
642.528	339.81
642.733	341.81
642.939	350.81
643.144	344.81
643.349	347.81
643.554	372.81
643.759	373.81
643.964	399.81
644.169	411.81
644.374	420.81
644.579	459.81
644.784	488.81
644.989	536.81
645.194	573.81
645.399	663.81
645.604	658.81
645.809	541.81
646.014	460.81
646.219	419.81
646.423	384.81
646.628	354.81
646.833	334.81
647.038	346.81
647.243	332.81
647.447	300.81
647.652	293.81
647.857	293.81
648.062	298.81
648.266	300.81
648.471	266.81
648.676	298.81
648.88	276.81
649.085	265.81
649.289	262.81
649.494	281.81
649.698	283.81
649.903	263.81
650.107	265.81
650.312	268.81
650.516	264.81
650.721	245.81
650.925	241.81
651.13	262.81
651.334	243.81
651.539	235.81
651.743	234.81
651.947	232.81
652.152	233.81
652.356	231.81
652.56	229.81
652.764	237.81
652.969	242.81
653.173	241.81
653.377	221.81
653.581	221.81
653.785	205.81
653.99	213.81
654.194	214.81
654.398	200.81
654.602	211.81
654.806	210.81
655.01	209.81
655.214	194.81
655.418	210.81
655.622	205.81
655.826	213.81
656.03	195.81
656.234	214.81
656.438	226.81
656.642	237.81
656.846	221.81
657.049	215.81
657.253	197.81
657.457	178.81
657.661	179.81
657.865	163.81
658.068	172.81
658.272	171.81
658.476	166.81
658.68	147.81
658.883	134.81
659.087	150.81
659.291	138.81
659.494	133.81
659.698	137.81
659.901	119.81
660.105	123.81
660.309	121.81
660.512	111.81
660.716	123.81
660.919	115.81
661.123	120.81
661.326	101.81
661.53	113.81
661.733	99.81
661.936	101.81
662.14	100.81
662.343	93.81
662.546	94.81
662.75	104.81
662.953	100.81
663.156	95.81
663.36	89.81
663.563	90.81
663.766	85.81
663.969	88.81
664.173	95.81
664.376	85.81
664.579	87.81
664.782	86.81
664.985	78.81
665.188	86.81
665.391	88.81
665.594	82.81
665.797	89.81
666	89.81
666.203	78.81
666.406	90.81
666.609	85.81
666.812	84.81
667.015	92.81
667.218	97.81
667.421	99.81
667.624	86.81
667.827	92.81
668.03	90.81
668.232	87.81
668.435	67.81
668.638	83.81
668.841	92.81
669.043	85.81
669.246	88.81
669.449	86.81
669.651	83.81
669.854	89.81
670.057	84.81
670.259	91.81
670.462	75.81
670.665	81.81
670.867	87.81
671.07	87.81
671.272	79.81
671.475	77.81
671.677	76.81
671.88	75.81
672.082	86.81
672.284	84.81
672.487	85.81
672.689	76.81
672.892	93.81
