Data from SnStandardFlinnAPT0064_LampEnergy10_LIBS07252019.E.O._I.C._HRD10591_15-20-04-493.txt Node
Date: Thu Jul 25 15:20:04 EDT 2019
User: cochatt
Spectrometer: HR+D1059
Trigger mode: 1
Integration Time (sec): 1.000000E-1
Scans to average: 1
Electric dark correction enabled: true
Nonlinearity correction enabled: false
Boxcar width: 0
XAxis mode: Wavelengths
Number of Pixels in Spectrum: 2048
>>>>>Begin Spectral Data<<<<<
223.165	-22.31
223.4	-22.31
223.635	-22.31
223.869	-30.31
224.104	-34.31
224.338	-7.31
224.573	-16.31
224.808	-11.31
225.042	-9.31
225.277	0.69
225.511	5.69
225.746	14.69
225.98	8.69
226.215	11.69
226.449	15.69
226.683	17.69
226.918	29.69
227.152	26.69
227.387	20.69
227.621	34.69
227.856	42.69
228.09	56.69
228.324	44.69
228.559	67.69
228.793	123.69
229.027	311.69
229.262	344.69
229.496	297.69
229.73	309.69
229.964	311.69
230.199	298.69
230.433	318.69
230.667	306.69
230.901	327.69
231.136	330.69
231.37	367.69
231.604	387.69
231.838	446.69
232.072	558.69
232.306	586.69
232.541	517.69
232.775	435.69
233.009	442.69
233.243	442.69
233.477	455.69
233.711	541.69
233.945	600.69
234.179	519.69
234.413	457.69
234.647	445.69
234.881	492.69
235.115	527.69
235.349	651.69
235.583	812.69
235.817	1007.69
236.051	972.69
236.285	680.69
236.519	537.69
236.753	515.69
236.987	517.69
237.221	521.69
237.455	514.69
237.689	472.69
237.922	463.69
238.156	456.69
238.39	493.69
238.624	497.69
238.858	483.69
239.091	497.69
239.325	483.69
239.559	506.69
239.793	509.69
240.027	518.69
240.26	546.69
240.494	543.69
240.728	599.69
240.961	611.69
241.195	666.69
241.429	700.69
241.662	721.69
241.896	825.69
242.13	955.69
242.363	1245.69
242.597	1616.69
242.83	1566.69
243.064	1556.69
243.298	1831.69
243.531	1512.69
243.765	979.69
243.998	789.69
244.232	705.69
244.465	655.69
244.699	661.69
244.932	643.69
245.166	673.69
245.399	660.69
245.633	669.69
245.866	698.69
246.099	679.69
246.333	657.69
246.566	650.69
246.8	649.69
247.033	623.69
247.266	654.69
247.5	669.69
247.733	651.69
247.966	714.69
248.2	779.69
248.433	823.69
248.666	1041.69
248.899	978.69
249.133	836.69
249.366	908.69
249.599	987.69
249.832	1139.69
250.066	1130.69
250.299	888.69
250.532	771.69
250.765	756.69
250.998	744.69
251.231	752.69
251.465	730.69
251.698	736.69
251.931	733.69
252.164	757.69
252.397	785.69
252.63	800.69
252.863	827.69
253.096	777.69
253.329	767.69
253.562	785.69
253.795	797.69
254.028	815.69
254.261	815.69
254.494	888.69
254.727	1009.69
254.96	1248.69
255.193	1221.69
255.426	1005.69
255.659	913.69
255.892	865.69
256.124	882.69
256.357	878.69
256.59	919.69
256.823	1003.69
257.056	1129.69
257.289	1366.69
257.521	1545.69
257.754	1211.69
257.987	981.69
258.22	925.69
258.452	935.69
258.685	911.69
258.918	954.69
259.151	1018.69
259.383	1119.69
259.616	1252.69
259.849	1268.69
260.081	1099.69
260.314	1023.69
260.547	957.69
260.779	961.69
261.012	935.69
261.244	965.69
261.477	959.69
261.71	965.69
261.942	1021.69
262.175	1021.69
262.407	1010.69
262.64	1053.69
262.872	1088.69
263.105	1135.69
263.337	1185.69
263.57	1261.69
263.802	1278.69
264.035	1296.69
264.267	1309.69
264.499	1337.69
264.732	1397.69
264.964	1405.69
265.197	1385.69
265.429	1387.69
265.661	1459.69
265.894	1563.69
266.126	1734.69
266.358	1937.69
266.591	1929.69
266.823	1572.69
267.055	1441.69
267.287	1387.69
267.52	1315.69
267.752	1265.69
267.984	1271.69
268.216	1222.69
268.448	1214.69
268.681	1227.69
268.913	1219.69
269.145	1277.69
269.377	1214.69
269.609	1278.69
269.841	1309.69
270.073	1374.69
270.306	1626.69
270.538	2221.69
270.77	3270.69
271.002	4031.69
271.234	2873.69
271.466	1935.69
271.698	1561.69
271.93	1418.69
272.162	1347.69
272.394	1305.69
272.626	1255.69
272.858	1194.69
273.09	1201.69
273.322	1226.69
273.553	1200.69
273.785	1176.69
274.017	1239.69
274.249	1172.69
274.481	1216.69
274.713	1217.69
274.945	1202.69
275.176	1228.69
275.408	1209.69
275.64	1210.69
275.872	1208.69
276.104	1229.69
276.335	1288.69
276.567	1273.69
276.799	1309.69
277.031	1314.69
277.262	1341.69
277.494	1425.69
277.726	1557.69
277.957	1885.69
278.189	2164.69
278.421	2018.69
278.652	1757.69
278.884	1703.69
279.115	1517.69
279.347	1427.69
279.579	1400.69
279.81	1391.69
280.042	1411.69
280.273	1434.69
280.505	1465.69
280.736	1473.69
280.968	1592.69
281.199	1794.69
281.431	2050.69
281.662	2126.69
281.894	1826.69
282.125	1647.69
282.356	1628.69
282.588	1657.69
282.819	1734.69
283.051	1839.69
283.282	2084.69
283.513	2524.69
283.745	3695.69
283.976	5738.69
284.207	8117.69
284.439	7413.69
284.67	4714.69
284.901	3843.69
285.132	3943.69
285.364	3700.69
285.595	2773.69
285.826	2511.69
286.057	2935.69
286.288	3953.69
286.52	5408.69
286.751	5046.69
286.982	3109.69
287.213	2381.69
287.444	2060.69
287.675	1931.69
287.906	1793.69
288.138	1766.69
288.369	1702.69
288.6	1682.69
288.831	1667.69
289.062	1657.69
289.293	1675.69
289.524	1666.69
289.755	1719.69
289.986	1679.69
290.217	1679.69
290.448	1706.69
290.679	1727.69
290.91	1782.69
291.141	1898.69
291.371	2078.69
291.602	2164.69
291.833	1952.69
292.064	1773.69
292.295	1663.69
292.526	1637.69
292.757	1584.69
292.987	1639.69
293.218	1575.69
293.449	1638.69
293.68	1592.69
293.91	1557.69
294.141	1589.69
294.372	1575.69
294.603	1576.69
294.833	1579.69
295.064	1568.69
295.295	1540.69
295.525	1523.69
295.756	1565.69
295.987	1548.69
296.217	1580.69
296.448	1596.69
296.679	1577.69
296.909	1595.69
297.14	1605.69
297.37	1617.69
297.601	1647.69
297.831	1628.69
298.062	1631.69
298.292	1649.69
298.523	1654.69
298.753	1746.69
298.984	1742.69
299.214	1733.69
299.445	1789.69
299.675	1763.69
299.905	1856.69
300.136	1927.69
300.366	2184.69
300.597	2810.69
300.827	3879.69
301.057	5335.69
301.288	5360.69
301.518	3466.69
301.748	2659.69
301.979	2415.69
302.209	2377.69
302.439	2353.69
302.669	2462.69
302.9	3021.69
303.13	4242.69
303.36	6342.69
303.59	8434.69
303.82	7345.69
304.051	4363.69
304.281	3138.69
304.511	2629.69
304.741	2375.69
304.971	2230.69
305.201	2084.69
305.431	2052.69
305.661	1973.69
305.891	1907.69
306.121	1883.69
306.352	1885.69
306.582	1878.69
306.812	1821.69
307.042	1793.69
307.272	1851.69
307.502	1830.69
307.731	1820.69
307.961	1805.69
308.191	1823.69
308.421	1781.69
308.651	1790.69
308.881	1783.69
309.111	1788.69
309.341	1809.69
309.571	1826.69
309.8	1823.69
310.03	1859.69
310.26	1823.69
310.49	1806.69
310.72	1878.69
310.949	1860.69
311.179	1867.69
311.409	1887.69
311.639	1946.69
311.868	1876.69
312.098	1942.69
312.328	1934.69
312.557	1960.69
312.787	1969.69
313.017	1966.69
313.246	2019.69
313.476	1993.69
313.706	2087.69
313.935	2201.69
314.165	2378.69
314.394	2519.69
314.624	2333.69
314.853	2153.69
315.083	2175.69
315.312	2173.69
315.542	2208.69
315.771	2249.69
316.001	2275.69
316.23	2354.69
316.46	2427.69
316.689	2729.69
316.919	3273.69
317.148	4687.69
317.377	7275.69
317.607	10578.69
317.836	11029.69
318.065	6879.69
318.295	4432.69
318.524	3511.69
318.753	3079.69
318.983	2827.69
319.212	2636.69
319.441	2511.69
319.67	2442.69
319.9	2351.69
320.129	2373.69
320.358	2339.69
320.587	2367.69
320.816	2338.69
321.046	2394.69
321.275	2333.69
321.504	2392.69
321.733	2427.69
321.962	2543.69
322.191	2548.69
322.42	2509.69
322.649	2469.69
322.878	2451.69
323.108	2481.69
323.337	2522.69
323.566	2529.69
323.795	2592.69
324.024	2656.69
324.253	2718.69
324.482	2811.69
324.71	3047.69
324.939	3199.69
325.168	3326.69
325.397	3446.69
325.626	4071.69
325.855	5691.69
326.084	8889.69
326.313	12736.69
326.542	13526.69
326.77	9432.69
326.999	6146.69
327.228	5139.69
327.457	4879.69
327.686	4875.69
327.914	5146.69
328.143	5942.69
328.372	7039.69
328.6	7657.69
328.829	6893.69
329.058	5813.69
329.287	5095.69
329.515	4696.69
329.744	4257.69
329.972	4098.69
330.201	3833.69
330.43	3678.69
330.658	3630.69
330.887	3513.69
331.115	3485.69
331.344	3470.69
331.572	3377.69
331.801	3436.69
332.03	3518.69
332.258	3514.69
332.486	3727.69
332.715	4320.69
332.943	5379.69
333.172	6692.69
333.4	6687.69
333.629	5125.69
333.857	4546.69
334.085	4475.69
334.314	4725.69
334.542	5100.69
334.771	6024.69
334.999	7343.69
335.227	9178.69
335.455	10187.69
335.684	9321.69
335.912	7681.69
336.14	6439.69
336.369	5738.69
336.597	5202.69
336.825	4805.69
337.053	4503.69
337.281	4200.69
337.51	4005.69
337.738	3832.69
337.966	3711.69
338.194	3592.69
338.422	3415.69
338.65	3333.69
338.878	3277.69
339.106	3195.69
339.334	3233.69
339.562	3085.69
339.79	3030.69
340.018	3099.69
340.246	3033.69
340.474	3000.69
340.702	2991.69
340.93	3000.69
341.158	2948.69
341.386	3008.69
341.614	2964.69
341.842	2865.69
342.07	2793.69
342.298	2809.69
342.526	2758.69
342.754	2716.69
342.981	2664.69
343.209	2681.69
343.437	2724.69
343.665	2765.69
343.893	2807.69
344.12	2788.69
344.348	2777.69
344.576	2693.69
344.804	2689.69
345.031	2638.69
345.259	2632.69
345.487	2557.69
345.714	2585.69
345.942	2533.69
346.17	2574.69
346.397	2557.69
346.625	2493.69
346.853	2510.69
347.08	2519.69
347.308	2461.69
347.535	2516.69
347.763	2499.69
347.99	2447.69
348.218	2425.69
348.445	2453.69
348.673	2446.69
348.9	2471.69
349.128	2472.69
349.355	2431.69
349.583	2419.69
349.81	2402.69
350.037	2423.69
350.265	2397.69
350.492	2395.69
350.72	2388.69
350.947	2365.69
351.174	2403.69
351.402	2424.69
351.629	2413.69
351.856	2352.69
352.083	2396.69
352.311	2425.69
352.538	2333.69
352.765	2337.69
352.992	2335.69
353.22	2362.69
353.447	2353.69
353.674	2336.69
353.901	2320.69
354.128	2378.69
354.355	2395.69
354.583	2398.69
354.81	2409.69
355.037	2414.69
355.264	2377.69
355.491	2429.69
355.718	2414.69
355.945	2437.69
356.172	2446.69
356.399	2445.69
356.626	2496.69
356.853	2500.69
357.08	2477.69
357.307	2510.69
357.534	2542.69
357.761	2537.69
357.988	2591.69
358.215	2553.69
358.441	2507.69
358.668	2504.69
358.895	2520.69
359.122	2519.69
359.349	2535.69
359.576	2494.69
359.802	2468.69
360.029	2521.69
360.256	2505.69
360.483	2518.69
360.709	2493.69
360.936	2542.69
361.163	2548.69
361.39	2562.69
361.616	2525.69
361.843	2527.69
362.07	2530.69
362.296	2538.69
362.523	2536.69
362.749	2589.69
362.976	2506.69
363.203	2542.69
363.429	2500.69
363.656	2527.69
363.882	2546.69
364.109	2511.69
364.335	2518.69
364.562	2522.69
364.788	2542.69
365.015	2546.69
365.241	2577.69
365.468	2797.69
365.694	2955.69
365.92	2823.69
366.147	2580.69
366.373	2593.69
366.599	2586.69
366.826	2565.69
367.052	2551.69
367.278	2585.69
367.505	2581.69
367.731	2522.69
367.957	2569.69
368.184	2609.69
368.41	2641.69
368.636	2677.69
368.862	2621.69
369.089	2589.69
369.315	2583.69
369.541	2627.69
369.767	2629.69
369.993	2573.69
370.219	2603.69
370.445	2627.69
370.672	2590.69
370.898	2623.69
371.124	2599.69
371.35	2649.69
371.576	2673.69
371.802	2686.69
372.028	2694.69
372.254	2683.69
372.48	2663.69
372.706	2743.69
372.932	2746.69
373.158	2719.69
373.384	2823.69
373.61	2722.69
373.835	2744.69
374.061	2755.69
374.287	2765.69
374.513	2791.69
374.739	2853.69
374.965	2834.69
375.191	2815.69
375.416	2862.69
375.642	2782.69
375.868	2797.69
376.094	2796.69
376.319	2731.69
376.545	2755.69
376.771	2748.69
376.997	2749.69
377.222	2768.69
377.448	2679.69
377.674	2693.69
377.899	2683.69
378.125	2706.69
378.35	2689.69
378.576	2689.69
378.802	2769.69
379.027	2791.69
379.253	2845.69
379.478	3025.69
379.704	3633.69
379.929	5153.69
380.155	8113.69
380.38	8781.69
380.606	5448.69
380.831	3804.69
381.057	3304.69
381.282	2992.69
381.507	2831.69
381.733	2817.69
381.958	2757.69
382.184	2686.69
382.409	2686.69
382.634	2712.69
382.86	2647.69
383.085	2634.69
383.31	2689.69
383.535	2673.69
383.761	2651.69
383.986	2722.69
384.211	2721.69
384.436	2718.69
384.662	2747.69
384.887	2784.69
385.112	2718.69
385.337	2715.69
385.562	2718.69
385.787	2744.69
386.013	2763.69
386.238	2789.69
386.463	2720.69
386.688	2720.69
386.913	2678.69
387.138	2699.69
387.363	2762.69
387.588	2681.69
387.813	2754.69
388.038	2690.69
388.263	2737.69
388.488	2740.69
388.713	2737.69
388.938	2719.69
389.163	2753.69
389.387	2713.69
389.612	2694.69
389.837	2765.69
390.062	2768.69
390.287	2763.69
390.512	2749.69
390.736	2808.69
390.961	2755.69
391.186	2809.69
391.411	2861.69
391.636	2879.69
391.86	2887.69
392.085	2909.69
392.31	2847.69
392.534	2831.69
392.759	2770.69
392.984	2789.69
393.208	2780.69
393.433	2834.69
393.658	2809.69
393.882	2785.69
394.107	2755.69
394.331	2784.69
394.556	2726.69
394.78	2819.69
395.005	2789.69
395.229	2827.69
395.454	2877.69
395.678	2879.69
395.903	2867.69
396.127	2889.69
396.352	2832.69
396.576	2817.69
396.801	2831.69
397.025	2849.69
397.249	2871.69
397.474	2902.69
397.698	2909.69
397.922	2914.69
398.147	2929.69
398.371	2893.69
398.595	2930.69
398.82	3038.69
399.044	3172.69
399.268	3304.69
399.492	3463.69
399.717	3675.69
399.941	3587.69
400.165	3473.69
400.389	3346.69
400.613	3206.69
400.837	3117.69
401.062	3080.69
401.286	3103.69
401.51	3072.69
401.734	2967.69
401.958	3025.69
402.182	3022.69
402.406	3030.69
402.63	3037.69
402.854	3080.69
403.078	3050.69
403.302	3063.69
403.526	3133.69
403.75	3081.69
403.974	3186.69
404.198	3110.69
404.422	3143.69
404.645	3129.69
404.869	3133.69
405.093	3173.69
405.317	3154.69
405.541	3182.69
405.765	3155.69
405.988	3289.69
406.212	3207.69
406.436	3121.69
406.66	3203.69
406.883	3223.69
407.107	3347.69
407.331	3377.69
407.555	3445.69
407.778	3405.69
408.002	3394.69
408.226	3393.69
408.449	3391.69
408.673	3215.69
408.896	3232.69
409.12	3161.69
409.344	3148.69
409.567	3107.69
409.791	3135.69
410.014	3154.69
410.238	3122.69
410.461	3066.69
410.685	3075.69
410.908	3057.69
411.132	3124.69
411.355	2995.69
411.578	3011.69
411.802	3009.69
412.025	3033.69
412.249	2990.69
412.472	2990.69
412.695	2985.69
412.919	2965.69
413.142	2977.69
413.365	2976.69
413.589	2993.69
413.812	3002.69
414.035	3000.69
414.258	3012.69
414.482	2957.69
414.705	2945.69
414.928	2921.69
415.151	2987.69
415.374	2959.69
415.597	2901.69
415.821	2887.69
416.044	2821.69
416.267	2850.69
416.49	2876.69
416.713	2818.69
416.936	2841.69
417.159	2803.69
417.382	2813.69
417.605	2808.69
417.828	2834.69
418.051	2793.69
418.274	2893.69
418.497	2879.69
418.72	2933.69
418.943	2898.69
419.166	2997.69
419.389	3142.69
419.611	3128.69
419.834	3054.69
420.057	2993.69
420.28	2918.69
420.503	2901.69
420.726	2797.69
420.948	2798.69
421.171	2798.69
421.394	2913.69
421.617	2855.69
421.839	2884.69
422.062	2857.69
422.285	2789.69
422.507	2893.69
422.73	2925.69
422.953	2865.69
423.175	2989.69
423.398	2938.69
423.621	2796.69
423.843	2851.69
424.066	2896.69
424.288	2849.69
424.511	2822.69
424.733	2870.69
424.956	2817.69
425.178	2827.69
425.401	2807.69
425.623	2837.69
425.846	2719.69
426.068	2750.69
426.291	2787.69
426.513	2698.69
426.735	2716.69
426.958	2753.69
427.18	2713.69
427.402	2724.69
427.625	2673.69
427.847	2643.69
428.069	2626.69
428.292	2711.69
428.514	2623.69
428.736	2621.69
428.958	2662.69
429.181	2557.69
429.403	2602.69
429.625	2603.69
429.847	2623.69
430.069	2675.69
430.292	2792.69
430.514	2845.69
430.736	2852.69
430.958	2702.69
431.18	2608.69
431.402	2692.69
431.624	2602.69
431.846	2571.69
432.068	2593.69
432.29	2601.69
432.512	2579.69
432.734	2648.69
432.956	2629.69
433.178	2649.69
433.4	2635.69
433.622	2632.69
433.844	2662.69
434.066	2633.69
434.287	2648.69
434.509	2595.69
434.731	2701.69
434.953	2660.69
435.175	2734.69
435.397	2711.69
435.618	2693.69
435.84	2615.69
436.062	2553.69
436.284	2594.69
436.505	2591.69
436.727	2617.69
436.949	2554.69
437.17	2600.69
437.392	2617.69
437.614	2623.69
437.835	2529.69
438.057	2545.69
438.278	2483.69
438.5	2569.69
438.721	2588.69
438.943	2648.69
439.165	2757.69
439.386	2746.69
439.608	2710.69
439.829	2753.69
440.05	2807.69
440.272	2850.69
440.493	2755.69
440.715	2678.69
440.936	2718.69
441.158	2749.69
441.379	2785.69
441.6	2813.69
441.822	2893.69
442.043	3034.69
442.264	3135.69
442.486	2949.69
442.707	2833.69
442.928	2803.69
443.149	2793.69
443.371	2712.69
443.592	2838.69
443.813	2872.69
444.034	2813.69
444.255	2833.69
444.476	2851.69
444.698	2916.69
444.919	3026.69
445.14	3046.69
445.361	2947.69
445.582	2841.69
445.803	2850.69
446.024	2766.69
446.245	2777.69
446.466	2763.69
446.687	2741.69
446.908	2704.69
447.129	2621.69
447.35	2679.69
447.571	2644.69
447.792	2546.69
448.013	2578.69
448.234	2561.69
448.455	2569.69
448.675	2617.69
448.896	2741.69
449.117	2776.69
449.338	3014.69
449.559	3072.69
449.779	2801.69
450	2600.69
450.221	2550.69
450.442	2533.69
450.662	2553.69
450.883	2518.69
451.104	2570.69
451.324	2511.69
451.545	2518.69
451.766	2518.69
451.986	2609.69
452.207	2831.69
452.428	3663.69
452.648	5665.69
452.869	4795.69
453.089	3215.69
453.31	2989.69
453.53	2979.69
453.751	3081.69
453.971	3118.69
454.192	3110.69
454.412	2656.69
454.633	2546.69
454.853	2481.69
455.073	2437.69
455.294	2453.69
455.514	2443.69
455.734	2377.69
455.955	2406.69
456.175	2387.69
456.395	2403.69
456.616	2419.69
456.836	2469.69
457.056	2507.69
457.276	2481.69
457.497	2598.69
457.717	2648.69
457.937	2568.69
458.157	2522.69
458.377	2525.69
458.598	2554.69
458.818	2565.69
459.038	2533.69
459.258	2558.69
459.478	2597.69
459.698	2642.69
459.918	2654.69
460.138	2706.69
460.358	2817.69
460.578	2807.69
460.798	2828.69
461.018	2873.69
461.238	2845.69
461.458	2845.69
461.678	2876.69
461.898	2979.69
462.118	2944.69
462.338	2997.69
462.558	3089.69
462.777	3075.69
462.997	3221.69
463.217	3402.69
463.437	3509.69
463.657	3517.69
463.876	3505.69
464.096	3306.69
464.316	3145.69
464.536	3149.69
464.755	3058.69
464.975	3026.69
465.195	2912.69
465.414	2849.69
465.634	2752.69
465.854	2688.69
466.073	2658.69
466.293	2671.69
466.512	2634.69
466.732	2663.69
466.951	2840.69
467.171	3032.69
467.391	2961.69
467.61	2729.69
467.829	2607.69
468.049	2634.69
468.268	2547.69
468.488	2525.69
468.707	2545.69
468.927	2583.69
469.146	2553.69
469.365	2602.69
469.585	2660.69
469.804	2720.69
470.023	2731.69
470.243	2779.69
470.462	2890.69
470.681	3030.69
470.901	3342.69
471.12	3736.69
471.339	3709.69
471.558	3152.69
471.777	2897.69
471.997	2813.69
472.216	2720.69
472.435	2660.69
472.654	2586.69
472.873	2588.69
473.092	2605.69
473.311	2621.69
473.53	2624.69
473.749	2682.69
473.968	2777.69
474.187	2639.69
474.406	2616.69
474.625	2620.69
474.844	2638.69
475.063	2609.69
475.282	2596.69
475.501	2644.69
475.72	2678.69
475.939	2694.69
476.158	2741.69
476.377	2773.69
476.596	2760.69
476.814	2720.69
477.033	2721.69
477.252	2762.69
477.471	2826.69
477.69	2835.69
477.908	2893.69
478.127	2962.69
478.346	2953.69
478.564	2997.69
478.783	3024.69
479.002	3083.69
479.22	3060.69
479.439	3098.69
479.658	3079.69
479.876	3096.69
480.095	3149.69
480.313	3190.69
480.532	3241.69
480.751	3183.69
480.969	3139.69
481.188	3201.69
481.406	3144.69
481.624	3112.69
481.843	3162.69
482.061	3194.69
482.28	3195.69
482.498	3135.69
482.717	3141.69
482.935	3156.69
483.153	3219.69
483.372	3245.69
483.59	3305.69
483.808	3335.69
484.027	3494.69
484.245	3609.69
484.463	4067.69
484.681	4447.69
484.9	4153.69
485.118	3854.69
485.336	3766.69
485.554	3823.69
485.772	3977.69
485.99	4525.69
486.209	4776.69
486.427	4105.69
486.645	3732.69
486.863	3498.69
487.081	3471.69
487.299	3377.69
487.517	3373.69
487.735	3393.69
487.953	3374.69
488.171	3366.69
488.389	3318.69
488.607	3236.69
488.825	3232.69
489.043	3269.69
489.261	3204.69
489.479	3255.69
489.696	3229.69
489.914	3240.69
490.132	3250.69
490.35	3285.69
490.568	3320.69
490.786	3341.69
491.003	3387.69
491.221	3389.69
491.439	3373.69
491.657	3334.69
491.874	3437.69
492.092	3359.69
492.31	3395.69
492.527	3441.69
492.745	3366.69
492.963	3328.69
493.18	3353.69
493.398	3327.69
493.615	3416.69
493.833	3389.69
494.05	3400.69
494.268	3473.69
494.485	3415.69
494.703	3383.69
494.92	3418.69
495.138	3439.69
495.355	3431.69
495.573	3412.69
495.79	3449.69
496.008	3431.69
496.225	3490.69
496.442	3529.69
496.66	3684.69
496.877	3906.69
497.094	3863.69
497.312	3697.69
497.529	3702.69
497.746	3746.69
497.963	3883.69
498.181	3845.69
498.398	3865.69
498.615	4062.69
498.832	4202.69
499.049	4397.69
499.267	4811.69
499.484	5073.69
499.701	5035.69
499.918	5094.69
500.135	5388.69
500.352	5576.69
500.569	5678.69
500.786	5690.69
501.003	5448.69
501.22	5185.69
501.437	4929.69
501.654	4701.69
501.871	4496.69
502.088	4403.69
502.305	4218.69
502.522	4081.69
502.739	4021.69
502.956	3823.69
503.172	3811.69
503.389	3693.69
503.606	3640.69
503.823	3553.69
504.04	3539.69
504.256	3507.69
504.473	3527.69
504.69	3478.69
504.907	3442.69
505.123	3428.69
505.34	3366.69
505.557	3264.69
505.773	3240.69
505.99	3225.69
506.207	3115.69
506.423	3172.69
506.64	3078.69
506.856	3054.69
507.073	3057.69
507.289	3024.69
507.506	3037.69
507.722	3063.69
507.939	3001.69
508.155	2961.69
508.372	2921.69
508.588	2969.69
508.805	2926.69
509.021	2969.69
509.238	2984.69
509.454	3166.69
509.67	3333.69
509.887	3089.69
510.103	2959.69
510.319	2964.69
510.536	2997.69
510.752	2911.69
510.968	2905.69
511.184	2867.69
511.401	2806.69
511.617	2816.69
511.833	2889.69
512.049	2810.69
512.265	2853.69
512.481	2827.69
512.698	2795.69
512.914	2808.69
513.13	2837.69
513.346	2827.69
513.562	2817.69
513.778	2855.69
513.994	2887.69
514.21	2943.69
514.426	3176.69
514.642	3234.69
514.858	3043.69
515.074	2918.69
515.29	2869.69
515.506	2894.69
515.721	2874.69
515.937	2937.69
516.153	2890.69
516.369	3011.69
516.585	2971.69
516.801	3039.69
517.016	3069.69
517.232	3124.69
517.448	3185.69
517.664	3217.69
517.879	3210.69
518.095	3202.69
518.311	3213.69
518.527	3133.69
518.742	3127.69
518.958	3174.69
519.173	3270.69
519.389	3136.69
519.605	2987.69
519.82	2927.69
520.036	2917.69
520.251	2849.69
520.467	2836.69
520.682	2812.69
520.898	2742.69
521.113	2817.69
521.329	2770.69
521.544	2741.69
521.76	2781.69
521.975	2781.69
522.19	2802.69
522.406	2728.69
522.621	2684.69
522.836	2728.69
523.052	2690.69
523.267	2645.69
523.482	2698.69
523.698	2727.69
523.913	2630.69
524.128	2713.69
524.343	2695.69
524.559	2666.69
524.774	2640.69
524.989	2723.69
525.204	2698.69
525.419	2655.69
525.634	2711.69
525.849	2688.69
526.064	2721.69
526.28	2674.69
526.495	2707.69
526.71	2664.69
526.925	2747.69
527.14	2695.69
527.355	2679.69
527.57	2712.69
527.785	2695.69
527.999	2728.69
528.214	2762.69
528.429	2772.69
528.644	2814.69
528.859	2853.69
529.074	2895.69
529.289	2916.69
529.503	2915.69
529.718	2887.69
529.933	2881.69
530.148	2867.69
530.363	2936.69
530.577	2891.69
530.792	2864.69
531.007	2906.69
531.221	2949.69
531.436	3018.69
531.651	2982.69
531.865	3038.69
532.08	3093.69
532.295	3178.69
532.509	3352.69
532.724	3390.69
532.938	3413.69
533.153	3527.69
533.367	3744.69
533.582	3973.69
533.796	3903.69
534.011	3768.69
534.225	3599.69
534.44	3461.69
534.654	3345.69
534.868	3313.69
535.083	3232.69
535.297	3217.69
535.511	3100.69
535.726	3113.69
535.94	3080.69
536.154	3039.69
536.369	2998.69
536.583	2936.69
536.797	2894.69
537.011	2825.69
537.225	2837.69
537.44	2795.69
537.654	2780.69
537.868	2785.69
538.082	2746.69
538.296	2687.69
538.51	2683.69
538.724	2767.69
538.938	2733.69
539.153	2654.69
539.367	2671.69
539.581	2651.69
539.795	2669.69
540.009	2575.69
540.222	2592.69
540.436	2635.69
540.65	2629.69
540.864	2626.69
541.078	2674.69
541.292	2841.69
541.506	3257.69
541.72	3530.69
541.934	3057.69
542.147	2890.69
542.361	2756.69
542.575	2686.69
542.789	2605.69
543.002	2557.69
543.216	2508.69
543.43	2535.69
543.644	2477.69
543.857	2519.69
544.071	2471.69
544.285	2532.69
544.498	2533.69
544.712	2567.69
544.925	2545.69
545.139	2515.69
545.352	2488.69
545.566	2545.69
545.779	2561.69
545.993	2549.69
546.206	2543.69
546.42	2543.69
546.633	2502.69
546.847	2525.69
547.06	2473.69
547.274	2530.69
547.487	2536.69
547.7	2553.69
547.914	2542.69
548.127	2542.69
548.34	2552.69
548.554	2536.69
548.767	2542.69
548.98	2529.69
549.193	2547.69
549.407	2550.69
549.62	2546.69
549.833	2520.69
550.046	2582.69
550.259	2549.69
550.473	2453.69
550.686	2547.69
550.899	2511.69
551.112	2504.69
551.325	2521.69
551.538	2580.69
551.751	2558.69
551.964	2545.69
552.177	2581.69
552.39	2647.69
552.603	2697.69
552.816	2723.69
553.029	2733.69
553.242	2718.69
553.455	2792.69
553.667	2836.69
553.88	2835.69
554.093	2822.69
554.306	2851.69
554.519	2827.69
554.732	2938.69
554.944	3019.69
555.157	3038.69
555.37	3107.69
555.583	3258.69
555.795	3439.69
556.008	3719.69
556.221	4126.69
556.433	4422.69
556.646	4395.69
556.859	4205.69
557.071	4061.69
557.284	3960.69
557.496	3867.69
557.709	3735.69
557.921	3705.69
558.134	3717.69
558.346	3774.69
558.559	3945.69
558.771	4056.69
558.984	4473.69
559.196	4798.69
559.409	4557.69
559.621	4207.69
559.833	3890.69
560.046	3784.69
560.258	3519.69
560.47	3403.69
560.683	3272.69
560.895	3145.69
561.107	3053.69
561.32	2920.69
561.532	2895.69
561.744	2839.69
561.956	2730.69
562.168	2711.69
562.381	2710.69
562.593	2683.69
562.805	2667.69
563.017	2678.69
563.229	2774.69
563.441	3281.69
563.653	2673.69
563.865	2485.69
564.077	2463.69
564.289	2394.69
564.501	2413.69
564.713	2398.69
564.925	2326.69
565.137	2353.69
565.349	2360.69
565.561	2357.69
565.773	2368.69
565.985	2390.69
566.197	2459.69
566.408	2502.69
566.62	2481.69
566.832	2545.69
567.044	2596.69
567.255	2631.69
567.467	2662.69
567.679	2685.69
567.891	2813.69
568.102	3094.69
568.314	3583.69
568.526	3176.69
568.737	2719.69
568.949	2513.69
569.161	2378.69
569.372	2213.69
569.584	2175.69
569.795	2166.69
570.007	2140.69
570.218	2193.69
570.43	2252.69
570.641	2083.69
570.853	1997.69
571.064	1990.69
571.276	1977.69
571.487	1956.69
571.698	1884.69
571.91	1871.69
572.121	1863.69
572.333	1865.69
572.544	1866.69
572.755	2002.69
572.966	2321.69
573.178	2128.69
573.389	1897.69
573.6	1823.69
573.811	1799.69
574.023	1779.69
574.234	1777.69
574.445	1713.69
574.656	1745.69
574.867	1713.69
575.078	1751.69
575.289	1737.69
575.501	1709.69
575.712	1692.69
575.923	1697.69
576.134	1687.69
576.345	1709.69
576.556	1702.69
576.767	1680.69
576.978	1737.69
577.188	1745.69
577.399	1751.69
577.61	1746.69
577.821	1797.69
578.032	1803.69
578.243	1824.69
578.454	1853.69
578.665	1883.69
578.875	1911.69
579.086	1984.69
579.297	2117.69
579.508	2227.69
579.718	2415.69
579.929	2741.69
580.14	3176.69
580.35	3262.69
580.561	3023.69
580.772	2701.69
580.982	2494.69
581.193	2373.69
581.403	2213.69
581.614	2112.69
581.825	2059.69
582.035	1997.69
582.246	1893.69
582.456	1854.69
582.667	1793.69
582.877	1750.69
583.087	1735.69
583.298	1659.69
583.508	1579.69
583.719	1591.69
583.929	1576.69
584.139	1497.69
584.35	1449.69
584.56	1502.69
584.77	1471.69
584.981	1412.69
585.191	1446.69
585.401	1427.69
585.611	1355.69
585.821	1349.69
586.032	1345.69
586.242	1309.69
586.452	1355.69
586.662	1309.69
586.872	1290.69
587.082	1280.69
587.292	1288.69
587.502	1246.69
587.713	1277.69
587.923	1268.69
588.133	1242.69
588.343	1249.69
588.553	1245.69
588.762	1201.69
588.972	1201.69
589.182	1248.69
589.392	1183.69
589.602	1206.69
589.812	1173.69
590.022	1188.69
590.232	1162.69
590.441	1197.69
590.651	1186.69
590.861	1159.69
591.071	1185.69
591.281	1178.69
591.49	1163.69
591.7	1186.69
591.91	1195.69
592.119	1179.69
592.329	1184.69
592.539	1181.69
592.748	1191.69
592.958	1187.69
593.167	1226.69
593.377	1218.69
593.587	1225.69
593.796	1241.69
594.006	1227.69
594.215	1178.69
594.424	1221.69
594.634	1192.69
594.843	1169.69
595.053	1149.69
595.262	1132.69
595.472	1120.69
595.681	1073.69
595.89	1085.69
596.1	1095.69
596.309	1068.69
596.518	1047.69
596.727	1047.69
596.937	1044.69
597.146	1033.69
597.355	1030.69
597.564	996.69
597.774	999.69
597.983	1012.69
598.192	992.69
598.401	979.69
598.61	990.69
598.819	963.69
599.028	953.69
599.237	961.69
599.446	938.69
599.655	941.69
599.864	941.69
600.073	949.69
600.282	952.69
600.491	948.69
600.7	921.69
600.909	926.69
601.118	940.69
601.327	930.69
601.536	947.69
601.745	971.69
601.953	1066.69
602.162	1187.69
602.371	1070.69
602.58	1003.69
602.789	961.69
602.997	932.69
603.206	939.69
603.415	898.69
603.623	918.69
603.832	926.69
604.041	931.69
604.249	881.69
604.458	882.69
604.666	880.69
604.875	883.69
605.084	856.69
605.292	894.69
605.501	907.69
605.709	911.69
605.918	913.69
606.126	906.69
606.334	917.69
606.543	927.69
606.751	1006.69
606.96	1109.69
607.168	1227.69
607.376	1088.69
607.585	979.69
607.793	934.69
608.001	943.69
608.21	925.69
608.418	894.69
608.626	863.69
608.834	881.69
609.043	883.69
609.251	864.69
609.459	858.69
609.667	852.69
609.875	832.69
610.083	822.69
610.291	850.69
610.499	829.69
610.707	821.69
610.916	824.69
611.124	829.69
611.332	838.69
611.54	829.69
611.748	822.69
611.955	829.69
612.163	791.69
612.371	809.69
612.579	792.69
612.787	810.69
612.995	803.69
613.203	805.69
613.411	797.69
613.618	793.69
613.826	783.69
614.034	757.69
614.242	782.69
614.449	765.69
614.657	804.69
614.865	794.69
615.072	799.69
615.28	829.69
615.488	818.69
615.695	813.69
615.903	813.69
616.111	777.69
616.318	789.69
616.526	782.69
616.733	769.69
616.941	817.69
617.148	743.69
617.356	775.69
617.563	787.69
617.771	761.69
617.978	741.69
618.185	757.69
618.393	755.69
618.6	755.69
618.807	770.69
619.015	756.69
619.222	758.69
619.429	758.69
619.637	697.69
619.844	728.69
620.051	753.69
620.258	704.69
620.466	704.69
620.673	693.69
620.88	657.69
621.087	670.69
621.294	690.69
621.501	681.69
621.708	691.69
621.915	717.69
622.122	699.69
622.329	697.69
622.536	690.69
622.743	691.69
622.95	687.69
623.157	693.69
623.364	694.69
623.571	682.69
623.778	699.69
623.985	681.69
624.192	687.69
624.399	701.69
624.606	656.69
624.812	648.69
625.019	650.69
625.226	671.69
625.433	656.69
625.639	637.69
625.846	667.69
626.053	641.69
626.259	630.69
626.466	618.69
626.673	621.69
626.879	616.69
627.086	630.69
627.293	633.69
627.499	636.69
627.706	652.69
627.912	642.69
628.119	639.69
628.325	633.69
628.532	627.69
628.738	625.69
628.945	634.69
629.151	627.69
629.357	614.69
629.564	610.69
629.77	625.69
629.976	597.69
630.183	593.69
630.389	604.69
630.595	592.69
630.802	614.69
631.008	608.69
631.214	574.69
631.42	596.69
631.627	591.69
631.833	569.69
632.039	587.69
632.245	590.69
632.451	586.69
632.657	589.69
632.863	585.69
633.069	585.69
633.275	568.69
633.481	586.69
633.688	585.69
633.893	567.69
634.099	586.69
634.305	611.69
634.511	587.69
634.717	608.69
634.923	621.69
635.129	699.69
635.335	753.69
635.541	707.69
635.747	633.69
635.952	586.69
636.158	592.69
636.364	588.69
636.57	598.69
636.775	587.69
636.981	580.69
637.187	580.69
637.392	597.69
637.598	599.69
637.804	583.69
638.009	568.69
638.215	593.69
638.421	583.69
638.626	583.69
638.832	569.69
639.037	574.69
639.243	582.69
639.448	592.69
639.654	603.69
639.859	582.69
640.065	618.69
640.27	639.69
640.475	606.69
640.681	626.69
640.886	621.69
641.091	609.69
641.297	639.69
641.502	646.69
641.707	633.69
641.913	674.69
642.118	654.69
642.323	656.69
642.528	703.69
642.733	691.69
642.939	710.69
643.144	709.69
643.349	761.69
643.554	794.69
643.759	835.69
643.964	843.69
644.169	899.69
644.374	978.69
644.579	1061.69
644.784	1128.69
644.989	1291.69
645.194	1521.69
645.399	1896.69
645.604	2031.69
645.809	1505.69
646.014	1112.69
646.219	969.69
646.423	858.69
646.628	770.69
646.833	711.69
647.038	679.69
647.243	635.69
647.447	612.69
647.652	614.69
647.857	610.69
648.062	579.69
648.266	561.69
648.471	545.69
648.676	564.69
648.88	554.69
649.085	540.69
649.289	510.69
649.494	527.69
649.698	521.69
649.903	499.69
650.107	501.69
650.312	491.69
650.516	477.69
650.721	466.69
650.925	486.69
651.13	448.69
651.334	438.69
651.539	428.69
651.743	441.69
651.947	446.69
652.152	432.69
652.356	431.69
652.56	449.69
652.764	505.69
652.969	484.69
653.173	431.69
653.377	420.69
653.581	387.69
653.785	380.69
653.99	359.69
654.194	363.69
654.398	358.69
654.602	342.69
654.806	371.69
655.01	355.69
655.214	359.69
655.418	345.69
655.622	326.69
655.826	347.69
656.03	359.69
656.234	359.69
656.438	379.69
656.642	384.69
656.846	363.69
657.049	351.69
657.253	347.69
657.457	303.69
657.661	287.69
657.865	257.69
658.068	247.69
658.272	245.69
658.476	248.69
658.68	235.69
658.883	218.69
659.087	218.69
659.291	197.69
659.494	192.69
659.698	179.69
659.901	168.69
660.105	170.69
660.309	167.69
660.512	169.69
660.716	148.69
660.919	167.69
661.123	146.69
661.326	127.69
661.53	129.69
661.733	116.69
661.936	125.69
662.14	125.69
662.343	108.69
662.546	105.69
662.75	123.69
662.953	111.69
663.156	103.69
663.36	87.69
663.563	106.69
663.766	92.69
663.969	99.69
664.173	84.69
664.376	100.69
664.579	82.69
664.782	79.69
664.985	80.69
665.188	81.69
665.391	88.69
665.594	87.69
665.797	93.69
666	90.69
666.203	93.69
666.406	78.69
666.609	89.69
666.812	112.69
667.015	94.69
667.218	82.69
667.421	81.69
667.624	83.69
667.827	75.69
668.03	80.69
668.232	70.69
668.435	78.69
668.638	86.69
668.841	85.69
669.043	94.69
669.246	91.69
669.449	88.69
669.651	85.69
669.854	86.69
670.057	84.69
670.259	85.69
670.462	83.69
670.665	86.69
670.867	95.69
671.07	85.69
671.272	78.69
671.475	83.69
671.677	85.69
671.88	70.69
672.082	81.69
672.284	74.69
672.487	93.69
672.689	74.69
672.892	75.69
