Data from SnStandardFlinnAPT0064_LampEnergy5.5_LIBS07252019.E.O._I.C._HRD10591_15-16-16-492.txt Node
Date: Thu Jul 25 15:16:16 EDT 2019
User: cochatt
Spectrometer: HR+D1059
Trigger mode: 1
Integration Time (sec): 1.000000E-1
Scans to average: 1
Electric dark correction enabled: true
Nonlinearity correction enabled: false
Boxcar width: 0
XAxis mode: Wavelengths
Number of Pixels in Spectrum: 2048
>>>>>Begin Spectral Data<<<<<
223.165	-18.19
223.4	-18.19
223.635	-18.19
223.869	-18.19
224.104	-25.19
224.338	-12.19
224.573	-32.19
224.808	-5.19
225.042	-2.19
225.277	-3.19
225.511	0.81
225.746	-5.19
225.98	7.81
226.215	13.81
226.449	21.81
226.683	24.81
226.918	21.81
227.152	30.81
227.387	36.81
227.621	50.81
227.856	37.81
228.09	40.81
228.324	49.81
228.559	59.81
228.793	84.81
229.027	154.81
229.262	164.81
229.496	166.81
229.73	158.81
229.964	155.81
230.199	165.81
230.433	162.81
230.667	160.81
230.901	172.81
231.136	169.81
231.37	176.81
231.604	200.81
231.838	212.81
232.072	226.81
232.306	249.81
232.541	223.81
232.775	202.81
233.009	206.81
233.243	199.81
233.477	217.81
233.711	232.81
233.945	271.81
234.179	236.81
234.413	223.81
234.647	215.81
234.881	215.81
235.115	253.81
235.349	298.81
235.583	346.81
235.817	433.81
236.051	419.81
236.285	306.81
236.519	240.81
236.753	237.81
236.987	237.81
237.221	253.81
237.455	246.81
237.689	226.81
237.922	221.81
238.156	227.81
238.39	231.81
238.624	217.81
238.858	228.81
239.091	241.81
239.325	245.81
239.559	240.81
239.793	232.81
240.027	255.81
240.26	255.81
240.494	256.81
240.728	244.81
240.961	276.81
241.195	283.81
241.429	281.81
241.662	309.81
241.896	353.81
242.13	416.81
242.363	494.81
242.597	629.81
242.83	600.81
243.064	600.81
243.298	716.81
243.531	610.81
243.765	427.81
243.998	332.81
244.232	315.81
244.465	291.81
244.699	287.81
244.932	295.81
245.166	290.81
245.399	301.81
245.633	308.81
245.866	309.81
246.099	313.81
246.333	275.81
246.566	300.81
246.8	297.81
247.033	297.81
247.266	304.81
247.5	298.81
247.733	304.81
247.966	328.81
248.2	327.81
248.433	369.81
248.666	395.81
248.899	402.81
249.133	368.81
249.366	383.81
249.599	395.81
249.832	447.81
250.066	459.81
250.299	367.81
250.532	338.81
250.765	335.81
250.998	353.81
251.231	346.81
251.465	340.81
251.698	333.81
251.931	327.81
252.164	360.81
252.397	343.81
252.63	347.81
252.863	353.81
253.096	360.81
253.329	343.81
253.562	340.81
253.795	355.81
254.028	391.81
254.261	364.81
254.494	393.81
254.727	460.81
254.96	490.81
255.193	492.81
255.426	412.81
255.659	402.81
255.892	378.81
256.124	367.81
256.357	379.81
256.59	396.81
256.823	408.81
257.056	452.81
257.289	520.81
257.521	568.81
257.754	470.81
257.987	423.81
258.22	404.81
258.452	391.81
258.685	422.81
258.918	439.81
259.151	424.81
259.383	447.81
259.616	491.81
259.849	513.81
260.081	474.81
260.314	447.81
260.547	426.81
260.779	431.81
261.012	446.81
261.244	441.81
261.477	430.81
261.71	437.81
261.942	441.81
262.175	459.81
262.407	461.81
262.64	458.81
262.872	503.81
263.105	514.81
263.337	544.81
263.57	556.81
263.802	580.81
264.035	583.81
264.267	586.81
264.499	575.81
264.732	633.81
264.964	676.81
265.197	613.81
265.429	624.81
265.661	639.81
265.894	705.81
266.126	751.81
266.358	817.81
266.591	789.81
266.823	660.81
267.055	635.81
267.287	626.81
267.52	579.81
267.752	601.81
267.984	577.81
268.216	549.81
268.448	596.81
268.681	551.81
268.913	543.81
269.145	544.81
269.377	560.81
269.609	552.81
269.841	549.81
270.073	573.81
270.306	682.81
270.538	867.81
270.77	1228.81
271.002	1523.81
271.234	1082.81
271.466	749.81
271.698	650.81
271.93	578.81
272.162	573.81
272.394	546.81
272.626	549.81
272.858	533.81
273.09	525.81
273.322	554.81
273.553	531.81
273.785	553.81
274.017	534.81
274.249	531.81
274.481	532.81
274.713	536.81
274.945	544.81
275.176	525.81
275.408	531.81
275.64	521.81
275.872	544.81
276.104	537.81
276.335	560.81
276.567	546.81
276.799	559.81
277.031	562.81
277.262	565.81
277.494	588.81
277.726	646.81
277.957	710.81
278.189	816.81
278.421	764.81
278.652	693.81
278.884	692.81
279.115	634.81
279.347	599.81
279.579	592.81
279.81	594.81
280.042	587.81
280.273	608.81
280.505	625.81
280.736	635.81
280.968	663.81
281.199	695.81
281.431	803.81
281.662	801.81
281.894	728.81
282.125	664.81
282.356	698.81
282.588	693.81
282.819	718.81
283.051	727.81
283.282	792.81
283.513	967.81
283.745	1403.81
283.976	2203.81
284.207	3065.81
284.439	2728.81
284.67	1669.81
284.901	1378.81
285.132	1358.81
285.364	1257.81
285.595	1055.81
285.826	975.81
286.057	1116.81
286.288	1467.81
286.52	1964.81
286.751	1811.81
286.982	1171.81
287.213	887.81
287.444	774.81
287.675	733.81
287.906	735.81
288.138	715.81
288.369	723.81
288.6	696.81
288.831	730.81
289.062	710.81
289.293	694.81
289.524	715.81
289.755	703.81
289.986	729.81
290.217	716.81
290.448	713.81
290.679	733.81
290.91	728.81
291.141	735.81
291.371	780.81
291.602	803.81
291.833	751.81
292.064	711.81
292.295	708.81
292.526	692.81
292.757	684.81
292.987	676.81
293.218	672.81
293.449	670.81
293.68	668.81
293.91	655.81
294.141	693.81
294.372	682.81
294.603	673.81
294.833	662.81
295.064	685.81
295.295	697.81
295.525	654.81
295.756	641.81
295.987	667.81
296.217	694.81
296.448	694.81
296.679	668.81
296.909	669.81
297.14	684.81
297.37	688.81
297.601	694.81
297.831	722.81
298.062	699.81
298.292	701.81
298.523	710.81
298.753	723.81
298.984	715.81
299.214	735.81
299.445	753.81
299.675	732.81
299.905	755.81
300.136	771.81
300.366	876.81
300.597	1096.81
300.827	1475.81
301.057	1931.81
301.288	1924.81
301.518	1282.81
301.748	1010.81
301.979	916.81
302.209	914.81
302.439	888.81
302.669	970.81
302.9	1148.81
303.13	1559.81
303.36	2291.81
303.59	3021.81
303.82	2636.81
304.051	1562.81
304.281	1159.81
304.511	980.81
304.741	961.81
304.971	879.81
305.201	839.81
305.431	830.81
305.661	815.81
305.891	792.81
306.121	769.81
306.352	779.81
306.582	784.81
306.812	799.81
307.042	797.81
307.272	793.81
307.502	758.81
307.731	793.81
307.961	768.81
308.191	760.81
308.421	747.81
308.651	775.81
308.881	749.81
309.111	772.81
309.341	793.81
309.571	780.81
309.8	813.81
310.03	759.81
310.26	796.81
310.49	793.81
310.72	801.81
310.949	779.81
311.179	785.81
311.409	803.81
311.639	843.81
311.868	835.81
312.098	816.81
312.328	817.81
312.557	813.81
312.787	835.81
313.017	825.81
313.246	872.81
313.476	849.81
313.706	871.81
313.935	925.81
314.165	919.81
314.394	987.81
314.624	936.81
314.853	895.81
315.083	876.81
315.312	874.81
315.542	918.81
315.771	905.81
316.001	933.81
316.23	948.81
316.46	1005.81
316.689	1059.81
316.919	1279.81
317.148	1804.81
317.377	2733.81
317.607	3932.81
317.836	4132.81
318.065	2423.81
318.295	1608.81
318.524	1283.81
318.753	1164.81
318.983	1106.81
319.212	1039.81
319.441	1001.81
319.67	979.81
319.9	991.81
320.129	976.81
320.358	973.81
320.587	984.81
320.816	969.81
321.046	968.81
321.275	984.81
321.504	989.81
321.733	1024.81
321.962	1027.81
322.191	1027.81
322.42	1038.81
322.649	1031.81
322.878	1025.81
323.108	1025.81
323.337	1046.81
323.566	1091.81
323.795	1074.81
324.024	1090.81
324.253	1131.81
324.482	1151.81
324.71	1199.81
324.939	1260.81
325.168	1292.81
325.397	1303.81
325.626	1555.81
325.855	2171.81
326.084	3298.81
326.313	4889.81
326.542	5089.81
326.77	3268.81
326.999	2211.81
327.228	1833.81
327.457	1773.81
327.686	1792.81
327.914	1885.81
328.143	2175.81
328.372	2550.81
328.6	2643.81
328.829	2533.81
329.058	2193.81
329.287	1996.81
329.515	1822.81
329.744	1701.81
329.972	1631.81
330.201	1518.81
330.43	1540.81
330.658	1482.81
330.887	1420.81
331.115	1398.81
331.344	1443.81
331.572	1405.81
331.801	1416.81
332.03	1417.81
332.258	1444.81
332.486	1557.81
332.715	1717.81
332.943	2010.81
333.172	2418.81
333.4	2409.81
333.629	1866.81
333.857	1807.81
334.085	1781.81
334.314	1857.81
334.542	1992.81
334.771	2269.81
334.999	2668.81
335.227	3260.81
335.455	3619.81
335.684	3370.81
335.912	2879.81
336.14	2489.81
336.369	2251.81
336.597	2080.81
336.825	1931.81
337.053	1852.81
337.281	1725.81
337.51	1651.81
337.738	1555.81
337.966	1520.81
338.194	1486.81
338.422	1432.81
338.65	1377.81
338.878	1345.81
339.106	1356.81
339.334	1312.81
339.562	1292.81
339.79	1252.81
340.018	1261.81
340.246	1261.81
340.474	1252.81
340.702	1279.81
340.93	1246.81
341.158	1253.81
341.386	1237.81
341.614	1208.81
341.842	1215.81
342.07	1166.81
342.298	1187.81
342.526	1146.81
342.754	1149.81
342.981	1135.81
343.209	1149.81
343.437	1177.81
343.665	1181.81
343.893	1199.81
344.12	1205.81
344.348	1131.81
344.576	1164.81
344.804	1147.81
345.031	1105.81
345.259	1086.81
345.487	1095.81
345.714	1077.81
345.942	1077.81
346.17	1087.81
346.397	1047.81
346.625	1043.81
346.853	1088.81
347.08	1065.81
347.308	1066.81
347.535	1035.81
347.763	1063.81
347.99	1061.81
348.218	1077.81
348.445	1072.81
348.673	1027.81
348.9	1043.81
349.128	1028.81
349.355	1029.81
349.583	1050.81
349.81	1014.81
350.037	1015.81
350.265	1051.81
350.492	1035.81
350.72	1027.81
350.947	1030.81
351.174	1051.81
351.402	1024.81
351.629	1008.81
351.856	1057.81
352.083	1022.81
352.311	1034.81
352.538	989.81
352.765	1000.81
352.992	1019.81
353.22	1027.81
353.447	1043.81
353.674	1024.81
353.901	993.81
354.128	1003.81
354.355	1009.81
354.583	1025.81
354.81	1022.81
355.037	1045.81
355.264	1031.81
355.491	1036.81
355.718	1061.81
355.945	1035.81
356.172	1057.81
356.399	1058.81
356.626	1060.81
356.853	1049.81
357.08	1058.81
357.307	1081.81
357.534	1086.81
357.761	1071.81
357.988	1089.81
358.215	1088.81
358.441	1079.81
358.668	1040.81
358.895	1071.81
359.122	1081.81
359.349	1044.81
359.576	1045.81
359.802	1050.81
360.029	1091.81
360.256	1068.81
360.483	1071.81
360.709	1089.81
360.936	1081.81
361.163	1100.81
361.39	1072.81
361.616	1081.81
361.843	1063.81
362.07	1101.81
362.296	1092.81
362.523	1074.81
362.749	1131.81
362.976	1125.81
363.203	1095.81
363.429	1072.81
363.656	1040.81
363.882	1057.81
364.109	1079.81
364.335	1089.81
364.562	1112.81
364.788	1084.81
365.015	1127.81
365.241	1111.81
365.468	1162.81
365.694	1185.81
365.92	1170.81
366.147	1119.81
366.373	1136.81
366.599	1149.81
366.826	1107.81
367.052	1077.81
367.278	1103.81
367.505	1118.81
367.731	1114.81
367.957	1073.81
368.184	1132.81
368.41	1108.81
368.636	1117.81
368.862	1132.81
369.089	1131.81
369.315	1120.81
369.541	1123.81
369.767	1131.81
369.993	1142.81
370.219	1150.81
370.445	1134.81
370.672	1152.81
370.898	1144.81
371.124	1177.81
371.35	1151.81
371.576	1151.81
371.802	1155.81
372.028	1190.81
372.254	1177.81
372.48	1171.81
372.706	1195.81
372.932	1182.81
373.158	1189.81
373.384	1163.81
373.61	1176.81
373.835	1177.81
374.061	1224.81
374.287	1202.81
374.513	1195.81
374.739	1211.81
374.965	1236.81
375.191	1211.81
375.416	1207.81
375.642	1228.81
375.868	1204.81
376.094	1200.81
376.319	1168.81
376.545	1189.81
376.771	1166.81
376.997	1195.81
377.222	1200.81
377.448	1187.81
377.674	1158.81
377.899	1158.81
378.125	1170.81
378.35	1140.81
378.576	1174.81
378.802	1172.81
379.027	1180.81
379.253	1227.81
379.478	1252.81
379.704	1434.81
379.929	1999.81
380.155	2904.81
380.38	3093.81
380.606	1979.81
380.831	1448.81
381.057	1312.81
381.282	1228.81
381.507	1220.81
381.733	1174.81
381.958	1179.81
382.184	1193.81
382.409	1189.81
382.634	1139.81
382.86	1123.81
383.085	1153.81
383.31	1158.81
383.535	1149.81
383.761	1175.81
383.986	1185.81
384.211	1178.81
384.436	1174.81
384.662	1173.81
384.887	1168.81
385.112	1182.81
385.337	1207.81
385.562	1188.81
385.787	1213.81
386.013	1214.81
386.238	1217.81
386.463	1171.81
386.688	1195.81
386.913	1210.81
387.138	1204.81
387.363	1205.81
387.588	1173.81
387.813	1193.81
388.038	1230.81
388.263	1145.81
388.488	1146.81
388.713	1175.81
388.938	1186.81
389.163	1183.81
389.387	1180.81
389.612	1177.81
389.837	1205.81
390.062	1221.81
390.287	1206.81
390.512	1207.81
390.736	1204.81
390.961	1228.81
391.186	1226.81
391.411	1245.81
391.636	1248.81
391.86	1234.81
392.085	1263.81
392.31	1243.81
392.534	1258.81
392.759	1213.81
392.984	1229.81
393.208	1255.81
393.433	1255.81
393.658	1251.81
393.882	1220.81
394.107	1202.81
394.331	1206.81
394.556	1217.81
394.78	1236.81
395.005	1215.81
395.229	1232.81
395.454	1241.81
395.678	1265.81
395.903	1240.81
396.127	1260.81
396.352	1219.81
396.576	1240.81
396.801	1260.81
397.025	1254.81
397.249	1291.81
397.474	1256.81
397.698	1266.81
397.922	1294.81
398.147	1279.81
398.371	1284.81
398.595	1352.81
398.82	1344.81
399.044	1394.81
399.268	1487.81
399.492	1508.81
399.717	1600.81
399.941	1585.81
400.165	1525.81
400.389	1463.81
400.613	1411.81
400.837	1350.81
401.062	1317.81
401.286	1331.81
401.51	1315.81
401.734	1324.81
401.958	1330.81
402.182	1327.81
402.406	1328.81
402.63	1376.81
402.854	1340.81
403.078	1375.81
403.302	1339.81
403.526	1353.81
403.75	1353.81
403.974	1393.81
404.198	1377.81
404.422	1413.81
404.645	1361.81
404.869	1365.81
405.093	1357.81
405.317	1374.81
405.541	1403.81
405.765	1409.81
405.988	1420.81
406.212	1384.81
406.436	1401.81
406.66	1425.81
406.883	1402.81
407.107	1431.81
407.331	1480.81
407.555	1508.81
407.778	1493.81
408.002	1478.81
408.226	1457.81
408.449	1436.81
408.673	1415.81
408.896	1410.81
409.12	1370.81
409.344	1390.81
409.567	1357.81
409.791	1365.81
410.014	1343.81
410.238	1385.81
410.461	1378.81
410.685	1356.81
410.908	1380.81
411.132	1340.81
411.355	1323.81
411.578	1351.81
411.802	1366.81
412.025	1315.81
412.249	1313.81
412.472	1329.81
412.695	1297.81
412.919	1293.81
413.142	1303.81
413.365	1301.81
413.589	1319.81
413.812	1288.81
414.035	1315.81
414.258	1298.81
414.482	1314.81
414.705	1334.81
414.928	1307.81
415.151	1287.81
415.374	1284.81
415.597	1263.81
415.821	1257.81
416.044	1234.81
416.267	1268.81
416.49	1235.81
416.713	1243.81
416.936	1269.81
417.159	1257.81
417.382	1241.81
417.605	1212.81
417.828	1241.81
418.051	1261.81
418.274	1244.81
418.497	1257.81
418.72	1275.81
418.943	1274.81
419.166	1317.81
419.389	1397.81
419.611	1376.81
419.834	1339.81
420.057	1323.81
420.28	1270.81
420.503	1253.81
420.726	1253.81
420.948	1235.81
421.171	1236.81
421.394	1233.81
421.617	1217.81
421.839	1274.81
422.062	1283.81
422.285	1224.81
422.507	1281.81
422.73	1273.81
422.953	1292.81
423.175	1302.81
423.398	1269.81
423.621	1253.81
423.843	1237.81
424.066	1289.81
424.288	1285.81
424.511	1240.81
424.733	1232.81
424.956	1242.81
425.178	1233.81
425.401	1235.81
425.623	1241.81
425.846	1200.81
426.068	1239.81
426.291	1205.81
426.513	1171.81
426.735	1192.81
426.958	1209.81
427.18	1191.81
427.402	1195.81
427.625	1192.81
427.847	1175.81
428.069	1164.81
428.292	1137.81
428.514	1156.81
428.736	1149.81
428.958	1173.81
429.181	1154.81
429.403	1176.81
429.625	1172.81
429.847	1146.81
430.069	1145.81
430.292	1196.81
430.514	1229.81
430.736	1213.81
430.958	1197.81
431.18	1149.81
431.402	1147.81
431.624	1145.81
431.846	1137.81
432.068	1124.81
432.29	1105.81
432.512	1086.81
432.734	1163.81
432.956	1142.81
433.178	1176.81
433.4	1147.81
433.622	1147.81
433.844	1154.81
434.066	1167.81
434.287	1122.81
434.509	1131.81
434.731	1171.81
434.953	1178.81
435.175	1177.81
435.397	1189.81
435.618	1191.81
435.84	1146.81
436.062	1164.81
436.284	1149.81
436.505	1139.81
436.727	1154.81
436.949	1126.81
437.17	1167.81
437.392	1163.81
437.614	1158.81
437.835	1107.81
438.057	1109.81
438.278	1119.81
438.5	1114.81
438.721	1148.81
438.943	1151.81
439.165	1184.81
439.386	1199.81
439.608	1161.81
439.829	1194.81
440.05	1216.81
440.272	1258.81
440.493	1213.81
440.715	1208.81
440.936	1196.81
441.158	1206.81
441.379	1220.81
441.6	1244.81
441.822	1258.81
442.043	1312.81
442.264	1351.81
442.486	1272.81
442.707	1226.81
442.928	1231.81
443.149	1225.81
443.371	1181.81
443.592	1237.81
443.813	1247.81
444.034	1267.81
444.255	1267.81
444.476	1312.81
444.698	1301.81
444.919	1322.81
445.14	1369.81
445.361	1304.81
445.582	1263.81
445.803	1245.81
446.024	1225.81
446.245	1252.81
446.466	1243.81
446.687	1233.81
446.908	1204.81
447.129	1206.81
447.35	1173.81
447.571	1183.81
447.792	1147.81
448.013	1137.81
448.234	1138.81
448.455	1126.81
448.675	1170.81
448.896	1159.81
449.117	1192.81
449.338	1265.81
449.559	1313.81
449.779	1216.81
450	1130.81
450.221	1105.81
450.442	1139.81
450.662	1111.81
450.883	1115.81
451.104	1111.81
451.324	1109.81
451.545	1121.81
451.766	1115.81
451.986	1131.81
452.207	1146.81
452.428	1409.81
452.648	1841.81
452.869	1652.81
453.089	1265.81
453.31	1204.81
453.53	1220.81
453.751	1225.81
453.971	1339.81
454.192	1315.81
454.412	1145.81
454.633	1121.81
454.853	1060.81
455.073	1042.81
455.294	1075.81
455.514	1059.81
455.734	1052.81
455.955	1076.81
456.175	1061.81
456.395	1066.81
456.616	1061.81
456.836	1095.81
457.056	1057.81
457.276	1085.81
457.497	1079.81
457.717	1108.81
457.937	1102.81
458.157	1081.81
458.377	1085.81
458.598	1112.81
458.818	1158.81
459.038	1129.81
459.258	1115.81
459.478	1139.81
459.698	1139.81
459.918	1191.81
460.138	1192.81
460.358	1237.81
460.578	1269.81
460.798	1279.81
461.018	1238.81
461.238	1255.81
461.458	1276.81
461.678	1279.81
461.898	1323.81
462.118	1281.81
462.338	1322.81
462.558	1332.81
462.777	1333.81
462.997	1408.81
463.217	1442.81
463.437	1488.81
463.657	1479.81
463.876	1484.81
464.096	1421.81
464.316	1398.81
464.536	1392.81
464.755	1352.81
464.975	1306.81
465.195	1274.81
465.414	1247.81
465.634	1177.81
465.854	1170.81
466.073	1147.81
466.293	1155.81
466.512	1155.81
466.732	1149.81
466.951	1227.81
467.171	1258.81
467.391	1255.81
467.61	1159.81
467.829	1110.81
468.049	1169.81
468.268	1115.81
468.488	1098.81
468.707	1131.81
468.927	1143.81
469.146	1124.81
469.365	1149.81
469.585	1161.81
469.804	1219.81
470.023	1180.81
470.243	1183.81
470.462	1247.81
470.681	1274.81
470.901	1389.81
471.12	1579.81
471.339	1583.81
471.558	1331.81
471.777	1226.81
471.997	1218.81
472.216	1162.81
472.435	1154.81
472.654	1153.81
472.873	1119.81
473.092	1142.81
473.311	1148.81
473.53	1171.81
473.749	1153.81
473.968	1165.81
474.187	1151.81
474.406	1129.81
474.625	1157.81
474.844	1148.81
475.063	1168.81
475.282	1133.81
475.501	1137.81
475.72	1138.81
475.939	1145.81
476.158	1207.81
476.377	1212.81
476.596	1208.81
476.814	1212.81
477.033	1195.81
477.252	1193.81
477.471	1234.81
477.69	1239.81
477.908	1283.81
478.127	1307.81
478.346	1306.81
478.564	1324.81
478.783	1338.81
479.002	1347.81
479.22	1338.81
479.439	1383.81
479.658	1316.81
479.876	1349.81
480.095	1335.81
480.313	1407.81
480.532	1413.81
480.751	1384.81
480.969	1354.81
481.188	1353.81
481.406	1363.81
481.624	1318.81
481.843	1327.81
482.061	1311.81
482.28	1339.81
482.498	1337.81
482.717	1356.81
482.935	1380.81
483.153	1394.81
483.372	1393.81
483.59	1468.81
483.808	1417.81
484.027	1472.81
484.245	1512.81
484.463	1712.81
484.681	1846.81
484.9	1663.81
485.118	1589.81
485.336	1589.81
485.554	1583.81
485.772	1671.81
485.99	1862.81
486.209	1993.81
486.427	1715.81
486.645	1550.81
486.863	1523.81
487.081	1483.81
487.299	1475.81
487.517	1467.81
487.735	1479.81
487.953	1485.81
488.171	1488.81
488.389	1472.81
488.607	1419.81
488.825	1421.81
489.043	1398.81
489.261	1409.81
489.479	1440.81
489.696	1415.81
489.914	1419.81
490.132	1393.81
490.35	1422.81
490.568	1439.81
490.786	1457.81
491.003	1507.81
491.221	1479.81
491.439	1458.81
491.657	1514.81
491.874	1505.81
492.092	1525.81
492.31	1539.81
492.527	1564.81
492.745	1524.81
492.963	1522.81
493.18	1482.81
493.398	1508.81
493.615	1512.81
493.833	1495.81
494.05	1508.81
494.268	1502.81
494.485	1509.81
494.703	1479.81
494.92	1511.81
495.138	1512.81
495.355	1482.81
495.573	1503.81
495.79	1489.81
496.008	1553.81
496.225	1516.81
496.442	1544.81
496.66	1607.81
496.877	1663.81
497.094	1658.81
497.312	1584.81
497.529	1594.81
497.746	1619.81
497.963	1627.81
498.181	1677.81
498.398	1693.81
498.615	1753.81
498.832	1810.81
499.049	1910.81
499.267	2027.81
499.484	2132.81
499.701	2179.81
499.918	2249.81
500.135	2394.81
500.352	2482.81
500.569	2569.81
500.786	2521.81
501.003	2441.81
501.22	2290.81
501.437	2211.81
501.654	2097.81
501.871	1987.81
502.088	1919.81
502.305	1838.81
502.522	1802.81
502.739	1738.81
502.956	1656.81
503.172	1669.81
503.389	1611.81
503.606	1583.81
503.823	1548.81
504.04	1541.81
504.256	1528.81
504.473	1586.81
504.69	1562.81
504.907	1501.81
505.123	1482.81
505.34	1434.81
505.557	1396.81
505.773	1404.81
505.99	1376.81
506.207	1393.81
506.423	1340.81
506.64	1313.81
506.856	1333.81
507.073	1341.81
507.289	1370.81
507.506	1332.81
507.722	1314.81
507.939	1321.81
508.155	1314.81
508.372	1269.81
508.588	1256.81
508.805	1257.81
509.021	1293.81
509.238	1311.81
509.454	1333.81
509.67	1357.81
509.887	1312.81
510.103	1287.81
510.319	1285.81
510.536	1274.81
510.752	1229.81
510.968	1261.81
511.184	1228.81
511.401	1211.81
511.617	1206.81
511.833	1239.81
512.049	1243.81
512.265	1231.81
512.481	1204.81
512.698	1184.81
512.914	1212.81
513.13	1224.81
513.346	1223.81
513.562	1213.81
513.778	1233.81
513.994	1218.81
514.21	1257.81
514.426	1343.81
514.642	1350.81
514.858	1294.81
515.074	1292.81
515.29	1264.81
515.506	1248.81
515.721	1246.81
515.937	1288.81
516.153	1297.81
516.369	1304.81
516.585	1274.81
516.801	1313.81
517.016	1351.81
517.232	1341.81
517.448	1399.81
517.664	1413.81
517.879	1426.81
518.095	1340.81
518.311	1391.81
518.527	1339.81
518.742	1358.81
518.958	1361.81
519.173	1380.81
519.389	1332.81
519.605	1285.81
519.82	1268.81
520.036	1250.81
520.251	1231.81
520.467	1267.81
520.682	1249.81
520.898	1195.81
521.113	1232.81
521.329	1205.81
521.544	1190.81
521.76	1199.81
521.975	1192.81
522.19	1201.81
522.406	1227.81
522.621	1199.81
522.836	1212.81
523.052	1193.81
523.267	1176.81
523.482	1181.81
523.698	1181.81
523.913	1175.81
524.128	1182.81
524.343	1184.81
524.559	1184.81
524.774	1203.81
524.989	1179.81
525.204	1181.81
525.419	1201.81
525.634	1181.81
525.849	1188.81
526.064	1179.81
526.28	1172.81
526.495	1167.81
526.71	1165.81
526.925	1157.81
527.14	1192.81
527.355	1171.81
527.57	1197.81
527.785	1160.81
527.999	1192.81
528.214	1196.81
528.429	1216.81
528.644	1253.81
528.859	1280.81
529.074	1227.81
529.289	1282.81
529.503	1284.81
529.718	1244.81
529.933	1257.81
530.148	1233.81
530.363	1241.81
530.577	1236.81
530.792	1267.81
531.007	1242.81
531.221	1241.81
531.436	1243.81
531.651	1272.81
531.865	1273.81
532.08	1315.81
532.295	1335.81
532.509	1386.81
532.724	1380.81
532.938	1396.81
533.153	1451.81
533.367	1535.81
533.582	1524.81
533.796	1524.81
534.011	1508.81
534.225	1467.81
534.44	1387.81
534.654	1378.81
534.868	1403.81
535.083	1365.81
535.297	1371.81
535.511	1314.81
535.726	1331.81
535.94	1329.81
536.154	1293.81
536.369	1272.81
536.583	1247.81
536.797	1210.81
537.011	1226.81
537.225	1227.81
537.44	1207.81
537.654	1213.81
537.868	1191.81
538.082	1183.81
538.296	1192.81
538.51	1176.81
538.724	1209.81
538.938	1191.81
539.153	1157.81
539.367	1186.81
539.581	1132.81
539.795	1149.81
540.009	1109.81
540.222	1129.81
540.436	1148.81
540.65	1163.81
540.864	1129.81
541.078	1171.81
541.292	1249.81
541.506	1457.81
541.72	1516.81
541.934	1355.81
542.147	1281.81
542.361	1221.81
542.575	1177.81
542.789	1131.81
543.002	1129.81
543.216	1097.81
543.43	1079.81
543.644	1119.81
543.857	1137.81
544.071	1141.81
544.285	1151.81
544.498	1149.81
544.712	1138.81
544.925	1151.81
545.139	1160.81
545.352	1152.81
545.566	1124.81
545.779	1162.81
545.993	1159.81
546.206	1128.81
546.42	1191.81
546.633	1138.81
546.847	1117.81
547.06	1123.81
547.274	1151.81
547.487	1145.81
547.7	1147.81
547.914	1144.81
548.127	1167.81
548.34	1184.81
548.554	1159.81
548.767	1137.81
548.98	1151.81
549.193	1139.81
549.407	1161.81
549.62	1176.81
549.833	1150.81
550.046	1149.81
550.259	1144.81
550.473	1149.81
550.686	1126.81
550.899	1115.81
551.112	1131.81
551.325	1124.81
551.538	1121.81
551.751	1149.81
551.964	1119.81
552.177	1143.81
552.39	1151.81
552.603	1205.81
552.816	1202.81
553.029	1221.81
553.242	1256.81
553.455	1265.81
553.667	1249.81
553.88	1239.81
554.093	1226.81
554.306	1253.81
554.519	1277.81
554.732	1278.81
554.944	1303.81
555.157	1301.81
555.37	1366.81
555.583	1377.81
555.795	1373.81
556.008	1485.81
556.221	1615.81
556.433	1661.81
556.646	1684.81
556.859	1620.81
557.071	1634.81
557.284	1569.81
557.496	1554.81
557.709	1545.81
557.921	1493.81
558.134	1555.81
558.346	1541.81
558.559	1556.81
558.771	1631.81
558.984	1759.81
559.196	1836.81
559.409	1753.81
559.621	1638.81
559.833	1599.81
560.046	1519.81
560.258	1481.81
560.47	1427.81
560.683	1367.81
560.895	1292.81
561.107	1303.81
561.32	1260.81
561.532	1233.81
561.744	1237.81
561.956	1199.81
562.168	1171.81
562.381	1139.81
562.593	1140.81
562.805	1143.81
563.017	1153.81
563.229	1171.81
563.441	1285.81
563.653	1124.81
563.865	1057.81
564.077	1095.81
564.289	1047.81
564.501	1036.81
564.713	1056.81
564.925	1034.81
565.137	1039.81
565.349	1050.81
565.561	1063.81
565.773	1038.81
565.985	1047.81
566.197	1098.81
566.408	1120.81
566.62	1154.81
566.832	1191.81
567.044	1154.81
567.255	1175.81
567.467	1176.81
567.679	1239.81
567.891	1255.81
568.102	1427.81
568.314	1603.81
568.526	1370.81
568.737	1175.81
568.949	1087.81
569.161	1032.81
569.372	984.81
569.584	960.81
569.795	947.81
570.007	935.81
570.218	957.81
570.43	971.81
570.641	926.81
570.853	874.81
571.064	907.81
571.276	890.81
571.487	888.81
571.698	832.81
571.91	827.81
572.121	832.81
572.333	857.81
572.544	849.81
572.755	855.81
572.966	1003.81
573.178	925.81
573.389	834.81
573.6	817.81
573.811	787.81
574.023	781.81
574.234	771.81
574.445	767.81
574.656	774.81
574.867	768.81
575.078	767.81
575.289	772.81
575.501	770.81
575.712	751.81
575.923	765.81
576.134	756.81
576.345	754.81
576.556	763.81
576.767	748.81
576.978	785.81
577.188	767.81
577.399	762.81
577.61	776.81
577.821	787.81
578.032	776.81
578.243	794.81
578.454	816.81
578.665	821.81
578.875	860.81
579.086	848.81
579.297	887.81
579.508	913.81
579.718	967.81
579.929	1074.81
580.14	1193.81
580.35	1245.81
580.561	1176.81
580.772	1083.81
580.982	1045.81
581.193	971.81
581.403	935.81
581.614	895.81
581.825	867.81
582.035	809.81
582.246	840.81
582.456	809.81
582.667	775.81
582.877	766.81
583.087	764.81
583.298	732.81
583.508	716.81
583.719	678.81
583.929	700.81
584.139	678.81
584.35	667.81
584.56	679.81
584.77	653.81
584.981	660.81
585.191	654.81
585.401	627.81
585.611	626.81
585.821	632.81
586.032	625.81
586.242	624.81
586.452	625.81
586.662	613.81
586.872	592.81
587.082	594.81
587.292	570.81
587.502	590.81
587.713	583.81
587.923	575.81
588.133	576.81
588.343	575.81
588.553	594.81
588.762	565.81
588.972	593.81
589.182	575.81
589.392	586.81
589.602	559.81
589.812	571.81
590.022	549.81
590.232	552.81
590.441	541.81
590.651	560.81
590.861	557.81
591.071	549.81
591.281	551.81
591.49	550.81
591.7	572.81
591.91	543.81
592.119	550.81
592.329	570.81
592.539	567.81
592.748	554.81
592.958	586.81
593.167	565.81
593.377	554.81
593.587	588.81
593.796	566.81
594.006	573.81
594.215	593.81
594.424	580.81
594.634	574.81
594.843	543.81
595.053	560.81
595.262	559.81
595.472	517.81
595.681	509.81
595.89	519.81
596.1	552.81
596.309	520.81
596.518	505.81
596.727	495.81
596.937	499.81
597.146	477.81
597.355	499.81
597.564	449.81
597.774	467.81
597.983	477.81
598.192	482.81
598.401	480.81
598.61	460.81
598.819	461.81
599.028	467.81
599.237	466.81
599.446	467.81
599.655	470.81
599.864	483.81
600.073	450.81
600.282	446.81
600.491	460.81
600.7	452.81
600.909	443.81
601.118	447.81
601.327	460.81
601.536	481.81
601.745	471.81
601.953	482.81
602.162	557.81
602.371	488.81
602.58	480.81
602.789	452.81
602.997	450.81
603.206	480.81
603.415	445.81
603.623	451.81
603.832	472.81
604.041	431.81
604.249	444.81
604.458	420.81
604.666	423.81
604.875	431.81
605.084	432.81
605.292	444.81
605.501	447.81
605.709	442.81
605.918	450.81
606.126	429.81
606.334	457.81
606.543	450.81
606.751	488.81
606.96	537.81
607.168	581.81
607.376	494.81
607.585	475.81
607.793	447.81
608.001	448.81
608.21	439.81
608.418	434.81
608.626	433.81
608.834	435.81
609.043	423.81
609.251	417.81
609.459	442.81
609.667	398.81
609.875	431.81
610.083	421.81
610.291	409.81
610.499	421.81
610.707	413.81
610.916	416.81
611.124	404.81
611.332	407.81
611.54	405.81
611.748	406.81
611.955	403.81
612.163	393.81
612.371	421.81
612.579	411.81
612.787	401.81
612.995	389.81
613.203	405.81
613.411	415.81
613.618	396.81
613.826	419.81
614.034	409.81
614.242	412.81
614.449	383.81
614.657	376.81
614.865	397.81
615.072	407.81
615.28	420.81
615.488	393.81
615.695	408.81
615.903	394.81
616.111	397.81
616.318	405.81
616.526	411.81
616.733	396.81
616.941	394.81
617.148	390.81
617.356	392.81
617.563	376.81
617.771	376.81
617.978	392.81
618.185	376.81
618.393	391.81
618.6	395.81
618.807	384.81
619.015	377.81
619.222	375.81
619.429	384.81
619.637	380.81
619.844	372.81
620.051	373.81
620.258	372.81
620.466	364.81
620.673	368.81
620.88	341.81
621.087	369.81
621.294	357.81
621.501	347.81
621.708	343.81
621.915	348.81
622.122	344.81
622.329	365.81
622.536	369.81
622.743	355.81
622.95	341.81
623.157	364.81
623.364	364.81
623.571	352.81
623.778	361.81
623.985	364.81
624.192	343.81
624.399	335.81
624.606	344.81
624.812	341.81
625.019	322.81
625.226	336.81
625.433	343.81
625.639	335.81
625.846	321.81
626.053	309.81
626.259	339.81
626.466	333.81
626.673	309.81
626.879	329.81
627.086	344.81
627.293	319.81
627.499	340.81
627.706	342.81
627.912	328.81
628.119	345.81
628.325	326.81
628.532	316.81
628.738	327.81
628.945	295.81
629.151	317.81
629.357	323.81
629.564	310.81
629.77	318.81
629.976	301.81
630.183	309.81
630.389	311.81
630.595	310.81
630.802	323.81
631.008	319.81
631.214	311.81
631.42	296.81
631.627	309.81
631.833	315.81
632.039	323.81
632.245	298.81
632.451	296.81
632.657	306.81
632.863	312.81
633.069	295.81
633.275	305.81
633.481	293.81
633.688	312.81
633.893	307.81
634.099	313.81
634.305	308.81
634.511	300.81
634.717	324.81
634.923	309.81
635.129	335.81
635.335	371.81
635.541	331.81
635.747	333.81
635.952	336.81
636.158	319.81
636.364	304.81
636.57	306.81
636.775	308.81
636.981	293.81
637.187	336.81
637.392	303.81
637.598	311.81
637.804	317.81
638.009	314.81
638.215	311.81
638.421	300.81
638.626	304.81
638.832	317.81
639.037	311.81
639.243	289.81
639.448	308.81
639.654	314.81
639.859	317.81
640.065	306.81
640.27	317.81
640.475	329.81
640.681	303.81
640.886	331.81
641.091	331.81
641.297	320.81
641.502	320.81
641.707	343.81
641.913	339.81
642.118	327.81
642.323	340.81
642.528	356.81
642.733	341.81
642.939	345.81
643.144	377.81
643.349	378.81
643.554	369.81
643.759	391.81
643.964	407.81
644.169	427.81
644.374	436.81
644.579	481.81
644.784	523.81
644.989	561.81
645.194	611.81
645.399	715.81
645.604	725.81
645.809	615.81
646.014	476.81
646.219	434.81
646.423	397.81
646.628	364.81
646.833	359.81
647.038	335.81
647.243	330.81
647.447	329.81
647.652	299.81
647.857	322.81
648.062	301.81
648.266	292.81
648.471	299.81
648.676	296.81
648.88	279.81
649.085	281.81
649.289	267.81
649.494	281.81
649.698	272.81
649.903	264.81
650.107	266.81
650.312	251.81
650.516	256.81
650.721	243.81
650.925	259.81
651.13	243.81
651.334	253.81
651.539	225.81
651.743	235.81
651.947	239.81
652.152	221.81
652.356	232.81
652.56	229.81
652.764	266.81
652.969	237.81
653.173	229.81
653.377	218.81
653.581	221.81
653.785	220.81
653.99	209.81
654.194	221.81
654.398	225.81
654.602	199.81
654.806	203.81
655.01	211.81
655.214	211.81
655.418	213.81
655.622	223.81
655.826	209.81
656.03	204.81
656.234	230.81
656.438	232.81
656.642	220.81
656.846	229.81
657.049	200.81
657.253	195.81
657.457	191.81
657.661	180.81
657.865	165.81
658.068	166.81
658.272	154.81
658.476	152.81
658.68	155.81
658.883	157.81
659.087	132.81
659.291	137.81
659.494	137.81
659.698	137.81
659.901	118.81
660.105	131.81
660.309	119.81
660.512	113.81
660.716	122.81
660.919	124.81
661.123	111.81
661.326	106.81
661.53	103.81
661.733	107.81
661.936	91.81
662.14	96.81
662.343	100.81
662.546	88.81
662.75	105.81
662.953	92.81
663.156	86.81
663.36	88.81
663.563	88.81
663.766	97.81
663.969	97.81
664.173	99.81
664.376	93.81
664.579	86.81
664.782	83.81
664.985	78.81
665.188	89.81
665.391	83.81
665.594	85.81
665.797	91.81
666	77.81
666.203	83.81
666.406	73.81
666.609	99.81
666.812	86.81
667.015	87.81
667.218	82.81
667.421	86.81
667.624	88.81
667.827	84.81
668.03	85.81
668.232	77.81
668.435	80.81
668.638	83.81
668.841	77.81
669.043	69.81
669.246	84.81
669.449	75.81
669.651	84.81
669.854	76.81
670.057	70.81
670.259	71.81
670.462	80.81
670.665	81.81
670.867	91.81
671.07	90.81
671.272	85.81
671.475	87.81
671.677	86.81
671.88	79.81
672.082	80.81
672.284	67.81
672.487	75.81
672.689	76.81
672.892	91.81
