Data from SnStandardFlinnAPT0064_LampEnergy5.5_LIBS07252019.E.O._I.C._HRD10591_15-16-36-491.txt Node
Date: Thu Jul 25 15:16:36 EDT 2019
User: cochatt
Spectrometer: HR+D1059
Trigger mode: 1
Integration Time (sec): 1.000000E-1
Scans to average: 1
Electric dark correction enabled: true
Nonlinearity correction enabled: false
Boxcar width: 0
XAxis mode: Wavelengths
Number of Pixels in Spectrum: 2048
>>>>>Begin Spectral Data<<<<<
223.165	-9.31
223.4	-9.31
223.635	-9.31
223.869	-18.31
224.104	1.69
224.338	-1.31
224.573	-10.31
224.808	-6.31
225.042	-11.31
225.277	-4.31
225.511	-5.31
225.746	-0.31
225.98	-4.31
226.215	1.69
226.449	-0.31
226.683	12.69
226.918	24.69
227.152	30.69
227.387	36.69
227.621	35.69
227.856	50.69
228.09	46.69
228.324	27.69
228.559	47.69
228.793	71.69
229.027	157.69
229.262	157.69
229.496	147.69
229.73	135.69
229.964	156.69
230.199	153.69
230.433	163.69
230.667	161.69
230.901	172.69
231.136	181.69
231.37	173.69
231.604	188.69
231.838	208.69
232.072	238.69
232.306	244.69
232.541	218.69
232.775	220.69
233.009	195.69
233.243	208.69
233.477	243.69
233.711	238.69
233.945	262.69
234.179	244.69
234.413	218.69
234.647	223.69
234.881	221.69
235.115	258.69
235.349	278.69
235.583	351.69
235.817	447.69
236.051	435.69
236.285	291.69
236.519	240.69
236.753	230.69
236.987	236.69
237.221	253.69
237.455	233.69
237.689	227.69
237.922	208.69
238.156	226.69
238.39	230.69
238.624	229.69
238.858	231.69
239.091	215.69
239.325	229.69
239.559	236.69
239.793	224.69
240.027	240.69
240.26	255.69
240.494	264.69
240.728	259.69
240.961	277.69
241.195	279.69
241.429	308.69
241.662	306.69
241.896	346.69
242.13	407.69
242.363	501.69
242.597	646.69
242.83	634.69
243.064	645.69
243.298	764.69
243.531	617.69
243.765	407.69
243.998	344.69
244.232	311.69
244.465	300.69
244.699	314.69
244.932	280.69
245.166	306.69
245.399	309.69
245.633	305.69
245.866	304.69
246.099	290.69
246.333	287.69
246.566	271.69
246.8	281.69
247.033	297.69
247.266	289.69
247.5	297.69
247.733	328.69
247.966	326.69
248.2	364.69
248.433	364.69
248.666	385.69
248.899	388.69
249.133	352.69
249.366	354.69
249.599	403.69
249.832	455.69
250.066	450.69
250.299	388.69
250.532	338.69
250.765	331.69
250.998	341.69
251.231	324.69
251.465	333.69
251.698	336.69
251.931	332.69
252.164	345.69
252.397	340.69
252.63	337.69
252.863	334.69
253.096	348.69
253.329	336.69
253.562	353.69
253.795	353.69
254.028	367.69
254.261	353.69
254.494	379.69
254.727	435.69
254.96	517.69
255.193	508.69
255.426	400.69
255.659	374.69
255.892	373.69
256.124	405.69
256.357	382.69
256.59	402.69
256.823	420.69
257.056	453.69
257.289	562.69
257.521	601.69
257.754	483.69
257.987	422.69
258.22	399.69
258.452	370.69
258.685	397.69
258.918	414.69
259.151	422.69
259.383	458.69
259.616	511.69
259.849	518.69
260.081	476.69
260.314	456.69
260.547	423.69
260.779	407.69
261.012	429.69
261.244	432.69
261.477	435.69
261.71	427.69
261.942	425.69
262.175	463.69
262.407	445.69
262.64	461.69
262.872	488.69
263.105	493.69
263.337	531.69
263.57	536.69
263.802	565.69
264.035	581.69
264.267	583.69
264.499	596.69
264.732	638.69
264.964	635.69
265.197	614.69
265.429	627.69
265.661	646.69
265.894	687.69
266.126	750.69
266.358	813.69
266.591	793.69
266.823	718.69
267.055	589.69
267.287	593.69
267.52	559.69
267.752	577.69
267.984	564.69
268.216	527.69
268.448	550.69
268.681	543.69
268.913	549.69
269.145	534.69
269.377	523.69
269.609	530.69
269.841	540.69
270.073	584.69
270.306	695.69
270.538	893.69
270.77	1358.69
271.002	1574.69
271.234	1090.69
271.466	733.69
271.698	640.69
271.93	591.69
272.162	551.69
272.394	547.69
272.626	532.69
272.858	558.69
273.09	539.69
273.322	514.69
273.553	514.69
273.785	525.69
274.017	503.69
274.249	513.69
274.481	531.69
274.713	518.69
274.945	529.69
275.176	498.69
275.408	543.69
275.64	531.69
275.872	542.69
276.104	532.69
276.335	537.69
276.567	535.69
276.799	556.69
277.031	550.69
277.262	565.69
277.494	579.69
277.726	655.69
277.957	712.69
278.189	811.69
278.421	778.69
278.652	707.69
278.884	673.69
279.115	620.69
279.347	589.69
279.579	608.69
279.81	611.69
280.042	605.69
280.273	606.69
280.505	618.69
280.736	615.69
280.968	639.69
281.199	725.69
281.431	789.69
281.662	799.69
281.894	736.69
282.125	675.69
282.356	681.69
282.588	731.69
282.819	710.69
283.051	771.69
283.282	823.69
283.513	998.69
283.745	1469.69
283.976	2319.69
284.207	3261.69
284.439	2867.69
284.67	1725.69
284.901	1415.69
285.132	1374.69
285.364	1307.69
285.595	1047.69
285.826	955.69
286.057	1138.69
286.288	1567.69
286.52	2111.69
286.751	1942.69
286.982	1162.69
287.213	887.69
287.444	800.69
287.675	751.69
287.906	719.69
288.138	719.69
288.369	677.69
288.6	684.69
288.831	685.69
289.062	695.69
289.293	691.69
289.524	721.69
289.755	695.69
289.986	722.69
290.217	720.69
290.448	705.69
290.679	715.69
290.91	713.69
291.141	769.69
291.371	784.69
291.602	849.69
291.833	776.69
292.064	716.69
292.295	699.69
292.526	690.69
292.757	689.69
292.987	663.69
293.218	671.69
293.449	660.69
293.68	685.69
293.91	661.69
294.141	652.69
294.372	691.69
294.603	655.69
294.833	657.69
295.064	676.69
295.295	667.69
295.525	635.69
295.756	643.69
295.987	656.69
296.217	645.69
296.448	662.69
296.679	665.69
296.909	674.69
297.14	655.69
297.37	689.69
297.601	691.69
297.831	680.69
298.062	669.69
298.292	684.69
298.523	721.69
298.753	724.69
298.984	705.69
299.214	719.69
299.445	721.69
299.675	736.69
299.905	762.69
300.136	772.69
300.366	869.69
300.597	1135.69
300.827	1551.69
301.057	2076.69
301.288	2028.69
301.518	1309.69
301.748	997.69
301.979	924.69
302.209	937.69
302.439	883.69
302.669	1004.69
302.9	1166.69
303.13	1613.69
303.36	2389.69
303.59	3191.69
303.82	2752.69
304.051	1570.69
304.281	1129.69
304.511	982.69
304.741	884.69
304.971	887.69
305.201	826.69
305.431	823.69
305.661	778.69
305.891	775.69
306.121	779.69
306.352	772.69
306.582	769.69
306.812	742.69
307.042	765.69
307.272	781.69
307.502	775.69
307.731	791.69
307.961	769.69
308.191	775.69
308.421	751.69
308.651	751.69
308.881	744.69
309.111	765.69
309.341	757.69
309.571	760.69
309.8	789.69
310.03	760.69
310.26	795.69
310.49	763.69
310.72	773.69
310.949	797.69
311.179	788.69
311.409	784.69
311.639	778.69
311.868	807.69
312.098	812.69
312.328	831.69
312.557	824.69
312.787	816.69
313.017	816.69
313.246	826.69
313.476	863.69
313.706	895.69
313.935	915.69
314.165	948.69
314.394	968.69
314.624	946.69
314.853	891.69
315.083	870.69
315.312	896.69
315.542	917.69
315.771	905.69
316.001	946.69
316.23	954.69
316.46	990.69
316.689	1086.69
316.919	1284.69
317.148	1852.69
317.377	2898.69
317.607	4267.69
317.836	4305.69
318.065	2521.69
318.295	1609.69
318.524	1304.69
318.753	1135.69
318.983	1063.69
319.212	1017.69
319.441	978.69
319.67	988.69
319.9	952.69
320.129	972.69
320.358	958.69
320.587	968.69
320.816	958.69
321.046	947.69
321.275	957.69
321.504	987.69
321.733	994.69
321.962	1017.69
322.191	998.69
322.42	1020.69
322.649	1007.69
322.878	1007.69
323.108	1018.69
323.337	1025.69
323.566	1025.69
323.795	1031.69
324.024	1102.69
324.253	1122.69
324.482	1129.69
324.71	1167.69
324.939	1251.69
325.168	1295.69
325.397	1305.69
325.626	1581.69
325.855	2199.69
326.084	3499.69
326.313	5198.69
326.542	5506.69
326.77	3443.69
326.999	2255.69
327.228	1847.69
327.457	1773.69
327.686	1752.69
327.914	1886.69
328.143	2162.69
328.372	2539.69
328.6	2753.69
328.829	2507.69
329.058	2241.69
329.287	1941.69
329.515	1784.69
329.744	1675.69
329.972	1584.69
330.201	1484.69
330.43	1453.69
330.658	1451.69
330.887	1417.69
331.115	1405.69
331.344	1418.69
331.572	1385.69
331.801	1395.69
332.03	1425.69
332.258	1452.69
332.486	1522.69
332.715	1698.69
332.943	2112.69
333.172	2493.69
333.4	2469.69
333.629	1923.69
333.857	1733.69
334.085	1776.69
334.314	1848.69
334.542	1945.69
334.771	2243.69
334.999	2715.69
335.227	3336.69
335.455	3669.69
335.684	3317.69
335.912	2876.69
336.14	2491.69
336.369	2223.69
336.597	2045.69
336.825	1855.69
337.053	1812.69
337.281	1675.69
337.51	1589.69
337.738	1605.69
337.966	1472.69
338.194	1431.69
338.422	1396.69
338.65	1376.69
338.878	1326.69
339.106	1328.69
339.334	1303.69
339.562	1285.69
339.79	1270.69
340.018	1236.69
340.246	1232.69
340.474	1246.69
340.702	1263.69
340.93	1245.69
341.158	1202.69
341.386	1234.69
341.614	1227.69
341.842	1193.69
342.07	1165.69
342.298	1185.69
342.526	1154.69
342.754	1115.69
342.981	1120.69
343.209	1113.69
343.437	1126.69
343.665	1156.69
343.893	1171.69
344.12	1161.69
344.348	1148.69
344.576	1132.69
344.804	1112.69
345.031	1109.69
345.259	1102.69
345.487	1081.69
345.714	1081.69
345.942	1065.69
346.17	1065.69
346.397	1046.69
346.625	1057.69
346.853	1049.69
347.08	1049.69
347.308	1027.69
347.535	1050.69
347.763	1056.69
347.99	1042.69
348.218	1048.69
348.445	1063.69
348.673	1035.69
348.9	1038.69
349.128	1020.69
349.355	1003.69
349.583	1010.69
349.81	1001.69
350.037	1017.69
350.265	995.69
350.492	1024.69
350.72	1010.69
350.947	1023.69
351.174	1014.69
351.402	1013.69
351.629	1020.69
351.856	1032.69
352.083	997.69
352.311	1009.69
352.538	1009.69
352.765	998.69
352.992	1011.69
353.22	995.69
353.447	1018.69
353.674	1009.69
353.901	1012.69
354.128	981.69
354.355	1000.69
354.583	1015.69
354.81	999.69
355.037	1031.69
355.264	1010.69
355.491	1030.69
355.718	1020.69
355.945	1025.69
356.172	1025.69
356.399	1037.69
356.626	1053.69
356.853	1045.69
357.08	1052.69
357.307	1038.69
357.534	1046.69
357.761	1059.69
357.988	1027.69
358.215	1073.69
358.441	1088.69
358.668	1060.69
358.895	1077.69
359.122	1050.69
359.349	1094.69
359.576	1081.69
359.802	1072.69
360.029	1069.69
360.256	1067.69
360.483	1064.69
360.709	1101.69
360.936	1071.69
361.163	1071.69
361.39	1054.69
361.616	1055.69
361.843	1090.69
362.07	1069.69
362.296	1071.69
362.523	1061.69
362.749	1083.69
362.976	1073.69
363.203	1068.69
363.429	1069.69
363.656	1076.69
363.882	1080.69
364.109	1074.69
364.335	1037.69
364.562	1058.69
364.788	1051.69
365.015	1076.69
365.241	1117.69
365.468	1147.69
365.694	1153.69
365.92	1132.69
366.147	1061.69
366.373	1085.69
366.599	1079.69
366.826	1079.69
367.052	1091.69
367.278	1095.69
367.505	1081.69
367.731	1081.69
367.957	1090.69
368.184	1145.69
368.41	1129.69
368.636	1125.69
368.862	1109.69
369.089	1107.69
369.315	1097.69
369.541	1097.69
369.767	1117.69
369.993	1125.69
370.219	1101.69
370.445	1131.69
370.672	1104.69
370.898	1118.69
371.124	1137.69
371.35	1123.69
371.576	1167.69
371.802	1137.69
372.028	1146.69
372.254	1161.69
372.48	1131.69
372.706	1145.69
372.932	1182.69
373.158	1153.69
373.384	1141.69
373.61	1171.69
373.835	1156.69
374.061	1176.69
374.287	1205.69
374.513	1191.69
374.739	1224.69
374.965	1207.69
375.191	1240.69
375.416	1179.69
375.642	1175.69
375.868	1204.69
376.094	1169.69
376.319	1155.69
376.545	1176.69
376.771	1143.69
376.997	1145.69
377.222	1169.69
377.448	1147.69
377.674	1159.69
377.899	1140.69
378.125	1111.69
378.35	1157.69
378.576	1173.69
378.802	1128.69
379.027	1182.69
379.253	1191.69
379.478	1271.69
379.704	1437.69
379.929	2093.69
380.155	3119.69
380.38	3247.69
380.606	2000.69
380.831	1483.69
381.057	1339.69
381.282	1250.69
381.507	1151.69
381.733	1172.69
381.958	1149.69
382.184	1159.69
382.409	1153.69
382.634	1136.69
382.86	1121.69
383.085	1096.69
383.31	1125.69
383.535	1126.69
383.761	1106.69
383.986	1123.69
384.211	1142.69
384.436	1177.69
384.662	1168.69
384.887	1195.69
385.112	1162.69
385.337	1171.69
385.562	1172.69
385.787	1192.69
386.013	1172.69
386.238	1206.69
386.463	1199.69
386.688	1169.69
386.913	1153.69
387.138	1148.69
387.363	1157.69
387.588	1205.69
387.813	1161.69
388.038	1169.69
388.263	1168.69
388.488	1145.69
388.713	1173.69
388.938	1187.69
389.163	1166.69
389.387	1205.69
389.612	1191.69
389.837	1165.69
390.062	1183.69
390.287	1208.69
390.512	1208.69
390.736	1242.69
390.961	1194.69
391.186	1220.69
391.411	1204.69
391.636	1233.69
391.86	1251.69
392.085	1248.69
392.31	1255.69
392.534	1225.69
392.759	1203.69
392.984	1183.69
393.208	1202.69
393.433	1246.69
393.658	1249.69
393.882	1209.69
394.107	1199.69
394.331	1170.69
394.556	1206.69
394.78	1221.69
395.005	1184.69
395.229	1203.69
395.454	1227.69
395.678	1255.69
395.903	1229.69
396.127	1204.69
396.352	1237.69
396.576	1216.69
396.801	1265.69
397.025	1240.69
397.249	1256.69
397.474	1247.69
397.698	1219.69
397.922	1232.69
398.147	1244.69
398.371	1272.69
398.595	1297.69
398.82	1319.69
399.044	1379.69
399.268	1408.69
399.492	1497.69
399.717	1575.69
399.941	1566.69
400.165	1443.69
400.389	1439.69
400.613	1394.69
400.837	1331.69
401.062	1325.69
401.286	1333.69
401.51	1324.69
401.734	1315.69
401.958	1319.69
402.182	1329.69
402.406	1325.69
402.63	1317.69
402.854	1325.69
403.078	1325.69
403.302	1337.69
403.526	1311.69
403.75	1323.69
403.974	1372.69
404.198	1384.69
404.422	1320.69
404.645	1347.69
404.869	1355.69
405.093	1353.69
405.317	1358.69
405.541	1341.69
405.765	1369.69
405.988	1376.69
406.212	1413.69
406.436	1375.69
406.66	1385.69
406.883	1369.69
407.107	1448.69
407.331	1485.69
407.555	1449.69
407.778	1475.69
408.002	1480.69
408.226	1444.69
408.449	1425.69
408.673	1381.69
408.896	1369.69
409.12	1384.69
409.344	1388.69
409.567	1325.69
409.791	1365.69
410.014	1337.69
410.238	1337.69
410.461	1335.69
410.685	1323.69
410.908	1341.69
411.132	1319.69
411.355	1304.69
411.578	1311.69
411.802	1311.69
412.025	1302.69
412.249	1313.69
412.472	1320.69
412.695	1305.69
412.919	1288.69
413.142	1277.69
413.365	1285.69
413.589	1268.69
413.812	1291.69
414.035	1262.69
414.258	1278.69
414.482	1296.69
414.705	1295.69
414.928	1259.69
415.151	1294.69
415.374	1269.69
415.597	1268.69
415.821	1217.69
416.044	1261.69
416.267	1244.69
416.49	1243.69
416.713	1213.69
416.936	1213.69
417.159	1252.69
417.382	1246.69
417.605	1199.69
417.828	1220.69
418.051	1220.69
418.274	1273.69
418.497	1230.69
418.72	1247.69
418.943	1237.69
419.166	1295.69
419.389	1377.69
419.611	1342.69
419.834	1316.69
420.057	1254.69
420.28	1263.69
420.503	1212.69
420.726	1227.69
420.948	1233.69
421.171	1236.69
421.394	1226.69
421.617	1246.69
421.839	1266.69
422.062	1264.69
422.285	1232.69
422.507	1240.69
422.73	1257.69
422.953	1238.69
423.175	1253.69
423.398	1272.69
423.621	1273.69
423.843	1275.69
424.066	1247.69
424.288	1229.69
424.511	1237.69
424.733	1271.69
424.956	1232.69
425.178	1211.69
425.401	1230.69
425.623	1235.69
425.846	1183.69
426.068	1225.69
426.291	1197.69
426.513	1184.69
426.735	1185.69
426.958	1161.69
427.18	1175.69
427.402	1115.69
427.625	1141.69
427.847	1147.69
428.069	1141.69
428.292	1181.69
428.514	1159.69
428.736	1151.69
428.958	1133.69
429.181	1105.69
429.403	1123.69
429.625	1131.69
429.847	1124.69
430.069	1173.69
430.292	1182.69
430.514	1220.69
430.736	1195.69
430.958	1152.69
431.18	1133.69
431.402	1141.69
431.624	1140.69
431.846	1147.69
432.068	1108.69
432.29	1117.69
432.512	1117.69
432.734	1159.69
432.956	1147.69
433.178	1176.69
433.4	1171.69
433.622	1142.69
433.844	1151.69
434.066	1125.69
434.287	1140.69
434.509	1143.69
434.731	1169.69
434.953	1180.69
435.175	1201.69
435.397	1192.69
435.618	1152.69
435.84	1156.69
436.062	1118.69
436.284	1139.69
436.505	1149.69
436.727	1147.69
436.949	1168.69
437.17	1128.69
437.392	1100.69
437.614	1124.69
437.835	1101.69
438.057	1117.69
438.278	1107.69
438.5	1115.69
438.721	1137.69
438.943	1182.69
439.165	1182.69
439.386	1181.69
439.608	1176.69
439.829	1186.69
440.05	1215.69
440.272	1237.69
440.493	1209.69
440.715	1205.69
440.936	1198.69
441.158	1181.69
441.379	1166.69
441.6	1287.69
441.822	1271.69
442.043	1308.69
442.264	1347.69
442.486	1262.69
442.707	1237.69
442.928	1213.69
443.149	1190.69
443.371	1219.69
443.592	1253.69
443.813	1203.69
444.034	1212.69
444.255	1261.69
444.476	1269.69
444.698	1321.69
444.919	1300.69
445.14	1387.69
445.361	1336.69
445.582	1268.69
445.803	1223.69
446.024	1231.69
446.245	1227.69
446.466	1231.69
446.687	1179.69
446.908	1202.69
447.129	1187.69
447.35	1167.69
447.571	1173.69
447.792	1136.69
448.013	1152.69
448.234	1132.69
448.455	1121.69
448.675	1128.69
448.896	1155.69
449.117	1198.69
449.338	1298.69
449.559	1331.69
449.779	1199.69
450	1109.69
450.221	1119.69
450.442	1106.69
450.662	1085.69
450.883	1110.69
451.104	1098.69
451.324	1077.69
451.545	1073.69
451.766	1099.69
451.986	1115.69
452.207	1170.69
452.428	1413.69
452.648	2032.69
452.869	1735.69
453.089	1285.69
453.31	1209.69
453.53	1204.69
453.751	1208.69
453.971	1323.69
454.192	1287.69
454.412	1123.69
454.633	1099.69
454.853	1096.69
455.073	1057.69
455.294	1043.69
455.514	1079.69
455.734	1044.69
455.955	1021.69
456.175	1025.69
456.395	1042.69
456.616	1037.69
456.836	1045.69
457.056	1070.69
457.276	1061.69
457.497	1097.69
457.717	1121.69
457.937	1093.69
458.157	1087.69
458.377	1069.69
458.598	1110.69
458.818	1090.69
459.038	1089.69
459.258	1090.69
459.478	1118.69
459.698	1151.69
459.918	1144.69
460.138	1175.69
460.358	1244.69
460.578	1203.69
460.798	1199.69
461.018	1222.69
461.238	1208.69
461.458	1272.69
461.678	1222.69
461.898	1267.69
462.118	1243.69
462.338	1256.69
462.558	1318.69
462.777	1371.69
462.997	1390.69
463.217	1425.69
463.437	1451.69
463.657	1506.69
463.876	1470.69
464.096	1419.69
464.316	1359.69
464.536	1370.69
464.755	1340.69
464.975	1300.69
465.195	1243.69
465.414	1216.69
465.634	1197.69
465.854	1159.69
466.073	1183.69
466.293	1164.69
466.512	1143.69
466.732	1167.69
466.951	1205.69
467.171	1271.69
467.391	1298.69
467.61	1164.69
467.829	1137.69
468.049	1111.69
468.268	1121.69
468.488	1120.69
468.707	1119.69
468.927	1105.69
469.146	1103.69
469.365	1143.69
469.585	1129.69
469.804	1165.69
470.023	1161.69
470.243	1214.69
470.462	1208.69
470.681	1285.69
470.901	1413.69
471.12	1604.69
471.339	1618.69
471.558	1318.69
471.777	1215.69
471.997	1180.69
472.216	1142.69
472.435	1123.69
472.654	1103.69
472.873	1095.69
473.092	1099.69
473.311	1124.69
473.53	1129.69
473.749	1132.69
473.968	1185.69
474.187	1114.69
474.406	1128.69
474.625	1108.69
474.844	1103.69
475.063	1129.69
475.282	1141.69
475.501	1138.69
475.72	1127.69
475.939	1155.69
476.158	1149.69
476.377	1164.69
476.596	1179.69
476.814	1180.69
477.033	1176.69
477.252	1165.69
477.471	1201.69
477.69	1234.69
477.908	1250.69
478.127	1274.69
478.346	1280.69
478.564	1293.69
478.783	1283.69
479.002	1334.69
479.22	1328.69
479.439	1329.69
479.658	1307.69
479.876	1336.69
480.095	1378.69
480.313	1377.69
480.532	1393.69
480.751	1352.69
480.969	1333.69
481.188	1338.69
481.406	1328.69
481.624	1316.69
481.843	1308.69
482.061	1312.69
482.28	1314.69
482.498	1313.69
482.717	1307.69
482.935	1330.69
483.153	1352.69
483.372	1389.69
483.59	1399.69
483.808	1408.69
484.027	1456.69
484.245	1505.69
484.463	1689.69
484.681	1880.69
484.9	1704.69
485.118	1611.69
485.336	1559.69
485.554	1531.69
485.772	1624.69
485.99	1901.69
486.209	2037.69
486.427	1729.69
486.645	1541.69
486.863	1512.69
487.081	1456.69
487.299	1432.69
487.517	1427.69
487.735	1474.69
487.953	1465.69
488.171	1429.69
488.389	1433.69
488.607	1444.69
488.825	1341.69
489.043	1364.69
489.261	1371.69
489.479	1380.69
489.696	1415.69
489.914	1379.69
490.132	1449.69
490.35	1373.69
490.568	1410.69
490.786	1412.69
491.003	1456.69
491.221	1481.69
491.439	1469.69
491.657	1473.69
491.874	1446.69
492.092	1529.69
492.31	1540.69
492.527	1567.69
492.745	1491.69
492.963	1451.69
493.18	1444.69
493.398	1481.69
493.615	1517.69
493.833	1489.69
494.05	1504.69
494.268	1502.69
494.485	1462.69
494.703	1504.69
494.92	1482.69
495.138	1499.69
495.355	1508.69
495.573	1502.69
495.79	1470.69
496.008	1486.69
496.225	1467.69
496.442	1512.69
496.66	1598.69
496.877	1640.69
497.094	1647.69
497.312	1575.69
497.529	1592.69
497.746	1599.69
497.963	1645.69
498.181	1673.69
498.398	1705.69
498.615	1742.69
498.832	1806.69
499.049	1891.69
499.267	2011.69
499.484	2114.69
499.701	2182.69
499.918	2239.69
500.135	2384.69
500.352	2462.69
500.569	2506.69
500.786	2466.69
501.003	2383.69
501.22	2280.69
501.437	2185.69
501.654	2014.69
501.871	1966.69
502.088	1840.69
502.305	1772.69
502.522	1768.69
502.739	1746.69
502.956	1649.69
503.172	1620.69
503.389	1569.69
503.606	1553.69
503.823	1499.69
504.04	1515.69
504.256	1548.69
504.473	1525.69
504.69	1505.69
504.907	1495.69
505.123	1476.69
505.34	1439.69
505.557	1367.69
505.773	1366.69
505.99	1372.69
506.207	1352.69
506.423	1316.69
506.64	1338.69
506.856	1291.69
507.073	1347.69
507.289	1303.69
507.506	1301.69
507.722	1318.69
507.939	1315.69
508.155	1254.69
508.372	1283.69
508.588	1252.69
508.805	1237.69
509.021	1265.69
509.238	1296.69
509.454	1341.69
509.67	1380.69
509.887	1292.69
510.103	1239.69
510.319	1262.69
510.536	1259.69
510.752	1220.69
510.968	1239.69
511.184	1196.69
511.401	1195.69
511.617	1218.69
511.833	1217.69
512.049	1172.69
512.265	1228.69
512.481	1194.69
512.698	1197.69
512.914	1203.69
513.13	1196.69
513.346	1208.69
513.562	1193.69
513.778	1195.69
513.994	1205.69
514.21	1274.69
514.426	1302.69
514.642	1334.69
514.858	1286.69
515.074	1240.69
515.29	1195.69
515.506	1208.69
515.721	1217.69
515.937	1252.69
516.153	1249.69
516.369	1262.69
516.585	1279.69
516.801	1289.69
517.016	1283.69
517.232	1335.69
517.448	1319.69
517.664	1371.69
517.879	1378.69
518.095	1387.69
518.311	1346.69
518.527	1359.69
518.742	1373.69
518.958	1368.69
519.173	1383.69
519.389	1347.69
519.605	1256.69
519.82	1272.69
520.036	1234.69
520.251	1222.69
520.467	1234.69
520.682	1192.69
520.898	1189.69
521.113	1198.69
521.329	1199.69
521.544	1169.69
521.76	1180.69
521.975	1174.69
522.19	1164.69
522.406	1201.69
522.621	1193.69
522.836	1170.69
523.052	1175.69
523.267	1155.69
523.482	1160.69
523.698	1156.69
523.913	1159.69
524.128	1166.69
524.343	1183.69
524.559	1177.69
524.774	1171.69
524.989	1164.69
525.204	1137.69
525.419	1185.69
525.634	1174.69
525.849	1113.69
526.064	1142.69
526.28	1160.69
526.495	1186.69
526.71	1151.69
526.925	1155.69
527.14	1135.69
527.355	1123.69
527.57	1147.69
527.785	1153.69
527.999	1138.69
528.214	1183.69
528.429	1196.69
528.644	1201.69
528.859	1208.69
529.074	1255.69
529.289	1273.69
529.503	1247.69
529.718	1240.69
529.933	1215.69
530.148	1239.69
530.363	1209.69
530.577	1221.69
530.792	1221.69
531.007	1257.69
531.221	1253.69
531.436	1211.69
531.651	1231.69
531.865	1253.69
532.08	1271.69
532.295	1295.69
532.509	1352.69
532.724	1399.69
532.938	1409.69
533.153	1425.69
533.367	1511.69
533.582	1564.69
533.796	1531.69
534.011	1493.69
534.225	1451.69
534.44	1425.69
534.654	1411.69
534.868	1389.69
535.083	1310.69
535.297	1319.69
535.511	1300.69
535.726	1280.69
535.94	1270.69
536.154	1264.69
536.369	1225.69
536.583	1237.69
536.797	1211.69
537.011	1192.69
537.225	1173.69
537.44	1179.69
537.654	1151.69
537.868	1154.69
538.082	1173.69
538.296	1187.69
538.51	1159.69
538.724	1165.69
538.938	1142.69
539.153	1165.69
539.367	1114.69
539.581	1139.69
539.795	1123.69
540.009	1090.69
540.222	1086.69
540.436	1122.69
540.65	1147.69
540.864	1124.69
541.078	1167.69
541.292	1260.69
541.506	1442.69
541.72	1510.69
541.934	1300.69
542.147	1254.69
542.361	1211.69
542.575	1156.69
542.789	1145.69
543.002	1093.69
543.216	1088.69
543.43	1092.69
543.644	1094.69
543.857	1118.69
544.071	1125.69
544.285	1113.69
544.498	1118.69
544.712	1119.69
544.925	1111.69
545.139	1110.69
545.352	1104.69
545.566	1135.69
545.779	1123.69
545.993	1140.69
546.206	1136.69
546.42	1153.69
546.633	1170.69
546.847	1159.69
547.06	1143.69
547.274	1121.69
547.487	1124.69
547.7	1155.69
547.914	1119.69
548.127	1131.69
548.34	1147.69
548.554	1139.69
548.767	1144.69
548.98	1122.69
549.193	1103.69
549.407	1105.69
549.62	1154.69
549.833	1150.69
550.046	1168.69
550.259	1137.69
550.473	1130.69
550.686	1128.69
550.899	1121.69
551.112	1079.69
551.325	1110.69
551.538	1124.69
551.751	1097.69
551.964	1118.69
552.177	1123.69
552.39	1169.69
552.603	1126.69
552.816	1213.69
553.029	1211.69
553.242	1201.69
553.455	1247.69
553.667	1222.69
553.88	1232.69
554.093	1236.69
554.306	1266.69
554.519	1245.69
554.732	1279.69
554.944	1281.69
555.157	1279.69
555.37	1335.69
555.583	1376.69
555.795	1408.69
556.008	1485.69
556.221	1620.69
556.433	1708.69
556.646	1719.69
556.859	1648.69
557.071	1606.69
557.284	1560.69
557.496	1539.69
557.709	1517.69
557.921	1530.69
558.134	1463.69
558.346	1537.69
558.559	1581.69
558.771	1653.69
558.984	1740.69
559.196	1847.69
559.409	1787.69
559.621	1656.69
559.833	1584.69
560.046	1565.69
560.258	1453.69
560.47	1389.69
560.683	1372.69
560.895	1310.69
561.107	1244.69
561.32	1254.69
561.532	1228.69
561.744	1181.69
561.956	1202.69
562.168	1143.69
562.381	1128.69
562.593	1094.69
562.805	1157.69
563.017	1128.69
563.229	1149.69
563.441	1279.69
563.653	1148.69
563.865	1088.69
564.077	1039.69
564.289	1043.69
564.501	1030.69
564.713	1018.69
564.925	1012.69
565.137	1035.69
565.349	1030.69
565.561	1011.69
565.773	1048.69
565.985	1064.69
566.197	1052.69
566.408	1110.69
566.62	1106.69
566.832	1167.69
567.044	1151.69
567.255	1147.69
567.467	1171.69
567.679	1176.69
567.891	1246.69
568.102	1353.69
568.314	1585.69
568.526	1359.69
568.737	1170.69
568.949	1039.69
569.161	1003.69
569.372	940.69
569.584	952.69
569.795	899.69
570.007	917.69
570.218	928.69
570.43	959.69
570.641	904.69
570.853	876.69
571.064	885.69
571.276	873.69
571.487	824.69
571.698	820.69
571.91	800.69
572.121	819.69
572.333	799.69
572.544	846.69
572.755	895.69
572.966	1029.69
573.178	913.69
573.389	834.69
573.6	807.69
573.811	773.69
574.023	764.69
574.234	786.69
574.445	767.69
574.656	755.69
574.867	751.69
575.078	769.69
575.289	774.69
575.501	754.69
575.712	744.69
575.923	752.69
576.134	747.69
576.345	767.69
576.556	744.69
576.767	743.69
576.978	750.69
577.188	747.69
577.399	729.69
577.61	753.69
577.821	783.69
578.032	776.69
578.243	775.69
578.454	798.69
578.665	789.69
578.875	813.69
579.086	851.69
579.297	862.69
579.508	896.69
579.718	964.69
579.929	1089.69
580.14	1224.69
580.35	1231.69
580.561	1163.69
580.772	1095.69
580.982	1021.69
581.193	973.69
581.403	939.69
581.614	887.69
581.825	852.69
582.035	844.69
582.246	808.69
582.456	791.69
582.667	799.69
582.877	737.69
583.087	749.69
583.298	707.69
583.508	690.69
583.719	688.69
583.929	706.69
584.139	652.69
584.35	645.69
584.56	652.69
584.77	655.69
584.981	644.69
585.191	637.69
585.401	615.69
585.611	608.69
585.821	633.69
586.032	620.69
586.242	598.69
586.452	588.69
586.662	594.69
586.872	589.69
587.082	599.69
587.292	593.69
587.502	561.69
587.713	561.69
587.923	536.69
588.133	592.69
588.343	568.69
588.553	566.69
588.762	556.69
588.972	560.69
589.182	577.69
589.392	563.69
589.602	543.69
589.812	571.69
590.022	562.69
590.232	562.69
590.441	532.69
590.651	560.69
590.861	547.69
591.071	535.69
591.281	545.69
591.49	543.69
591.7	526.69
591.91	527.69
592.119	543.69
592.329	545.69
592.539	530.69
592.748	536.69
592.958	580.69
593.167	575.69
593.377	563.69
593.587	565.69
593.796	580.69
594.006	577.69
594.215	579.69
594.424	547.69
594.634	527.69
594.843	545.69
595.053	534.69
595.262	541.69
595.472	529.69
595.681	527.69
595.89	489.69
596.1	499.69
596.309	489.69
596.518	497.69
596.727	475.69
596.937	503.69
597.146	515.69
597.355	499.69
597.564	462.69
597.774	478.69
597.983	471.69
598.192	486.69
598.401	459.69
598.61	456.69
598.819	460.69
599.028	449.69
599.237	457.69
599.446	451.69
599.655	455.69
599.864	440.69
600.073	446.69
600.282	454.69
600.491	423.69
600.7	470.69
600.909	440.69
601.118	439.69
601.327	465.69
601.536	455.69
601.745	474.69
601.953	513.69
602.162	562.69
602.371	481.69
602.58	469.69
602.789	429.69
602.997	439.69
603.206	459.69
603.415	458.69
603.623	443.69
603.832	428.69
604.041	451.69
604.249	423.69
604.458	428.69
604.666	411.69
604.875	420.69
605.084	401.69
605.292	447.69
605.501	440.69
605.709	441.69
605.918	439.69
606.126	444.69
606.334	435.69
606.543	443.69
606.751	481.69
606.96	531.69
607.168	584.69
607.376	483.69
607.585	454.69
607.793	444.69
608.001	452.69
608.21	423.69
608.418	415.69
608.626	415.69
608.834	415.69
609.043	404.69
609.251	409.69
609.459	400.69
609.667	404.69
609.875	395.69
610.083	415.69
610.291	414.69
610.499	422.69
610.707	422.69
610.916	408.69
611.124	379.69
611.332	401.69
611.54	389.69
611.748	389.69
611.955	398.69
612.163	399.69
612.371	382.69
612.579	391.69
612.787	394.69
612.995	408.69
613.203	390.69
613.411	409.69
613.618	380.69
613.826	420.69
614.034	422.69
614.242	395.69
614.449	396.69
614.657	395.69
614.865	400.69
615.072	395.69
615.28	393.69
615.488	416.69
615.695	393.69
615.903	394.69
616.111	388.69
616.318	383.69
616.526	395.69
616.733	368.69
616.941	391.69
617.148	405.69
617.356	385.69
617.563	375.69
617.771	394.69
617.978	365.69
618.185	368.69
618.393	385.69
618.6	373.69
618.807	376.69
619.015	367.69
619.222	387.69
619.429	365.69
619.637	360.69
619.844	368.69
620.051	367.69
620.258	361.69
620.466	363.69
620.673	337.69
620.88	368.69
621.087	358.69
621.294	347.69
621.501	356.69
621.708	336.69
621.915	360.69
622.122	352.69
622.329	360.69
622.536	363.69
622.743	337.69
622.95	347.69
623.157	363.69
623.364	354.69
623.571	339.69
623.778	338.69
623.985	351.69
624.192	343.69
624.399	340.69
624.606	350.69
624.812	340.69
625.019	318.69
625.226	333.69
625.433	326.69
625.639	331.69
625.846	330.69
626.053	328.69
626.259	315.69
626.466	322.69
626.673	310.69
626.879	314.69
627.086	322.69
627.293	328.69
627.499	318.69
627.706	328.69
627.912	336.69
628.119	329.69
628.325	332.69
628.532	319.69
628.738	319.69
628.945	325.69
629.151	312.69
629.357	308.69
629.564	315.69
629.77	327.69
629.976	305.69
630.183	308.69
630.389	298.69
630.595	302.69
630.802	313.69
631.008	318.69
631.214	291.69
631.42	308.69
631.627	302.69
631.833	305.69
632.039	309.69
632.245	310.69
632.451	301.69
632.657	320.69
632.863	293.69
633.069	300.69
633.275	296.69
633.481	305.69
633.688	311.69
633.893	303.69
634.099	311.69
634.305	303.69
634.511	289.69
634.717	307.69
634.923	310.69
635.129	332.69
635.335	379.69
635.541	341.69
635.747	315.69
635.952	303.69
636.158	302.69
636.364	307.69
636.57	299.69
636.775	304.69
636.981	310.69
637.187	310.69
637.392	306.69
637.598	314.69
637.804	303.69
638.009	302.69
638.215	295.69
638.421	309.69
638.626	286.69
638.832	309.69
639.037	311.69
639.243	292.69
639.448	311.69
639.654	307.69
639.859	287.69
640.065	299.69
640.27	320.69
640.475	307.69
640.681	333.69
640.886	316.69
641.091	303.69
641.297	307.69
641.502	329.69
641.707	318.69
641.913	334.69
642.118	324.69
642.323	341.69
642.528	332.69
642.733	349.69
642.939	353.69
643.144	377.69
643.349	358.69
643.554	365.69
643.759	393.69
643.964	371.69
644.169	414.69
644.374	422.69
644.579	465.69
644.784	499.69
644.989	570.69
645.194	636.69
645.399	733.69
645.604	772.69
645.809	600.69
646.014	497.69
646.219	459.69
646.423	409.69
646.628	361.69
646.833	343.69
647.038	345.69
647.243	319.69
647.447	313.69
647.652	302.69
647.857	294.69
648.062	303.69
648.266	289.69
648.471	286.69
648.676	280.69
648.88	282.69
649.085	287.69
649.289	247.69
649.494	268.69
649.698	270.69
649.903	261.69
650.107	274.69
650.312	259.69
650.516	229.69
650.721	265.69
650.925	245.69
651.13	245.69
651.334	236.69
651.539	220.69
651.743	231.69
651.947	223.69
652.152	243.69
652.356	213.69
652.56	243.69
652.764	263.69
652.969	254.69
653.173	220.69
653.377	208.69
653.581	212.69
653.785	211.69
653.99	220.69
654.194	198.69
654.398	190.69
654.602	196.69
654.806	199.69
655.01	209.69
655.214	205.69
655.418	199.69
655.622	203.69
655.826	200.69
656.03	221.69
656.234	224.69
656.438	223.69
656.642	226.69
656.846	219.69
657.049	202.69
657.253	186.69
657.457	187.69
657.661	176.69
657.865	172.69
658.068	152.69
658.272	168.69
658.476	148.69
658.68	154.69
658.883	141.69
659.087	146.69
659.291	129.69
659.494	123.69
659.698	123.69
659.901	133.69
660.105	124.69
660.309	111.69
660.512	115.69
660.716	115.69
660.919	119.69
661.123	116.69
661.326	101.69
661.53	101.69
661.733	90.69
661.936	111.69
662.14	97.69
662.343	96.69
662.546	96.69
662.75	94.69
662.953	102.69
663.156	84.69
663.36	85.69
663.563	82.69
663.766	88.69
663.969	84.69
664.173	85.69
664.376	83.69
664.579	71.69
664.782	91.69
664.985	94.69
665.188	80.69
665.391	83.69
665.594	80.69
665.797	66.69
666	69.69
666.203	91.69
666.406	85.69
666.609	74.69
666.812	94.69
667.015	73.69
667.218	82.69
667.421	74.69
667.624	93.69
667.827	90.69
668.03	78.69
668.232	72.69
668.435	77.69
668.638	83.69
668.841	84.69
669.043	80.69
669.246	85.69
669.449	86.69
669.651	95.69
669.854	96.69
670.057	83.69
670.259	77.69
670.462	75.69
670.665	81.69
670.867	70.69
671.07	81.69
671.272	77.69
671.475	86.69
671.677	86.69
671.88	83.69
672.082	93.69
672.284	79.69
672.487	80.69
672.689	79.69
672.892	79.69
