Data from SnStandardFlinnAPT0064_LampEnergy5.5_LIBS07252019.E.O._I.C._HRD10591_15-15-29-491.txt Node
Date: Thu Jul 25 15:15:29 EDT 2019
User: cochatt
Spectrometer: HR+D1059
Trigger mode: 1
Integration Time (sec): 1.000000E-1
Scans to average: 1
Electric dark correction enabled: true
Nonlinearity correction enabled: false
Boxcar width: 0
XAxis mode: Wavelengths
Number of Pixels in Spectrum: 2048
>>>>>Begin Spectral Data<<<<<
223.165	-14.38
223.4	-14.38
223.635	-14.38
223.869	-15.38
224.104	-10.38
224.338	-6.38
224.573	-24.38
224.808	-10.38
225.042	-9.38
225.277	-12.38
225.511	1.62
225.746	-5.38
225.98	17.62
226.215	10.62
226.449	20.62
226.683	26.62
226.918	14.62
227.152	16.62
227.387	25.62
227.621	37.62
227.856	45.62
228.09	49.62
228.324	57.62
228.559	49.62
228.793	74.62
229.027	137.62
229.262	153.62
229.496	157.62
229.73	130.62
229.964	139.62
230.199	147.62
230.433	165.62
230.667	154.62
230.901	160.62
231.136	168.62
231.37	162.62
231.604	185.62
231.838	179.62
232.072	207.62
232.306	243.62
232.541	200.62
232.775	203.62
233.009	188.62
233.243	203.62
233.477	205.62
233.711	222.62
233.945	231.62
234.179	241.62
234.413	210.62
234.647	196.62
234.881	215.62
235.115	233.62
235.349	254.62
235.583	319.62
235.817	384.62
236.051	393.62
236.285	261.62
236.519	225.62
236.753	219.62
236.987	210.62
237.221	227.62
237.455	227.62
237.689	221.62
237.922	215.62
238.156	210.62
238.39	224.62
238.624	225.62
238.858	226.62
239.091	220.62
239.325	231.62
239.559	229.62
239.793	243.62
240.027	229.62
240.26	232.62
240.494	227.62
240.728	245.62
240.961	268.62
241.195	286.62
241.429	286.62
241.662	287.62
241.896	294.62
242.13	379.62
242.363	457.62
242.597	574.62
242.83	561.62
243.064	573.62
243.298	657.62
243.531	534.62
243.765	375.62
243.998	324.62
244.232	299.62
244.465	299.62
244.699	264.62
244.932	285.62
245.166	297.62
245.399	297.62
245.633	294.62
245.866	277.62
246.099	291.62
246.333	267.62
246.566	300.62
246.8	291.62
247.033	276.62
247.266	285.62
247.5	283.62
247.733	293.62
247.966	311.62
248.2	321.62
248.433	343.62
248.666	400.62
248.899	379.62
249.133	353.62
249.366	367.62
249.599	388.62
249.832	409.62
250.066	410.62
250.299	358.62
250.532	335.62
250.765	325.62
250.998	312.62
251.231	314.62
251.465	338.62
251.698	330.62
251.931	338.62
252.164	340.62
252.397	328.62
252.63	329.62
252.863	332.62
253.096	326.62
253.329	337.62
253.562	335.62
253.795	333.62
254.028	353.62
254.261	339.62
254.494	369.62
254.727	423.62
254.96	459.62
255.193	463.62
255.426	379.62
255.659	377.62
255.892	365.62
256.124	359.62
256.357	381.62
256.59	377.62
256.823	399.62
257.056	422.62
257.289	478.62
257.521	513.62
257.754	444.62
257.987	406.62
258.22	389.62
258.452	363.62
258.685	393.62
258.918	400.62
259.151	416.62
259.383	446.62
259.616	469.62
259.849	481.62
260.081	449.62
260.314	424.62
260.547	419.62
260.779	386.62
261.012	421.62
261.244	427.62
261.477	420.62
261.71	454.62
261.942	447.62
262.175	420.62
262.407	461.62
262.64	453.62
262.872	477.62
263.105	498.62
263.337	527.62
263.57	531.62
263.802	550.62
264.035	568.62
264.267	585.62
264.499	576.62
264.732	595.62
264.964	603.62
265.197	607.62
265.429	610.62
265.661	605.62
265.894	651.62
266.126	721.62
266.358	773.62
266.591	739.62
266.823	665.62
267.055	612.62
267.287	585.62
267.52	586.62
267.752	559.62
267.984	551.62
268.216	569.62
268.448	550.62
268.681	522.62
268.913	520.62
269.145	529.62
269.377	546.62
269.609	529.62
269.841	574.62
270.073	564.62
270.306	650.62
270.538	820.62
270.77	1137.62
271.002	1374.62
271.234	1009.62
271.466	719.62
271.698	597.62
271.93	568.62
272.162	545.62
272.394	520.62
272.626	540.62
272.858	521.62
273.09	512.62
273.322	520.62
273.553	508.62
273.785	513.62
274.017	491.62
274.249	509.62
274.481	493.62
274.713	493.62
274.945	518.62
275.176	509.62
275.408	521.62
275.64	525.62
275.872	509.62
276.104	523.62
276.335	521.62
276.567	518.62
276.799	507.62
277.031	528.62
277.262	532.62
277.494	571.62
277.726	593.62
277.957	657.62
278.189	721.62
278.421	685.62
278.652	649.62
278.884	647.62
279.115	608.62
279.347	581.62
279.579	583.62
279.81	595.62
280.042	576.62
280.273	585.62
280.505	573.62
280.736	620.62
280.968	604.62
281.199	677.62
281.431	717.62
281.662	740.62
281.894	681.62
282.125	636.62
282.356	671.62
282.588	658.62
282.819	710.62
283.051	704.62
283.282	757.62
283.513	916.62
283.745	1277.62
283.976	1994.62
284.207	2773.62
284.439	2490.62
284.67	1558.62
284.901	1282.62
285.132	1248.62
285.364	1178.62
285.595	985.62
285.826	894.62
286.057	1043.62
286.288	1380.62
286.52	1767.62
286.751	1683.62
286.982	1080.62
287.213	866.62
287.444	769.62
287.675	723.62
287.906	711.62
288.138	698.62
288.369	681.62
288.6	681.62
288.831	676.62
289.062	696.62
289.293	683.62
289.524	699.62
289.755	684.62
289.986	683.62
290.217	706.62
290.448	716.62
290.679	707.62
290.91	707.62
291.141	737.62
291.371	741.62
291.602	752.62
291.833	721.62
292.064	695.62
292.295	678.62
292.526	690.62
292.757	661.62
292.987	674.62
293.218	639.62
293.449	645.62
293.68	667.62
293.91	659.62
294.141	637.62
294.372	631.62
294.603	649.62
294.833	655.62
295.064	641.62
295.295	637.62
295.525	625.62
295.756	643.62
295.987	644.62
296.217	653.62
296.448	645.62
296.679	638.62
296.909	646.62
297.14	647.62
297.37	656.62
297.601	652.62
297.831	663.62
298.062	659.62
298.292	650.62
298.523	686.62
298.753	677.62
298.984	699.62
299.214	701.62
299.445	719.62
299.675	733.62
299.905	731.62
300.136	767.62
300.366	837.62
300.597	1045.62
300.827	1346.62
301.057	1813.62
301.288	1713.62
301.518	1197.62
301.748	942.62
301.979	880.62
302.209	881.62
302.439	889.62
302.669	894.62
302.9	1061.62
303.13	1403.62
303.36	2051.62
303.59	2683.62
303.82	2311.62
304.051	1444.62
304.281	1106.62
304.511	941.62
304.741	862.62
304.971	848.62
305.201	817.62
305.431	824.62
305.661	801.62
305.891	779.62
306.121	775.62
306.352	755.62
306.582	751.62
306.812	749.62
307.042	763.62
307.272	741.62
307.502	731.62
307.731	734.62
307.961	742.62
308.191	756.62
308.421	739.62
308.651	717.62
308.881	769.62
309.111	736.62
309.341	772.62
309.571	788.62
309.8	771.62
310.03	766.62
310.26	753.62
310.49	765.62
310.72	782.62
310.949	745.62
311.179	771.62
311.409	766.62
311.639	769.62
311.868	758.62
312.098	787.62
312.328	795.62
312.557	802.62
312.787	807.62
313.017	800.62
313.246	839.62
313.476	826.62
313.706	854.62
313.935	885.62
314.165	890.62
314.394	910.62
314.624	906.62
314.853	859.62
315.083	854.62
315.312	865.62
315.542	894.62
315.771	889.62
316.001	902.62
316.23	901.62
316.46	928.62
316.689	1010.62
316.919	1189.62
317.148	1632.62
317.377	2461.62
317.607	3555.62
317.836	3682.62
318.065	2232.62
318.295	1491.62
318.524	1211.62
318.753	1110.62
318.983	1017.62
319.212	991.62
319.441	953.62
319.67	954.62
319.9	957.62
320.129	954.62
320.358	951.62
320.587	943.62
320.816	960.62
321.046	936.62
321.275	951.62
321.504	923.62
321.733	947.62
321.962	999.62
322.191	974.62
322.42	983.62
322.649	979.62
322.878	977.62
323.108	989.62
323.337	996.62
323.566	972.62
323.795	1000.62
324.024	1084.62
324.253	1088.62
324.482	1101.62
324.71	1142.62
324.939	1208.62
325.168	1236.62
325.397	1270.62
325.626	1444.62
325.855	1988.62
326.084	2975.62
326.313	4321.62
326.542	4597.62
326.77	3009.62
326.999	2065.62
327.228	1757.62
327.457	1693.62
327.686	1711.62
327.914	1828.62
328.143	2088.62
328.372	2402.62
328.6	2593.62
328.829	2424.62
329.058	2122.62
329.287	1895.62
329.515	1767.62
329.744	1634.62
329.972	1540.62
330.201	1478.62
330.43	1454.62
330.658	1406.62
330.887	1368.62
331.115	1363.62
331.344	1376.62
331.572	1346.62
331.801	1355.62
332.03	1373.62
332.258	1373.62
332.486	1443.62
332.715	1569.62
332.943	1903.62
333.172	2224.62
333.4	2202.62
333.629	1799.62
333.857	1711.62
334.085	1738.62
334.314	1803.62
334.542	1910.62
334.771	2173.62
334.999	2538.62
335.227	3118.62
335.455	3437.62
335.684	3215.62
335.912	2753.62
336.14	2398.62
336.369	2170.62
336.597	1983.62
336.825	1841.62
337.053	1757.62
337.281	1637.62
337.51	1570.62
337.738	1501.62
337.966	1418.62
338.194	1417.62
338.422	1347.62
338.65	1307.62
338.878	1329.62
339.106	1265.62
339.334	1298.62
339.562	1255.62
339.79	1208.62
340.018	1250.62
340.246	1213.62
340.474	1238.62
340.702	1187.62
340.93	1221.62
341.158	1212.62
341.386	1213.62
341.614	1162.62
341.842	1151.62
342.07	1136.62
342.298	1146.62
342.526	1111.62
342.754	1092.62
342.981	1103.62
343.209	1105.62
343.437	1114.62
343.665	1122.62
343.893	1158.62
344.12	1145.62
344.348	1107.62
344.576	1098.62
344.804	1094.62
345.031	1070.62
345.259	1071.62
345.487	1073.62
345.714	1055.62
345.942	1039.62
346.17	1065.62
346.397	1039.62
346.625	1029.62
346.853	1011.62
347.08	1017.62
347.308	1029.62
347.535	1037.62
347.763	995.62
347.99	999.62
348.218	988.62
348.445	989.62
348.673	1018.62
348.9	1010.62
349.128	1024.62
349.355	992.62
349.583	998.62
349.81	999.62
350.037	992.62
350.265	957.62
350.492	992.62
350.72	992.62
350.947	963.62
351.174	994.62
351.402	1012.62
351.629	967.62
351.856	981.62
352.083	970.62
352.311	966.62
352.538	956.62
352.765	998.62
352.992	979.62
353.22	958.62
353.447	980.62
353.674	988.62
353.901	988.62
354.128	959.62
354.355	982.62
354.583	985.62
354.81	995.62
355.037	998.62
355.264	994.62
355.491	1005.62
355.718	1002.62
355.945	994.62
356.172	1015.62
356.399	994.62
356.626	1003.62
356.853	1016.62
357.08	1010.62
357.307	1046.62
357.534	1054.62
357.761	1045.62
357.988	1024.62
358.215	1029.62
358.441	1069.62
358.668	1039.62
358.895	1049.62
359.122	1040.62
359.349	1043.62
359.576	1047.62
359.802	1041.62
360.029	1047.62
360.256	1047.62
360.483	1035.62
360.709	1032.62
360.936	1059.62
361.163	1077.62
361.39	1083.62
361.616	1030.62
361.843	1063.62
362.07	1081.62
362.296	1052.62
362.523	1033.62
362.749	1038.62
362.976	1016.62
363.203	1039.62
363.429	1050.62
363.656	1047.62
363.882	1043.62
364.109	1028.62
364.335	1028.62
364.562	1029.62
364.788	1032.62
365.015	1043.62
365.241	1055.62
365.468	1075.62
365.694	1127.62
365.92	1112.62
366.147	1090.62
366.373	1080.62
366.599	1089.62
366.826	1092.62
367.052	1074.62
367.278	1097.62
367.505	1077.62
367.731	1087.62
367.957	1062.62
368.184	1102.62
368.41	1061.62
368.636	1069.62
368.862	1096.62
369.089	1089.62
369.315	1095.62
369.541	1091.62
369.767	1087.62
369.993	1069.62
370.219	1082.62
370.445	1057.62
370.672	1131.62
370.898	1085.62
371.124	1103.62
371.35	1121.62
371.576	1113.62
371.802	1109.62
372.028	1133.62
372.254	1137.62
372.48	1149.62
372.706	1152.62
372.932	1125.62
373.158	1149.62
373.384	1154.62
373.61	1127.62
373.835	1149.62
374.061	1150.62
374.287	1192.62
374.513	1163.62
374.739	1185.62
374.965	1207.62
375.191	1206.62
375.416	1192.62
375.642	1173.62
375.868	1151.62
376.094	1155.62
376.319	1127.62
376.545	1125.62
376.771	1128.62
376.997	1130.62
377.222	1160.62
377.448	1101.62
377.674	1098.62
377.899	1115.62
378.125	1143.62
378.35	1121.62
378.576	1119.62
378.802	1155.62
379.027	1137.62
379.253	1197.62
379.478	1206.62
379.704	1361.62
379.929	1823.62
380.155	2589.62
380.38	2757.62
380.606	1837.62
380.831	1401.62
381.057	1224.62
381.282	1177.62
381.507	1171.62
381.733	1145.62
381.958	1111.62
382.184	1129.62
382.409	1111.62
382.634	1109.62
382.86	1089.62
383.085	1107.62
383.31	1117.62
383.535	1125.62
383.761	1123.62
383.986	1128.62
384.211	1147.62
384.436	1146.62
384.662	1176.62
384.887	1122.62
385.112	1141.62
385.337	1153.62
385.562	1163.62
385.787	1187.62
386.013	1148.62
386.238	1183.62
386.463	1179.62
386.688	1153.62
386.913	1143.62
387.138	1145.62
387.363	1138.62
387.588	1138.62
387.813	1126.62
388.038	1139.62
388.263	1145.62
388.488	1161.62
388.713	1184.62
388.938	1137.62
389.163	1178.62
389.387	1157.62
389.612	1147.62
389.837	1156.62
390.062	1137.62
390.287	1191.62
390.512	1149.62
390.736	1182.62
390.961	1189.62
391.186	1188.62
391.411	1213.62
391.636	1205.62
391.86	1256.62
392.085	1203.62
392.31	1199.62
392.534	1211.62
392.759	1211.62
392.984	1217.62
393.208	1176.62
393.433	1167.62
393.658	1144.62
393.882	1147.62
394.107	1170.62
394.331	1181.62
394.556	1156.62
394.78	1188.62
395.005	1198.62
395.229	1203.62
395.454	1199.62
395.678	1213.62
395.903	1234.62
396.127	1213.62
396.352	1183.62
396.576	1160.62
396.801	1193.62
397.025	1161.62
397.249	1203.62
397.474	1239.62
397.698	1233.62
397.922	1221.62
398.147	1222.62
398.371	1239.62
398.595	1217.62
398.82	1299.62
399.044	1338.62
399.268	1389.62
399.492	1503.62
399.717	1540.62
399.941	1551.62
400.165	1459.62
400.389	1430.62
400.613	1367.62
400.837	1320.62
401.062	1324.62
401.286	1299.62
401.51	1275.62
401.734	1303.62
401.958	1296.62
402.182	1279.62
402.406	1303.62
402.63	1291.62
402.854	1296.62
403.078	1304.62
403.302	1329.62
403.526	1329.62
403.75	1343.62
403.974	1355.62
404.198	1348.62
404.422	1373.62
404.645	1336.62
404.869	1344.62
405.093	1339.62
405.317	1335.62
405.541	1353.62
405.765	1329.62
405.988	1346.62
406.212	1335.62
406.436	1338.62
406.66	1376.62
406.883	1397.62
407.107	1421.62
407.331	1414.62
407.555	1478.62
407.778	1437.62
408.002	1427.62
408.226	1411.62
408.449	1422.62
408.673	1393.62
408.896	1350.62
409.12	1311.62
409.344	1313.62
409.567	1333.62
409.791	1336.62
410.014	1332.62
410.238	1339.62
410.461	1328.62
410.685	1315.62
410.908	1334.62
411.132	1288.62
411.355	1264.62
411.578	1251.62
411.802	1303.62
412.025	1277.62
412.249	1295.62
412.472	1294.62
412.695	1292.62
412.919	1288.62
413.142	1313.62
413.365	1252.62
413.589	1255.62
413.812	1255.62
414.035	1263.62
414.258	1253.62
414.482	1267.62
414.705	1259.62
414.928	1258.62
415.151	1243.62
415.374	1266.62
415.597	1237.62
415.821	1186.62
416.044	1202.62
416.267	1238.62
416.49	1203.62
416.713	1239.62
416.936	1220.62
417.159	1204.62
417.382	1181.62
417.605	1184.62
417.828	1217.62
418.051	1239.62
418.274	1228.62
418.497	1229.62
418.72	1279.62
418.943	1247.62
419.166	1294.62
419.389	1363.62
419.611	1329.62
419.834	1316.62
420.057	1253.62
420.28	1245.62
420.503	1177.62
420.726	1209.62
420.948	1253.62
421.171	1220.62
421.394	1252.62
421.617	1223.62
421.839	1206.62
422.062	1221.62
422.285	1193.62
422.507	1246.62
422.73	1240.62
422.953	1238.62
423.175	1230.62
423.398	1236.62
423.621	1200.62
423.843	1208.62
424.066	1255.62
424.288	1233.62
424.511	1233.62
424.733	1251.62
424.956	1228.62
425.178	1200.62
425.401	1182.62
425.623	1239.62
425.846	1211.62
426.068	1211.62
426.291	1172.62
426.513	1144.62
426.735	1153.62
426.958	1175.62
427.18	1163.62
427.402	1147.62
427.625	1148.62
427.847	1075.62
428.069	1133.62
428.292	1173.62
428.514	1133.62
428.736	1135.62
428.958	1149.62
429.181	1124.62
429.403	1108.62
429.625	1101.62
429.847	1117.62
430.069	1153.62
430.292	1188.62
430.514	1200.62
430.736	1179.62
430.958	1167.62
431.18	1101.62
431.402	1151.62
431.624	1113.62
431.846	1084.62
432.068	1095.62
432.29	1129.62
432.512	1113.62
432.734	1102.62
432.956	1107.62
433.178	1129.62
433.4	1140.62
433.622	1113.62
433.844	1130.62
434.066	1136.62
434.287	1125.62
434.509	1169.62
434.731	1142.62
434.953	1164.62
435.175	1197.62
435.397	1158.62
435.618	1128.62
435.84	1127.62
436.062	1107.62
436.284	1134.62
436.505	1086.62
436.727	1105.62
436.949	1126.62
437.17	1110.62
437.392	1086.62
437.614	1102.62
437.835	1059.62
438.057	1071.62
438.278	1057.62
438.5	1089.62
438.721	1110.62
438.943	1120.62
439.165	1123.62
439.386	1128.62
439.608	1160.62
439.829	1167.62
440.05	1162.62
440.272	1219.62
440.493	1204.62
440.715	1153.62
440.936	1173.62
441.158	1190.62
441.379	1207.62
441.6	1213.62
441.822	1256.62
442.043	1300.62
442.264	1304.62
442.486	1258.62
442.707	1205.62
442.928	1187.62
443.149	1220.62
443.371	1221.62
443.592	1190.62
443.813	1220.62
444.034	1207.62
444.255	1241.62
444.476	1273.62
444.698	1296.62
444.919	1314.62
445.14	1393.62
445.361	1283.62
445.582	1221.62
445.803	1203.62
446.024	1203.62
446.245	1169.62
446.466	1195.62
446.687	1169.62
446.908	1202.62
447.129	1131.62
447.35	1127.62
447.571	1134.62
447.792	1099.62
448.013	1120.62
448.234	1080.62
448.455	1111.62
448.675	1139.62
448.896	1125.62
449.117	1175.62
449.338	1248.62
449.559	1275.62
449.779	1149.62
450	1121.62
450.221	1095.62
450.442	1087.62
450.662	1071.62
450.883	1055.62
451.104	1081.62
451.324	1077.62
451.545	1060.62
451.766	1119.62
451.986	1105.62
452.207	1090.62
452.428	1327.62
452.648	1755.62
452.869	1527.62
453.089	1194.62
453.31	1141.62
453.53	1155.62
453.751	1204.62
453.971	1250.62
454.192	1247.62
454.412	1118.62
454.633	1055.62
454.853	1034.62
455.073	1028.62
455.294	1033.62
455.514	1043.62
455.734	1030.62
455.955	1033.62
456.175	1045.62
456.395	998.62
456.616	1046.62
456.836	1040.62
457.056	1028.62
457.276	1039.62
457.497	1090.62
457.717	1092.62
457.937	1076.62
458.157	1059.62
458.377	1077.62
458.598	1066.62
458.818	1107.62
459.038	1083.62
459.258	1085.62
459.478	1113.62
459.698	1165.62
459.918	1126.62
460.138	1162.62
460.358	1184.62
460.578	1213.62
460.798	1210.62
461.018	1221.62
461.238	1237.62
461.458	1232.62
461.678	1213.62
461.898	1247.62
462.118	1268.62
462.338	1288.62
462.558	1305.62
462.777	1319.62
462.997	1382.62
463.217	1414.62
463.437	1450.62
463.657	1391.62
463.876	1418.62
464.096	1367.62
464.316	1329.62
464.536	1306.62
464.755	1301.62
464.975	1261.62
465.195	1207.62
465.414	1181.62
465.634	1152.62
465.854	1145.62
466.073	1161.62
466.293	1142.62
466.512	1105.62
466.732	1159.62
466.951	1205.62
467.171	1240.62
467.391	1209.62
467.61	1156.62
467.829	1105.62
468.049	1103.62
468.268	1118.62
468.488	1130.62
468.707	1120.62
468.927	1101.62
469.146	1065.62
469.365	1100.62
469.585	1122.62
469.804	1138.62
470.023	1144.62
470.243	1141.62
470.462	1187.62
470.681	1245.62
470.901	1331.62
471.12	1475.62
471.339	1489.62
471.558	1277.62
471.777	1228.62
471.997	1171.62
472.216	1133.62
472.435	1098.62
472.654	1091.62
472.873	1095.62
473.092	1081.62
473.311	1063.62
473.53	1114.62
473.749	1135.62
473.968	1143.62
474.187	1105.62
474.406	1083.62
474.625	1122.62
474.844	1093.62
475.063	1089.62
475.282	1114.62
475.501	1125.62
475.72	1150.62
475.939	1138.62
476.158	1135.62
476.377	1174.62
476.596	1156.62
476.814	1184.62
477.033	1157.62
477.252	1156.62
477.471	1221.62
477.69	1197.62
477.908	1215.62
478.127	1262.62
478.346	1242.62
478.564	1290.62
478.783	1307.62
479.002	1317.62
479.22	1334.62
479.439	1320.62
479.658	1293.62
479.876	1314.62
480.095	1314.62
480.313	1313.62
480.532	1354.62
480.751	1350.62
480.969	1300.62
481.188	1335.62
481.406	1271.62
481.624	1298.62
481.843	1312.62
482.061	1303.62
482.28	1318.62
482.498	1316.62
482.717	1313.62
482.935	1322.62
483.153	1321.62
483.372	1371.62
483.59	1414.62
483.808	1373.62
484.027	1373.62
484.245	1459.62
484.463	1569.62
484.681	1750.62
484.9	1601.62
485.118	1547.62
485.336	1494.62
485.554	1541.62
485.772	1605.62
485.99	1788.62
486.209	1932.62
486.427	1604.62
486.645	1485.62
486.863	1442.62
487.081	1452.62
487.299	1429.62
487.517	1443.62
487.735	1403.62
487.953	1441.62
488.171	1464.62
488.389	1414.62
488.607	1400.62
488.825	1376.62
489.043	1380.62
489.261	1371.62
489.479	1337.62
489.696	1311.62
489.914	1391.62
490.132	1377.62
490.35	1408.62
490.568	1400.62
490.786	1407.62
491.003	1417.62
491.221	1411.62
491.439	1465.62
491.657	1448.62
491.874	1470.62
492.092	1499.62
492.31	1510.62
492.527	1467.62
492.745	1457.62
492.963	1464.62
493.18	1464.62
493.398	1458.62
493.615	1455.62
493.833	1462.62
494.05	1486.62
494.268	1477.62
494.485	1475.62
494.703	1449.62
494.92	1432.62
495.138	1437.62
495.355	1457.62
495.573	1471.62
495.79	1481.62
496.008	1461.62
496.225	1486.62
496.442	1491.62
496.66	1535.62
496.877	1585.62
497.094	1529.62
497.312	1558.62
497.529	1558.62
497.746	1589.62
497.963	1595.62
498.181	1598.62
498.398	1705.62
498.615	1687.62
498.832	1733.62
499.049	1867.62
499.267	1958.62
499.484	2031.62
499.701	2113.62
499.918	2219.62
500.135	2313.62
500.352	2470.62
500.569	2495.62
500.786	2469.62
501.003	2394.62
501.22	2248.62
501.437	2133.62
501.654	2019.62
501.871	1928.62
502.088	1860.62
502.305	1779.62
502.522	1719.62
502.739	1707.62
502.956	1660.62
503.172	1621.62
503.389	1554.62
503.606	1516.62
503.823	1511.62
504.04	1467.62
504.256	1509.62
504.473	1502.62
504.69	1484.62
504.907	1470.62
505.123	1462.62
505.34	1414.62
505.557	1368.62
505.773	1363.62
505.99	1367.62
506.207	1291.62
506.423	1279.62
506.64	1335.62
506.856	1289.62
507.073	1289.62
507.289	1269.62
507.506	1275.62
507.722	1285.62
507.939	1269.62
508.155	1277.62
508.372	1251.62
508.588	1201.62
508.805	1226.62
509.021	1231.62
509.238	1253.62
509.454	1286.62
509.67	1335.62
509.887	1307.62
510.103	1233.62
510.319	1251.62
510.536	1227.62
510.752	1206.62
510.968	1211.62
511.184	1207.62
511.401	1173.62
511.617	1195.62
511.833	1193.62
512.049	1175.62
512.265	1175.62
512.481	1202.62
512.698	1141.62
512.914	1174.62
513.13	1201.62
513.346	1199.62
513.562	1162.62
513.778	1165.62
513.994	1173.62
514.21	1206.62
514.426	1262.62
514.642	1325.62
514.858	1237.62
515.074	1213.62
515.29	1206.62
515.506	1191.62
515.721	1208.62
515.937	1232.62
516.153	1209.62
516.369	1257.62
516.585	1272.62
516.801	1266.62
517.016	1270.62
517.232	1320.62
517.448	1340.62
517.664	1361.62
517.879	1341.62
518.095	1333.62
518.311	1333.62
518.527	1338.62
518.742	1349.62
518.958	1320.62
519.173	1306.62
519.389	1299.62
519.605	1277.62
519.82	1200.62
520.036	1237.62
520.251	1171.62
520.467	1149.62
520.682	1204.62
520.898	1180.62
521.113	1172.62
521.329	1149.62
521.544	1177.62
521.76	1167.62
521.975	1173.62
522.19	1183.62
522.406	1167.62
522.621	1148.62
522.836	1151.62
523.052	1176.62
523.267	1153.62
523.482	1125.62
523.698	1153.62
523.913	1121.62
524.128	1141.62
524.343	1153.62
524.559	1170.62
524.774	1117.62
524.989	1163.62
525.204	1173.62
525.419	1160.62
525.634	1147.62
525.849	1168.62
526.064	1165.62
526.28	1142.62
526.495	1143.62
526.71	1148.62
526.925	1152.62
527.14	1154.62
527.355	1127.62
527.57	1123.62
527.785	1144.62
527.999	1155.62
528.214	1169.62
528.429	1189.62
528.644	1173.62
528.859	1183.62
529.074	1238.62
529.289	1220.62
529.503	1199.62
529.718	1229.62
529.933	1200.62
530.148	1226.62
530.363	1174.62
530.577	1181.62
530.792	1215.62
531.007	1206.62
531.221	1230.62
531.436	1226.62
531.651	1213.62
531.865	1262.62
532.08	1255.62
532.295	1290.62
532.509	1303.62
532.724	1346.62
532.938	1343.62
533.153	1354.62
533.367	1449.62
533.582	1499.62
533.796	1461.62
534.011	1455.62
534.225	1439.62
534.44	1374.62
534.654	1368.62
534.868	1325.62
535.083	1331.62
535.297	1310.62
535.511	1290.62
535.726	1303.62
535.94	1269.62
536.154	1238.62
536.369	1213.62
536.583	1159.62
536.797	1177.62
537.011	1199.62
537.225	1211.62
537.44	1177.62
537.654	1169.62
537.868	1129.62
538.082	1163.62
538.296	1137.62
538.51	1119.62
538.724	1149.62
538.938	1155.62
539.153	1136.62
539.367	1151.62
539.581	1097.62
539.795	1093.62
540.009	1099.62
540.222	1078.62
540.436	1112.62
540.65	1105.62
540.864	1108.62
541.078	1147.62
541.292	1171.62
541.506	1379.62
541.72	1437.62
541.934	1283.62
542.147	1277.62
542.361	1203.62
542.575	1139.62
542.789	1107.62
543.002	1106.62
543.216	1083.62
543.43	1050.62
543.644	1085.62
543.857	1079.62
544.071	1110.62
544.285	1123.62
544.498	1117.62
544.712	1109.62
544.925	1157.62
545.139	1097.62
545.352	1113.62
545.566	1146.62
545.779	1095.62
545.993	1146.62
546.206	1146.62
546.42	1149.62
546.633	1124.62
546.847	1113.62
547.06	1156.62
547.274	1152.62
547.487	1121.62
547.7	1150.62
547.914	1140.62
548.127	1120.62
548.34	1133.62
548.554	1107.62
548.767	1139.62
548.98	1140.62
549.193	1098.62
549.407	1115.62
549.62	1117.62
549.833	1158.62
550.046	1117.62
550.259	1107.62
550.473	1098.62
550.686	1122.62
550.899	1071.62
551.112	1089.62
551.325	1100.62
551.538	1118.62
551.751	1122.62
551.964	1080.62
552.177	1104.62
552.39	1125.62
552.603	1174.62
552.816	1149.62
553.029	1192.62
553.242	1192.62
553.455	1214.62
553.667	1217.62
553.88	1227.62
554.093	1221.62
554.306	1251.62
554.519	1211.62
554.732	1249.62
554.944	1264.62
555.157	1261.62
555.37	1299.62
555.583	1355.62
555.795	1363.62
556.008	1417.62
556.221	1543.62
556.433	1610.62
556.646	1589.62
556.859	1561.62
557.071	1523.62
557.284	1521.62
557.496	1526.62
557.709	1467.62
557.921	1457.62
558.134	1507.62
558.346	1464.62
558.559	1514.62
558.771	1585.62
558.984	1634.62
559.196	1732.62
559.409	1700.62
559.621	1631.62
559.833	1554.62
560.046	1495.62
560.258	1431.62
560.47	1426.62
560.683	1350.62
560.895	1332.62
561.107	1261.62
561.32	1217.62
561.532	1231.62
561.744	1173.62
561.956	1169.62
562.168	1136.62
562.381	1141.62
562.593	1109.62
562.805	1125.62
563.017	1071.62
563.229	1133.62
563.441	1218.62
563.653	1105.62
563.865	1021.62
564.077	1041.62
564.289	1022.62
564.501	1021.62
564.713	1011.62
564.925	1020.62
565.137	1033.62
565.349	1030.62
565.561	1031.62
565.773	1041.62
565.985	1015.62
566.197	1056.62
566.408	1076.62
566.62	1121.62
566.832	1162.62
567.044	1131.62
567.255	1155.62
567.467	1139.62
567.679	1174.62
567.891	1201.62
568.102	1361.62
568.314	1496.62
568.526	1298.62
568.737	1131.62
568.949	1073.62
569.161	1021.62
569.372	972.62
569.584	895.62
569.795	915.62
570.007	908.62
570.218	937.62
570.43	917.62
570.641	890.62
570.853	876.62
571.064	850.62
571.276	917.62
571.487	835.62
571.698	831.62
571.91	823.62
572.121	827.62
572.333	810.62
572.544	830.62
572.755	872.62
572.966	969.62
573.178	859.62
573.389	822.62
573.6	784.62
573.811	754.62
574.023	786.62
574.234	763.62
574.445	747.62
574.656	763.62
574.867	752.62
575.078	726.62
575.289	757.62
575.501	737.62
575.712	712.62
575.923	723.62
576.134	725.62
576.345	740.62
576.556	749.62
576.767	744.62
576.978	735.62
577.188	743.62
577.399	778.62
577.61	752.62
577.821	767.62
578.032	745.62
578.243	802.62
578.454	808.62
578.665	791.62
578.875	820.62
579.086	834.62
579.297	893.62
579.508	880.62
579.718	947.62
579.929	1041.62
580.14	1143.62
580.35	1169.62
580.561	1147.62
580.772	1043.62
580.982	1009.62
581.193	962.62
581.403	928.62
581.614	874.62
581.825	838.62
582.035	803.62
582.246	783.62
582.456	777.62
582.667	784.62
582.877	757.62
583.087	738.62
583.298	699.62
583.508	695.62
583.719	674.62
583.929	670.62
584.139	669.62
584.35	633.62
584.56	625.62
584.77	643.62
584.981	625.62
585.191	627.62
585.401	608.62
585.611	611.62
585.821	594.62
586.032	594.62
586.242	632.62
586.452	611.62
586.662	585.62
586.872	594.62
587.082	597.62
587.292	605.62
587.502	592.62
587.713	575.62
587.923	557.62
588.133	559.62
588.343	559.62
588.553	558.62
588.762	562.62
588.972	534.62
589.182	555.62
589.392	559.62
589.602	554.62
589.812	549.62
590.022	530.62
590.232	549.62
590.441	552.62
590.651	533.62
590.861	527.62
591.071	529.62
591.281	520.62
591.49	518.62
591.7	511.62
591.91	517.62
592.119	528.62
592.329	530.62
592.539	550.62
592.748	526.62
592.958	560.62
593.167	561.62
593.377	563.62
593.587	564.62
593.796	567.62
594.006	546.62
594.215	560.62
594.424	569.62
594.634	566.62
594.843	530.62
595.053	538.62
595.262	527.62
595.472	494.62
595.681	518.62
595.89	521.62
596.1	489.62
596.309	490.62
596.518	489.62
596.727	470.62
596.937	486.62
597.146	478.62
597.355	465.62
597.564	480.62
597.774	456.62
597.983	467.62
598.192	455.62
598.401	461.62
598.61	447.62
598.819	448.62
599.028	459.62
599.237	454.62
599.446	455.62
599.655	449.62
599.864	429.62
600.073	433.62
600.282	429.62
600.491	454.62
600.7	438.62
600.909	453.62
601.118	438.62
601.327	458.62
601.536	469.62
601.745	465.62
601.953	499.62
602.162	544.62
602.371	480.62
602.58	451.62
602.789	456.62
602.997	439.62
603.206	460.62
603.415	431.62
603.623	448.62
603.832	434.62
604.041	415.62
604.249	422.62
604.458	422.62
604.666	426.62
604.875	410.62
605.084	421.62
605.292	425.62
605.501	422.62
605.709	441.62
605.918	417.62
606.126	445.62
606.334	431.62
606.543	455.62
606.751	454.62
606.96	507.62
607.168	558.62
607.376	466.62
607.585	439.62
607.793	439.62
608.001	437.62
608.21	421.62
608.418	431.62
608.626	423.62
608.834	433.62
609.043	417.62
609.251	396.62
609.459	414.62
609.667	415.62
609.875	435.62
610.083	419.62
610.291	407.62
610.499	411.62
610.707	385.62
610.916	399.62
611.124	398.62
611.332	392.62
611.54	407.62
611.748	421.62
611.955	403.62
612.163	390.62
612.371	388.62
612.579	398.62
612.787	402.62
612.995	386.62
613.203	396.62
613.411	390.62
613.618	402.62
613.826	398.62
614.034	389.62
614.242	371.62
614.449	401.62
614.657	394.62
614.865	394.62
615.072	366.62
615.28	405.62
615.488	403.62
615.695	389.62
615.903	392.62
616.111	387.62
616.318	377.62
616.526	390.62
616.733	379.62
616.941	381.62
617.148	379.62
617.356	388.62
617.563	371.62
617.771	381.62
617.978	349.62
618.185	369.62
618.393	375.62
618.6	380.62
618.807	375.62
619.015	359.62
619.222	370.62
619.429	386.62
619.637	363.62
619.844	357.62
620.051	362.62
620.258	354.62
620.466	379.62
620.673	355.62
620.88	360.62
621.087	348.62
621.294	352.62
621.501	358.62
621.708	341.62
621.915	345.62
622.122	345.62
622.329	349.62
622.536	336.62
622.743	350.62
622.95	341.62
623.157	353.62
623.364	350.62
623.571	360.62
623.778	330.62
623.985	334.62
624.192	344.62
624.399	334.62
624.606	353.62
624.812	331.62
625.019	324.62
625.226	330.62
625.433	331.62
625.639	333.62
625.846	304.62
626.053	333.62
626.259	303.62
626.466	298.62
626.673	318.62
626.879	314.62
627.086	325.62
627.293	327.62
627.499	307.62
627.706	335.62
627.912	339.62
628.119	301.62
628.325	318.62
628.532	338.62
628.738	327.62
628.945	318.62
629.151	326.62
629.357	305.62
629.564	310.62
629.77	309.62
629.976	296.62
630.183	301.62
630.389	297.62
630.595	308.62
630.802	310.62
631.008	305.62
631.214	304.62
631.42	320.62
631.627	319.62
631.833	304.62
632.039	291.62
632.245	299.62
632.451	304.62
632.657	289.62
632.863	308.62
633.069	293.62
633.275	311.62
633.481	277.62
633.688	286.62
633.893	301.62
634.099	296.62
634.305	292.62
634.511	288.62
634.717	296.62
634.923	320.62
635.129	322.62
635.335	368.62
635.541	328.62
635.747	325.62
635.952	316.62
636.158	307.62
636.364	303.62
636.57	305.62
636.775	305.62
636.981	293.62
637.187	273.62
637.392	292.62
637.598	285.62
637.804	293.62
638.009	301.62
638.215	294.62
638.421	295.62
638.626	296.62
638.832	307.62
639.037	306.62
639.243	290.62
639.448	315.62
639.654	297.62
639.859	306.62
640.065	306.62
640.27	318.62
640.475	326.62
640.681	297.62
640.886	331.62
641.091	313.62
641.297	323.62
641.502	297.62
641.707	312.62
641.913	333.62
642.118	320.62
642.323	335.62
642.528	340.62
642.733	346.62
642.939	351.62
643.144	336.62
643.349	361.62
643.554	356.62
643.759	373.62
643.964	384.62
644.169	401.62
644.374	419.62
644.579	449.62
644.784	473.62
644.989	536.62
645.194	587.62
645.399	679.62
645.604	691.62
645.809	575.62
646.014	453.62
646.219	421.62
646.423	378.62
646.628	346.62
646.833	337.62
647.038	341.62
647.243	329.62
647.447	311.62
647.652	290.62
647.857	293.62
648.062	290.62
648.266	301.62
648.471	306.62
648.676	300.62
648.88	295.62
649.085	258.62
649.289	261.62
649.494	266.62
649.698	275.62
649.903	255.62
650.107	267.62
650.312	239.62
650.516	251.62
650.721	247.62
650.925	249.62
651.13	239.62
651.334	249.62
651.539	257.62
651.743	218.62
651.947	233.62
652.152	207.62
652.356	224.62
652.56	253.62
652.764	249.62
652.969	259.62
653.173	232.62
653.377	234.62
653.581	197.62
653.785	203.62
653.99	201.62
654.194	214.62
654.398	191.62
654.602	189.62
654.806	193.62
655.01	200.62
655.214	209.62
655.418	195.62
655.622	219.62
655.826	200.62
656.03	205.62
656.234	226.62
656.438	236.62
656.642	224.62
656.846	221.62
657.049	200.62
657.253	195.62
657.457	187.62
657.661	173.62
657.865	173.62
658.068	162.62
658.272	152.62
658.476	153.62
658.68	162.62
658.883	145.62
659.087	143.62
659.291	134.62
659.494	127.62
659.698	119.62
659.901	123.62
660.105	140.62
660.309	119.62
660.512	117.62
660.716	104.62
660.919	97.62
661.123	110.62
661.326	119.62
661.53	113.62
661.733	99.62
661.936	89.62
662.14	99.62
662.343	93.62
662.546	83.62
662.75	93.62
662.953	96.62
663.156	98.62
663.36	91.62
663.563	93.62
663.766	98.62
663.969	82.62
664.173	81.62
664.376	73.62
664.579	80.62
664.782	75.62
664.985	81.62
665.188	79.62
665.391	87.62
665.594	87.62
665.797	75.62
666	77.62
666.203	85.62
666.406	70.62
666.609	72.62
666.812	81.62
667.015	74.62
667.218	77.62
667.421	79.62
667.624	83.62
667.827	67.62
668.03	95.62
668.232	98.62
668.435	82.62
668.638	75.62
668.841	79.62
669.043	96.62
669.246	97.62
669.449	82.62
669.651	79.62
669.854	93.62
670.057	88.62
670.259	83.62
670.462	80.62
670.665	75.62
670.867	83.62
671.07	81.62
671.272	80.62
671.475	83.62
671.677	81.62
671.88	84.62
672.082	97.62
672.284	76.62
672.487	90.62
672.689	93.62
672.892	94.62
