Data from SnStandardFlinnAPT0064_LampEnergy5.5_LIBS07252019.E.O._I.C._HRD10591_15-15-04-491.txt Node
Date: Thu Jul 25 15:15:04 EDT 2019
User: cochatt
Spectrometer: HR+D1059
Trigger mode: 1
Integration Time (sec): 1.000000E-1
Scans to average: 1
Electric dark correction enabled: true
Nonlinearity correction enabled: false
Boxcar width: 0
XAxis mode: Wavelengths
Number of Pixels in Spectrum: 2048
>>>>>Begin Spectral Data<<<<<
223.165	-17.56
223.4	-17.56
223.635	-17.56
223.869	-17.56
224.104	-16.56
224.338	-15.56
224.573	-14.56
224.808	-15.56
225.042	-11.56
225.277	-3.56
225.511	-13.56
225.746	8.44
225.98	17.44
226.215	16.44
226.449	15.44
226.683	26.44
226.918	19.44
227.152	22.44
227.387	31.44
227.621	39.44
227.856	63.44
228.09	34.44
228.324	42.44
228.559	42.44
228.793	82.44
229.027	129.44
229.262	159.44
229.496	151.44
229.73	144.44
229.964	144.44
230.199	159.44
230.433	151.44
230.667	158.44
230.901	154.44
231.136	168.44
231.37	178.44
231.604	177.44
231.838	187.44
232.072	197.44
232.306	223.44
232.541	191.44
232.775	199.44
233.009	173.44
233.243	207.44
233.477	207.44
233.711	232.44
233.945	246.44
234.179	227.44
234.413	214.44
234.647	199.44
234.881	222.44
235.115	208.44
235.349	259.44
235.583	316.44
235.817	375.44
236.051	364.44
236.285	278.44
236.519	232.44
236.753	203.44
236.987	221.44
237.221	231.44
237.455	219.44
237.689	225.44
237.922	217.44
238.156	223.44
238.39	213.44
238.624	212.44
238.858	205.44
239.091	228.44
239.325	223.44
239.559	223.44
239.793	238.44
240.027	216.44
240.26	226.44
240.494	261.44
240.728	254.44
240.961	244.44
241.195	267.44
241.429	271.44
241.662	294.44
241.896	292.44
242.13	353.44
242.363	451.44
242.597	544.44
242.83	529.44
243.064	536.44
243.298	626.44
243.531	513.44
243.765	350.44
243.998	321.44
244.232	312.44
244.465	280.44
244.699	276.44
244.932	289.44
245.166	270.44
245.399	273.44
245.633	286.44
245.866	286.44
246.099	287.44
246.333	262.44
246.566	265.44
246.8	264.44
247.033	279.44
247.266	285.44
247.5	272.44
247.733	278.44
247.966	296.44
248.2	301.44
248.433	355.44
248.666	370.44
248.899	363.44
249.133	330.44
249.366	353.44
249.599	359.44
249.832	392.44
250.066	398.44
250.299	356.44
250.532	329.44
250.765	319.44
250.998	323.44
251.231	318.44
251.465	302.44
251.698	305.44
251.931	306.44
252.164	314.44
252.397	323.44
252.63	320.44
252.863	332.44
253.096	311.44
253.329	329.44
253.562	315.44
253.795	325.44
254.028	329.44
254.261	334.44
254.494	347.44
254.727	402.44
254.96	450.44
255.193	446.44
255.426	381.44
255.659	364.44
255.892	368.44
256.124	371.44
256.357	366.44
256.59	370.44
256.823	388.44
257.056	430.44
257.289	472.44
257.521	495.44
257.754	455.44
257.987	396.44
258.22	399.44
258.452	372.44
258.685	391.44
258.918	396.44
259.151	420.44
259.383	422.44
259.616	467.44
259.849	468.44
260.081	434.44
260.314	378.44
260.547	397.44
260.779	390.44
261.012	390.44
261.244	390.44
261.477	425.44
261.71	414.44
261.942	408.44
262.175	446.44
262.407	448.44
262.64	471.44
262.872	463.44
263.105	464.44
263.337	511.44
263.57	547.44
263.802	543.44
264.035	535.44
264.267	563.44
264.499	558.44
264.732	616.44
264.964	624.44
265.197	618.44
265.429	604.44
265.661	632.44
265.894	624.44
266.126	684.44
266.358	770.44
266.591	712.44
266.823	644.44
267.055	619.44
267.287	582.44
267.52	562.44
267.752	538.44
267.984	553.44
268.216	501.44
268.448	517.44
268.681	528.44
268.913	489.44
269.145	516.44
269.377	502.44
269.609	524.44
269.841	520.44
270.073	562.44
270.306	603.44
270.538	772.44
270.77	1085.44
271.002	1280.44
271.234	966.44
271.466	705.44
271.698	586.44
271.93	527.44
272.162	522.44
272.394	503.44
272.626	530.44
272.858	511.44
273.09	500.44
273.322	500.44
273.553	473.44
273.785	493.44
274.017	500.44
274.249	496.44
274.481	480.44
274.713	467.44
274.945	503.44
275.176	499.44
275.408	500.44
275.64	498.44
275.872	512.44
276.104	511.44
276.335	504.44
276.567	528.44
276.799	523.44
277.031	526.44
277.262	540.44
277.494	529.44
277.726	582.44
277.957	646.44
278.189	710.44
278.421	667.44
278.652	622.44
278.884	599.44
279.115	579.44
279.347	544.44
279.579	523.44
279.81	536.44
280.042	555.44
280.273	562.44
280.505	555.44
280.736	566.44
280.968	620.44
281.199	626.44
281.431	691.44
281.662	719.44
281.894	646.44
282.125	626.44
282.356	649.44
282.588	620.44
282.819	634.44
283.051	681.44
283.282	734.44
283.513	853.44
283.745	1205.44
283.976	1875.44
284.207	2594.44
284.439	2317.44
284.67	1464.44
284.901	1224.44
285.132	1170.44
285.364	1127.44
285.595	914.44
285.826	866.44
286.057	978.44
286.288	1273.44
286.52	1634.44
286.751	1588.44
286.982	1039.44
287.213	811.44
287.444	745.44
287.675	719.44
287.906	684.44
288.138	661.44
288.369	666.44
288.6	653.44
288.831	667.44
289.062	653.44
289.293	682.44
289.524	678.44
289.755	640.44
289.986	648.44
290.217	657.44
290.448	660.44
290.679	669.44
290.91	667.44
291.141	712.44
291.371	678.44
291.602	731.44
291.833	691.44
292.064	675.44
292.295	658.44
292.526	610.44
292.757	641.44
292.987	630.44
293.218	646.44
293.449	651.44
293.68	634.44
293.91	623.44
294.141	616.44
294.372	609.44
294.603	612.44
294.833	640.44
295.064	615.44
295.295	626.44
295.525	631.44
295.756	624.44
295.987	629.44
296.217	623.44
296.448	610.44
296.679	626.44
296.909	624.44
297.14	650.44
297.37	644.44
297.601	630.44
297.831	642.44
298.062	649.44
298.292	647.44
298.523	656.44
298.753	654.44
298.984	650.44
299.214	659.44
299.445	688.44
299.675	680.44
299.905	715.44
300.136	741.44
300.366	813.44
300.597	996.44
300.827	1260.44
301.057	1631.44
301.288	1643.44
301.518	1138.44
301.748	912.44
301.979	848.44
302.209	839.44
302.439	838.44
302.669	852.44
302.9	990.44
303.13	1340.44
303.36	1931.44
303.59	2458.44
303.82	2184.44
304.051	1362.44
304.281	1020.44
304.511	936.44
304.741	869.44
304.971	791.44
305.201	787.44
305.431	772.44
305.661	754.44
305.891	731.44
306.121	734.44
306.352	747.44
306.582	707.44
306.812	722.44
307.042	747.44
307.272	715.44
307.502	733.44
307.731	726.44
307.961	692.44
308.191	707.44
308.421	712.44
308.651	744.44
308.881	712.44
309.111	723.44
309.341	740.44
309.571	724.44
309.8	727.44
310.03	723.44
310.26	711.44
310.49	733.44
310.72	735.44
310.949	727.44
311.179	756.44
311.409	739.44
311.639	761.44
311.868	757.44
312.098	776.44
312.328	770.44
312.557	786.44
312.787	772.44
313.017	770.44
313.246	791.44
313.476	780.44
313.706	827.44
313.935	823.44
314.165	856.44
314.394	885.44
314.624	863.44
314.853	810.44
315.083	802.44
315.312	816.44
315.542	830.44
315.771	820.44
316.001	844.44
316.23	871.44
316.46	926.44
316.689	977.44
316.919	1096.44
317.148	1546.44
317.377	2310.44
317.607	3292.44
317.836	3314.44
318.065	2128.44
318.295	1460.44
318.524	1200.44
318.753	1054.44
318.983	1030.44
319.212	977.44
319.441	964.44
319.67	934.44
319.9	898.44
320.129	890.44
320.358	903.44
320.587	912.44
320.816	888.44
321.046	910.44
321.275	912.44
321.504	936.44
321.733	938.44
321.962	952.44
322.191	934.44
322.42	960.44
322.649	963.44
322.878	957.44
323.108	913.44
323.337	965.44
323.566	952.44
323.795	986.44
324.024	1026.44
324.253	1020.44
324.482	1055.44
324.71	1109.44
324.939	1123.44
325.168	1213.44
325.397	1200.44
325.626	1378.44
325.855	1863.44
326.084	2773.44
326.313	4063.44
326.542	4305.44
326.77	2875.44
326.999	2002.44
327.228	1682.44
327.457	1634.44
327.686	1668.44
327.914	1743.44
328.143	1969.44
328.372	2240.44
328.6	2405.44
328.829	2284.44
329.058	2038.44
329.287	1850.44
329.515	1683.44
329.744	1579.44
329.972	1513.44
330.201	1442.44
330.43	1356.44
330.658	1367.44
330.887	1341.44
331.115	1337.44
331.344	1328.44
331.572	1314.44
331.801	1338.44
332.03	1314.44
332.258	1316.44
332.486	1415.44
332.715	1508.44
332.943	1757.44
333.172	2110.44
333.4	2132.44
333.629	1756.44
333.857	1640.44
334.085	1659.44
334.314	1681.44
334.542	1842.44
334.771	2080.44
334.999	2443.44
335.227	2933.44
335.455	3221.44
335.684	3058.44
335.912	2656.44
336.14	2309.44
336.369	2094.44
336.597	1932.44
336.825	1784.44
337.053	1696.44
337.281	1581.44
337.51	1522.44
337.738	1488.44
337.966	1426.44
338.194	1347.44
338.422	1314.44
338.65	1273.44
338.878	1265.44
339.106	1270.44
339.334	1223.44
339.562	1225.44
339.79	1182.44
340.018	1178.44
340.246	1168.44
340.474	1191.44
340.702	1164.44
340.93	1155.44
341.158	1179.44
341.386	1150.44
341.614	1152.44
341.842	1123.44
342.07	1103.44
342.298	1094.44
342.526	1121.44
342.754	1080.44
342.981	1058.44
343.209	1076.44
343.437	1080.44
343.665	1110.44
343.893	1123.44
344.12	1126.44
344.348	1099.44
344.576	1073.44
344.804	1050.44
345.031	1044.44
345.259	1032.44
345.487	1017.44
345.714	1028.44
345.942	1017.44
346.17	1004.44
346.397	995.44
346.625	986.44
346.853	989.44
347.08	1003.44
347.308	979.44
347.535	966.44
347.763	997.44
347.99	978.44
348.218	990.44
348.445	959.44
348.673	958.44
348.9	982.44
349.128	991.44
349.355	927.44
349.583	977.44
349.81	964.44
350.037	936.44
350.265	953.44
350.492	947.44
350.72	964.44
350.947	959.44
351.174	958.44
351.402	961.44
351.629	963.44
351.856	953.44
352.083	964.44
352.311	967.44
352.538	966.44
352.765	935.44
352.992	968.44
353.22	959.44
353.447	937.44
353.674	955.44
353.901	951.44
354.128	977.44
354.355	963.44
354.583	958.44
354.81	968.44
355.037	955.44
355.264	956.44
355.491	965.44
355.718	949.44
355.945	983.44
356.172	999.44
356.399	989.44
356.626	964.44
356.853	1001.44
357.08	984.44
357.307	994.44
357.534	1008.44
357.761	1007.44
357.988	1002.44
358.215	994.44
358.441	1002.44
358.668	1016.44
358.895	978.44
359.122	984.44
359.349	978.44
359.576	1016.44
359.802	994.44
360.029	998.44
360.256	999.44
360.483	1020.44
360.709	1025.44
360.936	997.44
361.163	997.44
361.39	1001.44
361.616	1016.44
361.843	1030.44
362.07	1032.44
362.296	1017.44
362.523	1002.44
362.749	1003.44
362.976	983.44
363.203	1010.44
363.429	971.44
363.656	1000.44
363.882	1003.44
364.109	1012.44
364.335	1003.44
364.562	1029.44
364.788	1031.44
365.015	1044.44
365.241	1038.44
365.468	1031.44
365.694	1127.44
365.92	1092.44
366.147	1008.44
366.373	1018.44
366.599	1034.44
366.826	1036.44
367.052	1025.44
367.278	1030.44
367.505	1040.44
367.731	1064.44
367.957	1035.44
368.184	1028.44
368.41	1074.44
368.636	1055.44
368.862	1042.44
369.089	1063.44
369.315	1063.44
369.541	1051.44
369.767	1074.44
369.993	1090.44
370.219	1062.44
370.445	1040.44
370.672	1066.44
370.898	1095.44
371.124	1048.44
371.35	1089.44
371.576	1112.44
371.802	1109.44
372.028	1100.44
372.254	1115.44
372.48	1083.44
372.706	1121.44
372.932	1122.44
373.158	1108.44
373.384	1119.44
373.61	1119.44
373.835	1092.44
374.061	1102.44
374.287	1139.44
374.513	1134.44
374.739	1132.44
374.965	1149.44
375.191	1154.44
375.416	1157.44
375.642	1150.44
375.868	1138.44
376.094	1131.44
376.319	1108.44
376.545	1118.44
376.771	1084.44
376.997	1100.44
377.222	1122.44
377.448	1099.44
377.674	1105.44
377.899	1098.44
378.125	1094.44
378.35	1101.44
378.576	1095.44
378.802	1089.44
379.027	1093.44
379.253	1127.44
379.478	1163.44
379.704	1332.44
379.929	1724.44
380.155	2471.44
380.38	2623.44
380.606	1756.44
380.831	1307.44
381.057	1206.44
381.282	1174.44
381.507	1148.44
381.733	1092.44
381.958	1112.44
382.184	1070.44
382.409	1071.44
382.634	1081.44
382.86	1097.44
383.085	1091.44
383.31	1079.44
383.535	1084.44
383.761	1089.44
383.986	1077.44
384.211	1091.44
384.436	1111.44
384.662	1125.44
384.887	1089.44
385.112	1103.44
385.337	1130.44
385.562	1078.44
385.787	1106.44
386.013	1143.44
386.238	1093.44
386.463	1103.44
386.688	1098.44
386.913	1081.44
387.138	1128.44
387.363	1118.44
387.588	1094.44
387.813	1079.44
388.038	1113.44
388.263	1096.44
388.488	1120.44
388.713	1106.44
388.938	1115.44
389.163	1075.44
389.387	1106.44
389.612	1108.44
389.837	1127.44
390.062	1139.44
390.287	1134.44
390.512	1109.44
390.736	1127.44
390.961	1169.44
391.186	1144.44
391.411	1177.44
391.636	1188.44
391.86	1162.44
392.085	1184.44
392.31	1179.44
392.534	1154.44
392.759	1141.44
392.984	1131.44
393.208	1125.44
393.433	1135.44
393.658	1131.44
393.882	1173.44
394.107	1129.44
394.331	1118.44
394.556	1128.44
394.78	1154.44
395.005	1136.44
395.229	1130.44
395.454	1175.44
395.678	1173.44
395.903	1167.44
396.127	1173.44
396.352	1140.44
396.576	1145.44
396.801	1110.44
397.025	1178.44
397.249	1182.44
397.474	1196.44
397.698	1162.44
397.922	1190.44
398.147	1185.44
398.371	1190.44
398.595	1232.44
398.82	1267.44
399.044	1321.44
399.268	1352.44
399.492	1426.44
399.717	1460.44
399.941	1500.44
400.165	1421.44
400.389	1346.44
400.613	1329.44
400.837	1284.44
401.062	1239.44
401.286	1236.44
401.51	1251.44
401.734	1227.44
401.958	1224.44
402.182	1258.44
402.406	1249.44
402.63	1217.44
402.854	1247.44
403.078	1251.44
403.302	1236.44
403.526	1280.44
403.75	1283.44
403.974	1271.44
404.198	1306.44
404.422	1296.44
404.645	1273.44
404.869	1246.44
405.093	1302.44
405.317	1295.44
405.541	1273.44
405.765	1273.44
405.988	1298.44
406.212	1346.44
406.436	1305.44
406.66	1330.44
406.883	1305.44
407.107	1358.44
407.331	1371.44
407.555	1376.44
407.778	1386.44
408.002	1337.44
408.226	1340.44
408.449	1321.44
408.673	1310.44
408.896	1302.44
409.12	1297.44
409.344	1328.44
409.567	1279.44
409.791	1263.44
410.014	1303.44
410.238	1250.44
410.461	1251.44
410.685	1278.44
410.908	1235.44
411.132	1232.44
411.355	1237.44
411.578	1230.44
411.802	1220.44
412.025	1228.44
412.249	1236.44
412.472	1228.44
412.695	1211.44
412.919	1211.44
413.142	1201.44
413.365	1230.44
413.589	1201.44
413.812	1177.44
414.035	1207.44
414.258	1223.44
414.482	1209.44
414.705	1254.44
414.928	1198.44
415.151	1191.44
415.374	1194.44
415.597	1176.44
415.821	1196.44
416.044	1166.44
416.267	1158.44
416.49	1179.44
416.713	1189.44
416.936	1188.44
417.159	1170.44
417.382	1123.44
417.605	1155.44
417.828	1170.44
418.051	1178.44
418.274	1191.44
418.497	1195.44
418.72	1196.44
418.943	1186.44
419.166	1245.44
419.389	1269.44
419.611	1264.44
419.834	1252.44
420.057	1232.44
420.28	1167.44
420.503	1156.44
420.726	1135.44
420.948	1156.44
421.171	1162.44
421.394	1194.44
421.617	1190.44
421.839	1174.44
422.062	1165.44
422.285	1153.44
422.507	1192.44
422.73	1180.44
422.953	1155.44
423.175	1171.44
423.398	1183.44
423.621	1175.44
423.843	1191.44
424.066	1198.44
424.288	1191.44
424.511	1199.44
424.733	1186.44
424.956	1186.44
425.178	1200.44
425.401	1164.44
425.623	1160.44
425.846	1111.44
426.068	1141.44
426.291	1134.44
426.513	1129.44
426.735	1150.44
426.958	1138.44
427.18	1102.44
427.402	1099.44
427.625	1123.44
427.847	1075.44
428.069	1098.44
428.292	1100.44
428.514	1082.44
428.736	1066.44
428.958	1087.44
429.181	1094.44
429.403	1082.44
429.625	1072.44
429.847	1072.44
430.069	1115.44
430.292	1142.44
430.514	1146.44
430.736	1152.44
430.958	1119.44
431.18	1079.44
431.402	1070.44
431.624	1083.44
431.846	1058.44
432.068	1027.44
432.29	1036.44
432.512	1054.44
432.734	1096.44
432.956	1095.44
433.178	1084.44
433.4	1096.44
433.622	1121.44
433.844	1088.44
434.066	1095.44
434.287	1095.44
434.509	1108.44
434.731	1083.44
434.953	1111.44
435.175	1107.44
435.397	1140.44
435.618	1121.44
435.84	1078.44
436.062	1087.44
436.284	1109.44
436.505	1086.44
436.727	1083.44
436.949	1070.44
437.17	1074.44
437.392	1056.44
437.614	1058.44
437.835	1042.44
438.057	1031.44
438.278	1011.44
438.5	1045.44
438.721	1056.44
438.943	1091.44
439.165	1065.44
439.386	1094.44
439.608	1096.44
439.829	1126.44
440.05	1152.44
440.272	1172.44
440.493	1111.44
440.715	1108.44
440.936	1144.44
441.158	1170.44
441.379	1127.44
441.6	1178.44
441.822	1201.44
442.043	1269.44
442.264	1282.44
442.486	1186.44
442.707	1156.44
442.928	1186.44
443.149	1141.44
443.371	1178.44
443.592	1155.44
443.813	1150.44
444.034	1196.44
444.255	1202.44
444.476	1220.44
444.698	1265.44
444.919	1264.44
445.14	1302.44
445.361	1239.44
445.582	1195.44
445.803	1170.44
446.024	1160.44
446.245	1167.44
446.466	1156.44
446.687	1120.44
446.908	1132.44
447.129	1112.44
447.35	1105.44
447.571	1134.44
447.792	1055.44
448.013	1102.44
448.234	1088.44
448.455	1077.44
448.675	1092.44
448.896	1097.44
449.117	1138.44
449.338	1164.44
449.559	1188.44
449.779	1119.44
450	1108.44
450.221	1064.44
450.442	1061.44
450.662	1024.44
450.883	1009.44
451.104	1048.44
451.324	1037.44
451.545	1026.44
451.766	1036.44
451.986	1048.44
452.207	1108.44
452.428	1281.44
452.648	1670.44
452.869	1428.44
453.089	1166.44
453.31	1132.44
453.53	1112.44
453.751	1128.44
453.971	1173.44
454.192	1173.44
454.412	1080.44
454.633	1034.44
454.853	1010.44
455.073	983.44
455.294	972.44
455.514	987.44
455.734	983.44
455.955	986.44
456.175	986.44
456.395	966.44
456.616	983.44
456.836	1002.44
457.056	999.44
457.276	1002.44
457.497	1059.44
457.717	1052.44
457.937	1029.44
458.157	1030.44
458.377	1052.44
458.598	1034.44
458.818	1055.44
459.038	1063.44
459.258	1060.44
459.478	1056.44
459.698	1094.44
459.918	1123.44
460.138	1128.44
460.358	1150.44
460.578	1170.44
460.798	1178.44
461.018	1167.44
461.238	1152.44
461.458	1160.44
461.678	1166.44
461.898	1201.44
462.118	1217.44
462.338	1218.44
462.558	1249.44
462.777	1266.44
462.997	1265.44
463.217	1344.44
463.437	1387.44
463.657	1364.44
463.876	1379.44
464.096	1312.44
464.316	1238.44
464.536	1291.44
464.755	1257.44
464.975	1249.44
465.195	1140.44
465.414	1152.44
465.634	1127.44
465.854	1128.44
466.073	1101.44
466.293	1096.44
466.512	1074.44
466.732	1131.44
466.951	1120.44
467.171	1171.44
467.391	1160.44
467.61	1108.44
467.829	1081.44
468.049	1091.44
468.268	1048.44
468.488	1059.44
468.707	1052.44
468.927	1044.44
469.146	1054.44
469.365	1084.44
469.585	1080.44
469.804	1080.44
470.023	1108.44
470.243	1126.44
470.462	1121.44
470.681	1184.44
470.901	1251.44
471.12	1406.44
471.339	1422.44
471.558	1237.44
471.777	1168.44
471.997	1080.44
472.216	1094.44
472.435	1058.44
472.654	1055.44
472.873	1052.44
473.092	1038.44
473.311	1078.44
473.53	1090.44
473.749	1096.44
473.968	1113.44
474.187	1082.44
474.406	1090.44
474.625	1059.44
474.844	1085.44
475.063	1069.44
475.282	1054.44
475.501	1057.44
475.72	1071.44
475.939	1087.44
476.158	1111.44
476.377	1091.44
476.596	1094.44
476.814	1112.44
477.033	1099.44
477.252	1129.44
477.471	1144.44
477.69	1180.44
477.908	1202.44
478.127	1208.44
478.346	1234.44
478.564	1236.44
478.783	1218.44
479.002	1243.44
479.22	1264.44
479.439	1273.44
479.658	1252.44
479.876	1251.44
480.095	1268.44
480.313	1305.44
480.532	1328.44
480.751	1293.44
480.969	1258.44
481.188	1276.44
481.406	1247.44
481.624	1241.44
481.843	1238.44
482.061	1258.44
482.28	1298.44
482.498	1277.44
482.717	1271.44
482.935	1283.44
483.153	1308.44
483.372	1359.44
483.59	1351.44
483.808	1331.44
484.027	1347.44
484.245	1416.44
484.463	1556.44
484.681	1687.44
484.9	1550.44
485.118	1460.44
485.336	1455.44
485.554	1487.44
485.772	1546.44
485.99	1674.44
486.209	1819.44
486.427	1555.44
486.645	1450.44
486.863	1394.44
487.081	1376.44
487.299	1362.44
487.517	1350.44
487.735	1370.44
487.953	1414.44
488.171	1369.44
488.389	1380.44
488.607	1363.44
488.825	1335.44
489.043	1300.44
489.261	1312.44
489.479	1359.44
489.696	1315.44
489.914	1329.44
490.132	1316.44
490.35	1333.44
490.568	1370.44
490.786	1357.44
491.003	1402.44
491.221	1404.44
491.439	1384.44
491.657	1378.44
491.874	1420.44
492.092	1442.44
492.31	1458.44
492.527	1446.44
492.745	1451.44
492.963	1433.44
493.18	1419.44
493.398	1420.44
493.615	1447.44
493.833	1422.44
494.05	1465.44
494.268	1424.44
494.485	1432.44
494.703	1415.44
494.92	1386.44
495.138	1446.44
495.355	1433.44
495.573	1429.44
495.79	1436.44
496.008	1439.44
496.225	1442.44
496.442	1463.44
496.66	1459.44
496.877	1514.44
497.094	1522.44
497.312	1522.44
497.529	1555.44
497.746	1507.44
497.963	1525.44
498.181	1521.44
498.398	1555.44
498.615	1651.44
498.832	1687.44
499.049	1769.44
499.267	1860.44
499.484	2002.44
499.701	2030.44
499.918	2188.44
500.135	2270.44
500.352	2391.44
500.569	2396.44
500.786	2365.44
501.003	2267.44
501.22	2227.44
501.437	2060.44
501.654	1942.44
501.871	1876.44
502.088	1779.44
502.305	1727.44
502.522	1628.44
502.739	1612.44
502.956	1576.44
503.172	1550.44
503.389	1491.44
503.606	1487.44
503.823	1469.44
504.04	1450.44
504.256	1472.44
504.473	1460.44
504.69	1443.44
504.907	1438.44
505.123	1376.44
505.34	1361.44
505.557	1356.44
505.773	1319.44
505.99	1303.44
506.207	1272.44
506.423	1245.44
506.64	1247.44
506.856	1262.44
507.073	1254.44
507.289	1211.44
507.506	1207.44
507.722	1204.44
507.939	1227.44
508.155	1216.44
508.372	1185.44
508.588	1214.44
508.805	1189.44
509.021	1205.44
509.238	1192.44
509.454	1230.44
509.67	1299.44
509.887	1250.44
510.103	1178.44
510.319	1175.44
510.536	1192.44
510.752	1183.44
510.968	1156.44
511.184	1145.44
511.401	1143.44
511.617	1172.44
511.833	1181.44
512.049	1162.44
512.265	1146.44
512.481	1153.44
512.698	1139.44
512.914	1142.44
513.13	1140.44
513.346	1132.44
513.562	1164.44
513.778	1155.44
513.994	1178.44
514.21	1177.44
514.426	1247.44
514.642	1254.44
514.858	1203.44
515.074	1185.44
515.29	1169.44
515.506	1166.44
515.721	1182.44
515.937	1182.44
516.153	1189.44
516.369	1192.44
516.585	1178.44
516.801	1206.44
517.016	1241.44
517.232	1272.44
517.448	1298.44
517.664	1295.44
517.879	1333.44
518.095	1310.44
518.311	1330.44
518.527	1262.44
518.742	1250.44
518.958	1246.44
519.173	1271.44
519.389	1248.44
519.605	1181.44
519.82	1170.44
520.036	1179.44
520.251	1167.44
520.467	1129.44
520.682	1160.44
520.898	1135.44
521.113	1113.44
521.329	1142.44
521.544	1097.44
521.76	1147.44
521.975	1110.44
522.19	1130.44
522.406	1108.44
522.621	1123.44
522.836	1125.44
523.052	1128.44
523.267	1134.44
523.482	1086.44
523.698	1117.44
523.913	1119.44
524.128	1111.44
524.343	1100.44
524.559	1091.44
524.774	1105.44
524.989	1110.44
525.204	1083.44
525.419	1101.44
525.634	1081.44
525.849	1065.44
526.064	1128.44
526.28	1099.44
526.495	1090.44
526.71	1095.44
526.925	1099.44
527.14	1084.44
527.355	1090.44
527.57	1104.44
527.785	1123.44
527.999	1120.44
528.214	1127.44
528.429	1174.44
528.644	1164.44
528.859	1177.44
529.074	1182.44
529.289	1204.44
529.503	1204.44
529.718	1195.44
529.933	1200.44
530.148	1164.44
530.363	1182.44
530.577	1162.44
530.792	1171.44
531.007	1158.44
531.221	1170.44
531.436	1151.44
531.651	1180.44
531.865	1187.44
532.08	1215.44
532.295	1223.44
532.509	1282.44
532.724	1264.44
532.938	1259.44
533.153	1314.44
533.367	1374.44
533.582	1411.44
533.796	1430.44
534.011	1373.44
534.225	1353.44
534.44	1287.44
534.654	1304.44
534.868	1296.44
535.083	1299.44
535.297	1309.44
535.511	1248.44
535.726	1238.44
535.94	1207.44
536.154	1193.44
536.369	1176.44
536.583	1161.44
536.797	1170.44
537.011	1139.44
537.225	1156.44
537.44	1148.44
537.654	1129.44
537.868	1142.44
538.082	1113.44
538.296	1107.44
538.51	1080.44
538.724	1078.44
538.938	1103.44
539.153	1100.44
539.367	1090.44
539.581	1103.44
539.795	1080.44
540.009	1072.44
540.222	1056.44
540.436	1072.44
540.65	1070.44
540.864	1095.44
541.078	1134.44
541.292	1156.44
541.506	1318.44
541.72	1348.44
541.934	1228.44
542.147	1169.44
542.361	1141.44
542.575	1119.44
542.789	1098.44
543.002	1026.44
543.216	1046.44
543.43	1034.44
543.644	1000.44
543.857	1034.44
544.071	1070.44
544.285	1091.44
544.498	1034.44
544.712	1081.44
544.925	1067.44
545.139	1067.44
545.352	1066.44
545.566	1084.44
545.779	1066.44
545.993	1065.44
546.206	1084.44
546.42	1074.44
546.633	1068.44
546.847	1104.44
547.06	1088.44
547.274	1085.44
547.487	1122.44
547.7	1121.44
547.914	1095.44
548.127	1081.44
548.34	1104.44
548.554	1084.44
548.767	1114.44
548.98	1090.44
549.193	1094.44
549.407	1067.44
549.62	1089.44
549.833	1087.44
550.046	1085.44
550.259	1083.44
550.473	1082.44
550.686	1081.44
550.899	1086.44
551.112	1095.44
551.325	1063.44
551.538	1071.44
551.751	1052.44
551.964	1048.44
552.177	1080.44
552.39	1097.44
552.603	1119.44
552.816	1136.44
553.029	1132.44
553.242	1130.44
553.455	1171.44
553.667	1192.44
553.88	1174.44
554.093	1161.44
554.306	1200.44
554.519	1176.44
554.732	1211.44
554.944	1236.44
555.157	1226.44
555.37	1225.44
555.583	1284.44
555.795	1318.44
556.008	1375.44
556.221	1452.44
556.433	1523.44
556.646	1512.44
556.859	1495.44
557.071	1460.44
557.284	1470.44
557.496	1438.44
557.709	1417.44
557.921	1433.44
558.134	1442.44
558.346	1423.44
558.559	1453.44
558.771	1522.44
558.984	1585.44
559.196	1613.44
559.409	1585.44
559.621	1544.44
559.833	1455.44
560.046	1394.44
560.258	1347.44
560.47	1338.44
560.683	1254.44
560.895	1234.44
561.107	1200.44
561.32	1146.44
561.532	1159.44
561.744	1164.44
561.956	1124.44
562.168	1111.44
562.381	1088.44
562.593	1090.44
562.805	1081.44
563.017	1101.44
563.229	1103.44
563.441	1150.44
563.653	1040.44
563.865	1034.44
564.077	1010.44
564.289	989.44
564.501	999.44
564.713	1000.44
564.925	990.44
565.137	977.44
565.349	992.44
565.561	990.44
565.773	984.44
565.985	999.44
566.197	1014.44
566.408	1028.44
566.62	1054.44
566.832	1087.44
567.044	1113.44
567.255	1066.44
567.467	1114.44
567.679	1119.44
567.891	1198.44
568.102	1268.44
568.314	1427.44
568.526	1238.44
568.737	1095.44
568.949	1028.44
569.161	973.44
569.372	932.44
569.584	910.44
569.795	883.44
570.007	853.44
570.218	889.44
570.43	890.44
570.641	859.44
570.853	848.44
571.064	845.44
571.276	839.44
571.487	788.44
571.698	809.44
571.91	828.44
572.121	779.44
572.333	787.44
572.544	759.44
572.755	811.44
572.966	889.44
573.178	832.44
573.389	790.44
573.6	760.44
573.811	721.44
574.023	756.44
574.234	751.44
574.445	752.44
574.656	734.44
574.867	732.44
575.078	706.44
575.289	716.44
575.501	727.44
575.712	716.44
575.923	727.44
576.134	706.44
576.345	723.44
576.556	706.44
576.767	709.44
576.978	708.44
577.188	720.44
577.399	766.44
577.61	746.44
577.821	731.44
578.032	736.44
578.243	732.44
578.454	739.44
578.665	783.44
578.875	779.44
579.086	810.44
579.297	831.44
579.508	857.44
579.718	885.44
579.929	970.44
580.14	1074.44
580.35	1099.44
580.561	1057.44
580.772	984.44
580.982	949.44
581.193	907.44
581.403	878.44
581.614	826.44
581.825	809.44
582.035	814.44
582.246	800.44
582.456	739.44
582.667	732.44
582.877	716.44
583.087	718.44
583.298	694.44
583.508	679.44
583.719	672.44
583.929	647.44
584.139	616.44
584.35	626.44
584.56	642.44
584.77	602.44
584.981	642.44
585.191	626.44
585.401	615.44
585.611	616.44
585.821	577.44
586.032	581.44
586.242	586.44
586.452	591.44
586.662	548.44
586.872	589.44
587.082	555.44
587.292	538.44
587.502	548.44
587.713	531.44
587.923	539.44
588.133	528.44
588.343	542.44
588.553	530.44
588.762	547.44
588.972	526.44
589.182	544.44
589.392	533.44
589.602	519.44
589.812	544.44
590.022	513.44
590.232	531.44
590.441	516.44
590.651	495.44
590.861	512.44
591.071	516.44
591.281	502.44
591.49	520.44
591.7	519.44
591.91	520.44
592.119	515.44
592.329	513.44
592.539	520.44
592.748	532.44
592.958	534.44
593.167	522.44
593.377	560.44
593.587	553.44
593.796	521.44
594.006	533.44
594.215	548.44
594.424	539.44
594.634	543.44
594.843	519.44
595.053	514.44
595.262	517.44
595.472	499.44
595.681	510.44
595.89	482.44
596.1	491.44
596.309	487.44
596.518	480.44
596.727	486.44
596.937	464.44
597.146	445.44
597.355	478.44
597.564	456.44
597.774	457.44
597.983	460.44
598.192	430.44
598.401	432.44
598.61	442.44
598.819	455.44
599.028	449.44
599.237	426.44
599.446	417.44
599.655	450.44
599.864	419.44
600.073	427.44
600.282	442.44
600.491	418.44
600.7	431.44
600.909	437.44
601.118	426.44
601.327	435.44
601.536	443.44
601.745	425.44
601.953	497.44
602.162	531.44
602.371	474.44
602.58	440.44
602.789	430.44
602.997	428.44
603.206	424.44
603.415	420.44
603.623	424.44
603.832	437.44
604.041	428.44
604.249	392.44
604.458	406.44
604.666	405.44
604.875	421.44
605.084	394.44
605.292	410.44
605.501	408.44
605.709	416.44
605.918	422.44
606.126	405.44
606.334	435.44
606.543	425.44
606.751	439.44
606.96	481.44
607.168	534.44
607.376	481.44
607.585	422.44
607.793	417.44
608.001	425.44
608.21	424.44
608.418	415.44
608.626	402.44
608.834	419.44
609.043	414.44
609.251	403.44
609.459	414.44
609.667	397.44
609.875	376.44
610.083	402.44
610.291	398.44
610.499	401.44
610.707	377.44
610.916	388.44
611.124	386.44
611.332	390.44
611.54	387.44
611.748	390.44
611.955	387.44
612.163	370.44
612.371	376.44
612.579	391.44
612.787	391.44
612.995	383.44
613.203	394.44
613.411	389.44
613.618	364.44
613.826	390.44
614.034	366.44
614.242	388.44
614.449	381.44
614.657	393.44
614.865	390.44
615.072	380.44
615.28	375.44
615.488	374.44
615.695	372.44
615.903	395.44
616.111	368.44
616.318	384.44
616.526	377.44
616.733	368.44
616.941	376.44
617.148	374.44
617.356	369.44
617.563	385.44
617.771	390.44
617.978	359.44
618.185	347.44
618.393	375.44
618.6	367.44
618.807	361.44
619.015	345.44
619.222	356.44
619.429	344.44
619.637	344.44
619.844	354.44
620.051	344.44
620.258	370.44
620.466	351.44
620.673	342.44
620.88	330.44
621.087	351.44
621.294	350.44
621.501	343.44
621.708	334.44
621.915	349.44
622.122	340.44
622.329	337.44
622.536	357.44
622.743	348.44
622.95	344.44
623.157	340.44
623.364	351.44
623.571	328.44
623.778	336.44
623.985	315.44
624.192	335.44
624.399	324.44
624.606	328.44
624.812	342.44
625.019	338.44
625.226	318.44
625.433	322.44
625.639	309.44
625.846	318.44
626.053	310.44
626.259	308.44
626.466	330.44
626.673	318.44
626.879	298.44
627.086	307.44
627.293	313.44
627.499	322.44
627.706	322.44
627.912	332.44
628.119	293.44
628.325	328.44
628.532	314.44
628.738	298.44
628.945	299.44
629.151	318.44
629.357	296.44
629.564	298.44
629.77	306.44
629.976	304.44
630.183	300.44
630.389	297.44
630.595	295.44
630.802	308.44
631.008	311.44
631.214	296.44
631.42	302.44
631.627	289.44
631.833	298.44
632.039	287.44
632.245	291.44
632.451	285.44
632.657	307.44
632.863	307.44
633.069	291.44
633.275	291.44
633.481	284.44
633.688	282.44
633.893	304.44
634.099	291.44
634.305	302.44
634.511	304.44
634.717	274.44
634.923	315.44
635.129	323.44
635.335	343.44
635.541	322.44
635.747	314.44
635.952	298.44
636.158	304.44
636.364	312.44
636.57	292.44
636.775	295.44
636.981	277.44
637.187	290.44
637.392	285.44
637.598	291.44
637.804	291.44
638.009	296.44
638.215	292.44
638.421	284.44
638.626	296.44
638.832	310.44
639.037	309.44
639.243	297.44
639.448	304.44
639.654	282.44
639.859	287.44
640.065	297.44
640.27	291.44
640.475	296.44
640.681	299.44
640.886	316.44
641.091	296.44
641.297	331.44
641.502	299.44
641.707	315.44
641.913	324.44
642.118	313.44
642.323	322.44
642.528	330.44
642.733	316.44
642.939	342.44
643.144	339.44
643.349	358.44
643.554	362.44
643.759	352.44
643.964	385.44
644.169	396.44
644.374	410.44
644.579	420.44
644.784	455.44
644.989	520.44
645.194	580.44
645.399	642.44
645.604	650.44
645.809	533.44
646.014	455.44
646.219	396.44
646.423	372.44
646.628	345.44
646.833	328.44
647.038	327.44
647.243	315.44
647.447	297.44
647.652	300.44
647.857	296.44
648.062	284.44
648.266	284.44
648.471	291.44
648.676	280.44
648.88	286.44
649.085	245.44
649.289	254.44
649.494	263.44
649.698	249.44
649.903	249.44
650.107	248.44
650.312	231.44
650.516	230.44
650.721	246.44
650.925	223.44
651.13	231.44
651.334	230.44
651.539	224.44
651.743	218.44
651.947	227.44
652.152	214.44
652.356	219.44
652.56	228.44
652.764	252.44
652.969	231.44
653.173	220.44
653.377	209.44
653.581	200.44
653.785	204.44
653.99	193.44
654.194	212.44
654.398	187.44
654.602	194.44
654.806	184.44
655.01	202.44
655.214	201.44
655.418	201.44
655.622	210.44
655.826	204.44
656.03	224.44
656.234	227.44
656.438	229.44
656.642	220.44
656.846	211.44
657.049	207.44
657.253	185.44
657.457	166.44
657.661	177.44
657.865	169.44
658.068	156.44
658.272	144.44
658.476	139.44
658.68	146.44
658.883	140.44
659.087	133.44
659.291	139.44
659.494	140.44
659.698	132.44
659.901	120.44
660.105	123.44
660.309	109.44
660.512	112.44
660.716	109.44
660.919	119.44
661.123	98.44
661.326	103.44
661.53	89.44
661.733	96.44
661.936	90.44
662.14	94.44
662.343	87.44
662.546	96.44
662.75	94.44
662.953	86.44
663.156	87.44
663.36	83.44
663.563	86.44
663.766	84.44
663.969	83.44
664.173	80.44
664.376	78.44
664.579	73.44
664.782	84.44
664.985	84.44
665.188	81.44
665.391	91.44
665.594	74.44
665.797	69.44
666	82.44
666.203	84.44
666.406	84.44
666.609	81.44
666.812	93.44
667.015	83.44
667.218	85.44
667.421	76.44
667.624	74.44
667.827	84.44
668.03	82.44
668.232	86.44
668.435	76.44
668.638	74.44
668.841	79.44
669.043	76.44
669.246	80.44
669.449	74.44
669.651	78.44
669.854	77.44
670.057	82.44
670.259	79.44
670.462	98.44
670.665	76.44
670.867	82.44
671.07	71.44
671.272	87.44
671.475	76.44
671.677	83.44
671.88	78.44
672.082	73.44
672.284	82.44
672.487	79.44
672.689	81.44
672.892	79.44
