Data from SnStandardFlinnAPT0064_LampEnergy10_LIBS07252019.E.O._I.C._HRD10591_15-21-35-494.txt Node
Date: Thu Jul 25 15:21:35 EDT 2019
User: cochatt
Spectrometer: HR+D1059
Trigger mode: 1
Integration Time (sec): 1.000000E-1
Scans to average: 1
Electric dark correction enabled: true
Nonlinearity correction enabled: false
Boxcar width: 0
XAxis mode: Wavelengths
Number of Pixels in Spectrum: 2048
>>>>>Begin Spectral Data<<<<<
223.165	-14.06
223.4	-14.06
223.635	-14.06
223.869	-24.06
224.104	-21.06
224.338	-7.06
224.573	-9.06
224.808	-9.06
225.042	-11.06
225.277	-12.06
225.511	-0.06
225.746	0.94
225.98	2.94
226.215	5.94
226.449	11.94
226.683	24.94
226.918	31.94
227.152	28.94
227.387	38.94
227.621	44.94
227.856	48.94
228.09	38.94
228.324	45.94
228.559	50.94
228.793	120.94
229.027	302.94
229.262	343.94
229.496	308.94
229.73	295.94
229.964	295.94
230.199	292.94
230.433	300.94
230.667	308.94
230.901	311.94
231.136	329.94
231.37	361.94
231.604	369.94
231.838	452.94
232.072	522.94
232.306	554.94
232.541	459.94
232.775	391.94
233.009	417.94
233.243	423.94
233.477	448.94
233.711	515.94
233.945	561.94
234.179	503.94
234.413	434.94
234.647	468.94
234.881	476.94
235.115	491.94
235.349	619.94
235.583	735.94
235.817	994.94
236.051	978.94
236.285	673.94
236.519	547.94
236.753	507.94
236.987	498.94
237.221	537.94
237.455	511.94
237.689	465.94
237.922	476.94
238.156	481.94
238.39	471.94
238.624	502.94
238.858	486.94
239.091	485.94
239.325	503.94
239.559	493.94
239.793	485.94
240.027	509.94
240.26	537.94
240.494	543.94
240.728	573.94
240.961	609.94
241.195	663.94
241.429	676.94
241.662	693.94
241.896	774.94
242.13	941.94
242.363	1232.94
242.597	1609.94
242.83	1526.94
243.064	1497.94
243.298	1748.94
243.531	1504.94
243.765	964.94
243.998	775.94
244.232	694.94
244.465	674.94
244.699	644.94
244.932	627.94
245.166	656.94
245.399	676.94
245.633	694.94
245.866	696.94
246.099	683.94
246.333	661.94
246.566	654.94
246.8	641.94
247.033	641.94
247.266	624.94
247.5	652.94
247.733	682.94
247.966	693.94
248.2	761.94
248.433	855.94
248.666	974.94
248.899	949.94
249.133	861.94
249.366	871.94
249.599	923.94
249.832	1111.94
250.066	1075.94
250.299	876.94
250.532	781.94
250.765	759.94
250.998	729.94
251.231	730.94
251.465	771.94
251.698	738.94
251.931	725.94
252.164	736.94
252.397	760.94
252.63	767.94
252.863	793.94
253.096	788.94
253.329	808.94
253.562	761.94
253.795	802.94
254.028	825.94
254.261	833.94
254.494	879.94
254.727	1029.94
254.96	1221.94
255.193	1217.94
255.426	931.94
255.659	853.94
255.892	878.94
256.124	868.94
256.357	891.94
256.59	905.94
256.823	975.94
257.056	1104.94
257.289	1311.94
257.521	1486.94
257.754	1201.94
257.987	940.94
258.22	915.94
258.452	934.94
258.685	923.94
258.918	940.94
259.151	1012.94
259.383	1089.94
259.616	1197.94
259.849	1266.94
260.081	1091.94
260.314	994.94
260.547	972.94
260.779	925.94
261.012	979.94
261.244	956.94
261.477	991.94
261.71	994.94
261.942	1023.94
262.175	1013.94
262.407	1058.94
262.64	1068.94
262.872	1139.94
263.105	1137.94
263.337	1207.94
263.57	1263.94
263.802	1270.94
264.035	1310.94
264.267	1355.94
264.499	1372.94
264.732	1431.94
264.964	1441.94
265.197	1473.94
265.429	1446.94
265.661	1490.94
265.894	1558.94
266.126	1767.94
266.358	1954.94
266.591	1910.94
266.823	1631.94
267.055	1441.94
267.287	1371.94
267.52	1300.94
267.752	1316.94
267.984	1291.94
268.216	1265.94
268.448	1247.94
268.681	1233.94
268.913	1228.94
269.145	1226.94
269.377	1196.94
269.609	1246.94
269.841	1276.94
270.073	1383.94
270.306	1585.94
270.538	2167.94
270.77	3231.94
271.002	3889.94
271.234	2752.94
271.466	1850.94
271.698	1537.94
271.93	1379.94
272.162	1321.94
272.394	1279.94
272.626	1256.94
272.858	1219.94
273.09	1240.94
273.322	1226.94
273.553	1203.94
273.785	1197.94
274.017	1202.94
274.249	1196.94
274.481	1189.94
274.713	1180.94
274.945	1181.94
275.176	1225.94
275.408	1216.94
275.64	1233.94
275.872	1221.94
276.104	1218.94
276.335	1251.94
276.567	1268.94
276.799	1244.94
277.031	1310.94
277.262	1302.94
277.494	1386.94
277.726	1562.94
277.957	1847.94
278.189	2093.94
278.421	1974.94
278.652	1746.94
278.884	1684.94
279.115	1500.94
279.347	1437.94
279.579	1427.94
279.81	1396.94
280.042	1357.94
280.273	1389.94
280.505	1437.94
280.736	1499.94
280.968	1561.94
281.199	1728.94
281.431	2026.94
281.662	2080.94
281.894	1761.94
282.125	1636.94
282.356	1653.94
282.588	1658.94
282.819	1664.94
283.051	1787.94
283.282	1998.94
283.513	2441.94
283.745	3685.94
283.976	5574.94
284.207	7924.94
284.439	7215.94
284.67	4497.94
284.901	3656.94
285.132	3682.94
285.364	3530.94
285.595	2707.94
285.826	2419.94
286.057	2803.94
286.288	3839.94
286.52	5114.94
286.751	4787.94
286.982	3029.94
287.213	2251.94
287.444	1995.94
287.675	1869.94
287.906	1785.94
288.138	1713.94
288.369	1692.94
288.6	1663.94
288.831	1695.94
289.062	1650.94
289.293	1682.94
289.524	1675.94
289.755	1688.94
289.986	1717.94
290.217	1703.94
290.448	1720.94
290.679	1725.94
290.91	1770.94
291.141	1889.94
291.371	2037.94
291.602	2089.94
291.833	1889.94
292.064	1733.94
292.295	1656.94
292.526	1613.94
292.757	1599.94
292.987	1602.94
293.218	1573.94
293.449	1605.94
293.68	1603.94
293.91	1574.94
294.141	1550.94
294.372	1552.94
294.603	1538.94
294.833	1560.94
295.064	1569.94
295.295	1552.94
295.525	1551.94
295.756	1553.94
295.987	1559.94
296.217	1600.94
296.448	1612.94
296.679	1580.94
296.909	1567.94
297.14	1572.94
297.37	1627.94
297.601	1631.94
297.831	1632.94
298.062	1624.94
298.292	1623.94
298.523	1676.94
298.753	1687.94
298.984	1692.94
299.214	1739.94
299.445	1755.94
299.675	1725.94
299.905	1833.94
300.136	1889.94
300.366	2107.94
300.597	2687.94
300.827	3739.94
301.057	5165.94
301.288	5121.94
301.518	3315.94
301.748	2569.94
301.979	2363.94
302.209	2269.94
302.439	2294.94
302.669	2391.94
302.9	2961.94
303.13	4089.94
303.36	6125.94
303.59	8139.94
303.82	7011.94
304.051	4164.94
304.281	2942.94
304.511	2529.94
304.741	2274.94
304.971	2167.94
305.201	2066.94
305.431	1941.94
305.661	1936.94
305.891	1892.94
306.121	1881.94
306.352	1871.94
306.582	1848.94
306.812	1855.94
307.042	1845.94
307.272	1841.94
307.502	1799.94
307.731	1841.94
307.961	1778.94
308.191	1790.94
308.421	1807.94
308.651	1844.94
308.881	1796.94
309.111	1798.94
309.341	1837.94
309.571	1845.94
309.8	1840.94
310.03	1853.94
310.26	1862.94
310.49	1859.94
310.72	1900.94
310.949	1852.94
311.179	1884.94
311.409	1907.94
311.639	1895.94
311.868	1898.94
312.098	1932.94
312.328	1941.94
312.557	1975.94
312.787	1937.94
313.017	1915.94
313.246	1980.94
313.476	1997.94
313.706	2121.94
313.935	2210.94
314.165	2351.94
314.394	2499.94
314.624	2379.94
314.853	2168.94
315.083	2135.94
315.312	2194.94
315.542	2142.94
315.771	2132.94
316.001	2264.94
316.23	2340.94
316.46	2397.94
316.689	2641.94
316.919	3174.94
317.148	4620.94
317.377	6969.94
317.607	10292.94
317.836	10693.94
318.065	6465.94
318.295	4211.94
318.524	3386.94
318.753	2940.94
318.983	2694.94
319.212	2569.94
319.441	2447.94
319.67	2410.94
319.9	2381.94
320.129	2356.94
320.358	2313.94
320.587	2318.94
320.816	2372.94
321.046	2314.94
321.275	2388.94
321.504	2382.94
321.733	2407.94
321.962	2492.94
322.191	2505.94
322.42	2459.94
322.649	2491.94
322.878	2504.94
323.108	2474.94
323.337	2539.94
323.566	2521.94
323.795	2574.94
324.024	2623.94
324.253	2735.94
324.482	2790.94
324.71	2947.94
324.939	3164.94
325.168	3247.94
325.397	3363.94
325.626	3980.94
325.855	5519.94
326.084	8615.94
326.313	12537.94
326.542	13301.94
326.77	8989.94
326.999	5854.94
327.228	4927.94
327.457	4732.94
327.686	4717.94
327.914	5144.94
328.143	6005.94
328.372	7214.94
328.6	7803.94
328.829	7045.94
329.058	5779.94
329.287	5071.94
329.515	4621.94
329.744	4260.94
329.972	4047.94
330.201	3876.94
330.43	3674.94
330.658	3638.94
330.887	3544.94
331.115	3455.94
331.344	3458.94
331.572	3479.94
331.801	3504.94
332.03	3485.94
332.258	3511.94
332.486	3772.94
332.715	4294.94
332.943	5298.94
333.172	6519.94
333.4	6409.94
333.629	4912.94
333.857	4442.94
334.085	4462.94
334.314	4752.94
334.542	5148.94
334.771	6108.94
334.999	7549.94
335.227	9448.94
335.455	10606.94
335.684	9499.94
335.912	7652.94
336.14	6492.94
336.369	5683.94
336.597	5181.94
336.825	4726.94
337.053	4538.94
337.281	4301.94
337.51	4012.94
337.738	3919.94
337.966	3659.94
338.194	3516.94
338.422	3448.94
338.65	3381.94
338.878	3333.94
339.106	3254.94
339.334	3261.94
339.562	3161.94
339.79	3096.94
340.018	3080.94
340.246	3045.94
340.474	3035.94
340.702	2993.94
340.93	3027.94
341.158	3056.94
341.386	2965.94
341.614	2974.94
341.842	2941.94
342.07	2867.94
342.298	2826.94
342.526	2804.94
342.754	2756.94
342.981	2709.94
343.209	2682.94
343.437	2741.94
343.665	2785.94
343.893	2825.94
344.12	2820.94
344.348	2740.94
344.576	2719.94
344.804	2703.94
345.031	2661.94
345.259	2607.94
345.487	2596.94
345.714	2578.94
345.942	2604.94
346.17	2545.94
346.397	2564.94
346.625	2504.94
346.853	2483.94
347.08	2515.94
347.308	2505.94
347.535	2530.94
347.763	2503.94
347.99	2517.94
348.218	2472.94
348.445	2469.94
348.673	2460.94
348.9	2465.94
349.128	2452.94
349.355	2458.94
349.583	2426.94
349.81	2446.94
350.037	2395.94
350.265	2391.94
350.492	2349.94
350.72	2400.94
350.947	2387.94
351.174	2400.94
351.402	2411.94
351.629	2434.94
351.856	2391.94
352.083	2385.94
352.311	2348.94
352.538	2403.94
352.765	2402.94
352.992	2410.94
353.22	2338.94
353.447	2376.94
353.674	2339.94
353.901	2451.94
354.128	2412.94
354.355	2390.94
354.583	2425.94
354.81	2454.94
355.037	2506.94
355.264	2431.94
355.491	2440.94
355.718	2423.94
355.945	2412.94
356.172	2448.94
356.399	2436.94
356.626	2492.94
356.853	2493.94
357.08	2516.94
357.307	2572.94
357.534	2619.94
357.761	2598.94
357.988	2588.94
358.215	2540.94
358.441	2548.94
358.668	2507.94
358.895	2543.94
359.122	2528.94
359.349	2531.94
359.576	2580.94
359.802	2526.94
360.029	2529.94
360.256	2548.94
360.483	2545.94
360.709	2581.94
360.936	2566.94
361.163	2540.94
361.39	2545.94
361.616	2603.94
361.843	2599.94
362.07	2587.94
362.296	2587.94
362.523	2567.94
362.749	2596.94
362.976	2528.94
363.203	2557.94
363.429	2487.94
363.656	2563.94
363.882	2541.94
364.109	2517.94
364.335	2538.94
364.562	2550.94
364.788	2564.94
365.015	2579.94
365.241	2637.94
365.468	2829.94
365.694	2951.94
365.92	2825.94
366.147	2626.94
366.373	2574.94
366.599	2612.94
366.826	2641.94
367.052	2628.94
367.278	2611.94
367.505	2564.94
367.731	2661.94
367.957	2599.94
368.184	2612.94
368.41	2675.94
368.636	2647.94
368.862	2671.94
369.089	2617.94
369.315	2688.94
369.541	2653.94
369.767	2673.94
369.993	2674.94
370.219	2605.94
370.445	2671.94
370.672	2691.94
370.898	2648.94
371.124	2684.94
371.35	2706.94
371.576	2754.94
371.802	2747.94
372.028	2784.94
372.254	2781.94
372.48	2790.94
372.706	2760.94
372.932	2747.94
373.158	2818.94
373.384	2806.94
373.61	2789.94
373.835	2839.94
374.061	2821.94
374.287	2812.94
374.513	2840.94
374.739	2858.94
374.965	2920.94
375.191	2914.94
375.416	2917.94
375.642	2853.94
375.868	2826.94
376.094	2837.94
376.319	2810.94
376.545	2819.94
376.771	2798.94
376.997	2743.94
377.222	2791.94
377.448	2788.94
377.674	2801.94
377.899	2757.94
378.125	2745.94
378.35	2717.94
378.576	2729.94
378.802	2787.94
379.027	2832.94
379.253	2892.94
379.478	3034.94
379.704	3555.94
379.929	5087.94
380.155	7786.94
380.38	8417.94
380.606	5179.94
380.831	3659.94
381.057	3219.94
381.282	2986.94
381.507	2860.94
381.733	2804.94
381.958	2803.94
382.184	2741.94
382.409	2700.94
382.634	2727.94
382.86	2667.94
383.085	2673.94
383.31	2697.94
383.535	2692.94
383.761	2712.94
383.986	2755.94
384.211	2717.94
384.436	2773.94
384.662	2760.94
384.887	2798.94
385.112	2804.94
385.337	2779.94
385.562	2780.94
385.787	2817.94
386.013	2820.94
386.238	2818.94
386.463	2840.94
386.688	2780.94
386.913	2767.94
387.138	2792.94
387.363	2810.94
387.588	2757.94
387.813	2746.94
388.038	2713.94
388.263	2765.94
388.488	2779.94
388.713	2783.94
388.938	2785.94
389.163	2760.94
389.387	2801.94
389.612	2772.94
389.837	2777.94
390.062	2787.94
390.287	2839.94
390.512	2785.94
390.736	2839.94
390.961	2869.94
391.186	2874.94
391.411	2903.94
391.636	2915.94
391.86	2975.94
392.085	2927.94
392.31	2904.94
392.534	2860.94
392.759	2855.94
392.984	2840.94
393.208	2841.94
393.433	2871.94
393.658	2775.94
393.882	2804.94
394.107	2790.94
394.331	2823.94
394.556	2818.94
394.78	2856.94
395.005	2852.94
395.229	2853.94
395.454	2874.94
395.678	2904.94
395.903	2857.94
396.127	2903.94
396.352	2861.94
396.576	2873.94
396.801	2859.94
397.025	2916.94
397.249	2925.94
397.474	2931.94
397.698	2887.94
397.922	2925.94
398.147	2949.94
398.371	3028.94
398.595	3081.94
398.82	3078.94
399.044	3175.94
399.268	3302.94
399.492	3525.94
399.717	3681.94
399.941	3697.94
400.165	3527.94
400.389	3415.94
400.613	3269.94
400.837	3182.94
401.062	3119.94
401.286	3121.94
401.51	3063.94
401.734	2997.94
401.958	3091.94
402.182	3052.94
402.406	3016.94
402.63	3103.94
402.854	3099.94
403.078	3071.94
403.302	3130.94
403.526	3178.94
403.75	3196.94
403.974	3175.94
404.198	3106.94
404.422	3173.94
404.645	3134.94
404.869	3193.94
405.093	3192.94
405.317	3162.94
405.541	3240.94
405.765	3265.94
405.988	3286.94
406.212	3295.94
406.436	3295.94
406.66	3280.94
406.883	3271.94
407.107	3365.94
407.331	3439.94
407.555	3519.94
407.778	3456.94
408.002	3427.94
408.226	3394.94
408.449	3412.94
408.673	3336.94
408.896	3286.94
409.12	3270.94
409.344	3200.94
409.567	3219.94
409.791	3199.94
410.014	3157.94
410.238	3178.94
410.461	3192.94
410.685	3131.94
410.908	3075.94
411.132	3108.94
411.355	3015.94
411.578	3037.94
411.802	3040.94
412.025	3028.94
412.249	3049.94
412.472	3073.94
412.695	3036.94
412.919	2978.94
413.142	2985.94
413.365	2973.94
413.589	3008.94
413.812	2983.94
414.035	2987.94
414.258	3006.94
414.482	3003.94
414.705	2983.94
414.928	3018.94
415.151	2998.94
415.374	3027.94
415.597	2973.94
415.821	2871.94
416.044	2844.94
416.267	2865.94
416.49	2843.94
416.713	2842.94
416.936	2868.94
417.159	2870.94
417.382	2882.94
417.605	2836.94
417.828	2871.94
418.051	2900.94
418.274	2926.94
418.497	2897.94
418.72	2961.94
418.943	2944.94
419.166	3050.94
419.389	3205.94
419.611	3131.94
419.834	3026.94
420.057	2995.94
420.28	2962.94
420.503	2838.94
420.726	2866.94
420.948	2856.94
421.171	2897.94
421.394	2935.94
421.617	2891.94
421.839	2838.94
422.062	2904.94
422.285	2876.94
422.507	2946.94
422.73	2945.94
422.953	2924.94
423.175	2985.94
423.398	2955.94
423.621	2896.94
423.843	2918.94
424.066	2888.94
424.288	2842.94
424.511	2844.94
424.733	2871.94
424.956	2848.94
425.178	2835.94
425.401	2859.94
425.623	2884.94
425.846	2747.94
426.068	2807.94
426.291	2768.94
426.513	2776.94
426.735	2736.94
426.958	2786.94
427.18	2713.94
427.402	2707.94
427.625	2696.94
427.847	2658.94
428.069	2659.94
428.292	2714.94
428.514	2683.94
428.736	2675.94
428.958	2698.94
429.181	2647.94
429.403	2631.94
429.625	2658.94
429.847	2652.94
430.069	2711.94
430.292	2759.94
430.514	2826.94
430.736	2838.94
430.958	2780.94
431.18	2629.94
431.402	2662.94
431.624	2655.94
431.846	2617.94
432.068	2621.94
432.29	2699.94
432.512	2641.94
432.734	2621.94
432.956	2640.94
433.178	2607.94
433.4	2653.94
433.622	2656.94
433.844	2646.94
434.066	2642.94
434.287	2713.94
434.509	2695.94
434.731	2705.94
434.953	2728.94
435.175	2742.94
435.397	2772.94
435.618	2707.94
435.84	2647.94
436.062	2612.94
436.284	2590.94
436.505	2612.94
436.727	2608.94
436.949	2626.94
437.17	2616.94
437.392	2567.94
437.614	2613.94
437.835	2535.94
438.057	2577.94
438.278	2530.94
438.5	2572.94
438.721	2597.94
438.943	2641.94
439.165	2691.94
439.386	2745.94
439.608	2727.94
439.829	2706.94
440.05	2812.94
440.272	2884.94
440.493	2746.94
440.715	2665.94
440.936	2761.94
441.158	2733.94
441.379	2819.94
441.6	2848.94
441.822	2967.94
442.043	3108.94
442.264	3209.94
442.486	2989.94
442.707	2889.94
442.928	2854.94
443.149	2832.94
443.371	2777.94
443.592	2847.94
443.813	2851.94
444.034	2856.94
444.255	2901.94
444.476	2934.94
444.698	2983.94
444.919	3050.94
445.14	3108.94
445.361	2949.94
445.582	2879.94
445.803	2863.94
446.024	2811.94
446.245	2756.94
446.466	2780.94
446.687	2762.94
446.908	2732.94
447.129	2687.94
447.35	2691.94
447.571	2676.94
447.792	2620.94
448.013	2651.94
448.234	2604.94
448.455	2591.94
448.675	2626.94
448.896	2702.94
449.117	2785.94
449.338	2954.94
449.559	3103.94
449.779	2834.94
450	2631.94
450.221	2565.94
450.442	2555.94
450.662	2567.94
450.883	2472.94
451.104	2538.94
451.324	2501.94
451.545	2527.94
451.766	2562.94
451.986	2597.94
452.207	2836.94
452.428	3609.94
452.648	5379.94
452.869	4471.94
453.089	3131.94
453.31	2929.94
453.53	2962.94
453.751	3033.94
453.971	3196.94
454.192	3162.94
454.412	2665.94
454.633	2550.94
454.853	2501.94
455.073	2439.94
455.294	2446.94
455.514	2439.94
455.734	2408.94
455.955	2385.94
456.175	2395.94
456.395	2396.94
456.616	2412.94
456.836	2508.94
457.056	2491.94
457.276	2475.94
457.497	2659.94
457.717	2668.94
457.937	2591.94
458.157	2590.94
458.377	2562.94
458.598	2584.94
458.818	2601.94
459.038	2602.94
459.258	2636.94
459.478	2612.94
459.698	2708.94
459.918	2680.94
460.138	2755.94
460.358	2821.94
460.578	2819.94
460.798	2897.94
461.018	2908.94
461.238	2884.94
461.458	2909.94
461.678	2892.94
461.898	2994.94
462.118	2964.94
462.338	3105.94
462.558	3121.94
462.777	3192.94
462.997	3258.94
463.217	3386.94
463.437	3492.94
463.657	3549.94
463.876	3564.94
464.096	3357.94
464.316	3200.94
464.536	3155.94
464.755	3093.94
464.975	2988.94
465.195	2891.94
465.414	2891.94
465.634	2822.94
465.854	2712.94
466.073	2685.94
466.293	2669.94
466.512	2693.94
466.732	2665.94
466.951	2804.94
467.171	3008.94
467.391	2921.94
467.61	2714.94
467.829	2645.94
468.049	2624.94
468.268	2541.94
468.488	2577.94
468.707	2600.94
468.927	2581.94
469.146	2578.94
469.365	2582.94
469.585	2643.94
469.804	2681.94
470.023	2767.94
470.243	2751.94
470.462	2861.94
470.681	3000.94
470.901	3353.94
471.12	3748.94
471.339	3772.94
471.558	3142.94
471.777	2852.94
471.997	2724.94
472.216	2683.94
472.435	2625.94
472.654	2573.94
472.873	2581.94
473.092	2601.94
473.311	2583.94
473.53	2646.94
473.749	2718.94
473.968	2776.94
474.187	2608.94
474.406	2579.94
474.625	2649.94
474.844	2575.94
475.063	2643.94
475.282	2632.94
475.501	2618.94
475.72	2633.94
475.939	2687.94
476.158	2695.94
476.377	2753.94
476.596	2711.94
476.814	2760.94
477.033	2747.94
477.252	2783.94
477.471	2858.94
477.69	2866.94
477.908	2902.94
478.127	2975.94
478.346	2940.94
478.564	3039.94
478.783	3031.94
479.002	3098.94
479.22	3065.94
479.439	3145.94
479.658	3128.94
479.876	3128.94
480.095	3125.94
480.313	3297.94
480.532	3268.94
480.751	3268.94
480.969	3169.94
481.188	3119.94
481.406	3180.94
481.624	3127.94
481.843	3141.94
482.061	3196.94
482.28	3161.94
482.498	3155.94
482.717	3133.94
482.935	3221.94
483.153	3283.94
483.372	3261.94
483.59	3304.94
483.808	3348.94
484.027	3466.94
484.245	3631.94
484.463	4064.94
484.681	4500.94
484.9	4104.94
485.118	3860.94
485.336	3705.94
485.554	3743.94
485.772	4050.94
485.99	4582.94
486.209	4853.94
486.427	4128.94
486.645	3642.94
486.863	3569.94
487.081	3445.94
487.299	3414.94
487.517	3357.94
487.735	3364.94
487.953	3405.94
488.171	3346.94
488.389	3288.94
488.607	3266.94
488.825	3248.94
489.043	3247.94
489.261	3220.94
489.479	3231.94
489.696	3226.94
489.914	3242.94
490.132	3325.94
490.35	3323.94
490.568	3344.94
490.786	3339.94
491.003	3381.94
491.221	3404.94
491.439	3430.94
491.657	3377.94
491.874	3418.94
492.092	3446.94
492.31	3450.94
492.527	3399.94
492.745	3473.94
492.963	3410.94
493.18	3395.94
493.398	3377.94
493.615	3414.94
493.833	3396.94
494.05	3422.94
494.268	3431.94
494.485	3400.94
494.703	3418.94
494.92	3459.94
495.138	3407.94
495.355	3437.94
495.573	3422.94
495.79	3422.94
496.008	3523.94
496.225	3528.94
496.442	3529.94
496.66	3699.94
496.877	3808.94
497.094	3871.94
497.312	3684.94
497.529	3757.94
497.746	3685.94
497.963	3847.94
498.181	3865.94
498.398	4010.94
498.615	4043.94
498.832	4219.94
499.049	4432.94
499.267	4821.94
499.484	5136.94
499.701	5076.94
499.918	5155.94
500.135	5549.94
500.352	5765.94
500.569	5773.94
500.786	5717.94
501.003	5528.94
501.22	5341.94
501.437	4995.94
501.654	4729.94
501.871	4546.94
502.088	4382.94
502.305	4268.94
502.522	4135.94
502.739	4004.94
502.956	3826.94
503.172	3862.94
503.389	3733.94
503.606	3707.94
503.823	3601.94
504.04	3556.94
504.256	3527.94
504.473	3591.94
504.69	3501.94
504.907	3476.94
505.123	3479.94
505.34	3372.94
505.557	3262.94
505.773	3215.94
505.99	3217.94
506.207	3192.94
506.423	3164.94
506.64	3134.94
506.856	3096.94
507.073	3019.94
507.289	3051.94
507.506	3026.94
507.722	3053.94
507.939	3009.94
508.155	3037.94
508.372	2970.94
508.588	2943.94
508.805	2999.94
509.021	2948.94
509.238	3029.94
509.454	3155.94
509.67	3375.94
509.887	3080.94
510.103	3001.94
510.319	3017.94
510.536	2935.94
510.752	2943.94
510.968	2868.94
511.184	2870.94
511.401	2865.94
511.617	2892.94
511.833	2858.94
512.049	2855.94
512.265	2839.94
512.481	2836.94
512.698	2805.94
512.914	2842.94
513.13	2859.94
513.346	2845.94
513.562	2856.94
513.778	2852.94
513.994	2913.94
514.21	3004.94
514.426	3178.94
514.642	3270.94
514.858	3022.94
515.074	2908.94
515.29	2896.94
515.506	2838.94
515.721	2927.94
515.937	2943.94
516.153	2890.94
516.369	2953.94
516.585	3010.94
516.801	3034.94
517.016	3091.94
517.232	3116.94
517.448	3215.94
517.664	3267.94
517.879	3234.94
518.095	3201.94
518.311	3207.94
518.527	3203.94
518.742	3156.94
518.958	3167.94
519.173	3229.94
519.389	3113.94
519.605	3011.94
519.82	2957.94
520.036	2919.94
520.251	2891.94
520.467	2892.94
520.682	2821.94
520.898	2775.94
521.113	2790.94
521.329	2838.94
521.544	2781.94
521.76	2817.94
521.975	2741.94
522.19	2760.94
522.406	2724.94
522.621	2732.94
522.836	2701.94
523.052	2721.94
523.267	2794.94
523.482	2737.94
523.698	2763.94
523.913	2674.94
524.128	2720.94
524.343	2719.94
524.559	2712.94
524.774	2746.94
524.989	2715.94
525.204	2722.94
525.419	2680.94
525.634	2696.94
525.849	2682.94
526.064	2731.94
526.28	2679.94
526.495	2749.94
526.71	2731.94
526.925	2706.94
527.14	2699.94
527.355	2724.94
527.57	2696.94
527.785	2725.94
527.999	2728.94
528.214	2799.94
528.429	2767.94
528.644	2827.94
528.859	2841.94
529.074	2871.94
529.289	2933.94
529.503	2949.94
529.718	2924.94
529.933	2866.94
530.148	2872.94
530.363	2933.94
530.577	2872.94
530.792	2912.94
531.007	2930.94
531.221	2935.94
531.436	2966.94
531.651	3074.94
531.865	3004.94
532.08	3166.94
532.295	3238.94
532.509	3411.94
532.724	3383.94
532.938	3423.94
533.153	3530.94
533.367	3839.94
533.582	4080.94
533.796	4022.94
534.011	3813.94
534.225	3648.94
534.44	3524.94
534.654	3433.94
534.868	3334.94
535.083	3256.94
535.297	3195.94
535.511	3176.94
535.726	3137.94
535.94	3113.94
536.154	3072.94
536.369	2989.94
536.583	2965.94
536.797	2939.94
537.011	2898.94
537.225	2854.94
537.44	2778.94
537.654	2818.94
537.868	2801.94
538.082	2706.94
538.296	2746.94
538.51	2713.94
538.724	2700.94
538.938	2696.94
539.153	2652.94
539.367	2646.94
539.581	2701.94
539.795	2607.94
540.009	2573.94
540.222	2628.94
540.436	2643.94
540.65	2590.94
540.864	2637.94
541.078	2656.94
541.292	2812.94
541.506	3301.94
541.72	3477.94
541.934	3045.94
542.147	2840.94
542.361	2737.94
542.575	2642.94
542.789	2620.94
543.002	2563.94
543.216	2559.94
543.43	2546.94
543.644	2508.94
543.857	2592.94
544.071	2484.94
544.285	2540.94
544.498	2533.94
544.712	2557.94
544.925	2571.94
545.139	2560.94
545.352	2518.94
545.566	2573.94
545.779	2531.94
545.993	2497.94
546.206	2521.94
546.42	2549.94
546.633	2524.94
546.847	2495.94
547.06	2545.94
547.274	2551.94
547.487	2569.94
547.7	2532.94
547.914	2527.94
548.127	2559.94
548.34	2529.94
548.554	2543.94
548.767	2545.94
548.98	2520.94
549.193	2577.94
549.407	2546.94
549.62	2541.94
549.833	2575.94
550.046	2535.94
550.259	2526.94
550.473	2553.94
550.686	2579.94
550.899	2524.94
551.112	2546.94
551.325	2584.94
551.538	2556.94
551.751	2543.94
551.964	2551.94
552.177	2609.94
552.39	2592.94
552.603	2675.94
552.816	2680.94
553.029	2752.94
553.242	2827.94
553.455	2817.94
553.667	2867.94
553.88	2837.94
554.093	2880.94
554.306	2861.94
554.519	2893.94
554.732	2964.94
554.944	2981.94
555.157	3048.94
555.37	3125.94
555.583	3225.94
555.795	3473.94
556.008	3689.94
556.221	4196.94
556.433	4621.94
556.646	4501.94
556.859	4328.94
557.071	4076.94
557.284	3948.94
557.496	3774.94
557.709	3737.94
557.921	3711.94
558.134	3655.94
558.346	3766.94
558.559	3820.94
558.771	4152.94
558.984	4591.94
559.196	4956.94
559.409	4632.94
559.621	4339.94
559.833	4047.94
560.046	3704.94
560.258	3575.94
560.47	3316.94
560.683	3263.94
560.895	3108.94
561.107	2992.94
561.32	2924.94
561.532	2823.94
561.744	2797.94
561.956	2721.94
562.168	2687.94
562.381	2655.94
562.593	2639.94
562.805	2656.94
563.017	2747.94
563.229	2685.94
563.441	3189.94
563.653	2652.94
563.865	2449.94
564.077	2467.94
564.289	2357.94
564.501	2393.94
564.713	2388.94
564.925	2386.94
565.137	2359.94
565.349	2334.94
565.561	2352.94
565.773	2377.94
565.985	2395.94
566.197	2423.94
566.408	2443.94
566.62	2505.94
566.832	2561.94
567.044	2664.94
567.255	2600.94
567.467	2607.94
567.679	2675.94
567.891	2830.94
568.102	3082.94
568.314	3567.94
568.526	3140.94
568.737	2738.94
568.949	2468.94
569.161	2354.94
569.372	2261.94
569.584	2191.94
569.795	2138.94
570.007	2146.94
570.218	2203.94
570.43	2223.94
570.641	2043.94
570.853	2008.94
571.064	2000.94
571.276	1951.94
571.487	1926.94
571.698	1860.94
571.91	1878.94
572.121	1837.94
572.333	1799.94
572.544	1852.94
572.755	1981.94
572.966	2297.94
573.178	2126.94
573.389	1902.94
573.6	1812.94
573.811	1817.94
574.023	1746.94
574.234	1790.94
574.445	1762.94
574.656	1743.94
574.867	1713.94
575.078	1717.94
575.289	1681.94
575.501	1758.94
575.712	1677.94
575.923	1700.94
576.134	1671.94
576.345	1723.94
576.556	1733.94
576.767	1701.94
576.978	1730.94
577.188	1724.94
577.399	1762.94
577.61	1769.94
577.821	1761.94
578.032	1790.94
578.243	1775.94
578.454	1885.94
578.665	1901.94
578.875	1981.94
579.086	2002.94
579.297	2080.94
579.508	2201.94
579.718	2431.94
579.929	2807.94
580.14	3361.94
580.35	3373.94
580.561	3004.94
580.772	2757.94
580.982	2465.94
581.193	2368.94
581.403	2225.94
581.614	2118.94
581.825	2010.94
582.035	1950.94
582.246	1868.94
582.456	1816.94
582.667	1805.94
582.877	1787.94
583.087	1740.94
583.298	1652.94
583.508	1566.94
583.719	1570.94
583.929	1567.94
584.139	1515.94
584.35	1502.94
584.56	1504.94
584.77	1461.94
584.981	1441.94
585.191	1442.94
585.401	1384.94
585.611	1356.94
585.821	1403.94
586.032	1339.94
586.242	1348.94
586.452	1308.94
586.662	1360.94
586.872	1294.94
587.082	1296.94
587.292	1300.94
587.502	1287.94
587.713	1279.94
587.923	1266.94
588.133	1257.94
588.343	1226.94
588.553	1247.94
588.762	1214.94
588.972	1210.94
589.182	1222.94
589.392	1216.94
589.602	1202.94
589.812	1197.94
590.022	1174.94
590.232	1164.94
590.441	1176.94
590.651	1196.94
590.861	1176.94
591.071	1179.94
591.281	1188.94
591.49	1179.94
591.7	1178.94
591.91	1149.94
592.119	1205.94
592.329	1167.94
592.539	1187.94
592.748	1195.94
592.958	1237.94
593.167	1171.94
593.377	1239.94
593.587	1244.94
593.796	1239.94
594.006	1236.94
594.215	1233.94
594.424	1215.94
594.634	1206.94
594.843	1172.94
595.053	1152.94
595.262	1150.94
595.472	1126.94
595.681	1066.94
595.89	1084.94
596.1	1077.94
596.309	1064.94
596.518	1086.94
596.727	1033.94
596.937	1054.94
597.146	1029.94
597.355	1018.94
597.564	1017.94
597.774	1045.94
597.983	995.94
598.192	1013.94
598.401	1001.94
598.61	975.94
598.819	990.94
599.028	968.94
599.237	982.94
599.446	956.94
599.655	968.94
599.864	961.94
600.073	939.94
600.282	957.94
600.491	930.94
600.7	952.94
600.909	951.94
601.118	973.94
601.327	953.94
601.536	944.94
601.745	979.94
601.953	1095.94
602.162	1219.94
602.371	1047.94
602.58	991.94
602.789	955.94
602.997	951.94
603.206	938.94
603.415	913.94
603.623	893.94
603.832	920.94
604.041	919.94
604.249	905.94
604.458	916.94
604.666	907.94
604.875	917.94
605.084	895.94
605.292	928.94
605.501	908.94
605.709	920.94
605.918	912.94
606.126	899.94
606.334	922.94
606.543	919.94
606.751	975.94
606.96	1136.94
607.168	1231.94
607.376	1075.94
607.585	967.94
607.793	893.94
608.001	909.94
608.21	878.94
608.418	861.94
608.626	875.94
608.834	881.94
609.043	883.94
609.251	868.94
609.459	846.94
609.667	819.94
609.875	861.94
610.083	844.94
610.291	853.94
610.499	829.94
610.707	839.94
610.916	863.94
611.124	831.94
611.332	793.94
611.54	830.94
611.748	829.94
611.955	831.94
612.163	796.94
612.371	787.94
612.579	833.94
612.787	805.94
612.995	788.94
613.203	808.94
613.411	785.94
613.618	796.94
613.826	810.94
614.034	805.94
614.242	771.94
614.449	801.94
614.657	777.94
614.865	797.94
615.072	809.94
615.28	788.94
615.488	792.94
615.695	784.94
615.903	778.94
616.111	811.94
616.318	758.94
616.526	777.94
616.733	801.94
616.941	792.94
617.148	792.94
617.356	777.94
617.563	774.94
617.771	753.94
617.978	739.94
618.185	749.94
618.393	758.94
618.6	765.94
618.807	764.94
619.015	752.94
619.222	752.94
619.429	767.94
619.637	739.94
619.844	720.94
620.051	732.94
620.258	706.94
620.466	698.94
620.673	687.94
620.88	690.94
621.087	693.94
621.294	692.94
621.501	694.94
621.708	699.94
621.915	684.94
622.122	722.94
622.329	693.94
622.536	695.94
622.743	710.94
622.95	677.94
623.157	687.94
623.364	690.94
623.571	683.94
623.778	667.94
623.985	686.94
624.192	697.94
624.399	667.94
624.606	670.94
624.812	656.94
625.019	668.94
625.226	664.94
625.433	669.94
625.639	626.94
625.846	619.94
626.053	639.94
626.259	639.94
626.466	636.94
626.673	620.94
626.879	628.94
627.086	629.94
627.293	642.94
627.499	626.94
627.706	637.94
627.912	635.94
628.119	623.94
628.325	635.94
628.532	631.94
628.738	635.94
628.945	632.94
629.151	615.94
629.357	641.94
629.564	623.94
629.77	639.94
629.976	619.94
630.183	603.94
630.389	609.94
630.595	588.94
630.802	594.94
631.008	611.94
631.214	593.94
631.42	584.94
631.627	588.94
631.833	589.94
632.039	596.94
632.245	601.94
632.451	592.94
632.657	589.94
632.863	607.94
633.069	593.94
633.275	587.94
633.481	578.94
633.688	570.94
633.893	579.94
634.099	598.94
634.305	582.94
634.511	576.94
634.717	599.94
634.923	620.94
635.129	697.94
635.335	755.94
635.541	704.94
635.747	613.94
635.952	609.94
636.158	593.94
636.364	613.94
636.57	579.94
636.775	584.94
636.981	580.94
637.187	561.94
637.392	561.94
637.598	590.94
637.804	569.94
638.009	586.94
638.215	577.94
638.421	606.94
638.626	597.94
638.832	575.94
639.037	572.94
639.243	586.94
639.448	580.94
639.654	587.94
639.859	627.94
640.065	622.94
640.27	608.94
640.475	606.94
640.681	625.94
640.886	614.94
641.091	623.94
641.297	613.94
641.502	642.94
641.707	625.94
641.913	653.94
642.118	655.94
642.323	675.94
642.528	672.94
642.733	669.94
642.939	717.94
643.144	707.94
643.349	730.94
643.554	782.94
643.759	822.94
643.964	859.94
644.169	895.94
644.374	945.94
644.579	1068.94
644.784	1169.94
644.989	1302.94
645.194	1581.94
645.399	1949.94
645.604	2103.94
645.809	1545.94
646.014	1190.94
646.219	958.94
646.423	853.94
646.628	786.94
646.833	724.94
647.038	656.94
647.243	633.94
647.447	637.94
647.652	617.94
647.857	598.94
648.062	554.94
648.266	565.94
648.471	572.94
648.676	539.94
648.88	551.94
649.085	546.94
649.289	538.94
649.494	517.94
649.698	514.94
649.903	511.94
650.107	483.94
650.312	479.94
650.516	479.94
650.721	457.94
650.925	443.94
651.13	435.94
651.334	447.94
651.539	431.94
651.743	420.94
651.947	415.94
652.152	441.94
652.356	426.94
652.56	454.94
652.764	524.94
652.969	453.94
653.173	417.94
653.377	398.94
653.581	392.94
653.785	382.94
653.99	370.94
654.194	369.94
654.398	380.94
654.602	365.94
654.806	355.94
655.01	362.94
655.214	363.94
655.418	354.94
655.622	341.94
655.826	354.94
656.03	367.94
656.234	348.94
656.438	383.94
656.642	385.94
656.846	351.94
657.049	355.94
657.253	328.94
657.457	326.94
657.661	297.94
657.865	282.94
658.068	269.94
658.272	247.94
658.476	241.94
658.68	231.94
658.883	204.94
659.087	198.94
659.291	201.94
659.494	185.94
659.698	182.94
659.901	183.94
660.105	167.94
660.309	177.94
660.512	176.94
660.716	157.94
660.919	150.94
661.123	164.94
661.326	143.94
661.53	131.94
661.733	122.94
661.936	125.94
662.14	120.94
662.343	123.94
662.546	107.94
662.75	118.94
662.953	107.94
663.156	110.94
663.36	97.94
663.563	82.94
663.766	94.94
663.969	84.94
664.173	97.94
664.376	96.94
664.579	92.94
664.782	98.94
664.985	90.94
665.188	96.94
665.391	91.94
665.594	101.94
665.797	91.94
666	93.94
666.203	95.94
666.406	92.94
666.609	88.94
666.812	84.94
667.015	82.94
667.218	98.94
667.421	80.94
667.624	88.94
667.827	79.94
668.03	79.94
668.232	71.94
668.435	73.94
668.638	74.94
668.841	83.94
669.043	81.94
669.246	91.94
669.449	91.94
669.651	90.94
669.854	100.94
670.057	93.94
670.259	90.94
670.462	80.94
670.665	85.94
670.867	86.94
671.07	96.94
671.272	99.94
671.475	83.94
671.677	82.94
671.88	80.94
672.082	79.94
672.284	88.94
672.487	86.94
672.689	85.94
672.892	74.94
