Data from SnStandardFlinnAPT0064_LampEnergy5.5_LIBS07252019.E.O._I.C._HRD10591_15-16-11-491.txt Node
Date: Thu Jul 25 15:16:11 EDT 2019
User: cochatt
Spectrometer: HR+D1059
Trigger mode: 1
Integration Time (sec): 1.000000E-1
Scans to average: 1
Electric dark correction enabled: true
Nonlinearity correction enabled: false
Boxcar width: 0
XAxis mode: Wavelengths
Number of Pixels in Spectrum: 2048
>>>>>Begin Spectral Data<<<<<
223.165	-16.5
223.4	-16.5
223.635	-16.5
223.869	-18.5
224.104	-7.5
224.338	-4.5
224.573	-11.5
224.808	-23.5
225.042	-15.5
225.277	-4.5
225.511	-15.5
225.746	-6.5
225.98	11.5
226.215	9.5
226.449	13.5
226.683	34.5
226.918	21.5
227.152	33.5
227.387	33.5
227.621	33.5
227.856	46.5
228.09	39.5
228.324	51.5
228.559	63.5
228.793	90.5
229.027	141.5
229.262	158.5
229.496	135.5
229.73	161.5
229.964	149.5
230.199	151.5
230.433	159.5
230.667	161.5
230.901	163.5
231.136	177.5
231.37	165.5
231.604	193.5
231.838	197.5
232.072	231.5
232.306	230.5
232.541	209.5
232.775	205.5
233.009	193.5
233.243	216.5
233.477	232.5
233.711	234.5
233.945	272.5
234.179	234.5
234.413	220.5
234.647	207.5
234.881	211.5
235.115	233.5
235.349	269.5
235.583	325.5
235.817	408.5
236.051	435.5
236.285	302.5
236.519	246.5
236.753	232.5
236.987	241.5
237.221	260.5
237.455	240.5
237.689	228.5
237.922	215.5
238.156	227.5
238.39	235.5
238.624	239.5
238.858	227.5
239.091	224.5
239.325	259.5
239.559	241.5
239.793	226.5
240.027	226.5
240.26	247.5
240.494	244.5
240.728	254.5
240.961	280.5
241.195	262.5
241.429	315.5
241.662	331.5
241.896	353.5
242.13	395.5
242.363	512.5
242.597	633.5
242.83	593.5
243.064	633.5
243.298	735.5
243.531	598.5
243.765	407.5
243.998	337.5
244.232	309.5
244.465	297.5
244.699	302.5
244.932	297.5
245.166	296.5
245.399	298.5
245.633	289.5
245.866	300.5
246.099	300.5
246.333	293.5
246.566	321.5
246.8	292.5
247.033	298.5
247.266	319.5
247.5	301.5
247.733	319.5
247.966	312.5
248.2	330.5
248.433	377.5
248.666	409.5
248.899	407.5
249.133	345.5
249.366	391.5
249.599	389.5
249.832	434.5
250.066	471.5
250.299	375.5
250.532	343.5
250.765	318.5
250.998	306.5
251.231	354.5
251.465	326.5
251.698	318.5
251.931	350.5
252.164	311.5
252.397	360.5
252.63	337.5
252.863	341.5
253.096	358.5
253.329	365.5
253.562	357.5
253.795	360.5
254.028	354.5
254.261	377.5
254.494	399.5
254.727	447.5
254.96	498.5
255.193	495.5
255.426	437.5
255.659	369.5
255.892	372.5
256.124	364.5
256.357	391.5
256.59	401.5
256.823	434.5
257.056	471.5
257.289	509.5
257.521	582.5
257.754	501.5
257.987	418.5
258.22	391.5
258.452	421.5
258.685	405.5
258.918	425.5
259.151	434.5
259.383	449.5
259.616	485.5
259.849	501.5
260.081	453.5
260.314	437.5
260.547	442.5
260.779	425.5
261.012	412.5
261.244	433.5
261.477	453.5
261.71	455.5
261.942	449.5
262.175	450.5
262.407	467.5
262.64	464.5
262.872	503.5
263.105	517.5
263.337	531.5
263.57	560.5
263.802	580.5
264.035	593.5
264.267	596.5
264.499	612.5
264.732	631.5
264.964	615.5
265.197	611.5
265.429	623.5
265.661	643.5
265.894	670.5
266.126	750.5
266.358	829.5
266.591	781.5
266.823	689.5
267.055	625.5
267.287	605.5
267.52	597.5
267.752	574.5
267.984	559.5
268.216	553.5
268.448	545.5
268.681	562.5
268.913	537.5
269.145	539.5
269.377	542.5
269.609	563.5
269.841	551.5
270.073	573.5
270.306	667.5
270.538	885.5
270.77	1257.5
271.002	1484.5
271.234	1056.5
271.466	744.5
271.698	649.5
271.93	584.5
272.162	576.5
272.394	559.5
272.626	547.5
272.858	543.5
273.09	548.5
273.322	540.5
273.553	536.5
273.785	529.5
274.017	528.5
274.249	551.5
274.481	504.5
274.713	528.5
274.945	569.5
275.176	514.5
275.408	533.5
275.64	545.5
275.872	549.5
276.104	545.5
276.335	538.5
276.567	549.5
276.799	529.5
277.031	569.5
277.262	563.5
277.494	587.5
277.726	643.5
277.957	728.5
278.189	805.5
278.421	758.5
278.652	699.5
278.884	677.5
279.115	622.5
279.347	617.5
279.579	584.5
279.81	616.5
280.042	597.5
280.273	631.5
280.505	627.5
280.736	649.5
280.968	674.5
281.199	725.5
281.431	780.5
281.662	789.5
281.894	709.5
282.125	687.5
282.356	701.5
282.588	665.5
282.819	702.5
283.051	763.5
283.282	818.5
283.513	1011.5
283.745	1417.5
283.976	2214.5
284.207	3123.5
284.439	2739.5
284.67	1685.5
284.901	1396.5
285.132	1341.5
285.364	1303.5
285.595	1055.5
285.826	986.5
286.057	1098.5
286.288	1476.5
286.52	1980.5
286.751	1807.5
286.982	1164.5
287.213	899.5
287.444	820.5
287.675	759.5
287.906	754.5
288.138	730.5
288.369	726.5
288.6	714.5
288.831	685.5
289.062	693.5
289.293	678.5
289.524	717.5
289.755	708.5
289.986	722.5
290.217	715.5
290.448	694.5
290.679	727.5
290.91	737.5
291.141	741.5
291.371	814.5
291.602	806.5
291.833	755.5
292.064	706.5
292.295	702.5
292.526	705.5
292.757	705.5
292.987	692.5
293.218	647.5
293.449	680.5
293.68	689.5
293.91	669.5
294.141	661.5
294.372	674.5
294.603	661.5
294.833	679.5
295.064	695.5
295.295	675.5
295.525	664.5
295.756	677.5
295.987	668.5
296.217	671.5
296.448	652.5
296.679	665.5
296.909	668.5
297.14	691.5
297.37	685.5
297.601	689.5
297.831	687.5
298.062	677.5
298.292	687.5
298.523	718.5
298.753	724.5
298.984	712.5
299.214	729.5
299.445	739.5
299.675	737.5
299.905	758.5
300.136	788.5
300.366	847.5
300.597	1102.5
300.827	1469.5
301.057	1955.5
301.288	1910.5
301.518	1320.5
301.748	1012.5
301.979	928.5
302.209	909.5
302.439	923.5
302.669	957.5
302.9	1137.5
303.13	1563.5
303.36	2281.5
303.59	3010.5
303.82	2619.5
304.051	1581.5
304.281	1126.5
304.511	969.5
304.741	929.5
304.971	879.5
305.201	860.5
305.431	826.5
305.661	790.5
305.891	792.5
306.121	807.5
306.352	772.5
306.582	775.5
306.812	769.5
307.042	753.5
307.272	776.5
307.502	758.5
307.731	777.5
307.961	786.5
308.191	742.5
308.421	791.5
308.651	796.5
308.881	737.5
309.111	769.5
309.341	768.5
309.571	782.5
309.8	802.5
310.03	790.5
310.26	824.5
310.49	795.5
310.72	794.5
310.949	787.5
311.179	809.5
311.409	798.5
311.639	804.5
311.868	797.5
312.098	849.5
312.328	815.5
312.557	838.5
312.787	795.5
313.017	854.5
313.246	854.5
313.476	852.5
313.706	858.5
313.935	913.5
314.165	953.5
314.394	979.5
314.624	948.5
314.853	890.5
315.083	911.5
315.312	902.5
315.542	923.5
315.771	925.5
316.001	904.5
316.23	941.5
316.46	986.5
316.689	1074.5
316.919	1285.5
317.148	1814.5
317.377	2722.5
317.607	3982.5
317.836	4036.5
318.065	2432.5
318.295	1586.5
318.524	1299.5
318.753	1184.5
318.983	1094.5
319.212	1043.5
319.441	994.5
319.67	1002.5
319.9	1009.5
320.129	947.5
320.358	993.5
320.587	956.5
320.816	965.5
321.046	992.5
321.275	983.5
321.504	986.5
321.733	982.5
321.962	1022.5
322.191	1026.5
322.42	1024.5
322.649	1025.5
322.878	1022.5
323.108	1034.5
323.337	1013.5
323.566	1077.5
323.795	1062.5
324.024	1063.5
324.253	1099.5
324.482	1135.5
324.71	1185.5
324.939	1224.5
325.168	1291.5
325.397	1335.5
325.626	1557.5
325.855	2139.5
326.084	3298.5
326.313	4832.5
326.542	5124.5
326.77	3301.5
326.999	2222.5
327.228	1857.5
327.457	1764.5
327.686	1777.5
327.914	1905.5
328.143	2197.5
328.372	2482.5
328.6	2717.5
328.829	2467.5
329.058	2224.5
329.287	1949.5
329.515	1829.5
329.744	1719.5
329.972	1610.5
330.201	1538.5
330.43	1491.5
330.658	1476.5
330.887	1455.5
331.115	1438.5
331.344	1414.5
331.572	1399.5
331.801	1413.5
332.03	1413.5
332.258	1473.5
332.486	1495.5
332.715	1638.5
332.943	1984.5
333.172	2404.5
333.4	2389.5
333.629	1890.5
333.857	1737.5
334.085	1748.5
334.314	1827.5
334.542	1975.5
334.771	2262.5
334.999	2704.5
335.227	3258.5
335.455	3569.5
335.684	3354.5
335.912	2875.5
336.14	2442.5
336.369	2221.5
336.597	2059.5
336.825	1909.5
337.053	1782.5
337.281	1755.5
337.51	1626.5
337.738	1545.5
337.966	1480.5
338.194	1451.5
338.422	1398.5
338.65	1385.5
338.878	1333.5
339.106	1349.5
339.334	1287.5
339.562	1307.5
339.79	1295.5
340.018	1257.5
340.246	1247.5
340.474	1263.5
340.702	1271.5
340.93	1239.5
341.158	1236.5
341.386	1221.5
341.614	1218.5
341.842	1197.5
342.07	1201.5
342.298	1172.5
342.526	1157.5
342.754	1135.5
342.981	1157.5
343.209	1124.5
343.437	1159.5
343.665	1179.5
343.893	1175.5
344.12	1197.5
344.348	1139.5
344.576	1151.5
344.804	1131.5
345.031	1124.5
345.259	1107.5
345.487	1073.5
345.714	1076.5
345.942	1058.5
346.17	1075.5
346.397	1041.5
346.625	1053.5
346.853	1043.5
347.08	1039.5
347.308	1072.5
347.535	1032.5
347.763	1076.5
347.99	1033.5
348.218	1059.5
348.445	1045.5
348.673	1023.5
348.9	1075.5
349.128	1049.5
349.355	1045.5
349.583	1020.5
349.81	1019.5
350.037	1043.5
350.265	991.5
350.492	1021.5
350.72	1021.5
350.947	1014.5
351.174	1012.5
351.402	1033.5
351.629	1027.5
351.856	1036.5
352.083	1006.5
352.311	1011.5
352.538	1009.5
352.765	1001.5
352.992	1044.5
353.22	1022.5
353.447	1008.5
353.674	984.5
353.901	1003.5
354.128	1020.5
354.355	1023.5
354.583	1039.5
354.81	1029.5
355.037	1034.5
355.264	1054.5
355.491	1025.5
355.718	1025.5
355.945	1061.5
356.172	1032.5
356.399	1041.5
356.626	1056.5
356.853	1046.5
357.08	1054.5
357.307	1087.5
357.534	1048.5
357.761	1079.5
357.988	1075.5
358.215	1057.5
358.441	1045.5
358.668	1070.5
358.895	1066.5
359.122	1072.5
359.349	1066.5
359.576	1077.5
359.802	1027.5
360.029	1079.5
360.256	1081.5
360.483	1088.5
360.709	1065.5
360.936	1103.5
361.163	1063.5
361.39	1095.5
361.616	1075.5
361.843	1087.5
362.07	1076.5
362.296	1069.5
362.523	1061.5
362.749	1082.5
362.976	1066.5
363.203	1088.5
363.429	1069.5
363.656	1080.5
363.882	1045.5
364.109	1066.5
364.335	1053.5
364.562	1088.5
364.788	1071.5
365.015	1096.5
365.241	1097.5
365.468	1146.5
365.694	1188.5
365.92	1159.5
366.147	1105.5
366.373	1084.5
366.599	1111.5
366.826	1082.5
367.052	1097.5
367.278	1105.5
367.505	1139.5
367.731	1104.5
367.957	1095.5
368.184	1126.5
368.41	1136.5
368.636	1149.5
368.862	1127.5
369.089	1158.5
369.315	1086.5
369.541	1094.5
369.767	1128.5
369.993	1122.5
370.219	1103.5
370.445	1136.5
370.672	1135.5
370.898	1128.5
371.124	1141.5
371.35	1145.5
371.576	1162.5
371.802	1176.5
372.028	1163.5
372.254	1178.5
372.48	1191.5
372.706	1186.5
372.932	1171.5
373.158	1176.5
373.384	1182.5
373.61	1183.5
373.835	1172.5
374.061	1194.5
374.287	1183.5
374.513	1189.5
374.739	1246.5
374.965	1210.5
375.191	1217.5
375.416	1239.5
375.642	1201.5
375.868	1208.5
376.094	1184.5
376.319	1187.5
376.545	1176.5
376.771	1167.5
376.997	1149.5
377.222	1170.5
377.448	1181.5
377.674	1141.5
377.899	1144.5
378.125	1177.5
378.35	1176.5
378.576	1167.5
378.802	1169.5
379.027	1171.5
379.253	1222.5
379.478	1256.5
379.704	1413.5
379.929	1994.5
380.155	2910.5
380.38	3057.5
380.606	2000.5
380.831	1465.5
381.057	1310.5
381.282	1225.5
381.507	1181.5
381.733	1174.5
381.958	1141.5
382.184	1157.5
382.409	1152.5
382.634	1157.5
382.86	1172.5
383.085	1182.5
383.31	1153.5
383.535	1131.5
383.761	1144.5
383.986	1146.5
384.211	1178.5
384.436	1173.5
384.662	1176.5
384.887	1198.5
385.112	1165.5
385.337	1190.5
385.562	1182.5
385.787	1211.5
386.013	1225.5
386.238	1169.5
386.463	1198.5
386.688	1193.5
386.913	1173.5
387.138	1184.5
387.363	1176.5
387.588	1162.5
387.813	1200.5
388.038	1171.5
388.263	1190.5
388.488	1184.5
388.713	1203.5
388.938	1199.5
389.163	1208.5
389.387	1213.5
389.612	1187.5
389.837	1176.5
390.062	1180.5
390.287	1223.5
390.512	1209.5
390.736	1227.5
390.961	1246.5
391.186	1255.5
391.411	1227.5
391.636	1224.5
391.86	1219.5
392.085	1249.5
392.31	1255.5
392.534	1236.5
392.759	1248.5
392.984	1237.5
393.208	1253.5
393.433	1282.5
393.658	1285.5
393.882	1207.5
394.107	1213.5
394.331	1231.5
394.556	1206.5
394.78	1231.5
395.005	1225.5
395.229	1206.5
395.454	1249.5
395.678	1275.5
395.903	1242.5
396.127	1240.5
396.352	1265.5
396.576	1255.5
396.801	1231.5
397.025	1265.5
397.249	1285.5
397.474	1277.5
397.698	1252.5
397.922	1273.5
398.147	1211.5
398.371	1286.5
398.595	1286.5
398.82	1336.5
399.044	1370.5
399.268	1447.5
399.492	1527.5
399.717	1578.5
399.941	1594.5
400.165	1518.5
400.389	1454.5
400.613	1407.5
400.837	1366.5
401.062	1362.5
401.286	1341.5
401.51	1311.5
401.734	1318.5
401.958	1330.5
402.182	1339.5
402.406	1349.5
402.63	1336.5
402.854	1359.5
403.078	1373.5
403.302	1348.5
403.526	1346.5
403.75	1368.5
403.974	1389.5
404.198	1337.5
404.422	1370.5
404.645	1374.5
404.869	1357.5
405.093	1398.5
405.317	1362.5
405.541	1362.5
405.765	1357.5
405.988	1375.5
406.212	1439.5
406.436	1372.5
406.66	1392.5
406.883	1434.5
407.107	1440.5
407.331	1517.5
407.555	1473.5
407.778	1494.5
408.002	1478.5
408.226	1445.5
408.449	1471.5
408.673	1409.5
408.896	1408.5
409.12	1386.5
409.344	1391.5
409.567	1333.5
409.791	1371.5
410.014	1365.5
410.238	1336.5
410.461	1339.5
410.685	1347.5
410.908	1364.5
411.132	1339.5
411.355	1297.5
411.578	1298.5
411.802	1313.5
412.025	1329.5
412.249	1317.5
412.472	1334.5
412.695	1282.5
412.919	1271.5
413.142	1265.5
413.365	1315.5
413.589	1298.5
413.812	1278.5
414.035	1282.5
414.258	1265.5
414.482	1308.5
414.705	1303.5
414.928	1287.5
415.151	1289.5
415.374	1294.5
415.597	1277.5
415.821	1259.5
416.044	1243.5
416.267	1264.5
416.49	1220.5
416.713	1235.5
416.936	1265.5
417.159	1240.5
417.382	1241.5
417.605	1207.5
417.828	1239.5
418.051	1233.5
418.274	1271.5
418.497	1257.5
418.72	1270.5
418.943	1272.5
419.166	1323.5
419.389	1378.5
419.611	1374.5
419.834	1315.5
420.057	1319.5
420.28	1221.5
420.503	1265.5
420.726	1233.5
420.948	1225.5
421.171	1206.5
421.394	1238.5
421.617	1237.5
421.839	1270.5
422.062	1288.5
422.285	1252.5
422.507	1277.5
422.73	1255.5
422.953	1301.5
423.175	1267.5
423.398	1299.5
423.621	1286.5
423.843	1288.5
424.066	1253.5
424.288	1265.5
424.511	1235.5
424.733	1246.5
424.956	1222.5
425.178	1256.5
425.401	1249.5
425.623	1241.5
425.846	1234.5
426.068	1247.5
426.291	1226.5
426.513	1213.5
426.735	1195.5
426.958	1214.5
427.18	1181.5
427.402	1185.5
427.625	1176.5
427.847	1153.5
428.069	1161.5
428.292	1154.5
428.514	1157.5
428.736	1150.5
428.958	1177.5
429.181	1167.5
429.403	1150.5
429.625	1163.5
429.847	1147.5
430.069	1160.5
430.292	1193.5
430.514	1186.5
430.736	1217.5
430.958	1197.5
431.18	1153.5
431.402	1167.5
431.624	1135.5
431.846	1150.5
432.068	1122.5
432.29	1140.5
432.512	1121.5
432.734	1126.5
432.956	1172.5
433.178	1189.5
433.4	1163.5
433.622	1157.5
433.844	1182.5
434.066	1157.5
434.287	1128.5
434.509	1140.5
434.731	1163.5
434.953	1178.5
435.175	1201.5
435.397	1181.5
435.618	1184.5
435.84	1139.5
436.062	1143.5
436.284	1147.5
436.505	1153.5
436.727	1128.5
436.949	1149.5
437.17	1151.5
437.392	1154.5
437.614	1118.5
437.835	1093.5
438.057	1112.5
438.278	1079.5
438.5	1114.5
438.721	1116.5
438.943	1125.5
439.165	1174.5
439.386	1189.5
439.608	1183.5
439.829	1206.5
440.05	1217.5
440.272	1237.5
440.493	1177.5
440.715	1198.5
440.936	1178.5
441.158	1242.5
441.379	1215.5
441.6	1238.5
441.822	1282.5
442.043	1351.5
442.264	1354.5
442.486	1287.5
442.707	1262.5
442.928	1239.5
443.149	1232.5
443.371	1191.5
443.592	1249.5
443.813	1247.5
444.034	1234.5
444.255	1265.5
444.476	1297.5
444.698	1287.5
444.919	1334.5
445.14	1393.5
445.361	1322.5
445.582	1291.5
445.803	1264.5
446.024	1223.5
446.245	1261.5
446.466	1256.5
446.687	1197.5
446.908	1219.5
447.129	1189.5
447.35	1152.5
447.571	1175.5
447.792	1149.5
448.013	1109.5
448.234	1143.5
448.455	1147.5
448.675	1175.5
448.896	1179.5
449.117	1178.5
449.338	1246.5
449.559	1295.5
449.779	1227.5
450	1141.5
450.221	1136.5
450.442	1111.5
450.662	1102.5
450.883	1098.5
451.104	1109.5
451.324	1103.5
451.545	1097.5
451.766	1117.5
451.986	1115.5
452.207	1186.5
452.428	1429.5
452.648	1910.5
452.869	1650.5
453.089	1269.5
453.31	1207.5
453.53	1189.5
453.751	1208.5
453.971	1297.5
454.192	1285.5
454.412	1142.5
454.633	1088.5
454.853	1057.5
455.073	1062.5
455.294	1045.5
455.514	1051.5
455.734	1068.5
455.955	1049.5
456.175	1043.5
456.395	1031.5
456.616	1054.5
456.836	1077.5
457.056	1075.5
457.276	1049.5
457.497	1138.5
457.717	1128.5
457.937	1095.5
458.157	1105.5
458.377	1108.5
458.598	1097.5
458.818	1127.5
459.038	1157.5
459.258	1110.5
459.478	1120.5
459.698	1124.5
459.918	1164.5
460.138	1183.5
460.358	1220.5
460.578	1222.5
460.798	1234.5
461.018	1256.5
461.238	1279.5
461.458	1255.5
461.678	1247.5
461.898	1270.5
462.118	1297.5
462.338	1293.5
462.558	1303.5
462.777	1361.5
462.997	1396.5
463.217	1455.5
463.437	1498.5
463.657	1459.5
463.876	1481.5
464.096	1437.5
464.316	1379.5
464.536	1383.5
464.755	1327.5
464.975	1303.5
465.195	1266.5
465.414	1218.5
465.634	1191.5
465.854	1179.5
466.073	1180.5
466.293	1181.5
466.512	1155.5
466.732	1170.5
466.951	1203.5
467.171	1305.5
467.391	1270.5
467.61	1158.5
467.829	1134.5
468.049	1156.5
468.268	1138.5
468.488	1124.5
468.707	1105.5
468.927	1139.5
469.146	1136.5
469.365	1148.5
469.585	1134.5
469.804	1150.5
470.023	1170.5
470.243	1201.5
470.462	1238.5
470.681	1306.5
470.901	1395.5
471.12	1521.5
471.339	1607.5
471.558	1333.5
471.777	1227.5
471.997	1191.5
472.216	1170.5
472.435	1143.5
472.654	1127.5
472.873	1118.5
473.092	1154.5
473.311	1123.5
473.53	1113.5
473.749	1158.5
473.968	1177.5
474.187	1141.5
474.406	1089.5
474.625	1137.5
474.844	1143.5
475.063	1114.5
475.282	1156.5
475.501	1194.5
475.72	1165.5
475.939	1183.5
476.158	1203.5
476.377	1210.5
476.596	1150.5
476.814	1198.5
477.033	1197.5
477.252	1216.5
477.471	1241.5
477.69	1243.5
477.908	1251.5
478.127	1297.5
478.346	1305.5
478.564	1289.5
478.783	1295.5
479.002	1327.5
479.22	1340.5
479.439	1357.5
479.658	1352.5
479.876	1314.5
480.095	1337.5
480.313	1377.5
480.532	1362.5
480.751	1344.5
480.969	1363.5
481.188	1359.5
481.406	1327.5
481.624	1323.5
481.843	1309.5
482.061	1376.5
482.28	1369.5
482.498	1315.5
482.717	1336.5
482.935	1351.5
483.153	1397.5
483.372	1379.5
483.59	1421.5
483.808	1432.5
484.027	1432.5
484.245	1523.5
484.463	1656.5
484.681	1851.5
484.9	1665.5
485.118	1562.5
485.336	1614.5
485.554	1601.5
485.772	1632.5
485.99	1866.5
486.209	2000.5
486.427	1723.5
486.645	1515.5
486.863	1473.5
487.081	1455.5
487.299	1443.5
487.517	1444.5
487.735	1467.5
487.953	1487.5
488.171	1513.5
488.389	1437.5
488.607	1406.5
488.825	1424.5
489.043	1370.5
489.261	1389.5
489.479	1378.5
489.696	1387.5
489.914	1383.5
490.132	1413.5
490.35	1405.5
490.568	1442.5
490.786	1458.5
491.003	1449.5
491.221	1496.5
491.439	1487.5
491.657	1496.5
491.874	1523.5
492.092	1559.5
492.31	1540.5
492.527	1546.5
492.745	1521.5
492.963	1511.5
493.18	1500.5
493.398	1498.5
493.615	1473.5
493.833	1514.5
494.05	1544.5
494.268	1496.5
494.485	1482.5
494.703	1464.5
494.92	1472.5
495.138	1474.5
495.355	1518.5
495.573	1489.5
495.79	1506.5
496.008	1505.5
496.225	1509.5
496.442	1522.5
496.66	1547.5
496.877	1649.5
497.094	1646.5
497.312	1605.5
497.529	1561.5
497.746	1614.5
497.963	1620.5
498.181	1651.5
498.398	1679.5
498.615	1736.5
498.832	1787.5
499.049	1891.5
499.267	2031.5
499.484	2118.5
499.701	2126.5
499.918	2267.5
500.135	2379.5
500.352	2503.5
500.569	2512.5
500.786	2513.5
501.003	2485.5
501.22	2303.5
501.437	2199.5
501.654	2073.5
501.871	1963.5
502.088	1887.5
502.305	1817.5
502.522	1767.5
502.739	1764.5
502.956	1688.5
503.172	1642.5
503.389	1594.5
503.606	1590.5
503.823	1609.5
504.04	1563.5
504.256	1515.5
504.473	1575.5
504.69	1521.5
504.907	1513.5
505.123	1493.5
505.34	1466.5
505.557	1412.5
505.773	1389.5
505.99	1397.5
506.207	1358.5
506.423	1361.5
506.64	1341.5
506.856	1331.5
507.073	1342.5
507.289	1310.5
507.506	1321.5
507.722	1331.5
507.939	1341.5
508.155	1284.5
508.372	1236.5
508.588	1276.5
508.805	1258.5
509.021	1252.5
509.238	1286.5
509.454	1312.5
509.67	1417.5
509.887	1296.5
510.103	1287.5
510.319	1329.5
510.536	1247.5
510.752	1246.5
510.968	1248.5
511.184	1213.5
511.401	1209.5
511.617	1213.5
511.833	1202.5
512.049	1204.5
512.265	1211.5
512.481	1220.5
512.698	1206.5
512.914	1162.5
513.13	1205.5
513.346	1208.5
513.562	1209.5
513.778	1224.5
513.994	1236.5
514.21	1244.5
514.426	1299.5
514.642	1341.5
514.858	1271.5
515.074	1279.5
515.29	1271.5
515.506	1241.5
515.721	1240.5
515.937	1262.5
516.153	1237.5
516.369	1264.5
516.585	1291.5
516.801	1269.5
517.016	1297.5
517.232	1368.5
517.448	1377.5
517.664	1410.5
517.879	1375.5
518.095	1391.5
518.311	1381.5
518.527	1356.5
518.742	1336.5
518.958	1352.5
519.173	1338.5
519.389	1300.5
519.605	1295.5
519.82	1258.5
520.036	1258.5
520.251	1240.5
520.467	1226.5
520.682	1226.5
520.898	1221.5
521.113	1187.5
521.329	1184.5
521.544	1199.5
521.76	1192.5
521.975	1193.5
522.19	1209.5
522.406	1172.5
522.621	1200.5
522.836	1154.5
523.052	1179.5
523.267	1167.5
523.482	1177.5
523.698	1162.5
523.913	1174.5
524.128	1163.5
524.343	1156.5
524.559	1163.5
524.774	1193.5
524.989	1198.5
525.204	1208.5
525.419	1167.5
525.634	1183.5
525.849	1164.5
526.064	1152.5
526.28	1129.5
526.495	1130.5
526.71	1154.5
526.925	1189.5
527.14	1207.5
527.355	1165.5
527.57	1187.5
527.785	1174.5
527.999	1174.5
528.214	1189.5
528.429	1182.5
528.644	1234.5
528.859	1222.5
529.074	1242.5
529.289	1241.5
529.503	1278.5
529.718	1273.5
529.933	1242.5
530.148	1266.5
530.363	1208.5
530.577	1227.5
530.792	1265.5
531.007	1230.5
531.221	1257.5
531.436	1249.5
531.651	1271.5
531.865	1287.5
532.08	1290.5
532.295	1336.5
532.509	1363.5
532.724	1395.5
532.938	1385.5
533.153	1445.5
533.367	1481.5
533.582	1507.5
533.796	1520.5
534.011	1477.5
534.225	1445.5
534.44	1409.5
534.654	1412.5
534.868	1345.5
535.083	1361.5
535.297	1347.5
535.511	1312.5
535.726	1301.5
535.94	1264.5
536.154	1297.5
536.369	1246.5
536.583	1252.5
536.797	1229.5
537.011	1222.5
537.225	1197.5
537.44	1198.5
537.654	1189.5
537.868	1189.5
538.082	1179.5
538.296	1149.5
538.51	1164.5
538.724	1158.5
538.938	1146.5
539.153	1160.5
539.367	1147.5
539.581	1161.5
539.795	1157.5
540.009	1129.5
540.222	1111.5
540.436	1142.5
540.65	1131.5
540.864	1153.5
541.078	1187.5
541.292	1239.5
541.506	1451.5
541.72	1536.5
541.934	1361.5
542.147	1283.5
542.361	1230.5
542.575	1146.5
542.789	1138.5
543.002	1109.5
543.216	1065.5
543.43	1098.5
543.644	1098.5
543.857	1146.5
544.071	1119.5
544.285	1155.5
544.498	1146.5
544.712	1139.5
544.925	1146.5
545.139	1155.5
545.352	1114.5
545.566	1123.5
545.779	1114.5
545.993	1177.5
546.206	1165.5
546.42	1142.5
546.633	1149.5
546.847	1159.5
547.06	1151.5
547.274	1161.5
547.487	1166.5
547.7	1150.5
547.914	1139.5
548.127	1168.5
548.34	1161.5
548.554	1166.5
548.767	1159.5
548.98	1145.5
549.193	1155.5
549.407	1117.5
549.62	1140.5
549.833	1157.5
550.046	1146.5
550.259	1139.5
550.473	1155.5
550.686	1152.5
550.899	1135.5
551.112	1121.5
551.325	1153.5
551.538	1119.5
551.751	1119.5
551.964	1118.5
552.177	1113.5
552.39	1146.5
552.603	1173.5
552.816	1203.5
553.029	1207.5
553.242	1241.5
553.455	1233.5
553.667	1261.5
553.88	1252.5
554.093	1251.5
554.306	1294.5
554.519	1276.5
554.732	1253.5
554.944	1279.5
555.157	1289.5
555.37	1350.5
555.583	1348.5
555.795	1364.5
556.008	1477.5
556.221	1599.5
556.433	1655.5
556.646	1660.5
556.859	1657.5
557.071	1594.5
557.284	1552.5
557.496	1519.5
557.709	1499.5
557.921	1488.5
558.134	1490.5
558.346	1525.5
558.559	1557.5
558.771	1630.5
558.984	1725.5
559.196	1817.5
559.409	1749.5
559.621	1638.5
559.833	1599.5
560.046	1506.5
560.258	1431.5
560.47	1427.5
560.683	1366.5
560.895	1325.5
561.107	1262.5
561.32	1262.5
561.532	1231.5
561.744	1211.5
561.956	1220.5
562.168	1169.5
562.381	1181.5
562.593	1145.5
562.805	1149.5
563.017	1160.5
563.229	1156.5
563.441	1281.5
563.653	1147.5
563.865	1071.5
564.077	1060.5
564.289	1063.5
564.501	1038.5
564.713	1022.5
564.925	1031.5
565.137	1028.5
565.349	1044.5
565.561	1051.5
565.773	1081.5
565.985	1106.5
566.197	1069.5
566.408	1097.5
566.62	1118.5
566.832	1168.5
567.044	1169.5
567.255	1161.5
567.467	1181.5
567.679	1189.5
567.891	1234.5
568.102	1360.5
568.314	1595.5
568.526	1315.5
568.737	1181.5
568.949	1098.5
569.161	1051.5
569.372	979.5
569.584	990.5
569.795	945.5
570.007	934.5
570.218	945.5
570.43	991.5
570.641	939.5
570.853	896.5
571.064	876.5
571.276	883.5
571.487	864.5
571.698	859.5
571.91	837.5
572.121	849.5
572.333	814.5
572.544	823.5
572.755	888.5
572.966	1009.5
573.178	915.5
573.389	836.5
573.6	799.5
573.811	779.5
574.023	780.5
574.234	774.5
574.445	744.5
574.656	775.5
574.867	764.5
575.078	747.5
575.289	803.5
575.501	762.5
575.712	734.5
575.923	752.5
576.134	781.5
576.345	738.5
576.556	781.5
576.767	771.5
576.978	786.5
577.188	773.5
577.399	784.5
577.61	795.5
577.821	769.5
578.032	765.5
578.243	801.5
578.454	824.5
578.665	831.5
578.875	840.5
579.086	826.5
579.297	873.5
579.508	928.5
579.718	985.5
579.929	1057.5
580.14	1154.5
580.35	1213.5
580.561	1169.5
580.772	1086.5
580.982	1007.5
581.193	943.5
581.403	923.5
581.614	868.5
581.825	851.5
582.035	830.5
582.246	837.5
582.456	834.5
582.667	789.5
582.877	790.5
583.087	751.5
583.298	737.5
583.508	701.5
583.719	692.5
583.929	679.5
584.139	641.5
584.35	664.5
584.56	643.5
584.77	641.5
584.981	649.5
585.191	627.5
585.401	635.5
585.611	647.5
585.821	611.5
586.032	611.5
586.242	618.5
586.452	601.5
586.662	577.5
586.872	584.5
587.082	591.5
587.292	580.5
587.502	587.5
587.713	566.5
587.923	583.5
588.133	579.5
588.343	571.5
588.553	583.5
588.762	571.5
588.972	566.5
589.182	588.5
589.392	576.5
589.602	569.5
589.812	573.5
590.022	578.5
590.232	554.5
590.441	547.5
590.651	551.5
590.861	555.5
591.071	566.5
591.281	529.5
591.49	557.5
591.7	584.5
591.91	546.5
592.119	540.5
592.329	543.5
592.539	557.5
592.748	550.5
592.958	574.5
593.167	581.5
593.377	589.5
593.587	589.5
593.796	577.5
594.006	575.5
594.215	571.5
594.424	561.5
594.634	577.5
594.843	545.5
595.053	558.5
595.262	545.5
595.472	511.5
595.681	496.5
595.89	524.5
596.1	533.5
596.309	495.5
596.518	523.5
596.727	509.5
596.937	495.5
597.146	495.5
597.355	520.5
597.564	485.5
597.774	479.5
597.983	481.5
598.192	469.5
598.401	457.5
598.61	449.5
598.819	466.5
599.028	467.5
599.237	466.5
599.446	437.5
599.655	457.5
599.864	449.5
600.073	452.5
600.282	458.5
600.491	449.5
600.7	442.5
600.909	452.5
601.118	454.5
601.327	440.5
601.536	458.5
601.745	451.5
601.953	483.5
602.162	563.5
602.371	508.5
602.58	465.5
602.789	457.5
602.997	437.5
603.206	456.5
603.415	437.5
603.623	435.5
603.832	453.5
604.041	439.5
604.249	420.5
604.458	439.5
604.666	440.5
604.875	436.5
605.084	423.5
605.292	435.5
605.501	445.5
605.709	433.5
605.918	444.5
606.126	440.5
606.334	441.5
606.543	448.5
606.751	455.5
606.96	530.5
607.168	577.5
607.376	485.5
607.585	446.5
607.793	453.5
608.001	453.5
608.21	426.5
608.418	440.5
608.626	414.5
608.834	419.5
609.043	426.5
609.251	416.5
609.459	408.5
609.667	416.5
609.875	409.5
610.083	424.5
610.291	403.5
610.499	419.5
610.707	408.5
610.916	403.5
611.124	422.5
611.332	392.5
611.54	409.5
611.748	412.5
611.955	398.5
612.163	394.5
612.371	397.5
612.579	407.5
612.787	385.5
612.995	407.5
613.203	404.5
613.411	394.5
613.618	401.5
613.826	392.5
614.034	403.5
614.242	407.5
614.449	372.5
614.657	399.5
614.865	396.5
615.072	400.5
615.28	415.5
615.488	387.5
615.695	382.5
615.903	390.5
616.111	422.5
616.318	420.5
616.526	403.5
616.733	385.5
616.941	370.5
617.148	399.5
617.356	384.5
617.563	397.5
617.771	388.5
617.978	373.5
618.185	388.5
618.393	378.5
618.6	378.5
618.807	378.5
619.015	381.5
619.222	374.5
619.429	371.5
619.637	380.5
619.844	359.5
620.051	354.5
620.258	356.5
620.466	349.5
620.673	350.5
620.88	339.5
621.087	351.5
621.294	344.5
621.501	341.5
621.708	349.5
621.915	351.5
622.122	369.5
622.329	373.5
622.536	371.5
622.743	359.5
622.95	362.5
623.157	370.5
623.364	358.5
623.571	365.5
623.778	354.5
623.985	347.5
624.192	335.5
624.399	329.5
624.606	341.5
624.812	355.5
625.019	331.5
625.226	337.5
625.433	319.5
625.639	333.5
625.846	328.5
626.053	312.5
626.259	306.5
626.466	314.5
626.673	315.5
626.879	312.5
627.086	317.5
627.293	329.5
627.499	339.5
627.706	317.5
627.912	326.5
628.119	328.5
628.325	326.5
628.532	307.5
628.738	308.5
628.945	304.5
629.151	337.5
629.357	313.5
629.564	317.5
629.77	336.5
629.976	308.5
630.183	298.5
630.389	309.5
630.595	316.5
630.802	302.5
631.008	310.5
631.214	312.5
631.42	319.5
631.627	321.5
631.833	321.5
632.039	294.5
632.245	303.5
632.451	296.5
632.657	304.5
632.863	306.5
633.069	311.5
633.275	293.5
633.481	302.5
633.688	279.5
633.893	301.5
634.099	307.5
634.305	297.5
634.511	305.5
634.717	326.5
634.923	313.5
635.129	324.5
635.335	387.5
635.541	344.5
635.747	334.5
635.952	322.5
636.158	319.5
636.364	319.5
636.57	302.5
636.775	293.5
636.981	308.5
637.187	294.5
637.392	305.5
637.598	305.5
637.804	285.5
638.009	293.5
638.215	301.5
638.421	308.5
638.626	309.5
638.832	318.5
639.037	306.5
639.243	304.5
639.448	290.5
639.654	290.5
639.859	306.5
640.065	288.5
640.27	307.5
640.475	309.5
640.681	292.5
640.886	303.5
641.091	304.5
641.297	305.5
641.502	322.5
641.707	323.5
641.913	319.5
642.118	346.5
642.323	336.5
642.528	336.5
642.733	337.5
642.939	351.5
643.144	358.5
643.349	353.5
643.554	374.5
643.759	373.5
643.964	381.5
644.169	404.5
644.374	441.5
644.579	458.5
644.784	487.5
644.989	562.5
645.194	621.5
645.399	705.5
645.604	727.5
645.809	594.5
646.014	477.5
646.219	452.5
646.423	392.5
646.628	362.5
646.833	351.5
647.038	326.5
647.243	326.5
647.447	319.5
647.652	312.5
647.857	288.5
648.062	291.5
648.266	280.5
648.471	302.5
648.676	297.5
648.88	284.5
649.085	284.5
649.289	270.5
649.494	271.5
649.698	263.5
649.903	244.5
650.107	270.5
650.312	271.5
650.516	238.5
650.721	250.5
650.925	239.5
651.13	218.5
651.334	226.5
651.539	237.5
651.743	237.5
651.947	239.5
652.152	228.5
652.356	238.5
652.56	245.5
652.764	267.5
652.969	246.5
653.173	226.5
653.377	228.5
653.581	204.5
653.785	222.5
653.99	217.5
654.194	202.5
654.398	189.5
654.602	194.5
654.806	196.5
655.01	188.5
655.214	195.5
655.418	199.5
655.622	210.5
655.826	219.5
656.03	208.5
656.234	203.5
656.438	216.5
656.642	222.5
656.846	221.5
657.049	209.5
657.253	201.5
657.457	179.5
657.661	179.5
657.865	175.5
658.068	172.5
658.272	151.5
658.476	159.5
658.68	155.5
658.883	150.5
659.087	139.5
659.291	129.5
659.494	123.5
659.698	136.5
659.901	144.5
660.105	119.5
660.309	133.5
660.512	117.5
660.716	116.5
660.919	94.5
661.123	129.5
661.326	112.5
661.53	106.5
661.733	93.5
661.936	113.5
662.14	103.5
662.343	72.5
662.546	95.5
662.75	106.5
662.953	87.5
663.156	90.5
663.36	93.5
663.563	88.5
663.766	78.5
663.969	90.5
664.173	78.5
664.376	87.5
664.579	86.5
664.782	74.5
664.985	75.5
665.188	79.5
665.391	69.5
665.594	75.5
665.797	79.5
666	75.5
666.203	82.5
666.406	80.5
666.609	76.5
666.812	83.5
667.015	74.5
667.218	86.5
667.421	69.5
667.624	59.5
667.827	75.5
668.03	80.5
668.232	81.5
668.435	61.5
668.638	75.5
668.841	96.5
669.043	68.5
669.246	66.5
669.449	82.5
669.651	82.5
669.854	78.5
670.057	78.5
670.259	73.5
670.462	69.5
670.665	90.5
670.867	83.5
671.07	97.5
671.272	81.5
671.475	68.5
671.677	89.5
671.88	87.5
672.082	69.5
672.284	77.5
672.487	92.5
672.689	89.5
672.892	89.5
