Data from SnStandardFlinnAPT0064_LampEnergy10_LIBS07252019.E.O._I.C._HRD10591_15-22-08-494.txt Node
Date: Thu Jul 25 15:22:08 EDT 2019
User: cochatt
Spectrometer: HR+D1059
Trigger mode: 1
Integration Time (sec): 1.000000E-1
Scans to average: 1
Electric dark correction enabled: true
Nonlinearity correction enabled: false
Boxcar width: 0
XAxis mode: Wavelengths
Number of Pixels in Spectrum: 2048
>>>>>Begin Spectral Data<<<<<
223.165	-11.06
223.4	-11.06
223.635	-11.06
223.869	-12.06
224.104	-17.06
224.338	-21.06
224.573	-3.06
224.808	-18.06
225.042	-11.06
225.277	4.94
225.511	-12.06
225.746	9.94
225.98	-5.06
226.215	-2.06
226.449	10.94
226.683	22.94
226.918	30.94
227.152	32.94
227.387	29.94
227.621	33.94
227.856	59.94
228.09	47.94
228.324	53.94
228.559	43.94
228.793	117.94
229.027	310.94
229.262	342.94
229.496	285.94
229.73	279.94
229.964	302.94
230.199	299.94
230.433	287.94
230.667	304.94
230.901	307.94
231.136	326.94
231.37	351.94
231.604	385.94
231.838	421.94
232.072	497.94
232.306	557.94
232.541	437.94
232.775	406.94
233.009	400.94
233.243	393.94
233.477	450.94
233.711	515.94
233.945	566.94
234.179	516.94
234.413	446.94
234.647	445.94
234.881	468.94
235.115	499.94
235.349	593.94
235.583	771.94
235.817	977.94
236.051	964.94
236.285	627.94
236.519	525.94
236.753	479.94
236.987	492.94
237.221	541.94
237.455	498.94
237.689	454.94
237.922	466.94
238.156	466.94
238.39	468.94
238.624	493.94
238.858	458.94
239.091	493.94
239.325	469.94
239.559	493.94
239.793	515.94
240.027	507.94
240.26	507.94
240.494	520.94
240.728	570.94
240.961	604.94
241.195	641.94
241.429	666.94
241.662	693.94
241.896	746.94
242.13	924.94
242.363	1212.94
242.597	1585.94
242.83	1485.94
243.064	1479.94
243.298	1786.94
243.531	1484.94
243.765	936.94
243.998	738.94
244.232	683.94
244.465	649.94
244.699	654.94
244.932	633.94
245.166	669.94
245.399	672.94
245.633	681.94
245.866	694.94
246.099	655.94
246.333	657.94
246.566	675.94
246.8	625.94
247.033	645.94
247.266	647.94
247.5	662.94
247.733	674.94
247.966	676.94
248.2	763.94
248.433	849.94
248.666	998.94
248.899	937.94
249.133	839.94
249.366	858.94
249.599	949.94
249.832	1048.94
250.066	1062.94
250.299	835.94
250.532	747.94
250.765	718.94
250.998	703.94
251.231	707.94
251.465	709.94
251.698	744.94
251.931	734.94
252.164	728.94
252.397	760.94
252.63	791.94
252.863	783.94
253.096	753.94
253.329	783.94
253.562	789.94
253.795	757.94
254.028	799.94
254.261	799.94
254.494	862.94
254.727	998.94
254.96	1229.94
255.193	1180.94
255.426	967.94
255.659	883.94
255.892	867.94
256.124	881.94
256.357	867.94
256.59	886.94
256.823	945.94
257.056	1110.94
257.289	1307.94
257.521	1462.94
257.754	1157.94
257.987	968.94
258.22	902.94
258.452	892.94
258.685	893.94
258.918	944.94
259.151	961.94
259.383	1063.94
259.616	1206.94
259.849	1234.94
260.081	1073.94
260.314	979.94
260.547	969.94
260.779	919.94
261.012	945.94
261.244	971.94
261.477	974.94
261.71	981.94
261.942	1016.94
262.175	1018.94
262.407	1038.94
262.64	1061.94
262.872	1095.94
263.105	1127.94
263.337	1186.94
263.57	1289.94
263.802	1307.94
264.035	1334.94
264.267	1333.94
264.499	1393.94
264.732	1409.94
264.964	1430.94
265.197	1434.94
265.429	1459.94
265.661	1465.94
265.894	1601.94
266.126	1768.94
266.358	1953.94
266.591	1907.94
266.823	1613.94
267.055	1461.94
267.287	1380.94
267.52	1322.94
267.752	1324.94
267.984	1284.94
268.216	1249.94
268.448	1237.94
268.681	1230.94
268.913	1232.94
269.145	1225.94
269.377	1221.94
269.609	1225.94
269.841	1240.94
270.073	1356.94
270.306	1624.94
270.538	2102.94
270.77	3133.94
271.002	3891.94
271.234	2721.94
271.466	1831.94
271.698	1519.94
271.93	1364.94
272.162	1327.94
272.394	1296.94
272.626	1245.94
272.858	1213.94
273.09	1206.94
273.322	1201.94
273.553	1202.94
273.785	1197.94
274.017	1205.94
274.249	1241.94
274.481	1173.94
274.713	1195.94
274.945	1191.94
275.176	1231.94
275.408	1201.94
275.64	1225.94
275.872	1233.94
276.104	1209.94
276.335	1259.94
276.567	1266.94
276.799	1242.94
277.031	1285.94
277.262	1343.94
277.494	1357.94
277.726	1522.94
277.957	1815.94
278.189	2074.94
278.421	1953.94
278.652	1713.94
278.884	1637.94
279.115	1473.94
279.347	1424.94
279.579	1405.94
279.81	1366.94
280.042	1369.94
280.273	1414.94
280.505	1427.94
280.736	1477.94
280.968	1590.94
281.199	1766.94
281.431	1978.94
281.662	2031.94
281.894	1759.94
282.125	1632.94
282.356	1616.94
282.588	1632.94
282.819	1659.94
283.051	1793.94
283.282	1942.94
283.513	2441.94
283.745	3556.94
283.976	5545.94
284.207	7857.94
284.439	7143.94
284.67	4420.94
284.901	3607.94
285.132	3635.94
285.364	3459.94
285.595	2621.94
285.826	2357.94
286.057	2817.94
286.288	3798.94
286.52	5158.94
286.751	4731.94
286.982	2961.94
287.213	2223.94
287.444	1953.94
287.675	1861.94
287.906	1727.94
288.138	1679.94
288.369	1712.94
288.6	1676.94
288.831	1662.94
289.062	1630.94
289.293	1676.94
289.524	1655.94
289.755	1691.94
289.986	1681.94
290.217	1693.94
290.448	1691.94
290.679	1726.94
290.91	1783.94
291.141	1830.94
291.371	2025.94
291.602	2093.94
291.833	1883.94
292.064	1736.94
292.295	1673.94
292.526	1664.94
292.757	1574.94
292.987	1578.94
293.218	1551.94
293.449	1599.94
293.68	1605.94
293.91	1562.94
294.141	1571.94
294.372	1553.94
294.603	1545.94
294.833	1542.94
295.064	1534.94
295.295	1537.94
295.525	1522.94
295.756	1551.94
295.987	1535.94
296.217	1561.94
296.448	1543.94
296.679	1560.94
296.909	1578.94
297.14	1607.94
297.37	1602.94
297.601	1659.94
297.831	1598.94
298.062	1610.94
298.292	1648.94
298.523	1661.94
298.753	1721.94
298.984	1726.94
299.214	1726.94
299.445	1752.94
299.675	1768.94
299.905	1846.94
300.136	1905.94
300.366	2103.94
300.597	2745.94
300.827	3713.94
301.057	5103.94
301.288	5123.94
301.518	3313.94
301.748	2521.94
301.979	2305.94
302.209	2235.94
302.439	2272.94
302.669	2409.94
302.9	2913.94
303.13	4070.94
303.36	5998.94
303.59	7998.94
303.82	7014.94
304.051	4113.94
304.281	2963.94
304.511	2470.94
304.741	2279.94
304.971	2154.94
305.201	2047.94
305.431	2005.94
305.661	1970.94
305.891	1883.94
306.121	1841.94
306.352	1843.94
306.582	1797.94
306.812	1807.94
307.042	1814.94
307.272	1808.94
307.502	1815.94
307.731	1832.94
307.961	1815.94
308.191	1779.94
308.421	1815.94
308.651	1798.94
308.881	1774.94
309.111	1774.94
309.341	1795.94
309.571	1810.94
309.8	1840.94
310.03	1877.94
310.26	1854.94
310.49	1827.94
310.72	1898.94
310.949	1852.94
311.179	1883.94
311.409	1893.94
311.639	1919.94
311.868	1933.94
312.098	1949.94
312.328	1983.94
312.557	1906.94
312.787	1942.94
313.017	1985.94
313.246	1986.94
313.476	1983.94
313.706	2081.94
313.935	2176.94
314.165	2354.94
314.394	2443.94
314.624	2353.94
314.853	2160.94
315.083	2201.94
315.312	2133.94
315.542	2160.94
315.771	2187.94
316.001	2228.94
316.23	2341.94
316.46	2421.94
316.689	2623.94
316.919	3143.94
317.148	4549.94
317.377	6909.94
317.607	10314.94
317.836	10579.94
318.065	6377.94
318.295	4125.94
318.524	3341.94
318.753	2903.94
318.983	2713.94
319.212	2532.94
319.441	2513.94
319.67	2453.94
319.9	2334.94
320.129	2349.94
320.358	2346.94
320.587	2306.94
320.816	2345.94
321.046	2335.94
321.275	2363.94
321.504	2344.94
321.733	2396.94
321.962	2478.94
322.191	2495.94
322.42	2479.94
322.649	2488.94
322.878	2455.94
323.108	2479.94
323.337	2541.94
323.566	2502.94
323.795	2649.94
324.024	2625.94
324.253	2703.94
324.482	2833.94
324.71	2953.94
324.939	3156.94
325.168	3250.94
325.397	3398.94
325.626	3977.94
325.855	5507.94
326.084	8570.94
326.313	12485.94
326.542	13205.94
326.77	8817.94
326.999	5807.94
327.228	4819.94
327.457	4603.94
327.686	4702.94
327.914	4982.94
328.143	5845.94
328.372	6996.94
328.6	7462.94
328.829	6722.94
329.058	5697.94
329.287	4977.94
329.515	4604.94
329.744	4259.94
329.972	4029.94
330.201	3843.94
330.43	3711.94
330.658	3599.94
330.887	3552.94
331.115	3462.94
331.344	3548.94
331.572	3409.94
331.801	3440.94
332.03	3478.94
332.258	3568.94
332.486	3689.94
332.715	4285.94
332.943	5249.94
333.172	6516.94
333.4	6442.94
333.629	4876.94
333.857	4403.94
334.085	4410.94
334.314	4641.94
334.542	4981.94
334.771	5942.94
334.999	7326.94
335.227	9151.94
335.455	10129.94
335.684	9108.94
335.912	7508.94
336.14	6346.94
336.369	5637.94
336.597	5157.94
336.825	4730.94
337.053	4511.94
337.281	4199.94
337.51	3967.94
337.738	3889.94
337.966	3703.94
338.194	3555.94
338.422	3429.94
338.65	3367.94
338.878	3333.94
339.106	3213.94
339.334	3197.94
339.562	3133.94
339.79	3104.94
340.018	3063.94
340.246	3012.94
340.474	2999.94
340.702	3029.94
340.93	2993.94
341.158	3029.94
341.386	2971.94
341.614	2971.94
341.842	2902.94
342.07	2826.94
342.298	2835.94
342.526	2767.94
342.754	2757.94
342.981	2751.94
343.209	2698.94
343.437	2730.94
343.665	2752.94
343.893	2801.94
344.12	2847.94
344.348	2784.94
344.576	2719.94
344.804	2693.94
345.031	2665.94
345.259	2615.94
345.487	2600.94
345.714	2529.94
345.942	2567.94
346.17	2534.94
346.397	2497.94
346.625	2538.94
346.853	2465.94
347.08	2471.94
347.308	2531.94
347.535	2522.94
347.763	2506.94
347.99	2489.94
348.218	2549.94
348.445	2476.94
348.673	2456.94
348.9	2451.94
349.128	2466.94
349.355	2454.94
349.583	2457.94
349.81	2427.94
350.037	2427.94
350.265	2407.94
350.492	2396.94
350.72	2430.94
350.947	2418.94
351.174	2401.94
351.402	2391.94
351.629	2393.94
351.856	2407.94
352.083	2391.94
352.311	2385.94
352.538	2408.94
352.765	2351.94
352.992	2358.94
353.22	2321.94
353.447	2373.94
353.674	2370.94
353.901	2354.94
354.128	2394.94
354.355	2382.94
354.583	2361.94
354.81	2423.94
355.037	2457.94
355.264	2441.94
355.491	2434.94
355.718	2457.94
355.945	2441.94
356.172	2461.94
356.399	2444.94
356.626	2490.94
356.853	2517.94
357.08	2491.94
357.307	2536.94
357.534	2575.94
357.761	2571.94
357.988	2567.94
358.215	2530.94
358.441	2543.94
358.668	2529.94
358.895	2529.94
359.122	2531.94
359.349	2554.94
359.576	2496.94
359.802	2569.94
360.029	2558.94
360.256	2542.94
360.483	2581.94
360.709	2540.94
360.936	2510.94
361.163	2522.94
361.39	2565.94
361.616	2552.94
361.843	2582.94
362.07	2542.94
362.296	2505.94
362.523	2577.94
362.749	2537.94
362.976	2514.94
363.203	2551.94
363.429	2527.94
363.656	2536.94
363.882	2535.94
364.109	2529.94
364.335	2492.94
364.562	2531.94
364.788	2589.94
365.015	2584.94
365.241	2656.94
365.468	2788.94
365.694	2956.94
365.92	2769.94
366.147	2644.94
366.373	2634.94
366.599	2629.94
366.826	2605.94
367.052	2586.94
367.278	2557.94
367.505	2586.94
367.731	2594.94
367.957	2626.94
368.184	2666.94
368.41	2699.94
368.636	2662.94
368.862	2634.94
369.089	2658.94
369.315	2630.94
369.541	2656.94
369.767	2614.94
369.993	2654.94
370.219	2675.94
370.445	2683.94
370.672	2647.94
370.898	2695.94
371.124	2707.94
371.35	2725.94
371.576	2744.94
371.802	2742.94
372.028	2807.94
372.254	2752.94
372.48	2778.94
372.706	2833.94
372.932	2780.94
373.158	2773.94
373.384	2798.94
373.61	2791.94
373.835	2795.94
374.061	2806.94
374.287	2797.94
374.513	2810.94
374.739	2894.94
374.965	2910.94
375.191	2907.94
375.416	2874.94
375.642	2847.94
375.868	2841.94
376.094	2813.94
376.319	2833.94
376.545	2806.94
376.771	2784.94
376.997	2777.94
377.222	2713.94
377.448	2698.94
377.674	2726.94
377.899	2693.94
378.125	2730.94
378.35	2746.94
378.576	2730.94
378.802	2737.94
379.027	2820.94
379.253	2908.94
379.478	3057.94
379.704	3543.94
379.929	5108.94
380.155	7832.94
380.38	8328.94
380.606	5143.94
380.831	3581.94
381.057	3184.94
381.282	2951.94
381.507	2810.94
381.733	2797.94
381.958	2754.94
382.184	2733.94
382.409	2687.94
382.634	2697.94
382.86	2692.94
383.085	2675.94
383.31	2658.94
383.535	2709.94
383.761	2730.94
383.986	2717.94
384.211	2705.94
384.436	2744.94
384.662	2773.94
384.887	2788.94
385.112	2749.94
385.337	2811.94
385.562	2786.94
385.787	2769.94
386.013	2835.94
386.238	2769.94
386.463	2811.94
386.688	2769.94
386.913	2749.94
387.138	2784.94
387.363	2759.94
387.588	2727.94
387.813	2763.94
388.038	2761.94
388.263	2757.94
388.488	2754.94
388.713	2801.94
388.938	2747.94
389.163	2695.94
389.387	2742.94
389.612	2778.94
389.837	2787.94
390.062	2716.94
390.287	2828.94
390.512	2758.94
390.736	2817.94
390.961	2886.94
391.186	2855.94
391.411	2901.94
391.636	2938.94
391.86	2938.94
392.085	2966.94
392.31	2910.94
392.534	2872.94
392.759	2846.94
392.984	2837.94
393.208	2822.94
393.433	2828.94
393.658	2844.94
393.882	2806.94
394.107	2754.94
394.331	2799.94
394.556	2810.94
394.78	2781.94
395.005	2859.94
395.229	2829.94
395.454	2869.94
395.678	2886.94
395.903	2883.94
396.127	2889.94
396.352	2887.94
396.576	2863.94
396.801	2893.94
397.025	2920.94
397.249	2927.94
397.474	2937.94
397.698	2939.94
397.922	2986.94
398.147	2989.94
398.371	3017.94
398.595	3035.94
398.82	3073.94
399.044	3201.94
399.268	3333.94
399.492	3595.94
399.717	3666.94
399.941	3696.94
400.165	3565.94
400.389	3351.94
400.613	3243.94
400.837	3175.94
401.062	3186.94
401.286	3077.94
401.51	3083.94
401.734	3023.94
401.958	3073.94
402.182	3040.94
402.406	3038.94
402.63	3089.94
402.854	3093.94
403.078	3103.94
403.302	3135.94
403.526	3182.94
403.75	3171.94
403.974	3181.94
404.198	3141.94
404.422	3183.94
404.645	3161.94
404.869	3178.94
405.093	3165.94
405.317	3146.94
405.541	3265.94
405.765	3294.94
405.988	3241.94
406.212	3288.94
406.436	3231.94
406.66	3299.94
406.883	3259.94
407.107	3417.94
407.331	3374.94
407.555	3412.94
407.778	3485.94
408.002	3403.94
408.226	3409.94
408.449	3428.94
408.673	3297.94
408.896	3273.94
409.12	3166.94
409.344	3231.94
409.567	3173.94
409.791	3195.94
410.014	3127.94
410.238	3107.94
410.461	3174.94
410.685	3135.94
410.908	3128.94
411.132	3088.94
411.355	3023.94
411.578	3085.94
411.802	3054.94
412.025	3041.94
412.249	3083.94
412.472	3048.94
412.695	3016.94
412.919	2927.94
413.142	2970.94
413.365	3045.94
413.589	3001.94
413.812	2946.94
414.035	3005.94
414.258	2991.94
414.482	3002.94
414.705	3003.94
414.928	3029.94
415.151	2938.94
415.374	2969.94
415.597	2919.94
415.821	2901.94
416.044	2835.94
416.267	2913.94
416.49	2873.94
416.713	2856.94
416.936	2899.94
417.159	2812.94
417.382	2789.94
417.605	2845.94
417.828	2859.94
418.051	2860.94
418.274	2906.94
418.497	2839.94
418.72	2940.94
418.943	2897.94
419.166	3025.94
419.389	3217.94
419.611	3145.94
419.834	3039.94
420.057	3007.94
420.28	2940.94
420.503	2857.94
420.726	2845.94
420.948	2838.94
421.171	2893.94
421.394	2817.94
421.617	2849.94
421.839	2905.94
422.062	2898.94
422.285	2801.94
422.507	2959.94
422.73	2937.94
422.953	2934.94
423.175	2947.94
423.398	2938.94
423.621	2807.94
423.843	2875.94
424.066	2895.94
424.288	2855.94
424.511	2872.94
424.733	2854.94
424.956	2816.94
425.178	2799.94
425.401	2803.94
425.623	2827.94
425.846	2801.94
426.068	2753.94
426.291	2775.94
426.513	2729.94
426.735	2781.94
426.958	2769.94
427.18	2683.94
427.402	2703.94
427.625	2733.94
427.847	2647.94
428.069	2638.94
428.292	2670.94
428.514	2673.94
428.736	2640.94
428.958	2657.94
429.181	2595.94
429.403	2596.94
429.625	2659.94
429.847	2645.94
430.069	2656.94
430.292	2764.94
430.514	2839.94
430.736	2840.94
430.958	2714.94
431.18	2643.94
431.402	2623.94
431.624	2598.94
431.846	2640.94
432.068	2619.94
432.29	2646.94
432.512	2596.94
432.734	2606.94
432.956	2606.94
433.178	2597.94
433.4	2632.94
433.622	2636.94
433.844	2649.94
434.066	2635.94
434.287	2634.94
434.509	2697.94
434.731	2743.94
434.953	2735.94
435.175	2753.94
435.397	2737.94
435.618	2703.94
435.84	2660.94
436.062	2639.94
436.284	2633.94
436.505	2557.94
436.727	2632.94
436.949	2593.94
437.17	2597.94
437.392	2565.94
437.614	2592.94
437.835	2529.94
438.057	2569.94
438.278	2527.94
438.5	2571.94
438.721	2580.94
438.943	2667.94
439.165	2710.94
439.386	2757.94
439.608	2754.94
439.829	2750.94
440.05	2823.94
440.272	2869.94
440.493	2714.94
440.715	2721.94
440.936	2696.94
441.158	2731.94
441.379	2767.94
441.6	2837.94
441.822	2914.94
442.043	3027.94
442.264	3193.94
442.486	2995.94
442.707	2896.94
442.928	2794.94
443.149	2849.94
443.371	2811.94
443.592	2802.94
443.813	2870.94
444.034	2861.94
444.255	2891.94
444.476	2981.94
444.698	3027.94
444.919	2998.94
445.14	3177.94
445.361	3001.94
445.582	2850.94
445.803	2831.94
446.024	2817.94
446.245	2792.94
446.466	2755.94
446.687	2767.94
446.908	2751.94
447.129	2683.94
447.35	2664.94
447.571	2601.94
447.792	2574.94
448.013	2598.94
448.234	2562.94
448.455	2587.94
448.675	2653.94
448.896	2661.94
449.117	2759.94
449.338	3010.94
449.559	3104.94
449.779	2795.94
450	2603.94
450.221	2552.94
450.442	2575.94
450.662	2542.94
450.883	2474.94
451.104	2580.94
451.324	2518.94
451.545	2484.94
451.766	2533.94
451.986	2606.94
452.207	2755.94
452.428	3589.94
452.648	5361.94
452.869	4480.94
453.089	3068.94
453.31	2875.94
453.53	2879.94
453.751	3013.94
453.971	3134.94
454.192	3095.94
454.412	2679.94
454.633	2524.94
454.853	2456.94
455.073	2450.94
455.294	2445.94
455.514	2427.94
455.734	2403.94
455.955	2393.94
456.175	2427.94
456.395	2429.94
456.616	2410.94
456.836	2461.94
457.056	2489.94
457.276	2465.94
457.497	2624.94
457.717	2643.94
457.937	2565.94
458.157	2543.94
458.377	2606.94
458.598	2580.94
458.818	2597.94
459.038	2579.94
459.258	2590.94
459.478	2640.94
459.698	2664.94
459.918	2679.94
460.138	2703.94
460.358	2781.94
460.578	2767.94
460.798	2870.94
461.018	2877.94
461.238	2826.94
461.458	2864.94
461.678	2859.94
461.898	3011.94
462.118	2959.94
462.338	3007.94
462.558	3031.94
462.777	3124.94
462.997	3230.94
463.217	3334.94
463.437	3506.94
463.657	3524.94
463.876	3523.94
464.096	3342.94
464.316	3201.94
464.536	3123.94
464.755	3063.94
464.975	3025.94
465.195	2939.94
465.414	2827.94
465.634	2776.94
465.854	2726.94
466.073	2713.94
466.293	2662.94
466.512	2643.94
466.732	2683.94
466.951	2819.94
467.171	2980.94
467.391	2953.94
467.61	2655.94
467.829	2595.94
468.049	2621.94
468.268	2569.94
468.488	2581.94
468.707	2565.94
468.927	2590.94
469.146	2578.94
469.365	2618.94
469.585	2626.94
469.804	2680.94
470.023	2732.94
470.243	2769.94
470.462	2803.94
470.681	2970.94
470.901	3260.94
471.12	3723.94
471.339	3741.94
471.558	3165.94
471.777	2870.94
471.997	2771.94
472.216	2666.94
472.435	2659.94
472.654	2623.94
472.873	2581.94
473.092	2631.94
473.311	2615.94
473.53	2623.94
473.749	2642.94
473.968	2733.94
474.187	2568.94
474.406	2573.94
474.625	2550.94
474.844	2601.94
475.063	2633.94
475.282	2582.94
475.501	2616.94
475.72	2605.94
475.939	2675.94
476.158	2713.94
476.377	2729.94
476.596	2718.94
476.814	2775.94
477.033	2743.94
477.252	2792.94
477.471	2781.94
477.69	2881.94
477.908	2866.94
478.127	2937.94
478.346	2956.94
478.564	2981.94
478.783	3008.94
479.002	3056.94
479.22	3099.94
479.439	3110.94
479.658	3114.94
479.876	3109.94
480.095	3162.94
480.313	3208.94
480.532	3221.94
480.751	3189.94
480.969	3173.94
481.188	3078.94
481.406	3121.94
481.624	3093.94
481.843	3159.94
482.061	3134.94
482.28	3161.94
482.498	3147.94
482.717	3152.94
482.935	3236.94
483.153	3209.94
483.372	3222.94
483.59	3302.94
483.808	3283.94
484.027	3422.94
484.245	3597.94
484.463	4052.94
484.681	4488.94
484.9	4029.94
485.118	3721.94
485.336	3651.94
485.554	3780.94
485.772	4005.94
485.99	4555.94
486.209	4849.94
486.427	4031.94
486.645	3589.94
486.863	3459.94
487.081	3351.94
487.299	3348.94
487.517	3316.94
487.735	3341.94
487.953	3403.94
488.171	3379.94
488.389	3310.94
488.607	3275.94
488.825	3175.94
489.043	3205.94
489.261	3249.94
489.479	3215.94
489.696	3245.94
489.914	3269.94
490.132	3247.94
490.35	3266.94
490.568	3279.94
490.786	3294.94
491.003	3339.94
491.221	3425.94
491.439	3357.94
491.657	3344.94
491.874	3407.94
492.092	3456.94
492.31	3423.94
492.527	3339.94
492.745	3379.94
492.963	3369.94
493.18	3405.94
493.398	3386.94
493.615	3423.94
493.833	3403.94
494.05	3403.94
494.268	3434.94
494.485	3432.94
494.703	3414.94
494.92	3398.94
495.138	3428.94
495.355	3398.94
495.573	3439.94
495.79	3436.94
496.008	3475.94
496.225	3467.94
496.442	3490.94
496.66	3653.94
496.877	3921.94
497.094	3871.94
497.312	3672.94
497.529	3703.94
497.746	3750.94
497.963	3825.94
498.181	3900.94
498.398	3952.94
498.615	4090.94
498.832	4233.94
499.049	4424.94
499.267	4784.94
499.484	5007.94
499.701	5018.94
499.918	5160.94
500.135	5464.94
500.352	5738.94
500.569	5763.94
500.786	5693.94
501.003	5498.94
501.22	5260.94
501.437	5059.94
501.654	4733.94
501.871	4511.94
502.088	4401.94
502.305	4259.94
502.522	4121.94
502.739	4005.94
502.956	3873.94
503.172	3750.94
503.389	3695.94
503.606	3652.94
503.823	3616.94
504.04	3551.94
504.256	3602.94
504.473	3586.94
504.69	3534.94
504.907	3513.94
505.123	3457.94
505.34	3351.94
505.557	3281.94
505.773	3221.94
505.99	3228.94
506.207	3162.94
506.423	3127.94
506.64	3097.94
506.856	3003.94
507.073	3049.94
507.289	3001.94
507.506	2996.94
507.722	3041.94
507.939	2981.94
508.155	2975.94
508.372	2976.94
508.588	2895.94
508.805	2916.94
509.021	2929.94
509.238	2995.94
509.454	3169.94
509.67	3351.94
509.887	3118.94
510.103	3021.94
510.319	2971.94
510.536	2900.94
510.752	2949.94
510.968	2883.94
511.184	2879.94
511.401	2881.94
511.617	2853.94
511.833	2863.94
512.049	2813.94
512.265	2834.94
512.481	2855.94
512.698	2845.94
512.914	2816.94
513.13	2799.94
513.346	2855.94
513.562	2824.94
513.778	2855.94
513.994	2888.94
514.21	2961.94
514.426	3111.94
514.642	3222.94
514.858	2979.94
515.074	2921.94
515.29	2921.94
515.506	2906.94
515.721	2921.94
515.937	2885.94
516.153	2941.94
516.369	2907.94
516.585	2971.94
516.801	3079.94
517.016	3064.94
517.232	3189.94
517.448	3203.94
517.664	3207.94
517.879	3225.94
518.095	3199.94
518.311	3182.94
518.527	3182.94
518.742	3077.94
518.958	3143.94
519.173	3265.94
519.389	3118.94
519.605	3048.94
519.82	2919.94
520.036	2978.94
520.251	2854.94
520.467	2837.94
520.682	2875.94
520.898	2813.94
521.113	2741.94
521.329	2810.94
521.544	2825.94
521.76	2809.94
521.975	2771.94
522.19	2741.94
522.406	2705.94
522.621	2691.94
522.836	2736.94
523.052	2735.94
523.267	2679.94
523.482	2721.94
523.698	2722.94
523.913	2736.94
524.128	2719.94
524.343	2695.94
524.559	2728.94
524.774	2712.94
524.989	2630.94
525.204	2665.94
525.419	2678.94
525.634	2646.94
525.849	2669.94
526.064	2714.94
526.28	2709.94
526.495	2682.94
526.71	2688.94
526.925	2701.94
527.14	2735.94
527.355	2710.94
527.57	2715.94
527.785	2710.94
527.999	2741.94
528.214	2757.94
528.429	2792.94
528.644	2816.94
528.859	2861.94
529.074	2871.94
529.289	2919.94
529.503	2937.94
529.718	2883.94
529.933	2843.94
530.148	2878.94
530.363	2890.94
530.577	2900.94
530.792	2898.94
531.007	2888.94
531.221	2970.94
531.436	2961.94
531.651	2901.94
531.865	3009.94
532.08	3075.94
532.295	3157.94
532.509	3375.94
532.724	3314.94
532.938	3338.94
533.153	3509.94
533.367	3752.94
533.582	3986.94
533.796	3797.94
534.011	3711.94
534.225	3618.94
534.44	3493.94
534.654	3366.94
534.868	3335.94
535.083	3255.94
535.297	3208.94
535.511	3108.94
535.726	3076.94
535.94	3091.94
536.154	3006.94
536.369	2903.94
536.583	2913.94
536.797	2873.94
537.011	2846.94
537.225	2810.94
537.44	2778.94
537.654	2810.94
537.868	2729.94
538.082	2755.94
538.296	2721.94
538.51	2655.94
538.724	2705.94
538.938	2697.94
539.153	2678.94
539.367	2707.94
539.581	2653.94
539.795	2609.94
540.009	2607.94
540.222	2594.94
540.436	2583.94
540.65	2579.94
540.864	2637.94
541.078	2683.94
541.292	2811.94
541.506	3294.94
541.72	3490.94
541.934	2991.94
542.147	2820.94
542.361	2732.94
542.575	2640.94
542.789	2597.94
543.002	2557.94
543.216	2485.94
543.43	2555.94
543.644	2470.94
543.857	2523.94
544.071	2522.94
544.285	2542.94
544.498	2521.94
544.712	2552.94
544.925	2556.94
545.139	2537.94
545.352	2581.94
545.566	2562.94
545.779	2562.94
545.993	2538.94
546.206	2588.94
546.42	2547.94
546.633	2537.94
546.847	2553.94
547.06	2546.94
547.274	2527.94
547.487	2527.94
547.7	2548.94
547.914	2519.94
548.127	2527.94
548.34	2524.94
548.554	2533.94
548.767	2522.94
548.98	2527.94
549.193	2519.94
549.407	2534.94
549.62	2528.94
549.833	2545.94
550.046	2588.94
550.259	2553.94
550.473	2499.94
550.686	2572.94
550.899	2593.94
551.112	2527.94
551.325	2563.94
551.538	2569.94
551.751	2527.94
551.964	2586.94
552.177	2570.94
552.39	2619.94
552.603	2657.94
552.816	2695.94
553.029	2716.94
553.242	2806.94
553.455	2793.94
553.667	2782.94
553.88	2818.94
554.093	2856.94
554.306	2808.94
554.519	2906.94
554.732	2915.94
554.944	2928.94
555.157	3005.94
555.37	3066.94
555.583	3171.94
555.795	3371.94
556.008	3635.94
556.221	4061.94
556.433	4378.94
556.646	4367.94
556.859	4093.94
557.071	3987.94
557.284	3880.94
557.496	3747.94
557.709	3660.94
557.921	3626.94
558.134	3633.94
558.346	3675.94
558.559	3783.94
558.771	4025.94
558.984	4434.94
559.196	4738.94
559.409	4474.94
559.621	4105.94
559.833	3892.94
560.046	3650.94
560.258	3463.94
560.47	3309.94
560.683	3178.94
560.895	3065.94
561.107	2942.94
561.32	2867.94
561.532	2833.94
561.744	2715.94
561.956	2707.94
562.168	2663.94
562.381	2635.94
562.593	2611.94
562.805	2659.94
563.017	2668.94
563.229	2691.94
563.441	3151.94
563.653	2625.94
563.865	2461.94
564.077	2441.94
564.289	2355.94
564.501	2346.94
564.713	2333.94
564.925	2347.94
565.137	2343.94
565.349	2333.94
565.561	2334.94
565.773	2375.94
565.985	2374.94
566.197	2433.94
566.408	2485.94
566.62	2479.94
566.832	2586.94
567.044	2569.94
567.255	2578.94
567.467	2642.94
567.679	2652.94
567.891	2750.94
568.102	3131.94
568.314	3614.94
568.526	3131.94
568.737	2678.94
568.949	2473.94
569.161	2297.94
569.372	2208.94
569.584	2177.94
569.795	2142.94
570.007	2116.94
570.218	2170.94
570.43	2236.94
570.641	2075.94
570.853	1974.94
571.064	1984.94
571.276	1942.94
571.487	1905.94
571.698	1841.94
571.91	1850.94
572.121	1833.94
572.333	1866.94
572.544	1843.94
572.755	1977.94
572.966	2322.94
573.178	2114.94
573.389	1887.94
573.6	1828.94
573.811	1749.94
574.023	1729.94
574.234	1714.94
574.445	1693.94
574.656	1711.94
574.867	1682.94
575.078	1727.94
575.289	1689.94
575.501	1682.94
575.712	1710.94
575.923	1705.94
576.134	1667.94
576.345	1745.94
576.556	1671.94
576.767	1699.94
576.978	1732.94
577.188	1687.94
577.399	1754.94
577.61	1734.94
577.821	1750.94
578.032	1735.94
578.243	1779.94
578.454	1807.94
578.665	1847.94
578.875	1882.94
579.086	1963.94
579.297	2082.94
579.508	2179.94
579.718	2345.94
579.929	2711.94
580.14	3130.94
580.35	3225.94
580.561	2961.94
580.772	2661.94
580.982	2430.94
581.193	2271.94
581.403	2161.94
581.614	2100.94
581.825	2010.94
582.035	1933.94
582.246	1848.94
582.456	1811.94
582.667	1775.94
582.877	1722.94
583.087	1698.94
583.298	1667.94
583.508	1606.94
583.719	1585.94
583.929	1531.94
584.139	1508.94
584.35	1458.94
584.56	1438.94
584.77	1437.94
584.981	1414.94
585.191	1426.94
585.401	1397.94
585.611	1340.94
585.821	1386.94
586.032	1360.94
586.242	1358.94
586.452	1331.94
586.662	1309.94
586.872	1309.94
587.082	1271.94
587.292	1256.94
587.502	1248.94
587.713	1227.94
587.923	1239.94
588.133	1253.94
588.343	1221.94
588.553	1224.94
588.762	1190.94
588.972	1215.94
589.182	1248.94
589.392	1187.94
589.602	1188.94
589.812	1192.94
590.022	1175.94
590.232	1181.94
590.441	1190.94
590.651	1193.94
590.861	1174.94
591.071	1194.94
591.281	1167.94
591.49	1160.94
591.7	1179.94
591.91	1168.94
592.119	1152.94
592.329	1177.94
592.539	1191.94
592.748	1208.94
592.958	1227.94
593.167	1187.94
593.377	1198.94
593.587	1220.94
593.796	1203.94
594.006	1210.94
594.215	1191.94
594.424	1202.94
594.634	1185.94
594.843	1198.94
595.053	1155.94
595.262	1146.94
595.472	1109.94
595.681	1114.94
595.89	1068.94
596.1	1069.94
596.309	1064.94
596.518	1042.94
596.727	1074.94
596.937	986.94
597.146	1024.94
597.355	1019.94
597.564	1009.94
597.774	958.94
597.983	1006.94
598.192	982.94
598.401	994.94
598.61	974.94
598.819	968.94
599.028	934.94
599.237	962.94
599.446	940.94
599.655	933.94
599.864	941.94
600.073	925.94
600.282	919.94
600.491	947.94
600.7	941.94
600.909	927.94
601.118	979.94
601.327	943.94
601.536	945.94
601.745	979.94
601.953	1068.94
602.162	1179.94
602.371	1055.94
602.58	981.94
602.789	955.94
602.997	933.94
603.206	948.94
603.415	928.94
603.623	915.94
603.832	927.94
604.041	910.94
604.249	885.94
604.458	903.94
604.666	873.94
604.875	883.94
605.084	873.94
605.292	905.94
605.501	884.94
605.709	879.94
605.918	886.94
606.126	903.94
606.334	903.94
606.543	935.94
606.751	969.94
606.96	1118.94
607.168	1227.94
607.376	1021.94
607.585	935.94
607.793	945.94
608.001	905.94
608.21	900.94
608.418	848.94
608.626	879.94
608.834	851.94
609.043	827.94
609.251	887.94
609.459	839.94
609.667	832.94
609.875	851.94
610.083	833.94
610.291	823.94
610.499	817.94
610.707	846.94
610.916	806.94
611.124	833.94
611.332	814.94
611.54	813.94
611.748	810.94
611.955	806.94
612.163	783.94
612.371	805.94
612.579	793.94
612.787	775.94
612.995	800.94
613.203	783.94
613.411	789.94
613.618	785.94
613.826	790.94
614.034	808.94
614.242	806.94
614.449	776.94
614.657	777.94
614.865	805.94
615.072	767.94
615.28	797.94
615.488	788.94
615.695	789.94
615.903	762.94
616.111	798.94
616.318	758.94
616.526	779.94
616.733	765.94
616.941	779.94
617.148	752.94
617.356	763.94
617.563	782.94
617.771	765.94
617.978	726.94
618.185	757.94
618.393	745.94
618.6	754.94
618.807	758.94
619.015	754.94
619.222	767.94
619.429	738.94
619.637	731.94
619.844	715.94
620.051	726.94
620.258	731.94
620.466	708.94
620.673	709.94
620.88	693.94
621.087	703.94
621.294	689.94
621.501	705.94
621.708	673.94
621.915	702.94
622.122	661.94
622.329	703.94
622.536	715.94
622.743	703.94
622.95	667.94
623.157	668.94
623.364	703.94
623.571	695.94
623.778	687.94
623.985	683.94
624.192	676.94
624.399	687.94
624.606	683.94
624.812	665.94
625.019	638.94
625.226	665.94
625.433	652.94
625.639	609.94
625.846	643.94
626.053	655.94
626.259	626.94
626.466	621.94
626.673	617.94
626.879	623.94
627.086	617.94
627.293	647.94
627.499	617.94
627.706	609.94
627.912	614.94
628.119	649.94
628.325	611.94
628.532	621.94
628.738	647.94
628.945	627.94
629.151	611.94
629.357	605.94
629.564	605.94
629.77	621.94
629.976	597.94
630.183	603.94
630.389	593.94
630.595	600.94
630.802	603.94
631.008	612.94
631.214	601.94
631.42	590.94
631.627	603.94
631.833	600.94
632.039	583.94
632.245	581.94
632.451	571.94
632.657	582.94
632.863	575.94
633.069	598.94
633.275	570.94
633.481	550.94
633.688	565.94
633.893	577.94
634.099	576.94
634.305	596.94
634.511	578.94
634.717	598.94
634.923	577.94
635.129	693.94
635.335	763.94
635.541	676.94
635.747	623.94
635.952	599.94
636.158	590.94
636.364	582.94
636.57	575.94
636.775	584.94
636.981	591.94
637.187	563.94
637.392	614.94
637.598	587.94
637.804	580.94
638.009	588.94
638.215	582.94
638.421	552.94
638.626	580.94
638.832	594.94
639.037	581.94
639.243	571.94
639.448	586.94
639.654	591.94
639.859	613.94
640.065	601.94
640.27	625.94
640.475	606.94
640.681	599.94
640.886	597.94
641.091	647.94
641.297	624.94
641.502	601.94
641.707	632.94
641.913	655.94
642.118	650.94
642.323	689.94
642.528	673.94
642.733	658.94
642.939	699.94
643.144	702.94
643.349	732.94
643.554	772.94
643.759	791.94
643.964	841.94
644.169	854.94
644.374	936.94
644.579	1011.94
644.784	1099.94
644.989	1257.94
645.194	1487.94
645.399	1860.94
645.604	1979.94
645.809	1474.94
646.014	1152.94
646.219	966.94
646.423	809.94
646.628	727.94
646.833	699.94
647.038	647.94
647.243	632.94
647.447	615.94
647.652	593.94
647.857	552.94
648.062	578.94
648.266	560.94
648.471	542.94
648.676	537.94
648.88	530.94
649.085	527.94
649.289	522.94
649.494	513.94
649.698	484.94
649.903	513.94
650.107	505.94
650.312	490.94
650.516	474.94
650.721	463.94
650.925	448.94
651.13	435.94
651.334	425.94
651.539	449.94
651.743	425.94
651.947	421.94
652.152	419.94
652.356	441.94
652.56	419.94
652.764	489.94
652.969	451.94
653.173	421.94
653.377	394.94
653.581	385.94
653.785	387.94
653.99	374.94
654.194	365.94
654.398	346.94
654.602	347.94
654.806	350.94
655.01	351.94
655.214	366.94
655.418	355.94
655.622	350.94
655.826	335.94
656.03	337.94
656.234	357.94
656.438	361.94
656.642	385.94
656.846	381.94
657.049	353.94
657.253	319.94
657.457	302.94
657.661	278.94
657.865	270.94
658.068	259.94
658.272	261.94
658.476	236.94
658.68	232.94
658.883	208.94
659.087	195.94
659.291	203.94
659.494	178.94
659.698	178.94
659.901	176.94
660.105	177.94
660.309	173.94
660.512	170.94
660.716	159.94
660.919	152.94
661.123	145.94
661.326	144.94
661.53	130.94
661.733	121.94
661.936	113.94
662.14	110.94
662.343	95.94
662.546	109.94
662.75	122.94
662.953	110.94
663.156	99.94
663.36	102.94
663.563	106.94
663.766	93.94
663.969	100.94
664.173	83.94
664.376	89.94
664.579	102.94
664.782	102.94
664.985	89.94
665.188	85.94
665.391	83.94
665.594	84.94
665.797	82.94
666	65.94
666.203	79.94
666.406	89.94
666.609	92.94
666.812	91.94
667.015	88.94
667.218	82.94
667.421	73.94
667.624	76.94
667.827	91.94
668.03	75.94
668.232	81.94
668.435	93.94
668.638	78.94
668.841	73.94
669.043	75.94
669.246	82.94
669.449	83.94
669.651	88.94
669.854	84.94
670.057	92.94
670.259	68.94
670.462	81.94
670.665	91.94
670.867	86.94
671.07	89.94
671.272	90.94
671.475	84.94
671.677	94.94
671.88	87.94
672.082	88.94
672.284	75.94
672.487	90.94
672.689	84.94
672.892	87.94
