Data from SnStandardFlinnAPT0064_QswitchEnergy10_LIBS07252019.E.O._I.C._HRD10591_15-29-01-974.txt Node
Date: Thu Jul 25 15:29:01 EDT 2019
User: cochatt
Spectrometer: HR+D1059
Trigger mode: 1
Integration Time (sec): 1.000000E-1
Scans to average: 1
Electric dark correction enabled: true
Nonlinearity correction enabled: false
Boxcar width: 0
XAxis mode: Wavelengths
Number of Pixels in Spectrum: 2048
>>>>>Begin Spectral Data<<<<<
223.165	-8.12
223.4	-8.12
223.635	-8.12
223.869	-28.12
224.104	-24.12
224.338	-9.12
224.573	-14.12
224.808	-10.12
225.042	-15.12
225.277	-3.12
225.511	6.88
225.746	5.88
225.98	-10.12
226.215	13.88
226.449	12.88
226.683	26.88
226.918	14.88
227.152	40.88
227.387	46.88
227.621	35.88
227.856	43.88
228.09	60.88
228.324	54.88
228.559	68.88
228.793	79.88
229.027	69.88
229.262	72.88
229.496	74.88
229.73	70.88
229.964	75.88
230.199	71.88
230.433	80.88
230.667	79.88
230.901	75.88
231.136	77.88
231.37	79.88
231.604	83.88
231.838	108.88
232.072	122.88
232.306	142.88
232.541	104.88
232.775	100.88
233.009	90.88
233.243	90.88
233.477	98.88
233.711	106.88
233.945	116.88
234.179	97.88
234.413	75.88
234.647	97.88
234.881	85.88
235.115	100.88
235.349	105.88
235.583	109.88
235.817	144.88
236.051	141.88
236.285	102.88
236.519	101.88
236.753	85.88
236.987	94.88
237.221	90.88
237.455	83.88
237.689	91.88
237.922	86.88
238.156	85.88
238.39	85.88
238.624	93.88
238.858	84.88
239.091	91.88
239.325	85.88
239.559	83.88
239.793	91.88
240.027	80.88
240.26	96.88
240.494	86.88
240.728	91.88
240.961	75.88
241.195	102.88
241.429	97.88
241.662	90.88
241.896	86.88
242.13	108.88
242.363	160.88
242.597	191.88
242.83	149.88
243.064	157.88
243.298	200.88
243.531	171.88
243.765	107.88
243.998	91.88
244.232	79.88
244.465	80.88
244.699	78.88
244.932	94.88
245.166	88.88
245.399	94.88
245.633	87.88
245.866	97.88
246.099	86.88
246.333	91.88
246.566	69.88
246.8	78.88
247.033	84.88
247.266	78.88
247.5	73.88
247.733	95.88
247.966	85.88
248.2	101.88
248.433	129.88
248.666	147.88
248.899	123.88
249.133	102.88
249.366	101.88
249.599	113.88
249.832	133.88
250.066	157.88
250.299	99.88
250.532	78.88
250.765	81.88
250.998	82.88
251.231	89.88
251.465	90.88
251.698	84.88
251.931	83.88
252.164	73.88
252.397	108.88
252.63	106.88
252.863	116.88
253.096	97.88
253.329	103.88
253.562	109.88
253.795	90.88
254.028	89.88
254.261	93.88
254.494	92.88
254.727	131.88
254.96	170.88
255.193	148.88
255.426	102.88
255.659	96.88
255.892	109.88
256.124	94.88
256.357	92.88
256.59	111.88
256.823	96.88
257.056	121.88
257.289	159.88
257.521	200.88
257.754	139.88
257.987	110.88
258.22	89.88
258.452	84.88
258.685	89.88
258.918	91.88
259.151	101.88
259.383	114.88
259.616	161.88
259.849	186.88
260.081	130.88
260.314	99.88
260.547	83.88
260.779	77.88
261.012	97.88
261.244	87.88
261.477	94.88
261.71	97.88
261.942	93.88
262.175	81.88
262.407	91.88
262.64	87.88
262.872	103.88
263.105	68.88
263.337	96.88
263.57	91.88
263.802	89.88
264.035	102.88
264.267	82.88
264.499	82.88
264.732	84.88
264.964	97.88
265.197	80.88
265.429	103.88
265.661	113.88
265.894	104.88
266.126	127.88
266.358	188.88
266.591	168.88
266.823	121.88
267.055	79.88
267.287	91.88
267.52	90.88
267.752	95.88
267.984	90.88
268.216	81.88
268.448	85.88
268.681	86.88
268.913	87.88
269.145	105.88
269.377	76.88
269.609	115.88
269.841	93.88
270.073	113.88
270.306	153.88
270.538	227.88
270.77	379.88
271.002	462.88
271.234	223.88
271.466	132.88
271.698	105.88
271.93	85.88
272.162	91.88
272.394	106.88
272.626	99.88
272.858	90.88
273.09	90.88
273.322	94.88
273.553	91.88
273.785	99.88
274.017	93.88
274.249	88.88
274.481	99.88
274.713	85.88
274.945	94.88
275.176	103.88
275.408	103.88
275.64	93.88
275.872	112.88
276.104	90.88
276.335	102.88
276.567	121.88
276.799	117.88
277.031	89.88
277.262	110.88
277.494	103.88
277.726	141.88
277.957	228.88
278.189	300.88
278.421	280.88
278.652	227.88
278.884	223.88
279.115	156.88
279.347	122.88
279.579	105.88
279.81	75.88
280.042	89.88
280.273	112.88
280.505	106.88
280.736	125.88
280.968	133.88
281.199	185.88
281.431	296.88
281.662	317.88
281.894	177.88
282.125	105.88
282.356	121.88
282.588	106.88
282.819	111.88
283.051	140.88
283.282	157.88
283.513	217.88
283.745	400.88
283.976	636.88
284.207	982.88
284.439	730.88
284.67	356.88
284.901	313.88
285.132	443.88
285.364	454.88
285.595	242.88
285.826	217.88
286.057	299.88
286.288	502.88
286.52	768.88
286.751	612.88
286.982	235.88
287.213	158.88
287.444	111.88
287.675	117.88
287.906	103.88
288.138	102.88
288.369	100.88
288.6	97.88
288.831	98.88
289.062	101.88
289.293	97.88
289.524	101.88
289.755	100.88
289.986	102.88
290.217	102.88
290.448	113.88
290.679	108.88
290.91	139.88
291.141	186.88
291.371	287.88
291.602	352.88
291.833	217.88
292.064	142.88
292.295	93.88
292.526	98.88
292.757	91.88
292.987	103.88
293.218	98.88
293.449	114.88
293.68	86.88
293.91	98.88
294.141	101.88
294.372	100.88
294.603	109.88
294.833	100.88
295.064	90.88
295.295	106.88
295.525	89.88
295.756	86.88
295.987	100.88
296.217	106.88
296.448	104.88
296.679	85.88
296.909	84.88
297.14	111.88
297.37	98.88
297.601	86.88
297.831	81.88
298.062	91.88
298.292	106.88
298.523	97.88
298.753	110.88
298.984	114.88
299.214	125.88
299.445	123.88
299.675	123.88
299.905	146.88
300.136	137.88
300.366	204.88
300.597	330.88
300.827	558.88
301.057	819.88
301.288	761.88
301.518	296.88
301.748	170.88
301.979	153.88
302.209	149.88
302.439	160.88
302.669	195.88
302.9	296.88
303.13	623.88
303.36	1095.88
303.59	1496.88
303.82	1011.88
304.051	376.88
304.281	201.88
304.511	141.88
304.741	122.88
304.971	134.88
305.201	124.88
305.431	114.88
305.661	126.88
305.891	116.88
306.121	118.88
306.352	90.88
306.582	101.88
306.812	123.88
307.042	126.88
307.272	121.88
307.502	100.88
307.731	116.88
307.961	131.88
308.191	127.88
308.421	121.88
308.651	118.88
308.881	104.88
309.111	115.88
309.341	111.88
309.571	135.88
309.8	117.88
310.03	119.88
310.26	101.88
310.49	103.88
310.72	122.88
310.949	121.88
311.179	118.88
311.409	111.88
311.639	118.88
311.868	121.88
312.098	118.88
312.328	121.88
312.557	123.88
312.787	111.88
313.017	111.88
313.246	124.88
313.476	114.88
313.706	138.88
313.935	183.88
314.165	224.88
314.394	268.88
314.624	210.88
314.853	147.88
315.083	133.88
315.312	140.88
315.542	143.88
315.771	139.88
316.001	170.88
316.23	147.88
316.46	182.88
316.689	212.88
316.919	323.88
317.148	606.88
317.377	1137.88
317.607	1849.88
317.836	1705.88
318.065	653.88
318.295	259.88
318.524	179.88
318.753	170.88
318.983	137.88
319.212	130.88
319.441	142.88
319.67	118.88
319.9	130.88
320.129	121.88
320.358	125.88
320.587	137.88
320.816	129.88
321.046	140.88
321.275	137.88
321.504	143.88
321.733	169.88
321.962	197.88
322.191	185.88
322.42	151.88
322.649	147.88
322.878	133.88
323.108	124.88
323.337	130.88
323.566	142.88
323.795	133.88
324.024	163.88
324.253	168.88
324.482	207.88
324.71	250.88
324.939	309.88
325.168	267.88
325.397	206.88
325.626	310.88
325.855	610.88
326.084	1166.88
326.313	1985.88
326.542	1929.88
326.77	774.88
326.999	316.88
327.228	253.88
327.457	267.88
327.686	250.88
327.914	180.88
328.143	149.88
328.372	149.88
328.6	130.88
328.829	133.88
329.058	118.88
329.287	119.88
329.515	121.88
329.744	118.88
329.972	123.88
330.201	137.88
330.43	110.88
330.658	121.88
330.887	121.88
331.115	109.88
331.344	119.88
331.572	134.88
331.801	121.88
332.03	141.88
332.258	161.88
332.486	211.88
332.715	327.88
332.943	596.88
333.172	953.88
333.4	802.88
333.629	287.88
333.857	161.88
334.085	149.88
334.314	143.88
334.542	128.88
334.771	118.88
334.999	129.88
335.227	133.88
335.455	143.88
335.684	125.88
335.912	126.88
336.14	118.88
336.369	116.88
336.597	123.88
336.825	112.88
337.053	110.88
337.281	109.88
337.51	111.88
337.738	115.88
337.966	121.88
338.194	105.88
338.422	108.88
338.65	136.88
338.878	119.88
339.106	123.88
339.334	134.88
339.562	118.88
339.79	119.88
340.018	128.88
340.246	124.88
340.474	115.88
340.702	122.88
340.93	133.88
341.158	126.88
341.386	119.88
341.614	154.88
341.842	136.88
342.07	128.88
342.298	126.88
342.526	125.88
342.754	121.88
342.981	117.88
343.209	137.88
343.437	136.88
343.665	124.88
343.893	120.88
344.12	126.88
344.348	123.88
344.576	116.88
344.804	137.88
345.031	119.88
345.259	113.88
345.487	96.88
345.714	113.88
345.942	101.88
346.17	109.88
346.397	113.88
346.625	107.88
346.853	116.88
347.08	113.88
347.308	93.88
347.535	117.88
347.763	99.88
347.99	108.88
348.218	106.88
348.445	111.88
348.673	126.88
348.9	137.88
349.128	125.88
349.355	129.88
349.583	133.88
349.81	121.88
350.037	132.88
350.265	141.88
350.492	115.88
350.72	104.88
350.947	127.88
351.174	125.88
351.402	127.88
351.629	124.88
351.856	120.88
352.083	125.88
352.311	133.88
352.538	122.88
352.765	116.88
352.992	111.88
353.22	99.88
353.447	118.88
353.674	110.88
353.901	115.88
354.128	118.88
354.355	114.88
354.583	114.88
354.81	106.88
355.037	106.88
355.264	119.88
355.491	110.88
355.718	108.88
355.945	111.88
356.172	102.88
356.399	115.88
356.626	102.88
356.853	97.88
357.08	110.88
357.307	111.88
357.534	118.88
357.761	118.88
357.988	114.88
358.215	126.88
358.441	107.88
358.668	117.88
358.895	133.88
359.122	134.88
359.349	132.88
359.576	133.88
359.802	120.88
360.029	110.88
360.256	127.88
360.483	118.88
360.709	119.88
360.936	113.88
361.163	116.88
361.39	120.88
361.616	134.88
361.843	133.88
362.07	122.88
362.296	121.88
362.523	123.88
362.749	109.88
362.976	106.88
363.203	121.88
363.429	134.88
363.656	115.88
363.882	125.88
364.109	119.88
364.335	121.88
364.562	113.88
364.788	117.88
365.015	109.88
365.241	152.88
365.468	212.88
365.694	302.88
365.92	260.88
366.147	146.88
366.373	111.88
366.599	113.88
366.826	100.88
367.052	105.88
367.278	106.88
367.505	102.88
367.731	114.88
367.957	116.88
368.184	118.88
368.41	125.88
368.636	130.88
368.862	103.88
369.089	100.88
369.315	97.88
369.541	116.88
369.767	105.88
369.993	117.88
370.219	128.88
370.445	107.88
370.672	133.88
370.898	118.88
371.124	121.88
371.35	116.88
371.576	113.88
371.802	108.88
372.028	128.88
372.254	124.88
372.48	129.88
372.706	113.88
372.932	133.88
373.158	127.88
373.384	120.88
373.61	121.88
373.835	130.88
374.061	131.88
374.287	127.88
374.513	124.88
374.739	110.88
374.965	130.88
375.191	115.88
375.416	127.88
375.642	105.88
375.868	131.88
376.094	106.88
376.319	121.88
376.545	129.88
376.771	110.88
376.997	116.88
377.222	103.88
377.448	118.88
377.674	103.88
377.899	115.88
378.125	106.88
378.35	124.88
378.576	117.88
378.802	122.88
379.027	142.88
379.253	162.88
379.478	195.88
379.704	355.88
379.929	932.88
380.155	1955.88
380.38	1995.88
380.606	619.88
380.831	211.88
381.057	147.88
381.282	132.88
381.507	121.88
381.733	121.88
381.958	121.88
382.184	115.88
382.409	112.88
382.634	120.88
382.86	122.88
383.085	107.88
383.31	110.88
383.535	103.88
383.761	111.88
383.986	120.88
384.211	115.88
384.436	101.88
384.662	117.88
384.887	110.88
385.112	108.88
385.337	100.88
385.562	114.88
385.787	115.88
386.013	109.88
386.238	108.88
386.463	121.88
386.688	110.88
386.913	117.88
387.138	117.88
387.363	111.88
387.588	117.88
387.813	120.88
388.038	105.88
388.263	101.88
388.488	110.88
388.713	107.88
388.938	122.88
389.163	113.88
389.387	119.88
389.612	100.88
389.837	107.88
390.062	105.88
390.287	109.88
390.512	121.88
390.736	125.88
390.961	110.88
391.186	110.88
391.411	92.88
391.636	91.88
391.86	110.88
392.085	109.88
392.31	110.88
392.534	107.88
392.759	107.88
392.984	125.88
393.208	127.88
393.433	142.88
393.658	151.88
393.882	113.88
394.107	126.88
394.331	95.88
394.556	95.88
394.78	106.88
395.005	98.88
395.229	108.88
395.454	124.88
395.678	116.88
395.903	94.88
396.127	107.88
396.352	106.88
396.576	129.88
396.801	131.88
397.025	139.88
397.249	121.88
397.474	122.88
397.698	109.88
397.922	116.88
398.147	118.88
398.371	108.88
398.595	107.88
398.82	100.88
399.044	95.88
399.268	93.88
399.492	110.88
399.717	114.88
399.941	100.88
400.165	101.88
400.389	97.88
400.613	106.88
400.837	99.88
401.062	118.88
401.286	106.88
401.51	113.88
401.734	110.88
401.958	102.88
402.182	115.88
402.406	118.88
402.63	112.88
402.854	104.88
403.078	108.88
403.302	106.88
403.526	97.88
403.75	105.88
403.974	115.88
404.198	101.88
404.422	102.88
404.645	104.88
404.869	118.88
405.093	108.88
405.317	113.88
405.541	115.88
405.765	155.88
405.988	166.88
406.212	138.88
406.436	104.88
406.66	119.88
406.883	106.88
407.107	91.88
407.331	99.88
407.555	108.88
407.778	105.88
408.002	105.88
408.226	105.88
408.449	110.88
408.673	108.88
408.896	105.88
409.12	98.88
409.344	105.88
409.567	88.88
409.791	101.88
410.014	105.88
410.238	96.88
410.461	101.88
410.685	97.88
410.908	101.88
411.132	96.88
411.355	99.88
411.578	104.88
411.802	98.88
412.025	105.88
412.249	111.88
412.472	108.88
412.695	104.88
412.919	99.88
413.142	97.88
413.365	107.88
413.589	109.88
413.812	118.88
414.035	119.88
414.258	108.88
414.482	105.88
414.705	108.88
414.928	112.88
415.151	105.88
415.374	90.88
415.597	111.88
415.821	98.88
416.044	100.88
416.267	106.88
416.49	98.88
416.713	102.88
416.936	103.88
417.159	94.88
417.382	97.88
417.605	121.88
417.828	104.88
418.051	104.88
418.274	113.88
418.497	104.88
418.72	116.88
418.943	97.88
419.166	122.88
419.389	114.88
419.611	111.88
419.834	127.88
420.057	108.88
420.28	107.88
420.503	120.88
420.726	118.88
420.948	106.88
421.171	112.88
421.394	99.88
421.617	110.88
421.839	102.88
422.062	99.88
422.285	98.88
422.507	105.88
422.73	136.88
422.953	143.88
423.175	119.88
423.398	101.88
423.621	121.88
423.843	113.88
424.066	103.88
424.288	99.88
424.511	109.88
424.733	80.88
424.956	105.88
425.178	121.88
425.401	97.88
425.623	100.88
425.846	101.88
426.068	110.88
426.291	92.88
426.513	104.88
426.735	103.88
426.958	118.88
427.18	117.88
427.402	111.88
427.625	108.88
427.847	104.88
428.069	123.88
428.292	93.88
428.514	111.88
428.736	103.88
428.958	99.88
429.181	118.88
429.403	100.88
429.625	97.88
429.847	109.88
430.069	122.88
430.292	124.88
430.514	124.88
430.736	98.88
430.958	103.88
431.18	96.88
431.402	100.88
431.624	99.88
431.846	104.88
432.068	98.88
432.29	84.88
432.512	94.88
432.734	110.88
432.956	88.88
433.178	98.88
433.4	101.88
433.622	98.88
433.844	99.88
434.066	109.88
434.287	106.88
434.509	90.88
434.731	105.88
434.953	96.88
435.175	97.88
435.397	83.88
435.618	100.88
435.84	107.88
436.062	104.88
436.284	105.88
436.505	96.88
436.727	93.88
436.949	89.88
437.17	93.88
437.392	95.88
437.614	97.88
437.835	92.88
438.057	106.88
438.278	93.88
438.5	98.88
438.721	104.88
438.943	107.88
439.165	107.88
439.386	107.88
439.608	121.88
439.829	111.88
440.05	126.88
440.272	125.88
440.493	109.88
440.715	97.88
440.936	97.88
441.158	99.88
441.379	94.88
441.6	89.88
441.822	117.88
442.043	109.88
442.264	133.88
442.486	136.88
442.707	103.88
442.928	97.88
443.149	107.88
443.371	113.88
443.592	95.88
443.813	114.88
444.034	110.88
444.255	90.88
444.476	82.88
444.698	91.88
444.919	90.88
445.14	201.88
445.361	159.88
445.582	100.88
445.803	99.88
446.024	108.88
446.245	113.88
446.466	112.88
446.687	113.88
446.908	109.88
447.129	108.88
447.35	107.88
447.571	104.88
447.792	103.88
448.013	102.88
448.234	102.88
448.455	91.88
448.675	109.88
448.896	115.88
449.117	133.88
449.338	149.88
449.559	179.88
449.779	118.88
450	118.88
450.221	107.88
450.442	133.88
450.662	129.88
450.883	119.88
451.104	116.88
451.324	125.88
451.545	123.88
451.766	130.88
451.986	150.88
452.207	247.88
452.428	666.88
452.648	1640.88
452.869	949.88
453.089	242.88
453.31	142.88
453.53	129.88
453.751	175.88
453.971	188.88
454.192	181.88
454.412	123.88
454.633	126.88
454.853	101.88
455.073	100.88
455.294	83.88
455.514	92.88
455.734	99.88
455.955	107.88
456.175	100.88
456.395	92.88
456.616	93.88
456.836	96.88
457.056	120.88
457.276	106.88
457.497	117.88
457.717	138.88
457.937	119.88
458.157	92.88
458.377	99.88
458.598	97.88
458.818	95.88
459.038	99.88
459.258	85.88
459.478	93.88
459.698	78.88
459.918	92.88
460.138	100.88
460.358	95.88
460.578	102.88
460.798	115.88
461.018	100.88
461.238	99.88
461.458	108.88
461.678	89.88
461.898	100.88
462.118	93.88
462.338	98.88
462.558	109.88
462.777	102.88
462.997	100.88
463.217	128.88
463.437	137.88
463.657	209.88
463.876	231.88
464.096	130.88
464.316	117.88
464.536	124.88
464.755	110.88
464.975	114.88
465.195	105.88
465.414	101.88
465.634	94.88
465.854	110.88
466.073	117.88
466.293	97.88
466.512	102.88
466.732	110.88
466.951	132.88
467.171	160.88
467.391	164.88
467.61	125.88
467.829	101.88
468.049	102.88
468.268	102.88
468.488	94.88
468.707	109.88
468.927	86.88
469.146	106.88
469.365	116.88
469.585	90.88
469.804	108.88
470.023	107.88
470.243	116.88
470.462	120.88
470.681	148.88
470.901	156.88
471.12	218.88
471.339	236.88
471.558	147.88
471.777	136.88
471.997	119.88
472.216	115.88
472.435	97.88
472.654	112.88
472.873	101.88
473.092	97.88
473.311	105.88
473.53	102.88
473.749	106.88
473.968	102.88
474.187	109.88
474.406	101.88
474.625	99.88
474.844	108.88
475.063	98.88
475.282	86.88
475.501	86.88
475.72	104.88
475.939	102.88
476.158	113.88
476.377	120.88
476.596	124.88
476.814	108.88
477.033	119.88
477.252	116.88
477.471	109.88
477.69	106.88
477.908	101.88
478.127	120.88
478.346	107.88
478.564	101.88
478.783	97.88
479.002	120.88
479.22	106.88
479.439	105.88
479.658	94.88
479.876	95.88
480.095	81.88
480.313	101.88
480.532	106.88
480.751	104.88
480.969	92.88
481.188	100.88
481.406	84.88
481.624	118.88
481.843	122.88
482.061	125.88
482.28	100.88
482.498	105.88
482.717	104.88
482.935	114.88
483.153	121.88
483.372	110.88
483.59	117.88
483.808	129.88
484.027	123.88
484.245	129.88
484.463	203.88
484.681	246.88
484.9	168.88
485.118	125.88
485.336	118.88
485.554	126.88
485.772	147.88
485.99	222.88
486.209	283.88
486.427	207.88
486.645	134.88
486.863	129.88
487.081	113.88
487.299	92.88
487.517	102.88
487.735	109.88
487.953	116.88
488.171	97.88
488.389	107.88
488.607	112.88
488.825	95.88
489.043	111.88
489.261	119.88
489.479	97.88
489.696	117.88
489.914	102.88
490.132	124.88
490.35	118.88
490.568	108.88
490.786	115.88
491.003	105.88
491.221	105.88
491.439	114.88
491.657	120.88
491.874	115.88
492.092	109.88
492.31	116.88
492.527	108.88
492.745	117.88
492.963	103.88
493.18	115.88
493.398	116.88
493.615	91.88
493.833	113.88
494.05	122.88
494.268	116.88
494.485	108.88
494.703	98.88
494.92	97.88
495.138	106.88
495.355	117.88
495.573	131.88
495.79	113.88
496.008	119.88
496.225	108.88
496.442	127.88
496.66	145.88
496.877	188.88
497.094	174.88
497.312	120.88
497.529	108.88
497.746	112.88
497.963	106.88
498.181	116.88
498.398	117.88
498.615	94.88
498.832	95.88
499.049	131.88
499.267	137.88
499.484	190.88
499.701	125.88
499.918	105.88
500.135	107.88
500.352	113.88
500.569	102.88
500.786	101.88
501.003	101.88
501.22	97.88
501.437	117.88
501.654	111.88
501.871	117.88
502.088	115.88
502.305	98.88
502.522	99.88
502.739	105.88
502.956	83.88
503.172	109.88
503.389	115.88
503.606	113.88
503.823	106.88
504.04	106.88
504.256	118.88
504.473	98.88
504.69	110.88
504.907	138.88
505.123	129.88
505.34	119.88
505.557	117.88
505.773	102.88
505.99	132.88
506.207	120.88
506.423	108.88
506.64	119.88
506.856	104.88
507.073	111.88
507.289	115.88
507.506	111.88
507.722	113.88
507.939	120.88
508.155	98.88
508.372	110.88
508.588	109.88
508.805	114.88
509.021	111.88
509.238	119.88
509.454	163.88
509.67	179.88
509.887	122.88
510.103	95.88
510.319	103.88
510.536	94.88
510.752	107.88
510.968	120.88
511.184	125.88
511.401	108.88
511.617	111.88
511.833	107.88
512.049	107.88
512.265	100.88
512.481	118.88
512.698	105.88
512.914	93.88
513.13	97.88
513.346	92.88
513.562	95.88
513.778	111.88
513.994	107.88
514.21	121.88
514.426	171.88
514.642	193.88
514.858	132.88
515.074	108.88
515.29	113.88
515.506	101.88
515.721	98.88
515.937	89.88
516.153	110.88
516.369	113.88
516.585	108.88
516.801	90.88
517.016	105.88
517.232	116.88
517.448	119.88
517.664	105.88
517.879	105.88
518.095	106.88
518.311	109.88
518.527	110.88
518.742	102.88
518.958	133.88
519.173	179.88
519.389	119.88
519.605	116.88
519.82	105.88
520.036	101.88
520.251	117.88
520.467	95.88
520.682	85.88
520.898	117.88
521.113	103.88
521.329	89.88
521.544	109.88
521.76	105.88
521.975	115.88
522.19	111.88
522.406	94.88
522.621	106.88
522.836	106.88
523.052	103.88
523.267	88.88
523.482	109.88
523.698	98.88
523.913	104.88
524.128	99.88
524.343	97.88
524.559	96.88
524.774	101.88
524.989	106.88
525.204	107.88
525.419	96.88
525.634	100.88
525.849	100.88
526.064	109.88
526.28	116.88
526.495	100.88
526.71	113.88
526.925	104.88
527.14	113.88
527.355	98.88
527.57	106.88
527.785	100.88
527.999	89.88
528.214	114.88
528.429	88.88
528.644	109.88
528.859	110.88
529.074	102.88
529.289	106.88
529.503	110.88
529.718	107.88
529.933	95.88
530.148	110.88
530.363	93.88
530.577	92.88
530.792	97.88
531.007	103.88
531.221	102.88
531.436	98.88
531.651	104.88
531.865	114.88
532.08	105.88
532.295	104.88
532.509	166.88
532.724	129.88
532.938	105.88
533.153	96.88
533.367	110.88
533.582	108.88
533.796	111.88
534.011	108.88
534.225	105.88
534.44	89.88
534.654	107.88
534.868	101.88
535.083	88.88
535.297	95.88
535.511	97.88
535.726	104.88
535.94	98.88
536.154	104.88
536.369	110.88
536.583	99.88
536.797	105.88
537.011	93.88
537.225	94.88
537.44	96.88
537.654	102.88
537.868	107.88
538.082	118.88
538.296	100.88
538.51	97.88
538.724	94.88
538.938	94.88
539.153	116.88
539.367	119.88
539.581	115.88
539.795	97.88
540.009	113.88
540.222	97.88
540.436	113.88
540.65	92.88
540.864	103.88
541.078	125.88
541.292	155.88
541.506	243.88
541.72	233.88
541.934	137.88
542.147	116.88
542.361	114.88
542.575	111.88
542.789	106.88
543.002	110.88
543.216	115.88
543.43	101.88
543.644	94.88
543.857	95.88
544.071	105.88
544.285	112.88
544.498	90.88
544.712	117.88
544.925	97.88
545.139	111.88
545.352	115.88
545.566	101.88
545.779	105.88
545.993	104.88
546.206	117.88
546.42	112.88
546.633	105.88
546.847	104.88
547.06	117.88
547.274	105.88
547.487	121.88
547.7	113.88
547.914	107.88
548.127	103.88
548.34	108.88
548.554	120.88
548.767	115.88
548.98	118.88
549.193	123.88
549.407	107.88
549.62	113.88
549.833	116.88
550.046	102.88
550.259	105.88
550.473	105.88
550.686	91.88
550.899	103.88
551.112	106.88
551.325	95.88
551.538	107.88
551.751	107.88
551.964	104.88
552.177	110.88
552.39	99.88
552.603	99.88
552.816	121.88
553.029	119.88
553.242	106.88
553.455	121.88
553.667	106.88
553.88	98.88
554.093	101.88
554.306	118.88
554.519	105.88
554.732	89.88
554.944	113.88
555.157	114.88
555.37	99.88
555.583	98.88
555.795	115.88
556.008	135.88
556.221	170.88
556.433	129.88
556.646	114.88
556.859	100.88
557.071	115.88
557.284	154.88
557.496	123.88
557.709	111.88
557.921	127.88
558.134	100.88
558.346	99.88
558.559	103.88
558.771	101.88
558.984	114.88
559.196	125.88
559.409	111.88
559.621	114.88
559.833	99.88
560.046	108.88
560.258	110.88
560.47	107.88
560.683	106.88
560.895	102.88
561.107	100.88
561.32	102.88
561.532	105.88
561.744	105.88
561.956	91.88
562.168	122.88
562.381	112.88
562.593	136.88
562.805	153.88
563.017	194.88
563.229	288.88
563.441	737.88
563.653	223.88
563.865	113.88
564.077	103.88
564.289	99.88
564.501	106.88
564.713	103.88
564.925	107.88
565.137	107.88
565.349	100.88
565.561	96.88
565.773	102.88
565.985	95.88
566.197	93.88
566.408	104.88
566.62	114.88
566.832	116.88
567.044	110.88
567.255	113.88
567.467	113.88
567.679	101.88
567.891	131.88
568.102	195.88
568.314	290.88
568.526	177.88
568.737	124.88
568.949	108.88
569.161	102.88
569.372	103.88
569.584	99.88
569.795	107.88
570.007	121.88
570.218	141.88
570.43	180.88
570.641	125.88
570.853	102.88
571.064	91.88
571.276	109.88
571.487	117.88
571.698	95.88
571.91	99.88
572.121	113.88
572.333	111.88
572.544	121.88
572.755	153.88
572.966	222.88
573.178	147.88
573.389	118.88
573.6	90.88
573.811	96.88
574.023	113.88
574.234	103.88
574.445	94.88
574.656	93.88
574.867	94.88
575.078	92.88
575.289	103.88
575.501	82.88
575.712	114.88
575.923	89.88
576.134	79.88
576.345	102.88
576.556	105.88
576.767	103.88
576.978	91.88
577.188	103.88
577.399	107.88
577.61	95.88
577.821	93.88
578.032	94.88
578.243	86.88
578.454	110.88
578.665	102.88
578.875	77.88
579.086	105.88
579.297	111.88
579.508	90.88
579.718	118.88
579.929	98.88
580.14	117.88
580.35	105.88
580.561	90.88
580.772	97.88
580.982	103.88
581.193	101.88
581.403	85.88
581.614	95.88
581.825	111.88
582.035	101.88
582.246	105.88
582.456	98.88
582.667	113.88
582.877	131.88
583.087	131.88
583.298	106.88
583.508	90.88
583.719	91.88
583.929	106.88
584.139	94.88
584.35	82.88
584.56	103.88
584.77	112.88
584.981	109.88
585.191	77.88
585.401	98.88
585.611	97.88
585.821	103.88
586.032	100.88
586.242	81.88
586.452	105.88
586.662	101.88
586.872	86.88
587.082	103.88
587.292	101.88
587.502	95.88
587.713	86.88
587.923	90.88
588.133	96.88
588.343	84.88
588.553	96.88
588.762	115.88
588.972	89.88
589.182	129.88
589.392	117.88
589.602	94.88
589.812	109.88
590.022	105.88
590.232	104.88
590.441	107.88
590.651	88.88
590.861	83.88
591.071	74.88
591.281	98.88
591.49	92.88
591.7	93.88
591.91	94.88
592.119	93.88
592.329	95.88
592.539	97.88
592.748	93.88
592.958	99.88
593.167	96.88
593.377	79.88
593.587	110.88
593.796	93.88
594.006	90.88
594.215	93.88
594.424	96.88
594.634	93.88
594.843	97.88
595.053	96.88
595.262	87.88
595.472	88.88
595.681	92.88
595.89	93.88
596.1	103.88
596.309	92.88
596.518	85.88
596.727	102.88
596.937	101.88
597.146	95.88
597.355	103.88
597.564	96.88
597.774	110.88
597.983	102.88
598.192	107.88
598.401	86.88
598.61	85.88
598.819	90.88
599.028	102.88
599.237	92.88
599.446	103.88
599.655	86.88
599.864	101.88
600.073	107.88
600.282	84.88
600.491	92.88
600.7	92.88
600.909	111.88
601.118	106.88
601.327	104.88
601.536	91.88
601.745	99.88
601.953	140.88
602.162	170.88
602.371	106.88
602.58	92.88
602.789	104.88
602.997	92.88
603.206	86.88
603.415	101.88
603.623	103.88
603.832	94.88
604.041	111.88
604.249	108.88
604.458	106.88
604.666	103.88
604.875	97.88
605.084	101.88
605.292	102.88
605.501	92.88
605.709	111.88
605.918	106.88
606.126	110.88
606.334	98.88
606.543	120.88
606.751	143.88
606.96	185.88
607.168	193.88
607.376	137.88
607.585	122.88
607.793	96.88
608.001	94.88
608.21	105.88
608.418	94.88
608.626	86.88
608.834	100.88
609.043	99.88
609.251	100.88
609.459	91.88
609.667	109.88
609.875	111.88
610.083	96.88
610.291	81.88
610.499	110.88
610.707	88.88
610.916	100.88
611.124	83.88
611.332	96.88
611.54	101.88
611.748	81.88
611.955	83.88
612.163	89.88
612.371	87.88
612.579	98.88
612.787	85.88
612.995	98.88
613.203	104.88
613.411	104.88
613.618	85.88
613.826	90.88
614.034	96.88
614.242	105.88
614.449	95.88
614.657	90.88
614.865	110.88
615.072	118.88
615.28	125.88
615.488	93.88
615.695	112.88
615.903	113.88
616.111	99.88
616.318	95.88
616.526	103.88
616.733	104.88
616.941	108.88
617.148	100.88
617.356	100.88
617.563	110.88
617.771	91.88
617.978	95.88
618.185	92.88
618.393	87.88
618.6	98.88
618.807	102.88
619.015	85.88
619.222	75.88
619.429	92.88
619.637	94.88
619.844	87.88
620.051	97.88
620.258	106.88
620.466	92.88
620.673	102.88
620.88	79.88
621.087	94.88
621.294	106.88
621.501	101.88
621.708	97.88
621.915	90.88
622.122	91.88
622.329	98.88
622.536	94.88
622.743	96.88
622.95	93.88
623.157	83.88
623.364	86.88
623.571	86.88
623.778	86.88
623.985	93.88
624.192	91.88
624.399	94.88
624.606	94.88
624.812	102.88
625.019	88.88
625.226	82.88
625.433	93.88
625.639	95.88
625.846	88.88
626.053	98.88
626.259	87.88
626.466	91.88
626.673	84.88
626.879	89.88
627.086	100.88
627.293	101.88
627.499	99.88
627.706	103.88
627.912	90.88
628.119	82.88
628.325	101.88
628.532	91.88
628.738	101.88
628.945	88.88
629.151	73.88
629.357	100.88
629.564	91.88
629.77	95.88
629.976	84.88
630.183	76.88
630.389	99.88
630.595	89.88
630.802	79.88
631.008	85.88
631.214	94.88
631.42	92.88
631.627	84.88
631.833	97.88
632.039	96.88
632.245	89.88
632.451	93.88
632.657	84.88
632.863	99.88
633.069	85.88
633.275	102.88
633.481	89.88
633.688	98.88
633.893	99.88
634.099	90.88
634.305	93.88
634.511	86.88
634.717	98.88
634.923	99.88
635.129	125.88
635.335	149.88
635.541	102.88
635.747	91.88
635.952	83.88
636.158	99.88
636.364	102.88
636.57	86.88
636.775	94.88
636.981	101.88
637.187	81.88
637.392	88.88
637.598	102.88
637.804	95.88
638.009	97.88
638.215	100.88
638.421	97.88
638.626	83.88
638.832	90.88
639.037	107.88
639.243	79.88
639.448	98.88
639.654	84.88
639.859	85.88
640.065	86.88
640.27	76.88
640.475	91.88
640.681	88.88
640.886	75.88
641.091	84.88
641.297	79.88
641.502	84.88
641.707	84.88
641.913	104.88
642.118	104.88
642.323	98.88
642.528	98.88
642.733	100.88
642.939	88.88
643.144	114.88
643.349	89.88
643.554	86.88
643.759	85.88
643.964	89.88
644.169	103.88
644.374	84.88
644.579	88.88
644.784	98.88
644.989	81.88
645.194	91.88
645.399	110.88
645.604	116.88
645.809	86.88
646.014	102.88
646.219	98.88
646.423	98.88
646.628	80.88
646.833	94.88
647.038	93.88
647.243	94.88
647.447	85.88
647.652	96.88
647.857	77.88
648.062	82.88
648.266	92.88
648.471	88.88
648.676	86.88
648.88	88.88
649.085	80.88
649.289	86.88
649.494	86.88
649.698	100.88
649.903	91.88
650.107	93.88
650.312	101.88
650.516	83.88
650.721	84.88
650.925	93.88
651.13	91.88
651.334	90.88
651.539	104.88
651.743	81.88
651.947	94.88
652.152	78.88
652.356	94.88
652.56	97.88
652.764	109.88
652.969	87.88
653.173	98.88
653.377	81.88
653.581	87.88
653.785	90.88
653.99	79.88
654.194	84.88
654.398	95.88
654.602	80.88
654.806	83.88
655.01	89.88
655.214	102.88
655.418	83.88
655.622	84.88
655.826	78.88
656.03	80.88
656.234	98.88
656.438	85.88
656.642	92.88
656.846	82.88
657.049	78.88
657.253	100.88
657.457	94.88
657.661	70.88
657.865	86.88
658.068	85.88
658.272	81.88
658.476	92.88
658.68	91.88
658.883	90.88
659.087	78.88
659.291	80.88
659.494	75.88
659.698	86.88
659.901	89.88
660.105	85.88
660.309	77.88
660.512	86.88
660.716	86.88
660.919	88.88
661.123	86.88
661.326	89.88
661.53	98.88
661.733	93.88
661.936	80.88
662.14	83.88
662.343	94.88
662.546	83.88
662.75	68.88
662.953	83.88
663.156	86.88
663.36	81.88
663.563	91.88
663.766	77.88
663.969	92.88
664.173	81.88
664.376	80.88
664.579	85.88
664.782	77.88
664.985	82.88
665.188	79.88
665.391	83.88
665.594	88.88
665.797	83.88
666	78.88
666.203	88.88
666.406	68.88
666.609	83.88
666.812	91.88
667.015	77.88
667.218	83.88
667.421	79.88
667.624	83.88
667.827	85.88
668.03	91.88
668.232	106.88
668.435	76.88
668.638	95.88
668.841	94.88
669.043	91.88
669.246	84.88
669.449	88.88
669.651	85.88
669.854	78.88
670.057	77.88
670.259	90.88
670.462	84.88
670.665	94.88
670.867	88.88
671.07	101.88
671.272	85.88
671.475	90.88
671.677	80.88
671.88	83.88
672.082	77.88
672.284	79.88
672.487	97.88
672.689	85.88
672.892	88.88
