Data from SnStandardFlinnAPT0064_LampEnergy5.5_LIBS07252019.E.O._I.C._HRD10591_15-15-12-491.txt Node
Date: Thu Jul 25 15:15:12 EDT 2019
User: cochatt
Spectrometer: HR+D1059
Trigger mode: 1
Integration Time (sec): 1.000000E-1
Scans to average: 1
Electric dark correction enabled: true
Nonlinearity correction enabled: false
Boxcar width: 0
XAxis mode: Wavelengths
Number of Pixels in Spectrum: 2048
>>>>>Begin Spectral Data<<<<<
223.165	-14.31
223.4	-14.31
223.635	-14.31
223.869	-21.31
224.104	-12.31
224.338	-14.31
224.573	-22.31
224.808	-14.31
225.042	-10.31
225.277	-16.31
225.511	5.69
225.746	-6.31
225.98	11.69
226.215	29.69
226.449	0.69
226.683	13.69
226.918	33.69
227.152	36.69
227.387	49.69
227.621	44.69
227.856	38.69
228.09	54.69
228.324	47.69
228.559	73.69
228.793	91.69
229.027	131.69
229.262	162.69
229.496	141.69
229.73	162.69
229.964	147.69
230.199	148.69
230.433	151.69
230.667	155.69
230.901	163.69
231.136	162.69
231.37	176.69
231.604	169.69
231.838	199.69
232.072	222.69
232.306	212.69
232.541	215.69
232.775	207.69
233.009	192.69
233.243	200.69
233.477	203.69
233.711	223.69
233.945	239.69
234.179	224.69
234.413	212.69
234.647	203.69
234.881	199.69
235.115	229.69
235.349	258.69
235.583	318.69
235.817	376.69
236.051	368.69
236.285	289.69
236.519	224.69
236.753	226.69
236.987	223.69
237.221	226.69
237.455	208.69
237.689	212.69
237.922	211.69
238.156	219.69
238.39	219.69
238.624	217.69
238.858	222.69
239.091	218.69
239.325	232.69
239.559	236.69
239.793	229.69
240.027	219.69
240.26	229.69
240.494	242.69
240.728	243.69
240.961	239.69
241.195	277.69
241.429	272.69
241.662	293.69
241.896	297.69
242.13	360.69
242.363	450.69
242.597	538.69
242.83	548.69
243.064	537.69
243.298	609.69
243.531	524.69
243.765	380.69
243.998	321.69
244.232	314.69
244.465	292.69
244.699	270.69
244.932	288.69
245.166	288.69
245.399	294.69
245.633	294.69
245.866	287.69
246.099	263.69
246.333	291.69
246.566	290.69
246.8	298.69
247.033	275.69
247.266	294.69
247.5	273.69
247.733	292.69
247.966	298.69
248.2	335.69
248.433	343.69
248.666	382.69
248.899	363.69
249.133	367.69
249.366	345.69
249.599	368.69
249.832	414.69
250.066	395.69
250.299	342.69
250.532	317.69
250.765	311.69
250.998	332.69
251.231	326.69
251.465	338.69
251.698	295.69
251.931	323.69
252.164	318.69
252.397	320.69
252.63	338.69
252.863	326.69
253.096	336.69
253.329	340.69
253.562	340.69
253.795	334.69
254.028	332.69
254.261	342.69
254.494	361.69
254.727	395.69
254.96	458.69
255.193	459.69
255.426	387.69
255.659	385.69
255.892	376.69
256.124	355.69
256.357	375.69
256.59	369.69
256.823	391.69
257.056	439.69
257.289	456.69
257.521	513.69
257.754	445.69
257.987	395.69
258.22	375.69
258.452	380.69
258.685	409.69
258.918	388.69
259.151	430.69
259.383	423.69
259.616	468.69
259.849	472.69
260.081	454.69
260.314	424.69
260.547	416.69
260.779	404.69
261.012	385.69
261.244	407.69
261.477	433.69
261.71	438.69
261.942	432.69
262.175	431.69
262.407	439.69
262.64	470.69
262.872	458.69
263.105	484.69
263.337	511.69
263.57	531.69
263.802	539.69
264.035	544.69
264.267	550.69
264.499	581.69
264.732	614.69
264.964	616.69
265.197	632.69
265.429	600.69
265.661	631.69
265.894	635.69
266.126	691.69
266.358	757.69
266.591	738.69
266.823	672.69
267.055	609.69
267.287	607.69
267.52	550.69
267.752	568.69
267.984	519.69
268.216	536.69
268.448	524.69
268.681	530.69
268.913	515.69
269.145	537.69
269.377	540.69
269.609	531.69
269.841	546.69
270.073	558.69
270.306	627.69
270.538	793.69
270.77	1072.69
271.002	1320.69
271.234	956.69
271.466	686.69
271.698	603.69
271.93	562.69
272.162	532.69
272.394	547.69
272.626	519.69
272.858	528.69
273.09	524.69
273.322	511.69
273.553	517.69
273.785	506.69
274.017	510.69
274.249	520.69
274.481	514.69
274.713	506.69
274.945	513.69
275.176	529.69
275.408	524.69
275.64	523.69
275.872	547.69
276.104	525.69
276.335	553.69
276.567	524.69
276.799	500.69
277.031	553.69
277.262	538.69
277.494	543.69
277.726	600.69
277.957	666.69
278.189	718.69
278.421	690.69
278.652	654.69
278.884	639.69
279.115	594.69
279.347	577.69
279.579	553.69
279.81	561.69
280.042	563.69
280.273	560.69
280.505	577.69
280.736	600.69
280.968	604.69
281.199	662.69
281.431	710.69
281.662	735.69
281.894	661.69
282.125	662.69
282.356	648.69
282.588	647.69
282.819	672.69
283.051	706.69
283.282	768.69
283.513	913.69
283.745	1241.69
283.976	1881.69
284.207	2606.69
284.439	2357.69
284.67	1496.69
284.901	1217.69
285.132	1201.69
285.364	1131.69
285.595	928.69
285.826	883.69
286.057	979.69
286.288	1320.69
286.52	1710.69
286.751	1574.69
286.982	1043.69
287.213	822.69
287.444	754.69
287.675	720.69
287.906	708.69
288.138	697.69
288.369	681.69
288.6	682.69
288.831	675.69
289.062	680.69
289.293	664.69
289.524	692.69
289.755	677.69
289.986	677.69
290.217	686.69
290.448	698.69
290.679	670.69
290.91	682.69
291.141	710.69
291.371	722.69
291.602	771.69
291.833	713.69
292.064	694.69
292.295	660.69
292.526	663.69
292.757	670.69
292.987	636.69
293.218	655.69
293.449	657.69
293.68	650.69
293.91	652.69
294.141	676.69
294.372	654.69
294.603	654.69
294.833	661.69
295.064	618.69
295.295	634.69
295.525	629.69
295.756	658.69
295.987	650.69
296.217	663.69
296.448	666.69
296.679	651.69
296.909	633.69
297.14	655.69
297.37	668.69
297.601	676.69
297.831	649.69
298.062	686.69
298.292	675.69
298.523	686.69
298.753	712.69
298.984	674.69
299.214	686.69
299.445	693.69
299.675	688.69
299.905	720.69
300.136	744.69
300.366	792.69
300.597	978.69
300.827	1270.69
301.057	1669.69
301.288	1689.69
301.518	1149.69
301.748	946.69
301.979	859.69
302.209	873.69
302.439	866.69
302.669	890.69
302.9	1014.69
303.13	1387.69
303.36	1909.69
303.59	2478.69
303.82	2215.69
304.051	1406.69
304.281	1093.69
304.511	926.69
304.741	882.69
304.971	832.69
305.201	782.69
305.431	764.69
305.661	789.69
305.891	768.69
306.121	768.69
306.352	766.69
306.582	745.69
306.812	743.69
307.042	732.69
307.272	737.69
307.502	730.69
307.731	737.69
307.961	736.69
308.191	759.69
308.421	727.69
308.651	743.69
308.881	745.69
309.111	744.69
309.341	750.69
309.571	740.69
309.8	771.69
310.03	754.69
310.26	768.69
310.49	739.69
310.72	803.69
310.949	779.69
311.179	783.69
311.409	760.69
311.639	772.69
311.868	798.69
312.098	788.69
312.328	787.69
312.557	799.69
312.787	809.69
313.017	802.69
313.246	809.69
313.476	793.69
313.706	801.69
313.935	871.69
314.165	896.69
314.394	918.69
314.624	893.69
314.853	848.69
315.083	843.69
315.312	868.69
315.542	880.69
315.771	878.69
316.001	896.69
316.23	887.69
316.46	926.69
316.689	1000.69
316.919	1174.69
317.148	1549.69
317.377	2339.69
317.607	3280.69
317.836	3367.69
318.065	2105.69
318.295	1416.69
318.524	1206.69
318.753	1082.69
318.983	1024.69
319.212	998.69
319.441	967.69
319.67	946.69
319.9	946.69
320.129	930.69
320.358	958.69
320.587	909.69
320.816	906.69
321.046	942.69
321.275	944.69
321.504	924.69
321.733	979.69
321.962	963.69
322.191	958.69
322.42	962.69
322.649	967.69
322.878	979.69
323.108	991.69
323.337	1002.69
323.566	1008.69
323.795	1020.69
324.024	1031.69
324.253	1074.69
324.482	1091.69
324.71	1146.69
324.939	1180.69
325.168	1233.69
325.397	1215.69
325.626	1380.69
325.855	1909.69
326.084	2778.69
326.313	4106.69
326.542	4316.69
326.77	2843.69
326.999	2023.69
327.228	1724.69
327.457	1659.69
327.686	1694.69
327.914	1805.69
328.143	2014.69
328.372	2284.69
328.6	2512.69
328.829	2330.69
329.058	2104.69
329.287	1872.69
329.515	1766.69
329.744	1624.69
329.972	1550.69
330.201	1471.69
330.43	1422.69
330.658	1378.69
330.887	1376.69
331.115	1356.69
331.344	1382.69
331.572	1320.69
331.801	1359.69
332.03	1373.69
332.258	1377.69
332.486	1428.69
332.715	1548.69
332.943	1844.69
333.172	2142.69
333.4	2134.69
333.629	1786.69
333.857	1673.69
334.085	1708.69
334.314	1768.69
334.542	1838.69
334.771	2100.69
334.999	2516.69
335.227	2953.69
335.455	3250.69
335.684	3110.69
335.912	2710.69
336.14	2364.69
336.369	2139.69
336.597	1998.69
336.825	1845.69
337.053	1715.69
337.281	1657.69
337.51	1544.69
337.738	1510.69
337.966	1414.69
338.194	1404.69
338.422	1363.69
338.65	1331.69
338.878	1321.69
339.106	1287.69
339.334	1279.69
339.562	1232.69
339.79	1235.69
340.018	1220.69
340.246	1213.69
340.474	1224.69
340.702	1208.69
340.93	1213.69
341.158	1192.69
341.386	1207.69
341.614	1170.69
341.842	1179.69
342.07	1131.69
342.298	1150.69
342.526	1113.69
342.754	1117.69
342.981	1134.69
343.209	1099.69
343.437	1122.69
343.665	1127.69
343.893	1134.69
344.12	1137.69
344.348	1092.69
344.576	1113.69
344.804	1073.69
345.031	1061.69
345.259	1063.69
345.487	1043.69
345.714	1001.69
345.942	1032.69
346.17	1037.69
346.397	1055.69
346.625	1025.69
346.853	1054.69
347.08	1026.69
347.308	1030.69
347.535	1028.69
347.763	1033.69
347.99	1018.69
348.218	1002.69
348.445	990.69
348.673	994.69
348.9	1006.69
349.128	991.69
349.355	988.69
349.583	977.69
349.81	966.69
350.037	981.69
350.265	991.69
350.492	1001.69
350.72	980.69
350.947	975.69
351.174	993.69
351.402	996.69
351.629	970.69
351.856	988.69
352.083	974.69
352.311	996.69
352.538	1006.69
352.765	997.69
352.992	936.69
353.22	960.69
353.447	995.69
353.674	962.69
353.901	976.69
354.128	980.69
354.355	979.69
354.583	987.69
354.81	1001.69
355.037	1003.69
355.264	988.69
355.491	1012.69
355.718	1000.69
355.945	1005.69
356.172	1012.69
356.399	1028.69
356.626	1033.69
356.853	1018.69
357.08	998.69
357.307	1018.69
357.534	1014.69
357.761	1020.69
357.988	1041.69
358.215	1040.69
358.441	1056.69
358.668	1015.69
358.895	1036.69
359.122	1031.69
359.349	1031.69
359.576	1003.69
359.802	1030.69
360.029	1003.69
360.256	1035.69
360.483	1029.69
360.709	1030.69
360.936	1048.69
361.163	1041.69
361.39	1040.69
361.616	1036.69
361.843	1048.69
362.07	1056.69
362.296	1068.69
362.523	1036.69
362.749	1061.69
362.976	1053.69
363.203	1015.69
363.429	1038.69
363.656	1035.69
363.882	1029.69
364.109	1007.69
364.335	1036.69
364.562	1062.69
364.788	1040.69
365.015	1026.69
365.241	1083.69
365.468	1080.69
365.694	1106.69
365.92	1073.69
366.147	1057.69
366.373	1060.69
366.599	1042.69
366.826	1064.69
367.052	1055.69
367.278	1046.69
367.505	1059.69
367.731	1077.69
367.957	1065.69
368.184	1070.69
368.41	1091.69
368.636	1081.69
368.862	1066.69
369.089	1076.69
369.315	1076.69
369.541	1066.69
369.767	1083.69
369.993	1065.69
370.219	1074.69
370.445	1058.69
370.672	1094.69
370.898	1104.69
371.124	1085.69
371.35	1107.69
371.576	1098.69
371.802	1088.69
372.028	1105.69
372.254	1127.69
372.48	1128.69
372.706	1151.69
372.932	1149.69
373.158	1144.69
373.384	1142.69
373.61	1109.69
373.835	1122.69
374.061	1153.69
374.287	1148.69
374.513	1157.69
374.739	1169.69
374.965	1209.69
375.191	1170.69
375.416	1160.69
375.642	1124.69
375.868	1159.69
376.094	1138.69
376.319	1144.69
376.545	1113.69
376.771	1136.69
376.997	1103.69
377.222	1114.69
377.448	1102.69
377.674	1071.69
377.899	1112.69
378.125	1118.69
378.35	1075.69
378.576	1097.69
378.802	1118.69
379.027	1134.69
379.253	1141.69
379.478	1181.69
379.704	1319.69
379.929	1752.69
380.155	2442.69
380.38	2622.69
380.606	1754.69
380.831	1359.69
381.057	1254.69
381.282	1204.69
381.507	1131.69
381.733	1106.69
381.958	1096.69
382.184	1124.69
382.409	1129.69
382.634	1113.69
382.86	1096.69
383.085	1114.69
383.31	1111.69
383.535	1136.69
383.761	1102.69
383.986	1113.69
384.211	1125.69
384.436	1120.69
384.662	1128.69
384.887	1146.69
385.112	1117.69
385.337	1138.69
385.562	1148.69
385.787	1165.69
386.013	1166.69
386.238	1155.69
386.463	1145.69
386.688	1150.69
386.913	1145.69
387.138	1154.69
387.363	1146.69
387.588	1128.69
387.813	1139.69
388.038	1138.69
388.263	1154.69
388.488	1195.69
388.713	1164.69
388.938	1139.69
389.163	1152.69
389.387	1154.69
389.612	1152.69
389.837	1154.69
390.062	1146.69
390.287	1164.69
390.512	1179.69
390.736	1164.69
390.961	1171.69
391.186	1165.69
391.411	1216.69
391.636	1214.69
391.86	1236.69
392.085	1212.69
392.31	1226.69
392.534	1176.69
392.759	1191.69
392.984	1205.69
393.208	1172.69
393.433	1158.69
393.658	1170.69
393.882	1160.69
394.107	1148.69
394.331	1175.69
394.556	1168.69
394.78	1198.69
395.005	1149.69
395.229	1181.69
395.454	1202.69
395.678	1174.69
395.903	1218.69
396.127	1206.69
396.352	1183.69
396.576	1169.69
396.801	1172.69
397.025	1202.69
397.249	1204.69
397.474	1213.69
397.698	1204.69
397.922	1240.69
398.147	1233.69
398.371	1238.69
398.595	1266.69
398.82	1265.69
399.044	1358.69
399.268	1388.69
399.492	1493.69
399.717	1588.69
399.941	1571.69
400.165	1488.69
400.389	1406.69
400.613	1362.69
400.837	1329.69
401.062	1338.69
401.286	1293.69
401.51	1296.69
401.734	1290.69
401.958	1280.69
402.182	1277.69
402.406	1272.69
402.63	1296.69
402.854	1286.69
403.078	1310.69
403.302	1312.69
403.526	1285.69
403.75	1322.69
403.974	1345.69
404.198	1320.69
404.422	1341.69
404.645	1314.69
404.869	1350.69
405.093	1322.69
405.317	1294.69
405.541	1337.69
405.765	1364.69
405.988	1369.69
406.212	1352.69
406.436	1348.69
406.66	1346.69
406.883	1376.69
407.107	1426.69
407.331	1388.69
407.555	1458.69
407.778	1444.69
408.002	1406.69
408.226	1425.69
408.449	1394.69
408.673	1411.69
408.896	1338.69
409.12	1321.69
409.344	1347.69
409.567	1331.69
409.791	1318.69
410.014	1283.69
410.238	1305.69
410.461	1305.69
410.685	1316.69
410.908	1315.69
411.132	1297.69
411.355	1296.69
411.578	1268.69
411.802	1266.69
412.025	1285.69
412.249	1267.69
412.472	1315.69
412.695	1282.69
412.919	1235.69
413.142	1256.69
413.365	1247.69
413.589	1273.69
413.812	1248.69
414.035	1234.69
414.258	1235.69
414.482	1264.69
414.705	1234.69
414.928	1254.69
415.151	1258.69
415.374	1235.69
415.597	1234.69
415.821	1232.69
416.044	1208.69
416.267	1252.69
416.49	1179.69
416.713	1217.69
416.936	1230.69
417.159	1193.69
417.382	1200.69
417.605	1195.69
417.828	1223.69
418.051	1202.69
418.274	1244.69
418.497	1218.69
418.72	1248.69
418.943	1205.69
419.166	1276.69
419.389	1333.69
419.611	1291.69
419.834	1273.69
420.057	1266.69
420.28	1232.69
420.503	1211.69
420.726	1228.69
420.948	1217.69
421.171	1208.69
421.394	1225.69
421.617	1270.69
421.839	1200.69
422.062	1250.69
422.285	1216.69
422.507	1241.69
422.73	1242.69
422.953	1215.69
423.175	1252.69
423.398	1225.69
423.621	1175.69
423.843	1217.69
424.066	1211.69
424.288	1206.69
424.511	1220.69
424.733	1205.69
424.956	1214.69
425.178	1188.69
425.401	1175.69
425.623	1176.69
425.846	1159.69
426.068	1177.69
426.291	1173.69
426.513	1170.69
426.735	1160.69
426.958	1152.69
427.18	1148.69
427.402	1154.69
427.625	1162.69
427.847	1120.69
428.069	1125.69
428.292	1154.69
428.514	1121.69
428.736	1129.69
428.958	1130.69
429.181	1120.69
429.403	1132.69
429.625	1110.69
429.847	1114.69
430.069	1126.69
430.292	1144.69
430.514	1178.69
430.736	1163.69
430.958	1164.69
431.18	1106.69
431.402	1116.69
431.624	1097.69
431.846	1131.69
432.068	1112.69
432.29	1098.69
432.512	1107.69
432.734	1104.69
432.956	1145.69
433.178	1126.69
433.4	1115.69
433.622	1166.69
433.844	1137.69
434.066	1117.69
434.287	1106.69
434.509	1106.69
434.731	1137.69
434.953	1152.69
435.175	1151.69
435.397	1169.69
435.618	1096.69
435.84	1104.69
436.062	1100.69
436.284	1112.69
436.505	1106.69
436.727	1111.69
436.949	1113.69
437.17	1113.69
437.392	1089.69
437.614	1078.69
437.835	1078.69
438.057	1057.69
438.278	1050.69
438.5	1064.69
438.721	1113.69
438.943	1123.69
439.165	1137.69
439.386	1105.69
439.608	1143.69
439.829	1161.69
440.05	1139.69
440.272	1194.69
440.493	1148.69
440.715	1151.69
440.936	1125.69
441.158	1162.69
441.379	1181.69
441.6	1206.69
441.822	1250.69
442.043	1266.69
442.264	1302.69
442.486	1232.69
442.707	1207.69
442.928	1219.69
443.149	1191.69
443.371	1195.69
443.592	1209.69
443.813	1235.69
444.034	1216.69
444.255	1214.69
444.476	1263.69
444.698	1273.69
444.919	1305.69
445.14	1379.69
445.361	1303.69
445.582	1244.69
445.803	1214.69
446.024	1221.69
446.245	1196.69
446.466	1208.69
446.687	1148.69
446.908	1170.69
447.129	1141.69
447.35	1114.69
447.571	1145.69
447.792	1108.69
448.013	1107.69
448.234	1121.69
448.455	1106.69
448.675	1108.69
448.896	1163.69
449.117	1127.69
449.338	1193.69
449.559	1237.69
449.779	1136.69
450	1079.69
450.221	1080.69
450.442	1046.69
450.662	1076.69
450.883	1067.69
451.104	1076.69
451.324	1047.69
451.545	1063.69
451.766	1070.69
451.986	1056.69
452.207	1136.69
452.428	1303.69
452.648	1661.69
452.869	1499.69
453.089	1189.69
453.31	1129.69
453.53	1139.69
453.751	1152.69
453.971	1195.69
454.192	1199.69
454.412	1083.69
454.633	1040.69
454.853	1057.69
455.073	1027.69
455.294	1052.69
455.514	1023.69
455.734	981.69
455.955	1028.69
456.175	1032.69
456.395	1006.69
456.616	1014.69
456.836	1018.69
457.056	1031.69
457.276	1023.69
457.497	1074.69
457.717	1096.69
457.937	1057.69
458.157	1059.69
458.377	1067.69
458.598	1057.69
458.818	1094.69
459.038	1101.69
459.258	1103.69
459.478	1138.69
459.698	1111.69
459.918	1136.69
460.138	1148.69
460.358	1174.69
460.578	1191.69
460.798	1214.69
461.018	1202.69
461.238	1186.69
461.458	1218.69
461.678	1189.69
461.898	1234.69
462.118	1228.69
462.338	1254.69
462.558	1274.69
462.777	1328.69
462.997	1333.69
463.217	1384.69
463.437	1416.69
463.657	1403.69
463.876	1429.69
464.096	1371.69
464.316	1294.69
464.536	1290.69
464.755	1274.69
464.975	1280.69
465.195	1200.69
465.414	1195.69
465.634	1153.69
465.854	1142.69
466.073	1131.69
466.293	1152.69
466.512	1121.69
466.732	1115.69
466.951	1171.69
467.171	1219.69
467.391	1186.69
467.61	1116.69
467.829	1097.69
468.049	1126.69
468.268	1095.69
468.488	1066.69
468.707	1060.69
468.927	1099.69
469.146	1072.69
469.365	1080.69
469.585	1099.69
469.804	1103.69
470.023	1152.69
470.243	1131.69
470.462	1147.69
470.681	1250.69
470.901	1328.69
471.12	1448.69
471.339	1468.69
471.558	1278.69
471.777	1199.69
471.997	1157.69
472.216	1138.69
472.435	1114.69
472.654	1080.69
472.873	1106.69
473.092	1109.69
473.311	1094.69
473.53	1099.69
473.749	1124.69
473.968	1144.69
474.187	1097.69
474.406	1081.69
474.625	1112.69
474.844	1102.69
475.063	1093.69
475.282	1102.69
475.501	1097.69
475.72	1113.69
475.939	1121.69
476.158	1132.69
476.377	1166.69
476.596	1174.69
476.814	1140.69
477.033	1130.69
477.252	1147.69
477.471	1171.69
477.69	1213.69
477.908	1224.69
478.127	1235.69
478.346	1239.69
478.564	1253.69
478.783	1280.69
479.002	1309.69
479.22	1315.69
479.439	1323.69
479.658	1289.69
479.876	1299.69
480.095	1312.69
480.313	1326.69
480.532	1344.69
480.751	1346.69
480.969	1334.69
481.188	1292.69
481.406	1308.69
481.624	1271.69
481.843	1265.69
482.061	1306.69
482.28	1294.69
482.498	1268.69
482.717	1266.69
482.935	1318.69
483.153	1345.69
483.372	1391.69
483.59	1377.69
483.808	1373.69
484.027	1409.69
484.245	1449.69
484.463	1543.69
484.681	1696.69
484.9	1595.69
485.118	1518.69
485.336	1478.69
485.554	1471.69
485.772	1574.69
485.99	1707.69
486.209	1847.69
486.427	1581.69
486.645	1468.69
486.863	1462.69
487.081	1429.69
487.299	1443.69
487.517	1404.69
487.735	1417.69
487.953	1444.69
488.171	1432.69
488.389	1431.69
488.607	1408.69
488.825	1392.69
489.043	1336.69
489.261	1312.69
489.479	1353.69
489.696	1314.69
489.914	1334.69
490.132	1404.69
490.35	1372.69
490.568	1421.69
490.786	1401.69
491.003	1427.69
491.221	1399.69
491.439	1454.69
491.657	1434.69
491.874	1438.69
492.092	1481.69
492.31	1467.69
492.527	1492.69
492.745	1464.69
492.963	1445.69
493.18	1472.69
493.398	1473.69
493.615	1460.69
493.833	1490.69
494.05	1487.69
494.268	1456.69
494.485	1449.69
494.703	1459.69
494.92	1472.69
495.138	1442.69
495.355	1458.69
495.573	1462.69
495.79	1438.69
496.008	1478.69
496.225	1479.69
496.442	1514.69
496.66	1503.69
496.877	1574.69
497.094	1571.69
497.312	1557.69
497.529	1558.69
497.746	1561.69
497.963	1576.69
498.181	1592.69
498.398	1611.69
498.615	1678.69
498.832	1742.69
499.049	1827.69
499.267	1951.69
499.484	2088.69
499.701	2133.69
499.918	2197.69
500.135	2322.69
500.352	2437.69
500.569	2546.69
500.786	2506.69
501.003	2345.69
501.22	2298.69
501.437	2156.69
501.654	2002.69
501.871	1885.69
502.088	1835.69
502.305	1797.69
502.522	1704.69
502.739	1724.69
502.956	1653.69
503.172	1606.69
503.389	1551.69
503.606	1523.69
503.823	1497.69
504.04	1490.69
504.256	1497.69
504.473	1492.69
504.69	1482.69
504.907	1485.69
505.123	1434.69
505.34	1441.69
505.557	1407.69
505.773	1392.69
505.99	1362.69
506.207	1311.69
506.423	1333.69
506.64	1333.69
506.856	1310.69
507.073	1269.69
507.289	1278.69
507.506	1265.69
507.722	1271.69
507.939	1266.69
508.155	1241.69
508.372	1256.69
508.588	1206.69
508.805	1228.69
509.021	1199.69
509.238	1249.69
509.454	1267.69
509.67	1334.69
509.887	1288.69
510.103	1243.69
510.319	1236.69
510.536	1216.69
510.752	1216.69
510.968	1212.69
511.184	1181.69
511.401	1192.69
511.617	1159.69
511.833	1166.69
512.049	1147.69
512.265	1143.69
512.481	1178.69
512.698	1173.69
512.914	1195.69
513.13	1194.69
513.346	1152.69
513.562	1154.69
513.778	1174.69
513.994	1183.69
514.21	1202.69
514.426	1239.69
514.642	1274.69
514.858	1246.69
515.074	1204.69
515.29	1201.69
515.506	1231.69
515.721	1201.69
515.937	1234.69
516.153	1214.69
516.369	1227.69
516.585	1184.69
516.801	1244.69
517.016	1317.69
517.232	1306.69
517.448	1344.69
517.664	1352.69
517.879	1363.69
518.095	1349.69
518.311	1327.69
518.527	1286.69
518.742	1306.69
518.958	1320.69
519.173	1326.69
519.389	1296.69
519.605	1251.69
519.82	1224.69
520.036	1211.69
520.251	1181.69
520.467	1175.69
520.682	1155.69
520.898	1183.69
521.113	1155.69
521.329	1162.69
521.544	1161.69
521.76	1139.69
521.975	1159.69
522.19	1167.69
522.406	1154.69
522.621	1157.69
522.836	1158.69
523.052	1132.69
523.267	1126.69
523.482	1148.69
523.698	1115.69
523.913	1128.69
524.128	1140.69
524.343	1132.69
524.559	1149.69
524.774	1132.69
524.989	1112.69
525.204	1155.69
525.419	1134.69
525.634	1148.69
525.849	1141.69
526.064	1105.69
526.28	1128.69
526.495	1129.69
526.71	1128.69
526.925	1100.69
527.14	1125.69
527.355	1133.69
527.57	1158.69
527.785	1116.69
527.999	1136.69
528.214	1128.69
528.429	1183.69
528.644	1211.69
528.859	1186.69
529.074	1218.69
529.289	1233.69
529.503	1244.69
529.718	1223.69
529.933	1196.69
530.148	1170.69
530.363	1167.69
530.577	1194.69
530.792	1185.69
531.007	1182.69
531.221	1188.69
531.436	1201.69
531.651	1218.69
531.865	1243.69
532.08	1254.69
532.295	1280.69
532.509	1293.69
532.724	1318.69
532.938	1320.69
533.153	1366.69
533.367	1403.69
533.582	1426.69
533.796	1434.69
534.011	1395.69
534.225	1429.69
534.44	1330.69
534.654	1337.69
534.868	1285.69
535.083	1318.69
535.297	1273.69
535.511	1279.69
535.726	1248.69
535.94	1242.69
536.154	1222.69
536.369	1188.69
536.583	1154.69
536.797	1213.69
537.011	1171.69
537.225	1168.69
537.44	1176.69
537.654	1164.69
537.868	1151.69
538.082	1135.69
538.296	1108.69
538.51	1131.69
538.724	1121.69
538.938	1131.69
539.153	1158.69
539.367	1129.69
539.581	1115.69
539.795	1098.69
540.009	1112.69
540.222	1062.69
540.436	1106.69
540.65	1087.69
540.864	1117.69
541.078	1147.69
541.292	1158.69
541.506	1373.69
541.72	1401.69
541.934	1298.69
542.147	1205.69
542.361	1165.69
542.575	1135.69
542.789	1095.69
543.002	1083.69
543.216	1071.69
543.43	1070.69
543.644	1050.69
543.857	1076.69
544.071	1099.69
544.285	1091.69
544.498	1112.69
544.712	1092.69
544.925	1121.69
545.139	1115.69
545.352	1103.69
545.566	1081.69
545.779	1128.69
545.993	1116.69
546.206	1118.69
546.42	1125.69
546.633	1134.69
546.847	1110.69
547.06	1114.69
547.274	1137.69
547.487	1125.69
547.7	1104.69
547.914	1109.69
548.127	1114.69
548.34	1099.69
548.554	1110.69
548.767	1158.69
548.98	1101.69
549.193	1108.69
549.407	1093.69
549.62	1089.69
549.833	1129.69
550.046	1111.69
550.259	1105.69
550.473	1074.69
550.686	1136.69
550.899	1097.69
551.112	1096.69
551.325	1072.69
551.538	1088.69
551.751	1074.69
551.964	1053.69
552.177	1116.69
552.39	1110.69
552.603	1128.69
552.816	1188.69
553.029	1188.69
553.242	1176.69
553.455	1216.69
553.667	1220.69
553.88	1198.69
554.093	1225.69
554.306	1224.69
554.519	1225.69
554.732	1230.69
554.944	1236.69
555.157	1250.69
555.37	1269.69
555.583	1290.69
555.795	1357.69
556.008	1377.69
556.221	1490.69
556.433	1524.69
556.646	1543.69
556.859	1488.69
557.071	1477.69
557.284	1484.69
557.496	1439.69
557.709	1423.69
557.921	1418.69
558.134	1414.69
558.346	1458.69
558.559	1467.69
558.771	1550.69
558.984	1641.69
559.196	1650.69
559.409	1630.69
559.621	1579.69
559.833	1497.69
560.046	1444.69
560.258	1366.69
560.47	1323.69
560.683	1289.69
560.895	1274.69
561.107	1228.69
561.32	1184.69
561.532	1158.69
561.744	1182.69
561.956	1126.69
562.168	1136.69
562.381	1104.69
562.593	1098.69
562.805	1120.69
563.017	1121.69
563.229	1112.69
563.441	1175.69
563.653	1089.69
563.865	1044.69
564.077	1020.69
564.289	1022.69
564.501	993.69
564.713	1032.69
564.925	1024.69
565.137	1007.69
565.349	1001.69
565.561	1004.69
565.773	1049.69
565.985	1049.69
566.197	1050.69
566.408	1066.69
566.62	1084.69
566.832	1119.69
567.044	1127.69
567.255	1121.69
567.467	1145.69
567.679	1170.69
567.891	1214.69
568.102	1288.69
568.314	1455.69
568.526	1298.69
568.737	1110.69
568.949	1046.69
569.161	996.69
569.372	971.69
569.584	926.69
569.795	920.69
570.007	890.69
570.218	923.69
570.43	910.69
570.641	858.69
570.853	874.69
571.064	847.69
571.276	834.69
571.487	846.69
571.698	834.69
571.91	833.69
572.121	833.69
572.333	820.69
572.544	799.69
572.755	811.69
572.966	908.69
573.178	869.69
573.389	810.69
573.6	776.69
573.811	746.69
574.023	759.69
574.234	771.69
574.445	731.69
574.656	766.69
574.867	748.69
575.078	745.69
575.289	751.69
575.501	750.69
575.712	734.69
575.923	718.69
576.134	713.69
576.345	746.69
576.556	738.69
576.767	744.69
576.978	738.69
577.188	730.69
577.399	744.69
577.61	745.69
577.821	745.69
578.032	773.69
578.243	762.69
578.454	752.69
578.665	781.69
578.875	812.69
579.086	818.69
579.297	838.69
579.508	871.69
579.718	918.69
579.929	976.69
580.14	1072.69
580.35	1120.69
580.561	1093.69
580.772	1043.69
580.982	955.69
581.193	902.69
581.403	898.69
581.614	868.69
581.825	828.69
582.035	819.69
582.246	808.69
582.456	801.69
582.667	762.69
582.877	731.69
583.087	724.69
583.298	698.69
583.508	662.69
583.719	681.69
583.929	676.69
584.139	670.69
584.35	627.69
584.56	644.69
584.77	632.69
584.981	618.69
585.191	610.69
585.401	615.69
585.611	616.69
585.821	621.69
586.032	602.69
586.242	568.69
586.452	610.69
586.662	576.69
586.872	568.69
587.082	568.69
587.292	575.69
587.502	559.69
587.713	583.69
587.923	558.69
588.133	572.69
588.343	549.69
588.553	550.69
588.762	553.69
588.972	550.69
589.182	578.69
589.392	550.69
589.602	534.69
589.812	549.69
590.022	519.69
590.232	517.69
590.441	525.69
590.651	548.69
590.861	529.69
591.071	534.69
591.281	520.69
591.49	536.69
591.7	549.69
591.91	538.69
592.119	528.69
592.329	546.69
592.539	562.69
592.748	549.69
592.958	547.69
593.167	549.69
593.377	548.69
593.587	546.69
593.796	571.69
594.006	542.69
594.215	564.69
594.424	586.69
594.634	546.69
594.843	530.69
595.053	534.69
595.262	508.69
595.472	511.69
595.681	511.69
595.89	514.69
596.1	474.69
596.309	497.69
596.518	465.69
596.727	473.69
596.937	461.69
597.146	475.69
597.355	461.69
597.564	461.69
597.774	467.69
597.983	447.69
598.192	430.69
598.401	461.69
598.61	456.69
598.819	450.69
599.028	434.69
599.237	445.69
599.446	437.69
599.655	456.69
599.864	460.69
600.073	430.69
600.282	433.69
600.491	432.69
600.7	441.69
600.909	428.69
601.118	428.69
601.327	417.69
601.536	433.69
601.745	457.69
601.953	482.69
602.162	526.69
602.371	480.69
602.58	449.69
602.789	452.69
602.997	456.69
603.206	442.69
603.415	430.69
603.623	433.69
603.832	440.69
604.041	426.69
604.249	427.69
604.458	410.69
604.666	437.69
604.875	406.69
605.084	421.69
605.292	409.69
605.501	419.69
605.709	437.69
605.918	424.69
606.126	412.69
606.334	440.69
606.543	434.69
606.751	448.69
606.96	487.69
607.168	541.69
607.376	464.69
607.585	427.69
607.793	422.69
608.001	423.69
608.21	426.69
608.418	426.69
608.626	418.69
608.834	405.69
609.043	419.69
609.251	408.69
609.459	420.69
609.667	409.69
609.875	407.69
610.083	426.69
610.291	424.69
610.499	407.69
610.707	395.69
610.916	412.69
611.124	384.69
611.332	409.69
611.54	401.69
611.748	387.69
611.955	390.69
612.163	401.69
612.371	414.69
612.579	375.69
612.787	374.69
612.995	411.69
613.203	408.69
613.411	393.69
613.618	381.69
613.826	380.69
614.034	379.69
614.242	409.69
614.449	392.69
614.657	383.69
614.865	373.69
615.072	369.69
615.28	399.69
615.488	412.69
615.695	392.69
615.903	399.69
616.111	371.69
616.318	403.69
616.526	395.69
616.733	382.69
616.941	384.69
617.148	404.69
617.356	374.69
617.563	372.69
617.771	383.69
617.978	374.69
618.185	374.69
618.393	380.69
618.6	373.69
618.807	362.69
619.015	385.69
619.222	366.69
619.429	371.69
619.637	356.69
619.844	372.69
620.051	370.69
620.258	361.69
620.466	350.69
620.673	328.69
620.88	349.69
621.087	344.69
621.294	360.69
621.501	342.69
621.708	364.69
621.915	361.69
622.122	338.69
622.329	347.69
622.536	341.69
622.743	350.69
622.95	330.69
623.157	346.69
623.364	331.69
623.571	332.69
623.778	336.69
623.985	353.69
624.192	346.69
624.399	340.69
624.606	352.69
624.812	332.69
625.019	331.69
625.226	327.69
625.433	338.69
625.639	325.69
625.846	327.69
626.053	320.69
626.259	315.69
626.466	326.69
626.673	306.69
626.879	332.69
627.086	324.69
627.293	338.69
627.499	324.69
627.706	333.69
627.912	344.69
628.119	330.69
628.325	322.69
628.532	316.69
628.738	314.69
628.945	307.69
629.151	313.69
629.357	312.69
629.564	311.69
629.77	305.69
629.976	302.69
630.183	309.69
630.389	310.69
630.595	307.69
630.802	307.69
631.008	310.69
631.214	307.69
631.42	298.69
631.627	290.69
631.833	295.69
632.039	298.69
632.245	299.69
632.451	304.69
632.657	303.69
632.863	297.69
633.069	282.69
633.275	299.69
633.481	279.69
633.688	290.69
633.893	304.69
634.099	278.69
634.305	283.69
634.511	296.69
634.717	292.69
634.923	291.69
635.129	316.69
635.335	350.69
635.541	324.69
635.747	307.69
635.952	300.69
636.158	291.69
636.364	302.69
636.57	309.69
636.775	305.69
636.981	291.69
637.187	279.69
637.392	295.69
637.598	280.69
637.804	301.69
638.009	292.69
638.215	294.69
638.421	305.69
638.626	321.69
638.832	305.69
639.037	315.69
639.243	302.69
639.448	323.69
639.654	317.69
639.859	294.69
640.065	294.69
640.27	313.69
640.475	305.69
640.681	309.69
640.886	313.69
641.091	311.69
641.297	311.69
641.502	326.69
641.707	316.69
641.913	320.69
642.118	318.69
642.323	325.69
642.528	328.69
642.733	335.69
642.939	340.69
643.144	335.69
643.349	359.69
643.554	371.69
643.759	380.69
643.964	374.69
644.169	404.69
644.374	400.69
644.579	427.69
644.784	470.69
644.989	515.69
645.194	584.69
645.399	615.69
645.604	638.69
645.809	556.69
646.014	448.69
646.219	390.69
646.423	376.69
646.628	342.69
646.833	332.69
647.038	323.69
647.243	319.69
647.447	312.69
647.652	308.69
647.857	296.69
648.062	295.69
648.266	294.69
648.471	286.69
648.676	293.69
648.88	289.69
649.085	278.69
649.289	274.69
649.494	248.69
649.698	252.69
649.903	259.69
650.107	274.69
650.312	259.69
650.516	237.69
650.721	255.69
650.925	240.69
651.13	244.69
651.334	243.69
651.539	228.69
651.743	242.69
651.947	231.69
652.152	218.69
652.356	214.69
652.56	251.69
652.764	282.69
652.969	217.69
653.173	227.69
653.377	214.69
653.581	211.69
653.785	192.69
653.99	199.69
654.194	221.69
654.398	218.69
654.602	192.69
654.806	211.69
655.01	194.69
655.214	199.69
655.418	200.69
655.622	198.69
655.826	214.69
656.03	196.69
656.234	233.69
656.438	237.69
656.642	211.69
656.846	197.69
657.049	208.69
657.253	203.69
657.457	185.69
657.661	194.69
657.865	172.69
658.068	147.69
658.272	143.69
658.476	157.69
658.68	134.69
658.883	155.69
659.087	130.69
659.291	135.69
659.494	136.69
659.698	124.69
659.901	124.69
660.105	131.69
660.309	102.69
660.512	110.69
660.716	110.69
660.919	107.69
661.123	110.69
661.326	98.69
661.53	103.69
661.733	101.69
661.936	94.69
662.14	95.69
662.343	89.69
662.546	91.69
662.75	104.69
662.953	81.69
663.156	87.69
663.36	99.69
663.563	85.69
663.766	87.69
663.969	89.69
664.173	87.69
664.376	102.69
664.579	76.69
664.782	88.69
664.985	79.69
665.188	77.69
665.391	80.69
665.594	89.69
665.797	76.69
666	64.69
666.203	86.69
666.406	82.69
666.609	87.69
666.812	90.69
667.015	92.69
667.218	77.69
667.421	80.69
667.624	91.69
667.827	95.69
668.03	80.69
668.232	72.69
668.435	81.69
668.638	91.69
668.841	87.69
669.043	98.69
669.246	82.69
669.449	95.69
669.651	86.69
669.854	77.69
670.057	79.69
670.259	74.69
670.462	94.69
670.665	81.69
670.867	75.69
671.07	83.69
671.272	85.69
671.475	79.69
671.677	82.69
671.88	70.69
672.082	86.69
672.284	77.69
672.487	72.69
672.689	86.69
672.892	87.69
