Data from SnStandardFlinnAPT0064_LampEnergy5.5_LIBS07252019.E.O._I.C._HRD10591_15-14-50-491.txt Node
Date: Thu Jul 25 15:14:50 EDT 2019
User: cochatt
Spectrometer: HR+D1059
Trigger mode: 1
Integration Time (sec): 1.000000E-1
Scans to average: 1
Electric dark correction enabled: true
Nonlinearity correction enabled: false
Boxcar width: 0
XAxis mode: Wavelengths
Number of Pixels in Spectrum: 2048
>>>>>Begin Spectral Data<<<<<
223.165	-19.62
223.4	-19.62
223.635	-19.62
223.869	-16.62
224.104	-15.62
224.338	-16.62
224.573	-15.62
224.808	-16.62
225.042	-0.62
225.277	5.38
225.511	5.38
225.746	13.38
225.98	1.38
226.215	1.38
226.449	-0.62
226.683	12.38
226.918	31.38
227.152	31.38
227.387	21.38
227.621	26.38
227.856	43.38
228.09	35.38
228.324	37.38
228.559	45.38
228.793	73.38
229.027	133.38
229.262	143.38
229.496	133.38
229.73	137.38
229.964	151.38
230.199	140.38
230.433	158.38
230.667	143.38
230.901	155.38
231.136	166.38
231.37	153.38
231.604	165.38
231.838	189.38
232.072	200.38
232.306	212.38
232.541	180.38
232.775	204.38
233.009	191.38
233.243	171.38
233.477	196.38
233.711	216.38
233.945	220.38
234.179	222.38
234.413	180.38
234.647	186.38
234.881	224.38
235.115	235.38
235.349	259.38
235.583	285.38
235.817	352.38
236.051	369.38
236.285	259.38
236.519	208.38
236.753	219.38
236.987	199.38
237.221	201.38
237.455	207.38
237.689	204.38
237.922	196.38
238.156	196.38
238.39	210.38
238.624	197.38
238.858	205.38
239.091	202.38
239.325	190.38
239.559	221.38
239.793	218.38
240.027	222.38
240.26	225.38
240.494	237.38
240.728	242.38
240.961	236.38
241.195	260.38
241.429	256.38
241.662	280.38
241.896	315.38
242.13	348.38
242.363	424.38
242.597	504.38
242.83	494.38
243.064	522.38
243.298	605.38
243.531	520.38
243.765	355.38
243.998	330.38
244.232	285.38
244.465	263.38
244.699	265.38
244.932	269.38
245.166	256.38
245.399	277.38
245.633	270.38
245.866	270.38
246.099	278.38
246.333	261.38
246.566	273.38
246.8	265.38
247.033	264.38
247.266	290.38
247.5	273.38
247.733	283.38
247.966	287.38
248.2	309.38
248.433	357.38
248.666	340.38
248.899	353.38
249.133	327.38
249.366	340.38
249.599	348.38
249.832	369.38
250.066	387.38
250.299	332.38
250.532	325.38
250.765	301.38
250.998	297.38
251.231	317.38
251.465	320.38
251.698	286.38
251.931	309.38
252.164	304.38
252.397	313.38
252.63	323.38
252.863	317.38
253.096	336.38
253.329	318.38
253.562	312.38
253.795	350.38
254.028	308.38
254.261	322.38
254.494	353.38
254.727	377.38
254.96	451.38
255.193	422.38
255.426	373.38
255.659	344.38
255.892	325.38
256.124	346.38
256.357	349.38
256.59	364.38
256.823	379.38
257.056	391.38
257.289	456.38
257.521	494.38
257.754	417.38
257.987	378.38
258.22	367.38
258.452	367.38
258.685	362.38
258.918	375.38
259.151	376.38
259.383	397.38
259.616	452.38
259.849	452.38
260.081	412.38
260.314	400.38
260.547	397.38
260.779	413.38
261.012	392.38
261.244	394.38
261.477	381.38
261.71	403.38
261.942	419.38
262.175	431.38
262.407	409.38
262.64	443.38
262.872	435.38
263.105	483.38
263.337	495.38
263.57	519.38
263.802	510.38
264.035	548.38
264.267	541.38
264.499	571.38
264.732	573.38
264.964	567.38
265.197	566.38
265.429	566.38
265.661	603.38
265.894	620.38
266.126	689.38
266.358	732.38
266.591	697.38
266.823	619.38
267.055	573.38
267.287	574.38
267.52	529.38
267.752	540.38
267.984	513.38
268.216	515.38
268.448	511.38
268.681	510.38
268.913	488.38
269.145	488.38
269.377	492.38
269.609	507.38
269.841	501.38
270.073	533.38
270.306	578.38
270.538	703.38
270.77	1024.38
271.002	1236.38
271.234	918.38
271.466	662.38
271.698	560.38
271.93	530.38
272.162	536.38
272.394	501.38
272.626	497.38
272.858	502.38
273.09	477.38
273.322	482.38
273.553	484.38
273.785	488.38
274.017	456.38
274.249	506.38
274.481	471.38
274.713	491.38
274.945	489.38
275.176	489.38
275.408	492.38
275.64	491.38
275.872	493.38
276.104	524.38
276.335	505.38
276.567	502.38
276.799	510.38
277.031	510.38
277.262	512.38
277.494	552.38
277.726	572.38
277.957	611.38
278.189	701.38
278.421	655.38
278.652	603.38
278.884	605.38
279.115	546.38
279.347	541.38
279.579	528.38
279.81	529.38
280.042	521.38
280.273	547.38
280.505	560.38
280.736	573.38
280.968	593.38
281.199	634.38
281.431	685.38
281.662	685.38
281.894	623.38
282.125	599.38
282.356	637.38
282.588	627.38
282.819	629.38
283.051	649.38
283.282	696.38
283.513	844.38
283.745	1159.38
283.976	1771.38
284.207	2478.38
284.439	2237.38
284.67	1432.38
284.901	1170.38
285.132	1152.38
285.364	1056.38
285.595	868.38
285.826	847.38
286.057	936.38
286.288	1224.38
286.52	1610.38
286.751	1478.38
286.982	1012.38
287.213	770.38
287.444	729.38
287.675	663.38
287.906	646.38
288.138	650.38
288.369	657.38
288.6	667.38
288.831	657.38
289.062	637.38
289.293	668.38
289.524	664.38
289.755	642.38
289.986	649.38
290.217	662.38
290.448	669.38
290.679	649.38
290.91	651.38
291.141	680.38
291.371	689.38
291.602	714.38
291.833	669.38
292.064	633.38
292.295	636.38
292.526	622.38
292.757	625.38
292.987	615.38
293.218	624.38
293.449	615.38
293.68	625.38
293.91	612.38
294.141	616.38
294.372	603.38
294.603	647.38
294.833	608.38
295.064	616.38
295.295	625.38
295.525	591.38
295.756	591.38
295.987	609.38
296.217	615.38
296.448	612.38
296.679	626.38
296.909	591.38
297.14	602.38
297.37	619.38
297.601	649.38
297.831	605.38
298.062	635.38
298.292	621.38
298.523	665.38
298.753	655.38
298.984	656.38
299.214	653.38
299.445	633.38
299.675	643.38
299.905	709.38
300.136	735.38
300.366	777.38
300.597	925.38
300.827	1189.38
301.057	1592.38
301.288	1574.38
301.518	1085.38
301.748	884.38
301.979	799.38
302.209	813.38
302.439	830.38
302.669	839.38
302.9	977.38
303.13	1319.38
303.36	1795.38
303.59	2383.38
303.82	2101.38
304.051	1319.38
304.281	1019.38
304.511	867.38
304.741	818.38
304.971	778.38
305.201	767.38
305.431	749.38
305.661	743.38
305.891	719.38
306.121	720.38
306.352	737.38
306.582	716.38
306.812	711.38
307.042	711.38
307.272	702.38
307.502	683.38
307.731	699.38
307.961	718.38
308.191	693.38
308.421	699.38
308.651	712.38
308.881	694.38
309.111	709.38
309.341	699.38
309.571	717.38
309.8	727.38
310.03	722.38
310.26	713.38
310.49	719.38
310.72	723.38
310.949	705.38
311.179	719.38
311.409	740.38
311.639	750.38
311.868	742.38
312.098	730.38
312.328	751.38
312.557	749.38
312.787	756.38
313.017	732.38
313.246	775.38
313.476	773.38
313.706	776.38
313.935	830.38
314.165	845.38
314.394	875.38
314.624	863.38
314.853	829.38
315.083	800.38
315.312	812.38
315.542	816.38
315.771	814.38
316.001	819.38
316.23	858.38
316.46	874.38
316.689	947.38
316.919	1108.38
317.148	1473.38
317.377	2175.38
317.607	3083.38
317.836	3236.38
318.065	1999.38
318.295	1385.38
318.524	1145.38
318.753	1005.38
318.983	972.38
319.212	931.38
319.441	905.38
319.67	917.38
319.9	901.38
320.129	880.38
320.358	872.38
320.587	875.38
320.816	903.38
321.046	905.38
321.275	880.38
321.504	891.38
321.733	899.38
321.962	918.38
322.191	943.38
322.42	920.38
322.649	913.38
322.878	931.38
323.108	940.38
323.337	945.38
323.566	945.38
323.795	945.38
324.024	974.38
324.253	987.38
324.482	1019.38
324.71	1102.38
324.939	1133.38
325.168	1148.38
325.397	1189.38
325.626	1336.38
325.855	1796.38
326.084	2671.38
326.313	3861.38
326.542	4099.38
326.77	2721.38
326.999	1893.38
327.228	1638.38
327.457	1608.38
327.686	1622.38
327.914	1719.38
328.143	1949.38
328.372	2182.38
328.6	2343.38
328.829	2226.38
329.058	1961.38
329.287	1806.38
329.515	1622.38
329.744	1533.38
329.972	1503.38
330.201	1415.38
330.43	1373.38
330.658	1291.38
330.887	1289.38
331.115	1279.38
331.344	1285.38
331.572	1259.38
331.801	1283.38
332.03	1264.38
332.258	1276.38
332.486	1349.38
332.715	1487.38
332.943	1731.38
333.172	2046.38
333.4	2006.38
333.629	1689.38
333.857	1574.38
334.085	1603.38
334.314	1657.38
334.542	1781.38
334.771	2029.38
334.999	2347.38
335.227	2814.38
335.455	3150.38
335.684	2917.38
335.912	2579.38
336.14	2259.38
336.369	2024.38
336.597	1877.38
336.825	1720.38
337.053	1659.38
337.281	1557.38
337.51	1476.38
337.738	1419.38
337.966	1386.38
338.194	1347.38
338.422	1273.38
338.65	1259.38
338.878	1260.38
339.106	1212.38
339.334	1197.38
339.562	1208.38
339.79	1174.38
340.018	1151.38
340.246	1159.38
340.474	1149.38
340.702	1105.38
340.93	1118.38
341.158	1141.38
341.386	1127.38
341.614	1102.38
341.842	1089.38
342.07	1067.38
342.298	1050.38
342.526	1031.38
342.754	1041.38
342.981	1044.38
343.209	1048.38
343.437	1041.38
343.665	1061.38
343.893	1070.38
344.12	1091.38
344.348	1080.38
344.576	1027.38
344.804	1039.38
345.031	996.38
345.259	1005.38
345.487	1016.38
345.714	1000.38
345.942	982.38
346.17	1020.38
346.397	977.38
346.625	979.38
346.853	968.38
347.08	953.38
347.308	943.38
347.535	960.38
347.763	973.38
347.99	941.38
348.218	946.38
348.445	942.38
348.673	936.38
348.9	950.38
349.128	948.38
349.355	916.38
349.583	955.38
349.81	938.38
350.037	932.38
350.265	920.38
350.492	944.38
350.72	930.38
350.947	956.38
351.174	931.38
351.402	917.38
351.629	917.38
351.856	920.38
352.083	945.38
352.311	930.38
352.538	933.38
352.765	963.38
352.992	884.38
353.22	893.38
353.447	931.38
353.674	924.38
353.901	920.38
354.128	946.38
354.355	912.38
354.583	939.38
354.81	933.38
355.037	939.38
355.264	936.38
355.491	914.38
355.718	943.38
355.945	945.38
356.172	955.38
356.399	940.38
356.626	948.38
356.853	955.38
357.08	937.38
357.307	971.38
357.534	981.38
357.761	964.38
357.988	960.38
358.215	965.38
358.441	977.38
358.668	973.38
358.895	943.38
359.122	965.38
359.349	973.38
359.576	986.38
359.802	979.38
360.029	962.38
360.256	962.38
360.483	941.38
360.709	963.38
360.936	993.38
361.163	994.38
361.39	975.38
361.616	995.38
361.843	992.38
362.07	971.38
362.296	986.38
362.523	945.38
362.749	979.38
362.976	969.38
363.203	973.38
363.429	981.38
363.656	985.38
363.882	1008.38
364.109	975.38
364.335	977.38
364.562	968.38
364.788	981.38
365.015	1022.38
365.241	1011.38
365.468	1033.38
365.694	1071.38
365.92	1009.38
366.147	989.38
366.373	993.38
366.599	999.38
366.826	980.38
367.052	1013.38
367.278	1008.38
367.505	1021.38
367.731	1010.38
367.957	1006.38
368.184	1008.38
368.41	1021.38
368.636	1040.38
368.862	1011.38
369.089	998.38
369.315	1012.38
369.541	1020.38
369.767	1025.38
369.993	1031.38
370.219	1021.38
370.445	1043.38
370.672	1046.38
370.898	1034.38
371.124	1056.38
371.35	1067.38
371.576	1035.38
371.802	1055.38
372.028	1066.38
372.254	1065.38
372.48	1072.38
372.706	1096.38
372.932	1085.38
373.158	1063.38
373.384	1123.38
373.61	1071.38
373.835	1120.38
374.061	1104.38
374.287	1100.38
374.513	1110.38
374.739	1111.38
374.965	1139.38
375.191	1131.38
375.416	1137.38
375.642	1127.38
375.868	1103.38
376.094	1098.38
376.319	1097.38
376.545	1073.38
376.771	1050.38
376.997	1071.38
377.222	1039.38
377.448	1018.38
377.674	1045.38
377.899	1037.38
378.125	1048.38
378.35	1091.38
378.576	1060.38
378.802	1043.38
379.027	1060.38
379.253	1085.38
379.478	1094.38
379.704	1279.38
379.929	1695.38
380.155	2382.38
380.38	2505.38
380.606	1707.38
380.831	1320.38
381.057	1153.38
381.282	1111.38
381.507	1092.38
381.733	1060.38
381.958	1087.38
382.184	1067.38
382.409	1064.38
382.634	1063.38
382.86	1055.38
383.085	1053.38
383.31	1047.38
383.535	1025.38
383.761	1044.38
383.986	1053.38
384.211	1067.38
384.436	1077.38
384.662	1089.38
384.887	1089.38
385.112	1068.38
385.337	1064.38
385.562	1111.38
385.787	1089.38
386.013	1071.38
386.238	1094.38
386.463	1093.38
386.688	1094.38
386.913	1058.38
387.138	1079.38
387.363	1099.38
387.588	1080.38
387.813	1111.38
388.038	1053.38
388.263	1083.38
388.488	1076.38
388.713	1121.38
388.938	1080.38
389.163	1097.38
389.387	1068.38
389.612	1089.38
389.837	1086.38
390.062	1080.38
390.287	1115.38
390.512	1110.38
390.736	1132.38
390.961	1126.38
391.186	1137.38
391.411	1138.38
391.636	1149.38
391.86	1135.38
392.085	1136.38
392.31	1172.38
392.534	1139.38
392.759	1116.38
392.984	1112.38
393.208	1102.38
393.433	1119.38
393.658	1101.38
393.882	1077.38
394.107	1097.38
394.331	1119.38
394.556	1111.38
394.78	1123.38
395.005	1125.38
395.229	1109.38
395.454	1136.38
395.678	1173.38
395.903	1108.38
396.127	1133.38
396.352	1107.38
396.576	1108.38
396.801	1109.38
397.025	1143.38
397.249	1119.38
397.474	1172.38
397.698	1157.38
397.922	1204.38
398.147	1149.38
398.371	1188.38
398.595	1185.38
398.82	1177.38
399.044	1247.38
399.268	1307.38
399.492	1412.38
399.717	1453.38
399.941	1443.38
400.165	1390.38
400.389	1352.38
400.613	1302.38
400.837	1268.38
401.062	1244.38
401.286	1206.38
401.51	1220.38
401.734	1197.38
401.958	1212.38
402.182	1197.38
402.406	1224.38
402.63	1185.38
402.854	1233.38
403.078	1201.38
403.302	1251.38
403.526	1229.38
403.75	1263.38
403.974	1250.38
404.198	1270.38
404.422	1255.38
404.645	1217.38
404.869	1280.38
405.093	1284.38
405.317	1286.38
405.541	1266.38
405.765	1275.38
405.988	1259.38
406.212	1294.38
406.436	1299.38
406.66	1288.38
406.883	1275.38
407.107	1347.38
407.331	1352.38
407.555	1399.38
407.778	1358.38
408.002	1327.38
408.226	1345.38
408.449	1319.38
408.673	1307.38
408.896	1272.38
409.12	1249.38
409.344	1279.38
409.567	1260.38
409.791	1284.38
410.014	1234.38
410.238	1224.38
410.461	1241.38
410.685	1218.38
410.908	1243.38
411.132	1245.38
411.355	1200.38
411.578	1226.38
411.802	1206.38
412.025	1215.38
412.249	1239.38
412.472	1213.38
412.695	1190.38
412.919	1190.38
413.142	1179.38
413.365	1209.38
413.589	1176.38
413.812	1172.38
414.035	1185.38
414.258	1215.38
414.482	1183.38
414.705	1186.38
414.928	1198.38
415.151	1171.38
415.374	1167.38
415.597	1157.38
415.821	1136.38
416.044	1146.38
416.267	1144.38
416.49	1147.38
416.713	1121.38
416.936	1139.38
417.159	1132.38
417.382	1155.38
417.605	1141.38
417.828	1153.38
418.051	1143.38
418.274	1149.38
418.497	1153.38
418.72	1195.38
418.943	1139.38
419.166	1207.38
419.389	1265.38
419.611	1254.38
419.834	1197.38
420.057	1189.38
420.28	1167.38
420.503	1144.38
420.726	1163.38
420.948	1149.38
421.171	1139.38
421.394	1138.38
421.617	1171.38
421.839	1172.38
422.062	1161.38
422.285	1158.38
422.507	1168.38
422.73	1121.38
422.953	1174.38
423.175	1166.38
423.398	1189.38
423.621	1153.38
423.843	1179.38
424.066	1147.38
424.288	1159.38
424.511	1158.38
424.733	1179.38
424.956	1149.38
425.178	1119.38
425.401	1153.38
425.623	1147.38
425.846	1097.38
426.068	1120.38
426.291	1102.38
426.513	1113.38
426.735	1088.38
426.958	1102.38
427.18	1085.38
427.402	1119.38
427.625	1103.38
427.847	1085.38
428.069	1070.38
428.292	1085.38
428.514	1078.38
428.736	1089.38
428.958	1059.38
429.181	1060.38
429.403	1067.38
429.625	1076.38
429.847	1052.38
430.069	1075.38
430.292	1088.38
430.514	1104.38
430.736	1116.38
430.958	1089.38
431.18	1053.38
431.402	1048.38
431.624	1036.38
431.846	1035.38
432.068	1024.38
432.29	1064.38
432.512	1078.38
432.734	1079.38
432.956	1055.38
433.178	1077.38
433.4	1081.38
433.622	1100.38
433.844	1064.38
434.066	1060.38
434.287	1057.38
434.509	1054.38
434.731	1064.38
434.953	1073.38
435.175	1080.38
435.397	1100.38
435.618	1078.38
435.84	1053.38
436.062	1047.38
436.284	1045.38
436.505	1057.38
436.727	1059.38
436.949	1050.38
437.17	1060.38
437.392	1023.38
437.614	1023.38
437.835	1032.38
438.057	1021.38
438.278	997.38
438.5	1001.38
438.721	1020.38
438.943	1053.38
439.165	1090.38
439.386	1109.38
439.608	1104.38
439.829	1122.38
440.05	1124.38
440.272	1149.38
440.493	1105.38
440.715	1095.38
440.936	1079.38
441.158	1128.38
441.379	1117.38
441.6	1138.38
441.822	1173.38
442.043	1245.38
442.264	1191.38
442.486	1173.38
442.707	1145.38
442.928	1115.38
443.149	1152.38
443.371	1131.38
443.592	1171.38
443.813	1162.38
444.034	1136.38
444.255	1143.38
444.476	1197.38
444.698	1205.38
444.919	1224.38
445.14	1261.38
445.361	1221.38
445.582	1211.38
445.803	1109.38
446.024	1138.38
446.245	1124.38
446.466	1133.38
446.687	1108.38
446.908	1129.38
447.129	1078.38
447.35	1083.38
447.571	1084.38
447.792	1044.38
448.013	1080.38
448.234	1021.38
448.455	1075.38
448.675	1069.38
448.896	1044.38
449.117	1080.38
449.338	1153.38
449.559	1187.38
449.779	1059.38
450	1070.38
450.221	1019.38
450.442	1009.38
450.662	1007.38
450.883	1015.38
451.104	1018.38
451.324	1016.38
451.545	1005.38
451.766	1013.38
451.986	1000.38
452.207	1062.38
452.428	1222.38
452.648	1616.38
452.869	1429.38
453.089	1146.38
453.31	1071.38
453.53	1125.38
453.751	1118.38
453.971	1137.38
454.192	1143.38
454.412	1021.38
454.633	993.38
454.853	983.38
455.073	974.38
455.294	959.38
455.514	985.38
455.734	968.38
455.955	947.38
456.175	958.38
456.395	962.38
456.616	959.38
456.836	983.38
457.056	987.38
457.276	966.38
457.497	1021.38
457.717	1005.38
457.937	988.38
458.157	1027.38
458.377	1005.38
458.598	1006.38
458.818	1048.38
459.038	1028.38
459.258	1057.38
459.478	1059.38
459.698	1029.38
459.918	1064.38
460.138	1111.38
460.358	1123.38
460.578	1135.38
460.798	1151.38
461.018	1133.38
461.238	1151.38
461.458	1169.38
461.678	1173.38
461.898	1162.38
462.118	1165.38
462.338	1215.38
462.558	1215.38
462.777	1249.38
462.997	1280.38
463.217	1333.38
463.437	1339.38
463.657	1320.38
463.876	1329.38
464.096	1284.38
464.316	1237.38
464.536	1237.38
464.755	1223.38
464.975	1228.38
465.195	1142.38
465.414	1126.38
465.634	1122.38
465.854	1058.38
466.073	1047.38
466.293	1123.38
466.512	1064.38
466.732	1075.38
466.951	1135.38
467.171	1156.38
467.391	1105.38
467.61	1101.38
467.829	1074.38
468.049	1043.38
468.268	1054.38
468.488	1053.38
468.707	1028.38
468.927	1045.38
469.146	1017.38
469.365	1023.38
469.585	1033.38
469.804	1015.38
470.023	1088.38
470.243	1094.38
470.462	1137.38
470.681	1171.38
470.901	1232.38
471.12	1361.38
471.339	1415.38
471.558	1143.38
471.777	1124.38
471.997	1079.38
472.216	1067.38
472.435	1084.38
472.654	1032.38
472.873	1012.38
473.092	1030.38
473.311	1046.38
473.53	1055.38
473.749	1069.38
473.968	1099.38
474.187	1072.38
474.406	1038.38
474.625	1048.38
474.844	1011.38
475.063	1050.38
475.282	1053.38
475.501	1031.38
475.72	1046.38
475.939	1061.38
476.158	1089.38
476.377	1087.38
476.596	1038.38
476.814	1096.38
477.033	1093.38
477.252	1134.38
477.471	1147.38
477.69	1152.38
477.908	1147.38
478.127	1169.38
478.346	1202.38
478.564	1195.38
478.783	1208.38
479.002	1255.38
479.22	1220.38
479.439	1243.38
479.658	1260.38
479.876	1229.38
480.095	1237.38
480.313	1275.38
480.532	1265.38
480.751	1292.38
480.969	1236.38
481.188	1241.38
481.406	1203.38
481.624	1190.38
481.843	1217.38
482.061	1260.38
482.28	1245.38
482.498	1253.38
482.717	1225.38
482.935	1242.38
483.153	1269.38
483.372	1265.38
483.59	1289.38
483.808	1283.38
484.027	1281.38
484.245	1367.38
484.463	1469.38
484.681	1599.38
484.9	1532.38
485.118	1428.38
485.336	1425.38
485.554	1413.38
485.772	1499.38
485.99	1646.38
486.209	1775.38
486.427	1505.38
486.645	1375.38
486.863	1356.38
487.081	1350.38
487.299	1297.38
487.517	1318.38
487.735	1341.38
487.953	1372.38
488.171	1392.38
488.389	1290.38
488.607	1323.38
488.825	1300.38
489.043	1301.38
489.261	1280.38
489.479	1267.38
489.696	1283.38
489.914	1270.38
490.132	1280.38
490.35	1272.38
490.568	1327.38
490.786	1336.38
491.003	1358.38
491.221	1366.38
491.439	1393.38
491.657	1376.38
491.874	1409.38
492.092	1407.38
492.31	1450.38
492.527	1417.38
492.745	1410.38
492.963	1380.38
493.18	1385.38
493.398	1365.38
493.615	1389.38
493.833	1389.38
494.05	1382.38
494.268	1397.38
494.485	1382.38
494.703	1387.38
494.92	1387.38
495.138	1366.38
495.355	1414.38
495.573	1429.38
495.79	1407.38
496.008	1421.38
496.225	1392.38
496.442	1429.38
496.66	1455.38
496.877	1512.38
497.094	1518.38
497.312	1461.38
497.529	1466.38
497.746	1488.38
497.963	1518.38
498.181	1545.38
498.398	1541.38
498.615	1615.38
498.832	1694.38
499.049	1741.38
499.267	1861.38
499.484	1970.38
499.701	2007.38
499.918	2051.38
500.135	2206.38
500.352	2291.38
500.569	2327.38
500.786	2352.38
501.003	2226.38
501.22	2077.38
501.437	2030.38
501.654	1903.38
501.871	1847.38
502.088	1758.38
502.305	1652.38
502.522	1634.38
502.739	1599.38
502.956	1571.38
503.172	1479.38
503.389	1471.38
503.606	1435.38
503.823	1418.38
504.04	1404.38
504.256	1401.38
504.473	1394.38
504.69	1418.38
504.907	1392.38
505.123	1371.38
505.34	1359.38
505.557	1319.38
505.773	1281.38
505.99	1309.38
506.207	1268.38
506.423	1255.38
506.64	1225.38
506.856	1229.38
507.073	1209.38
507.289	1173.38
507.506	1191.38
507.722	1217.38
507.939	1185.38
508.155	1200.38
508.372	1193.38
508.588	1180.38
508.805	1156.38
509.021	1150.38
509.238	1205.38
509.454	1197.38
509.67	1255.38
509.887	1185.38
510.103	1181.38
510.319	1188.38
510.536	1181.38
510.752	1168.38
510.968	1149.38
511.184	1128.38
511.401	1168.38
511.617	1110.38
511.833	1114.38
512.049	1088.38
512.265	1101.38
512.481	1093.38
512.698	1118.38
512.914	1118.38
513.13	1114.38
513.346	1125.38
513.562	1103.38
513.778	1132.38
513.994	1144.38
514.21	1164.38
514.426	1201.38
514.642	1195.38
514.858	1170.38
515.074	1124.38
515.29	1125.38
515.506	1128.38
515.721	1156.38
515.937	1168.38
516.153	1144.38
516.369	1148.38
516.585	1184.38
516.801	1183.38
517.016	1214.38
517.232	1225.38
517.448	1261.38
517.664	1286.38
517.879	1287.38
518.095	1304.38
518.311	1271.38
518.527	1251.38
518.742	1247.38
518.958	1233.38
519.173	1275.38
519.389	1191.38
519.605	1177.38
519.82	1156.38
520.036	1183.38
520.251	1129.38
520.467	1140.38
520.682	1092.38
520.898	1140.38
521.113	1111.38
521.329	1110.38
521.544	1090.38
521.76	1085.38
521.975	1101.38
522.19	1077.38
522.406	1116.38
522.621	1119.38
522.836	1087.38
523.052	1091.38
523.267	1094.38
523.482	1087.38
523.698	1053.38
523.913	1069.38
524.128	1111.38
524.343	1107.38
524.559	1076.38
524.774	1102.38
524.989	1067.38
525.204	1078.38
525.419	1083.38
525.634	1055.38
525.849	1060.38
526.064	1099.38
526.28	1086.38
526.495	1073.38
526.71	1055.38
526.925	1068.38
527.14	1091.38
527.355	1079.38
527.57	1040.38
527.785	1099.38
527.999	1103.38
528.214	1081.38
528.429	1120.38
528.644	1119.38
528.859	1142.38
529.074	1180.38
529.289	1209.38
529.503	1195.38
529.718	1160.38
529.933	1145.38
530.148	1142.38
530.363	1138.38
530.577	1097.38
530.792	1127.38
531.007	1108.38
531.221	1126.38
531.436	1153.38
531.651	1171.38
531.865	1164.38
532.08	1203.38
532.295	1188.38
532.509	1252.38
532.724	1255.38
532.938	1254.38
533.153	1303.38
533.367	1379.38
533.582	1394.38
533.796	1353.38
534.011	1339.38
534.225	1315.38
534.44	1299.38
534.654	1284.38
534.868	1261.38
535.083	1255.38
535.297	1273.38
535.511	1236.38
535.726	1208.38
535.94	1164.38
536.154	1151.38
536.369	1153.38
536.583	1163.38
536.797	1159.38
537.011	1126.38
537.225	1135.38
537.44	1125.38
537.654	1124.38
537.868	1088.38
538.082	1067.38
538.296	1055.38
538.51	1070.38
538.724	1089.38
538.938	1088.38
539.153	1094.38
539.367	1091.38
539.581	1083.38
539.795	1039.38
540.009	1011.38
540.222	1054.38
540.436	1010.38
540.65	1063.38
540.864	1073.38
541.078	1048.38
541.292	1124.38
541.506	1311.38
541.72	1319.38
541.934	1185.38
542.147	1147.38
542.361	1123.38
542.575	1060.38
542.789	1048.38
543.002	1029.38
543.216	1023.38
543.43	1031.38
543.644	1045.38
543.857	1022.38
544.071	1043.38
544.285	1062.38
544.498	1044.38
544.712	1046.38
544.925	1051.38
545.139	1069.38
545.352	1084.38
545.566	1076.38
545.779	1062.38
545.993	1081.38
546.206	1096.38
546.42	1107.38
546.633	1058.38
546.847	1056.38
547.06	1072.38
547.274	1062.38
547.487	1054.38
547.7	1087.38
547.914	1071.38
548.127	1086.38
548.34	1056.38
548.554	1075.38
548.767	1064.38
548.98	1057.38
549.193	1034.38
549.407	1053.38
549.62	1055.38
549.833	1077.38
550.046	1067.38
550.259	1062.38
550.473	1030.38
550.686	1048.38
550.899	1064.38
551.112	1061.38
551.325	1020.38
551.538	1037.38
551.751	1037.38
551.964	1045.38
552.177	1072.38
552.39	1057.38
552.603	1100.38
552.816	1085.38
553.029	1124.38
553.242	1138.38
553.455	1164.38
553.667	1140.38
553.88	1118.38
554.093	1140.38
554.306	1171.38
554.519	1155.38
554.732	1175.38
554.944	1165.38
555.157	1207.38
555.37	1186.38
555.583	1237.38
555.795	1292.38
556.008	1305.38
556.221	1415.38
556.433	1472.38
556.646	1495.38
556.859	1436.38
557.071	1421.38
557.284	1438.38
557.496	1381.38
557.709	1325.38
557.921	1383.38
558.134	1329.38
558.346	1353.38
558.559	1406.38
558.771	1475.38
558.984	1558.38
559.196	1582.38
559.409	1566.38
559.621	1457.38
559.833	1425.38
560.046	1394.38
560.258	1341.38
560.47	1325.38
560.683	1231.38
560.895	1210.38
561.107	1184.38
561.32	1150.38
561.532	1126.38
561.744	1101.38
561.956	1096.38
562.168	1083.38
562.381	1058.38
562.593	1064.38
562.805	1075.38
563.017	1038.38
563.229	1064.38
563.441	1153.38
563.653	1031.38
563.865	978.38
564.077	977.38
564.289	960.38
564.501	977.38
564.713	963.38
564.925	976.38
565.137	940.38
565.349	965.38
565.561	1000.38
565.773	999.38
565.985	995.38
566.197	1017.38
566.408	1016.38
566.62	1050.38
566.832	1025.38
567.044	1067.38
567.255	1067.38
567.467	1048.38
567.679	1075.38
567.891	1151.38
568.102	1263.38
568.314	1359.38
568.526	1195.38
568.737	1084.38
568.949	1000.38
569.161	958.38
569.372	916.38
569.584	883.38
569.795	885.38
570.007	885.38
570.218	885.38
570.43	872.38
570.641	815.38
570.853	820.38
571.064	837.38
571.276	814.38
571.487	840.38
571.698	820.38
571.91	772.38
572.121	764.38
572.333	748.38
572.544	737.38
572.755	824.38
572.966	857.38
573.178	795.38
573.389	735.38
573.6	726.38
573.811	715.38
574.023	700.38
574.234	673.38
574.445	731.38
574.656	705.38
574.867	723.38
575.078	695.38
575.289	684.38
575.501	692.38
575.712	689.38
575.923	705.38
576.134	713.38
576.345	709.38
576.556	695.38
576.767	694.38
576.978	709.38
577.188	706.38
577.399	715.38
577.61	728.38
577.821	725.38
578.032	720.38
578.243	728.38
578.454	746.38
578.665	740.38
578.875	755.38
579.086	778.38
579.297	804.38
579.508	834.38
579.718	888.38
579.929	950.38
580.14	1065.38
580.35	1074.38
580.561	1054.38
580.772	961.38
580.982	914.38
581.193	890.38
581.403	855.38
581.614	840.38
581.825	773.38
582.035	777.38
582.246	763.38
582.456	719.38
582.667	710.38
582.877	702.38
583.087	696.38
583.298	683.38
583.508	668.38
583.719	647.38
583.929	623.38
584.139	617.38
584.35	621.38
584.56	609.38
584.77	606.38
584.981	582.38
585.191	625.38
585.401	586.38
585.611	581.38
585.821	582.38
586.032	577.38
586.242	586.38
586.452	573.38
586.662	548.38
586.872	544.38
587.082	560.38
587.292	522.38
587.502	547.38
587.713	570.38
587.923	532.38
588.133	520.38
588.343	529.38
588.553	531.38
588.762	550.38
588.972	522.38
589.182	516.38
589.392	521.38
589.602	508.38
589.812	510.38
590.022	517.38
590.232	511.38
590.441	491.38
590.651	512.38
590.861	480.38
591.071	509.38
591.281	489.38
591.49	500.38
591.7	519.38
591.91	507.38
592.119	503.38
592.329	500.38
592.539	504.38
592.748	511.38
592.958	526.38
593.167	536.38
593.377	527.38
593.587	544.38
593.796	518.38
594.006	515.38
594.215	501.38
594.424	533.38
594.634	524.38
594.843	493.38
595.053	516.38
595.262	485.38
595.472	479.38
595.681	481.38
595.89	461.38
596.1	478.38
596.309	481.38
596.518	450.38
596.727	443.38
596.937	472.38
597.146	459.38
597.355	454.38
597.564	427.38
597.774	432.38
597.983	444.38
598.192	427.38
598.401	445.38
598.61	418.38
598.819	401.38
599.028	423.38
599.237	424.38
599.446	417.38
599.655	424.38
599.864	402.38
600.073	415.38
600.282	424.38
600.491	423.38
600.7	389.38
600.909	427.38
601.118	422.38
601.327	415.38
601.536	419.38
601.745	437.38
601.953	456.38
602.162	489.38
602.371	440.38
602.58	436.38
602.789	439.38
602.997	423.38
603.206	427.38
603.415	407.38
603.623	411.38
603.832	424.38
604.041	421.38
604.249	387.38
604.458	390.38
604.666	404.38
604.875	391.38
605.084	391.38
605.292	387.38
605.501	400.38
605.709	430.38
605.918	405.38
606.126	400.38
606.334	418.38
606.543	411.38
606.751	424.38
606.96	461.38
607.168	487.38
607.376	473.38
607.585	442.38
607.793	422.38
608.001	427.38
608.21	419.38
608.418	399.38
608.626	391.38
608.834	387.38
609.043	383.38
609.251	367.38
609.459	413.38
609.667	389.38
609.875	379.38
610.083	396.38
610.291	392.38
610.499	388.38
610.707	398.38
610.916	397.38
611.124	383.38
611.332	376.38
611.54	373.38
611.748	373.38
611.955	388.38
612.163	370.38
612.371	354.38
612.579	377.38
612.787	368.38
612.995	356.38
613.203	378.38
613.411	377.38
613.618	371.38
613.826	372.38
614.034	363.38
614.242	371.38
614.449	374.38
614.657	355.38
614.865	363.38
615.072	371.38
615.28	372.38
615.488	375.38
615.695	370.38
615.903	367.38
616.111	357.38
616.318	381.38
616.526	383.38
616.733	360.38
616.941	364.38
617.148	362.38
617.356	384.38
617.563	371.38
617.771	365.38
617.978	344.38
618.185	367.38
618.393	345.38
618.6	341.38
618.807	364.38
619.015	355.38
619.222	339.38
619.429	343.38
619.637	340.38
619.844	354.38
620.051	335.38
620.258	360.38
620.466	346.38
620.673	331.38
620.88	335.38
621.087	325.38
621.294	323.38
621.501	327.38
621.708	353.38
621.915	352.38
622.122	353.38
622.329	342.38
622.536	331.38
622.743	348.38
622.95	323.38
623.157	328.38
623.364	322.38
623.571	331.38
623.778	319.38
623.985	328.38
624.192	334.38
624.399	331.38
624.606	313.38
624.812	309.38
625.019	321.38
625.226	317.38
625.433	318.38
625.639	301.38
625.846	307.38
626.053	302.38
626.259	287.38
626.466	315.38
626.673	315.38
626.879	293.38
627.086	315.38
627.293	312.38
627.499	314.38
627.706	313.38
627.912	315.38
628.119	321.38
628.325	315.38
628.532	309.38
628.738	320.38
628.945	313.38
629.151	302.38
629.357	294.38
629.564	306.38
629.77	308.38
629.976	301.38
630.183	278.38
630.389	295.38
630.595	287.38
630.802	294.38
631.008	296.38
631.214	291.38
631.42	287.38
631.627	318.38
631.833	284.38
632.039	273.38
632.245	284.38
632.451	279.38
632.657	264.38
632.863	275.38
633.069	281.38
633.275	280.38
633.481	267.38
633.688	271.38
633.893	283.38
634.099	279.38
634.305	264.38
634.511	285.38
634.717	286.38
634.923	301.38
635.129	311.38
635.335	328.38
635.541	303.38
635.747	303.38
635.952	294.38
636.158	269.38
636.364	294.38
636.57	289.38
636.775	283.38
636.981	276.38
637.187	276.38
637.392	293.38
637.598	285.38
637.804	298.38
638.009	303.38
638.215	292.38
638.421	297.38
638.626	274.38
638.832	292.38
639.037	285.38
639.243	278.38
639.448	273.38
639.654	287.38
639.859	287.38
640.065	297.38
640.27	288.38
640.475	281.38
640.681	313.38
640.886	292.38
641.091	289.38
641.297	302.38
641.502	305.38
641.707	289.38
641.913	304.38
642.118	325.38
642.323	315.38
642.528	329.38
642.733	319.38
642.939	313.38
643.144	322.38
643.349	332.38
643.554	363.38
643.759	352.38
643.964	369.38
644.169	380.38
644.374	407.38
644.579	427.38
644.784	454.38
644.989	523.38
645.194	536.38
645.399	621.38
645.604	619.38
645.809	525.38
646.014	435.38
646.219	396.38
646.423	370.38
646.628	336.38
646.833	339.38
647.038	301.38
647.243	303.38
647.447	311.38
647.652	293.38
647.857	291.38
648.062	285.38
648.266	283.38
648.471	277.38
648.676	267.38
648.88	273.38
649.085	268.38
649.289	277.38
649.494	274.38
649.698	255.38
649.903	247.38
650.107	268.38
650.312	252.38
650.516	251.38
650.721	240.38
650.925	229.38
651.13	228.38
651.334	230.38
651.539	212.38
651.743	216.38
651.947	237.38
652.152	235.38
652.356	214.38
652.56	237.38
652.764	260.38
652.969	239.38
653.173	232.38
653.377	192.38
653.581	196.38
653.785	205.38
653.99	202.38
654.194	200.38
654.398	187.38
654.602	195.38
654.806	172.38
655.01	187.38
655.214	186.38
655.418	203.38
655.622	196.38
655.826	189.38
656.03	177.38
656.234	207.38
656.438	199.38
656.642	207.38
656.846	202.38
657.049	200.38
657.253	187.38
657.457	177.38
657.661	173.38
657.865	156.38
658.068	149.38
658.272	157.38
658.476	136.38
658.68	128.38
658.883	129.38
659.087	130.38
659.291	127.38
659.494	126.38
659.698	121.38
659.901	124.38
660.105	115.38
660.309	102.38
660.512	112.38
660.716	124.38
660.919	98.38
661.123	115.38
661.326	95.38
661.53	92.38
661.733	107.38
661.936	93.38
662.14	80.38
662.343	96.38
662.546	97.38
662.75	96.38
662.953	86.38
663.156	91.38
663.36	81.38
663.563	81.38
663.766	77.38
663.969	88.38
664.173	90.38
664.376	81.38
664.579	68.38
664.782	84.38
664.985	74.38
665.188	82.38
665.391	87.38
665.594	80.38
665.797	93.38
666	86.38
666.203	88.38
666.406	64.38
666.609	87.38
666.812	79.38
667.015	69.38
667.218	88.38
667.421	79.38
667.624	84.38
667.827	81.38
668.03	69.38
668.232	76.38
668.435	71.38
668.638	65.38
668.841	80.38
669.043	72.38
669.246	79.38
669.449	74.38
669.651	93.38
669.854	70.38
670.057	78.38
670.259	82.38
670.462	93.38
670.665	72.38
670.867	84.38
671.07	80.38
671.272	80.38
671.475	70.38
671.677	95.38
671.88	94.38
672.082	64.38
672.284	63.38
672.487	80.38
672.689	75.38
672.892	84.38
