Data from SnStandardFlinnAPT0064_LampEnergy10_LIBS07252019.E.O._I.C._HRD10591_15-22-31-494.txt Node
Date: Thu Jul 25 15:22:31 EDT 2019
User: cochatt
Spectrometer: HR+D1059
Trigger mode: 1
Integration Time (sec): 1.000000E-1
Scans to average: 1
Electric dark correction enabled: true
Nonlinearity correction enabled: false
Boxcar width: 0
XAxis mode: Wavelengths
Number of Pixels in Spectrum: 2048
>>>>>Begin Spectral Data<<<<<
223.165	-15.94
223.4	-15.94
223.635	-15.94
223.869	-25.94
224.104	-30.94
224.338	-16.94
224.573	-16.94
224.808	-24.94
225.042	1.06
225.277	6.06
225.511	14.06
225.746	3.06
225.98	12.06
226.215	12.06
226.449	8.06
226.683	12.06
226.918	30.06
227.152	33.06
227.387	32.06
227.621	39.06
227.856	43.06
228.09	47.06
228.324	50.06
228.559	58.06
228.793	127.06
229.027	315.06
229.262	360.06
229.496	321.06
229.73	294.06
229.964	292.06
230.199	283.06
230.433	321.06
230.667	321.06
230.901	312.06
231.136	327.06
231.37	356.06
231.604	367.06
231.838	433.06
232.072	504.06
232.306	543.06
232.541	452.06
232.775	426.06
233.009	412.06
233.243	410.06
233.477	432.06
233.711	529.06
233.945	575.06
234.179	503.06
234.413	437.06
234.647	445.06
234.881	450.06
235.115	509.06
235.349	621.06
235.583	770.06
235.817	966.06
236.051	964.06
236.285	633.06
236.519	523.06
236.753	484.06
236.987	503.06
237.221	529.06
237.455	520.06
237.689	462.06
237.922	449.06
238.156	450.06
238.39	475.06
238.624	482.06
238.858	487.06
239.091	490.06
239.325	474.06
239.559	501.06
239.793	490.06
240.027	511.06
240.26	529.06
240.494	550.06
240.728	575.06
240.961	619.06
241.195	628.06
241.429	659.06
241.662	701.06
241.896	757.06
242.13	933.06
242.363	1207.06
242.597	1579.06
242.83	1503.06
243.064	1483.06
243.298	1727.06
243.531	1456.06
243.765	959.06
243.998	764.06
244.232	663.06
244.465	666.06
244.699	646.06
244.932	655.06
245.166	667.06
245.399	665.06
245.633	684.06
245.866	677.06
246.099	677.06
246.333	663.06
246.566	626.06
246.8	649.06
247.033	643.06
247.266	651.06
247.5	656.06
247.733	663.06
247.966	712.06
248.2	744.06
248.433	857.06
248.666	967.06
248.899	947.06
249.133	861.06
249.366	853.06
249.599	944.06
249.832	1063.06
250.066	1050.06
250.299	858.06
250.532	756.06
250.765	753.06
250.998	735.06
251.231	737.06
251.465	728.06
251.698	742.06
251.931	744.06
252.164	740.06
252.397	783.06
252.63	777.06
252.863	794.06
253.096	793.06
253.329	779.06
253.562	756.06
253.795	780.06
254.028	761.06
254.261	826.06
254.494	886.06
254.727	1027.06
254.96	1212.06
255.193	1213.06
255.426	943.06
255.659	892.06
255.892	873.06
256.124	856.06
256.357	887.06
256.59	914.06
256.823	935.06
257.056	1103.06
257.289	1305.06
257.521	1483.06
257.754	1162.06
257.987	962.06
258.22	930.06
258.452	900.06
258.685	928.06
258.918	908.06
259.151	964.06
259.383	1076.06
259.616	1204.06
259.849	1250.06
260.081	1110.06
260.314	996.06
260.547	964.06
260.779	955.06
261.012	927.06
261.244	933.06
261.477	1001.06
261.71	1000.06
261.942	1006.06
262.175	1044.06
262.407	1037.06
262.64	1066.06
262.872	1106.06
263.105	1148.06
263.337	1193.06
263.57	1264.06
263.802	1352.06
264.035	1314.06
264.267	1379.06
264.499	1401.06
264.732	1419.06
264.964	1473.06
265.197	1445.06
265.429	1449.06
265.661	1505.06
265.894	1593.06
266.126	1759.06
266.358	1958.06
266.591	1938.06
266.823	1621.06
267.055	1476.06
267.287	1382.06
267.52	1361.06
267.752	1325.06
267.984	1286.06
268.216	1271.06
268.448	1264.06
268.681	1221.06
268.913	1219.06
269.145	1242.06
269.377	1255.06
269.609	1244.06
269.841	1267.06
270.073	1380.06
270.306	1565.06
270.538	2116.06
270.77	3109.06
271.002	3811.06
271.234	2698.06
271.466	1836.06
271.698	1544.06
271.93	1375.06
272.162	1332.06
272.394	1300.06
272.626	1290.06
272.858	1256.06
273.09	1258.06
273.322	1244.06
273.553	1192.06
273.785	1208.06
274.017	1209.06
274.249	1238.06
274.481	1215.06
274.713	1181.06
274.945	1215.06
275.176	1239.06
275.408	1206.06
275.64	1210.06
275.872	1221.06
276.104	1227.06
276.335	1283.06
276.567	1315.06
276.799	1270.06
277.031	1283.06
277.262	1308.06
277.494	1410.06
277.726	1519.06
277.957	1832.06
278.189	2126.06
278.421	1953.06
278.652	1738.06
278.884	1681.06
279.115	1525.06
279.347	1443.06
279.579	1370.06
279.81	1389.06
280.042	1375.06
280.273	1392.06
280.505	1422.06
280.736	1499.06
280.968	1615.06
281.199	1758.06
281.431	1989.06
281.662	2109.06
281.894	1766.06
282.125	1599.06
282.356	1663.06
282.588	1624.06
282.819	1671.06
283.051	1810.06
283.282	1945.06
283.513	2398.06
283.745	3477.06
283.976	5525.06
284.207	7666.06
284.439	6993.06
284.67	4425.06
284.901	3609.06
285.132	3687.06
285.364	3455.06
285.595	2640.06
285.826	2391.06
286.057	2809.06
286.288	3788.06
286.52	5093.06
286.751	4755.06
286.982	2972.06
287.213	2236.06
287.444	1978.06
287.675	1856.06
287.906	1783.06
288.138	1719.06
288.369	1697.06
288.6	1659.06
288.831	1665.06
289.062	1648.06
289.293	1660.06
289.524	1685.06
289.755	1701.06
289.986	1684.06
290.217	1697.06
290.448	1746.06
290.679	1715.06
290.91	1779.06
291.141	1909.06
291.371	2051.06
291.602	2162.06
291.833	1930.06
292.064	1756.06
292.295	1688.06
292.526	1617.06
292.757	1623.06
292.987	1600.06
293.218	1607.06
293.449	1596.06
293.68	1605.06
293.91	1613.06
294.141	1583.06
294.372	1535.06
294.603	1580.06
294.833	1547.06
295.064	1603.06
295.295	1566.06
295.525	1544.06
295.756	1559.06
295.987	1568.06
296.217	1550.06
296.448	1556.06
296.679	1567.06
296.909	1572.06
297.14	1610.06
297.37	1636.06
297.601	1634.06
297.831	1638.06
298.062	1632.06
298.292	1643.06
298.523	1681.06
298.753	1687.06
298.984	1695.06
299.214	1763.06
299.445	1719.06
299.675	1765.06
299.905	1852.06
300.136	1937.06
300.366	2155.06
300.597	2706.06
300.827	3762.06
301.057	5053.06
301.288	5120.06
301.518	3284.06
301.748	2545.06
301.979	2314.06
302.209	2245.06
302.439	2266.06
302.669	2447.06
302.9	2899.06
303.13	4072.06
303.36	6109.06
303.59	8022.06
303.82	6944.06
304.051	4154.06
304.281	2967.06
304.511	2555.06
304.741	2330.06
304.971	2209.06
305.201	2111.06
305.431	2000.06
305.661	1961.06
305.891	1918.06
306.121	1919.06
306.352	1904.06
306.582	1876.06
306.812	1825.06
307.042	1845.06
307.272	1818.06
307.502	1843.06
307.731	1824.06
307.961	1829.06
308.191	1823.06
308.421	1873.06
308.651	1842.06
308.881	1830.06
309.111	1855.06
309.341	1829.06
309.571	1830.06
309.8	1855.06
310.03	1868.06
310.26	1864.06
310.49	1900.06
310.72	1860.06
310.949	1908.06
311.179	1916.06
311.409	1920.06
311.639	1931.06
311.868	1945.06
312.098	1939.06
312.328	1947.06
312.557	1968.06
312.787	1961.06
313.017	1993.06
313.246	1998.06
313.476	2007.06
313.706	2127.06
313.935	2200.06
314.165	2360.06
314.394	2425.06
314.624	2331.06
314.853	2191.06
315.083	2156.06
315.312	2168.06
315.542	2143.06
315.771	2239.06
316.001	2249.06
316.23	2282.06
316.46	2462.06
316.689	2645.06
316.919	3165.06
317.148	4526.06
317.377	6971.06
317.607	10129.06
317.836	10431.06
318.065	6456.06
318.295	4186.06
318.524	3333.06
318.753	2899.06
318.983	2739.06
319.212	2555.06
319.441	2465.06
319.67	2427.06
319.9	2389.06
320.129	2375.06
320.358	2380.06
320.587	2364.06
320.816	2385.06
321.046	2349.06
321.275	2345.06
321.504	2376.06
321.733	2463.06
321.962	2506.06
322.191	2531.06
322.42	2540.06
322.649	2543.06
322.878	2503.06
323.108	2497.06
323.337	2531.06
323.566	2565.06
323.795	2602.06
324.024	2647.06
324.253	2685.06
324.482	2817.06
324.71	2983.06
324.939	3201.06
325.168	3226.06
325.397	3348.06
325.626	3996.06
325.855	5548.06
326.084	8500.06
326.313	12404.06
326.542	13079.06
326.77	8835.06
326.999	5835.06
327.228	4866.06
327.457	4677.06
327.686	4770.06
327.914	5039.06
328.143	5868.06
328.372	7079.06
328.6	7638.06
328.829	6822.06
329.058	5674.06
329.287	5009.06
329.515	4570.06
329.744	4200.06
329.972	4042.06
330.201	3833.06
330.43	3731.06
330.658	3637.06
330.887	3602.06
331.115	3441.06
331.344	3492.06
331.572	3511.06
331.801	3539.06
332.03	3498.06
332.258	3570.06
332.486	3756.06
332.715	4262.06
332.943	5267.06
333.172	6559.06
333.4	6503.06
333.629	4897.06
333.857	4473.06
334.085	4397.06
334.314	4712.06
334.542	5058.06
334.771	5976.06
334.999	7287.06
335.227	9182.06
335.455	10257.06
335.684	9235.06
335.912	7569.06
336.14	6330.06
336.369	5638.06
336.597	5163.06
336.825	4866.06
337.053	4457.06
337.281	4251.06
337.51	3994.06
337.738	3936.06
337.966	3728.06
338.194	3617.06
338.422	3525.06
338.65	3342.06
338.878	3367.06
339.106	3256.06
339.334	3241.06
339.562	3151.06
339.79	3067.06
340.018	3097.06
340.246	3034.06
340.474	3028.06
340.702	3068.06
340.93	3065.06
341.158	3026.06
341.386	3022.06
341.614	2986.06
341.842	2946.06
342.07	2859.06
342.298	2879.06
342.526	2835.06
342.754	2745.06
342.981	2727.06
343.209	2735.06
343.437	2789.06
343.665	2831.06
343.893	2860.06
344.12	2859.06
344.348	2765.06
344.576	2797.06
344.804	2726.06
345.031	2685.06
345.259	2630.06
345.487	2639.06
345.714	2613.06
345.942	2570.06
346.17	2562.06
346.397	2553.06
346.625	2515.06
346.853	2527.06
347.08	2495.06
347.308	2546.06
347.535	2537.06
347.763	2516.06
347.99	2512.06
348.218	2517.06
348.445	2489.06
348.673	2500.06
348.9	2501.06
349.128	2481.06
349.355	2497.06
349.583	2425.06
349.81	2461.06
350.037	2405.06
350.265	2410.06
350.492	2432.06
350.72	2419.06
350.947	2433.06
351.174	2443.06
351.402	2437.06
351.629	2428.06
351.856	2449.06
352.083	2405.06
352.311	2382.06
352.538	2386.06
352.765	2380.06
352.992	2364.06
353.22	2379.06
353.447	2396.06
353.674	2398.06
353.901	2410.06
354.128	2412.06
354.355	2426.06
354.583	2397.06
354.81	2426.06
355.037	2455.06
355.264	2472.06
355.491	2455.06
355.718	2379.06
355.945	2439.06
356.172	2491.06
356.399	2499.06
356.626	2532.06
356.853	2547.06
357.08	2498.06
357.307	2535.06
357.534	2536.06
357.761	2613.06
357.988	2579.06
358.215	2581.06
358.441	2600.06
358.668	2550.06
358.895	2584.06
359.122	2551.06
359.349	2546.06
359.576	2545.06
359.802	2521.06
360.029	2567.06
360.256	2581.06
360.483	2591.06
360.709	2544.06
360.936	2594.06
361.163	2594.06
361.39	2583.06
361.616	2537.06
361.843	2571.06
362.07	2607.06
362.296	2556.06
362.523	2581.06
362.749	2595.06
362.976	2551.06
363.203	2563.06
363.429	2565.06
363.656	2561.06
363.882	2573.06
364.109	2551.06
364.335	2531.06
364.562	2535.06
364.788	2557.06
365.015	2607.06
365.241	2667.06
365.468	2804.06
365.694	2955.06
365.92	2833.06
366.147	2643.06
366.373	2639.06
366.599	2628.06
366.826	2611.06
367.052	2597.06
367.278	2655.06
367.505	2603.06
367.731	2645.06
367.957	2630.06
368.184	2603.06
368.41	2659.06
368.636	2667.06
368.862	2668.06
369.089	2711.06
369.315	2656.06
369.541	2655.06
369.767	2655.06
369.993	2621.06
370.219	2650.06
370.445	2741.06
370.672	2695.06
370.898	2754.06
371.124	2739.06
371.35	2679.06
371.576	2765.06
371.802	2780.06
372.028	2785.06
372.254	2782.06
372.48	2752.06
372.706	2835.06
372.932	2831.06
373.158	2845.06
373.384	2834.06
373.61	2812.06
373.835	2820.06
374.061	2804.06
374.287	2848.06
374.513	2845.06
374.739	2908.06
374.965	2949.06
375.191	2947.06
375.416	2940.06
375.642	2824.06
375.868	2881.06
376.094	2866.06
376.319	2819.06
376.545	2832.06
376.771	2808.06
376.997	2770.06
377.222	2753.06
377.448	2741.06
377.674	2731.06
377.899	2728.06
378.125	2702.06
378.35	2738.06
378.576	2754.06
378.802	2790.06
379.027	2821.06
379.253	2844.06
379.478	3073.06
379.704	3635.06
379.929	5081.06
380.155	7839.06
380.38	8499.06
380.606	5183.06
380.831	3693.06
381.057	3222.06
381.282	3003.06
381.507	2877.06
381.733	2777.06
381.958	2751.06
382.184	2798.06
382.409	2712.06
382.634	2716.06
382.86	2692.06
383.085	2706.06
383.31	2775.06
383.535	2716.06
383.761	2721.06
383.986	2693.06
384.211	2771.06
384.436	2772.06
384.662	2810.06
384.887	2793.06
385.112	2782.06
385.337	2822.06
385.562	2840.06
385.787	2817.06
386.013	2843.06
386.238	2812.06
386.463	2819.06
386.688	2795.06
386.913	2821.06
387.138	2786.06
387.363	2831.06
387.588	2741.06
387.813	2796.06
388.038	2783.06
388.263	2817.06
388.488	2826.06
388.713	2757.06
388.938	2776.06
389.163	2764.06
389.387	2832.06
389.612	2803.06
389.837	2837.06
390.062	2807.06
390.287	2836.06
390.512	2797.06
390.736	2900.06
390.961	2928.06
391.186	2890.06
391.411	2922.06
391.636	2963.06
391.86	2977.06
392.085	2952.06
392.31	2929.06
392.534	2921.06
392.759	2871.06
392.984	2873.06
393.208	2861.06
393.433	2887.06
393.658	2944.06
393.882	2788.06
394.107	2802.06
394.331	2867.06
394.556	2879.06
394.78	2916.06
395.005	2869.06
395.229	2876.06
395.454	2891.06
395.678	2906.06
395.903	2901.06
396.127	2908.06
396.352	2916.06
396.576	2860.06
396.801	2913.06
397.025	2948.06
397.249	2936.06
397.474	2939.06
397.698	2943.06
397.922	2988.06
398.147	2922.06
398.371	3028.06
398.595	3037.06
398.82	3120.06
399.044	3274.06
399.268	3409.06
399.492	3629.06
399.717	3690.06
399.941	3721.06
400.165	3562.06
400.389	3419.06
400.613	3275.06
400.837	3202.06
401.062	3138.06
401.286	3088.06
401.51	3103.06
401.734	3030.06
401.958	3071.06
402.182	3120.06
402.406	3018.06
402.63	3074.06
402.854	3154.06
403.078	3185.06
403.302	3160.06
403.526	3157.06
403.75	3173.06
403.974	3251.06
404.198	3136.06
404.422	3229.06
404.645	3215.06
404.869	3212.06
405.093	3232.06
405.317	3226.06
405.541	3257.06
405.765	3285.06
405.988	3307.06
406.212	3250.06
406.436	3275.06
406.66	3276.06
406.883	3316.06
407.107	3442.06
407.331	3442.06
407.555	3538.06
407.778	3481.06
408.002	3453.06
408.226	3388.06
408.449	3421.06
408.673	3311.06
408.896	3342.06
409.12	3265.06
409.344	3199.06
409.567	3208.06
409.791	3233.06
410.014	3208.06
410.238	3143.06
410.461	3197.06
410.685	3147.06
410.908	3125.06
411.132	3123.06
411.355	3079.06
411.578	3106.06
411.802	3086.06
412.025	3085.06
412.249	3160.06
412.472	3106.06
412.695	3024.06
412.919	2988.06
413.142	3049.06
413.365	3013.06
413.589	3062.06
413.812	2991.06
414.035	3009.06
414.258	3009.06
414.482	3044.06
414.705	3068.06
414.928	3093.06
415.151	2961.06
415.374	2987.06
415.597	2947.06
415.821	2884.06
416.044	2875.06
416.267	2886.06
416.49	2863.06
416.713	2938.06
416.936	2895.06
417.159	2895.06
417.382	2838.06
417.605	2828.06
417.828	2807.06
418.051	2888.06
418.274	2891.06
418.497	2895.06
418.72	2966.06
418.943	2899.06
419.166	3075.06
419.389	3266.06
419.611	3188.06
419.834	3094.06
420.057	3011.06
420.28	2961.06
420.503	2912.06
420.726	2868.06
420.948	2896.06
421.171	2899.06
421.394	2898.06
421.617	2901.06
421.839	2939.06
422.062	2915.06
422.285	2869.06
422.507	2922.06
422.73	2943.06
422.953	2973.06
423.175	2994.06
423.398	2964.06
423.621	2887.06
423.843	2932.06
424.066	2959.06
424.288	2903.06
424.511	2923.06
424.733	2933.06
424.956	2855.06
425.178	2807.06
425.401	2850.06
425.623	2820.06
425.846	2817.06
426.068	2791.06
426.291	2819.06
426.513	2743.06
426.735	2721.06
426.958	2747.06
427.18	2739.06
427.402	2752.06
427.625	2697.06
427.847	2643.06
428.069	2715.06
428.292	2727.06
428.514	2703.06
428.736	2725.06
428.958	2711.06
429.181	2632.06
429.403	2660.06
429.625	2633.06
429.847	2663.06
430.069	2719.06
430.292	2817.06
430.514	2863.06
430.736	2871.06
430.958	2721.06
431.18	2718.06
431.402	2675.06
431.624	2647.06
431.846	2654.06
432.068	2584.06
432.29	2687.06
432.512	2599.06
432.734	2669.06
432.956	2589.06
433.178	2643.06
433.4	2665.06
433.622	2676.06
433.844	2711.06
434.066	2729.06
434.287	2722.06
434.509	2709.06
434.731	2709.06
434.953	2732.06
435.175	2807.06
435.397	2789.06
435.618	2691.06
435.84	2678.06
436.062	2652.06
436.284	2632.06
436.505	2644.06
436.727	2635.06
436.949	2577.06
437.17	2674.06
437.392	2629.06
437.614	2520.06
437.835	2525.06
438.057	2566.06
438.278	2499.06
438.5	2589.06
438.721	2629.06
438.943	2749.06
439.165	2724.06
439.386	2741.06
439.608	2701.06
439.829	2786.06
440.05	2841.06
440.272	2882.06
440.493	2755.06
440.715	2745.06
440.936	2748.06
441.158	2794.06
441.379	2849.06
441.6	2919.06
441.822	2940.06
442.043	3072.06
442.264	3159.06
442.486	3007.06
442.707	2893.06
442.928	2805.06
443.149	2855.06
443.371	2829.06
443.592	2863.06
443.813	2860.06
444.034	2860.06
444.255	2926.06
444.476	2925.06
444.698	2999.06
444.919	3015.06
445.14	3094.06
445.361	3001.06
445.582	2913.06
445.803	2810.06
446.024	2796.06
446.245	2815.06
446.466	2817.06
446.687	2779.06
446.908	2777.06
447.129	2660.06
447.35	2672.06
447.571	2628.06
447.792	2571.06
448.013	2633.06
448.234	2611.06
448.455	2640.06
448.675	2625.06
448.896	2686.06
449.117	2747.06
449.338	2967.06
449.559	3146.06
449.779	2819.06
450	2628.06
450.221	2557.06
450.442	2565.06
450.662	2589.06
450.883	2536.06
451.104	2571.06
451.324	2557.06
451.545	2518.06
451.766	2553.06
451.986	2602.06
452.207	2827.06
452.428	3669.06
452.648	5478.06
452.869	4524.06
453.089	3154.06
453.31	2898.06
453.53	2919.06
453.751	3029.06
453.971	3189.06
454.192	3117.06
454.412	2667.06
454.633	2523.06
454.853	2561.06
455.073	2443.06
455.294	2418.06
455.514	2422.06
455.734	2443.06
455.955	2391.06
456.175	2425.06
456.395	2428.06
456.616	2417.06
456.836	2464.06
457.056	2508.06
457.276	2512.06
457.497	2637.06
457.717	2666.06
457.937	2594.06
458.157	2521.06
458.377	2598.06
458.598	2665.06
458.818	2615.06
459.038	2644.06
459.258	2662.06
459.478	2681.06
459.698	2659.06
459.918	2718.06
460.138	2763.06
460.358	2789.06
460.578	2845.06
460.798	2872.06
461.018	2900.06
461.238	2847.06
461.458	2895.06
461.678	2902.06
461.898	3015.06
462.118	3007.06
462.338	3121.06
462.558	3119.06
462.777	3180.06
462.997	3269.06
463.217	3365.06
463.437	3480.06
463.657	3593.06
463.876	3523.06
464.096	3444.06
464.316	3307.06
464.536	3146.06
464.755	3151.06
464.975	3015.06
465.195	2930.06
465.414	2867.06
465.634	2770.06
465.854	2705.06
466.073	2754.06
466.293	2715.06
466.512	2682.06
466.732	2743.06
466.951	2838.06
467.171	3031.06
467.391	2938.06
467.61	2704.06
467.829	2639.06
468.049	2587.06
468.268	2562.06
468.488	2551.06
468.707	2558.06
468.927	2616.06
469.146	2607.06
469.365	2633.06
469.585	2621.06
469.804	2653.06
470.023	2743.06
470.243	2788.06
470.462	2905.06
470.681	2996.06
470.901	3277.06
471.12	3707.06
471.339	3718.06
471.558	3177.06
471.777	2924.06
471.997	2778.06
472.216	2728.06
472.435	2678.06
472.654	2603.06
472.873	2563.06
473.092	2598.06
473.311	2639.06
473.53	2649.06
473.749	2673.06
473.968	2853.06
474.187	2631.06
474.406	2614.06
474.625	2633.06
474.844	2608.06
475.063	2614.06
475.282	2616.06
475.501	2628.06
475.72	2655.06
475.939	2717.06
476.158	2717.06
476.377	2779.06
476.596	2741.06
476.814	2755.06
477.033	2736.06
477.252	2772.06
477.471	2870.06
477.69	2892.06
477.908	2975.06
478.127	2947.06
478.346	2949.06
478.564	3067.06
478.783	3026.06
479.002	3086.06
479.22	3079.06
479.439	3131.06
479.658	3130.06
479.876	3196.06
480.095	3137.06
480.313	3207.06
480.532	3247.06
480.751	3272.06
480.969	3220.06
481.188	3162.06
481.406	3194.06
481.624	3149.06
481.843	3219.06
482.061	3175.06
482.28	3215.06
482.498	3170.06
482.717	3159.06
482.935	3233.06
483.153	3211.06
483.372	3283.06
483.59	3290.06
483.808	3352.06
484.027	3379.06
484.245	3563.06
484.463	4081.06
484.681	4440.06
484.9	4106.06
485.118	3798.06
485.336	3728.06
485.554	3778.06
485.772	4036.06
485.99	4475.06
486.209	4819.06
486.427	4079.06
486.645	3638.06
486.863	3537.06
487.081	3474.06
487.299	3399.06
487.517	3425.06
487.735	3335.06
487.953	3397.06
488.171	3394.06
488.389	3331.06
488.607	3308.06
488.825	3301.06
489.043	3238.06
489.261	3261.06
489.479	3259.06
489.696	3277.06
489.914	3283.06
490.132	3298.06
490.35	3309.06
490.568	3339.06
490.786	3366.06
491.003	3361.06
491.221	3374.06
491.439	3404.06
491.657	3351.06
491.874	3395.06
492.092	3373.06
492.31	3480.06
492.527	3423.06
492.745	3413.06
492.963	3376.06
493.18	3392.06
493.398	3427.06
493.615	3420.06
493.833	3442.06
494.05	3413.06
494.268	3445.06
494.485	3470.06
494.703	3463.06
494.92	3471.06
495.138	3460.06
495.355	3435.06
495.573	3508.06
495.79	3489.06
496.008	3510.06
496.225	3541.06
496.442	3547.06
496.66	3723.06
496.877	3864.06
497.094	3816.06
497.312	3711.06
497.529	3711.06
497.746	3765.06
497.963	3820.06
498.181	3912.06
498.398	4039.06
498.615	4129.06
498.832	4227.06
499.049	4440.06
499.267	4793.06
499.484	5103.06
499.701	5100.06
499.918	5224.06
500.135	5425.06
500.352	5715.06
500.569	5763.06
500.786	5730.06
501.003	5578.06
501.22	5299.06
501.437	5006.06
501.654	4746.06
501.871	4599.06
502.088	4399.06
502.305	4287.06
502.522	4127.06
502.739	4036.06
502.956	3925.06
503.172	3822.06
503.389	3779.06
503.606	3692.06
503.823	3619.06
504.04	3639.06
504.256	3644.06
504.473	3617.06
504.69	3591.06
504.907	3531.06
505.123	3513.06
505.34	3369.06
505.557	3281.06
505.773	3262.06
505.99	3216.06
506.207	3196.06
506.423	3120.06
506.64	3163.06
506.856	3103.06
507.073	3108.06
507.289	3077.06
507.506	3002.06
507.722	3015.06
507.939	3038.06
508.155	2977.06
508.372	3015.06
508.588	3000.06
508.805	2949.06
509.021	3013.06
509.238	3036.06
509.454	3146.06
509.67	3393.06
509.887	3133.06
510.103	3019.06
510.319	3003.06
510.536	2960.06
510.752	2932.06
510.968	2962.06
511.184	2839.06
511.401	2906.06
511.617	2883.06
511.833	2871.06
512.049	2819.06
512.265	2847.06
512.481	2848.06
512.698	2834.06
512.914	2871.06
513.13	2824.06
513.346	2901.06
513.562	2902.06
513.778	2890.06
513.994	2899.06
514.21	2999.06
514.426	3162.06
514.642	3221.06
514.858	3034.06
515.074	2970.06
515.29	2902.06
515.506	2920.06
515.721	2961.06
515.937	2954.06
516.153	2967.06
516.369	3014.06
516.585	3070.06
516.801	3080.06
517.016	3049.06
517.232	3209.06
517.448	3242.06
517.664	3273.06
517.879	3264.06
518.095	3319.06
518.311	3219.06
518.527	3224.06
518.742	3179.06
518.958	3192.06
519.173	3336.06
519.389	3178.06
519.605	3022.06
519.82	2938.06
520.036	2934.06
520.251	2834.06
520.467	2842.06
520.682	2844.06
520.898	2865.06
521.113	2802.06
521.329	2765.06
521.544	2774.06
521.76	2811.06
521.975	2812.06
522.19	2774.06
522.406	2784.06
522.621	2751.06
522.836	2714.06
523.052	2793.06
523.267	2740.06
523.482	2755.06
523.698	2724.06
523.913	2713.06
524.128	2688.06
524.343	2700.06
524.559	2695.06
524.774	2714.06
524.989	2730.06
525.204	2759.06
525.419	2720.06
525.634	2731.06
525.849	2749.06
526.064	2739.06
526.28	2690.06
526.495	2756.06
526.71	2728.06
526.925	2762.06
527.14	2743.06
527.355	2674.06
527.57	2723.06
527.785	2761.06
527.999	2755.06
528.214	2774.06
528.429	2784.06
528.644	2865.06
528.859	2823.06
529.074	2935.06
529.289	2938.06
529.503	2912.06
529.718	2915.06
529.933	2920.06
530.148	2903.06
530.363	2886.06
530.577	2890.06
530.792	2901.06
531.007	2891.06
531.221	2987.06
531.436	2976.06
531.651	3013.06
531.865	3037.06
532.08	3098.06
532.295	3189.06
532.509	3394.06
532.724	3388.06
532.938	3406.06
533.153	3548.06
533.367	3805.06
533.582	3985.06
533.796	3882.06
534.011	3780.06
534.225	3602.06
534.44	3504.06
534.654	3425.06
534.868	3356.06
535.083	3235.06
535.297	3200.06
535.511	3113.06
535.726	3123.06
535.94	3083.06
536.154	3008.06
536.369	2935.06
536.583	2927.06
536.797	2921.06
537.011	2864.06
537.225	2799.06
537.44	2788.06
537.654	2799.06
537.868	2849.06
538.082	2771.06
538.296	2707.06
538.51	2680.06
538.724	2698.06
538.938	2688.06
539.153	2683.06
539.367	2657.06
539.581	2649.06
539.795	2653.06
540.009	2595.06
540.222	2569.06
540.436	2677.06
540.65	2608.06
540.864	2653.06
541.078	2707.06
541.292	2856.06
541.506	3296.06
541.72	3441.06
541.934	3015.06
542.147	2901.06
542.361	2785.06
542.575	2671.06
542.789	2607.06
543.002	2555.06
543.216	2599.06
543.43	2562.06
543.644	2499.06
543.857	2552.06
544.071	2569.06
544.285	2571.06
544.498	2561.06
544.712	2520.06
544.925	2563.06
545.139	2543.06
545.352	2528.06
545.566	2521.06
545.779	2554.06
545.993	2579.06
546.206	2614.06
546.42	2547.06
546.633	2553.06
546.847	2536.06
547.06	2601.06
547.274	2559.06
547.487	2561.06
547.7	2555.06
547.914	2506.06
548.127	2552.06
548.34	2522.06
548.554	2595.06
548.767	2573.06
548.98	2574.06
549.193	2597.06
549.407	2607.06
549.62	2529.06
549.833	2557.06
550.046	2531.06
550.259	2581.06
550.473	2523.06
550.686	2584.06
550.899	2596.06
551.112	2563.06
551.325	2579.06
551.538	2545.06
551.751	2485.06
551.964	2515.06
552.177	2636.06
552.39	2641.06
552.603	2709.06
552.816	2727.06
553.029	2770.06
553.242	2774.06
553.455	2772.06
553.667	2832.06
553.88	2844.06
554.093	2832.06
554.306	2860.06
554.519	2873.06
554.732	2944.06
554.944	2996.06
555.157	3030.06
555.37	3135.06
555.583	3211.06
555.795	3400.06
556.008	3649.06
556.221	4095.06
556.433	4396.06
556.646	4409.06
556.859	4201.06
557.071	4007.06
557.284	3828.06
557.496	3743.06
557.709	3691.06
557.921	3632.06
558.134	3669.06
558.346	3611.06
558.559	3797.06
558.771	4047.06
558.984	4427.06
559.196	4872.06
559.409	4540.06
559.621	4213.06
559.833	3955.06
560.046	3677.06
560.258	3480.06
560.47	3318.06
560.683	3201.06
560.895	3041.06
561.107	2970.06
561.32	2860.06
561.532	2865.06
561.744	2808.06
561.956	2743.06
562.168	2701.06
562.381	2584.06
562.593	2619.06
562.805	2651.06
563.017	2707.06
563.229	2775.06
563.441	3210.06
563.653	2648.06
563.865	2493.06
564.077	2413.06
564.289	2423.06
564.501	2367.06
564.713	2402.06
564.925	2405.06
565.137	2358.06
565.349	2337.06
565.561	2377.06
565.773	2417.06
565.985	2389.06
566.197	2420.06
566.408	2463.06
566.62	2547.06
566.832	2561.06
567.044	2611.06
567.255	2659.06
567.467	2696.06
567.679	2720.06
567.891	2856.06
568.102	3127.06
568.314	3587.06
568.526	3157.06
568.737	2735.06
568.949	2545.06
569.161	2340.06
569.372	2239.06
569.584	2171.06
569.795	2186.06
570.007	2096.06
570.218	2199.06
570.43	2250.06
570.641	2080.06
570.853	2024.06
571.064	1970.06
571.276	1953.06
571.487	1893.06
571.698	1910.06
571.91	1892.06
572.121	1878.06
572.333	1849.06
572.544	1901.06
572.755	1987.06
572.966	2321.06
573.178	2084.06
573.389	1860.06
573.6	1841.06
573.811	1760.06
574.023	1754.06
574.234	1768.06
574.445	1720.06
574.656	1736.06
574.867	1723.06
575.078	1731.06
575.289	1703.06
575.501	1727.06
575.712	1681.06
575.923	1653.06
576.134	1715.06
576.345	1725.06
576.556	1734.06
576.767	1683.06
576.978	1734.06
577.188	1733.06
577.399	1734.06
577.61	1726.06
577.821	1751.06
578.032	1769.06
578.243	1741.06
578.454	1803.06
578.665	1853.06
578.875	1947.06
579.086	1959.06
579.297	2090.06
579.508	2167.06
579.718	2400.06
579.929	2716.06
580.14	3264.06
580.35	3270.06
580.561	2939.06
580.772	2662.06
580.982	2493.06
581.193	2264.06
581.403	2177.06
581.614	2106.06
581.825	2027.06
582.035	1881.06
582.246	1890.06
582.456	1828.06
582.667	1764.06
582.877	1786.06
583.087	1737.06
583.298	1624.06
583.508	1582.06
583.719	1571.06
583.929	1533.06
584.139	1519.06
584.35	1477.06
584.56	1471.06
584.77	1437.06
584.981	1442.06
585.191	1410.06
585.401	1426.06
585.611	1370.06
585.821	1361.06
586.032	1378.06
586.242	1356.06
586.452	1320.06
586.662	1324.06
586.872	1302.06
587.082	1312.06
587.292	1292.06
587.502	1285.06
587.713	1254.06
587.923	1264.06
588.133	1271.06
588.343	1250.06
588.553	1223.06
588.762	1224.06
588.972	1220.06
589.182	1203.06
589.392	1258.06
589.602	1218.06
589.812	1235.06
590.022	1182.06
590.232	1158.06
590.441	1187.06
590.651	1203.06
590.861	1172.06
591.071	1157.06
591.281	1176.06
591.49	1174.06
591.7	1187.06
591.91	1203.06
592.119	1205.06
592.329	1196.06
592.539	1237.06
592.748	1263.06
592.958	1219.06
593.167	1217.06
593.377	1225.06
593.587	1265.06
593.796	1249.06
594.006	1226.06
594.215	1215.06
594.424	1203.06
594.634	1204.06
594.843	1209.06
595.053	1200.06
595.262	1151.06
595.472	1125.06
595.681	1157.06
595.89	1103.06
596.1	1097.06
596.309	1082.06
596.518	1042.06
596.727	1031.06
596.937	1082.06
597.146	1042.06
597.355	1035.06
597.564	1015.06
597.774	986.06
597.983	989.06
598.192	995.06
598.401	994.06
598.61	974.06
598.819	975.06
599.028	976.06
599.237	966.06
599.446	944.06
599.655	974.06
599.864	965.06
600.073	963.06
600.282	958.06
600.491	965.06
600.7	941.06
600.909	956.06
601.118	944.06
601.327	951.06
601.536	970.06
601.745	966.06
601.953	1049.06
602.162	1192.06
602.371	1071.06
602.58	980.06
602.789	948.06
602.997	956.06
603.206	948.06
603.415	918.06
603.623	949.06
603.832	920.06
604.041	922.06
604.249	898.06
604.458	883.06
604.666	902.06
604.875	870.06
605.084	871.06
605.292	875.06
605.501	905.06
605.709	921.06
605.918	927.06
606.126	913.06
606.334	903.06
606.543	921.06
606.751	1011.06
606.96	1105.06
607.168	1205.06
607.376	1073.06
607.585	965.06
607.793	910.06
608.001	895.06
608.21	887.06
608.418	897.06
608.626	868.06
608.834	856.06
609.043	844.06
609.251	847.06
609.459	831.06
609.667	856.06
609.875	848.06
610.083	841.06
610.291	847.06
610.499	841.06
610.707	786.06
610.916	829.06
611.124	830.06
611.332	826.06
611.54	810.06
611.748	799.06
611.955	802.06
612.163	821.06
612.371	827.06
612.579	825.06
612.787	805.06
612.995	797.06
613.203	799.06
613.411	815.06
613.618	786.06
613.826	772.06
614.034	792.06
614.242	788.06
614.449	790.06
614.657	801.06
614.865	803.06
615.072	822.06
615.28	826.06
615.488	801.06
615.695	804.06
615.903	802.06
616.111	784.06
616.318	790.06
616.526	793.06
616.733	785.06
616.941	756.06
617.148	780.06
617.356	791.06
617.563	775.06
617.771	759.06
617.978	743.06
618.185	763.06
618.393	744.06
618.6	748.06
618.807	787.06
619.015	752.06
619.222	747.06
619.429	746.06
619.637	733.06
619.844	718.06
620.051	716.06
620.258	723.06
620.466	703.06
620.673	695.06
620.88	712.06
621.087	683.06
621.294	714.06
621.501	717.06
621.708	716.06
621.915	704.06
622.122	705.06
622.329	696.06
622.536	706.06
622.743	719.06
622.95	701.06
623.157	700.06
623.364	697.06
623.571	697.06
623.778	709.06
623.985	687.06
624.192	653.06
624.399	644.06
624.606	681.06
624.812	676.06
625.019	654.06
625.226	668.06
625.433	679.06
625.639	647.06
625.846	638.06
626.053	613.06
626.259	659.06
626.466	634.06
626.673	637.06
626.879	636.06
627.086	620.06
627.293	636.06
627.499	641.06
627.706	641.06
627.912	643.06
628.119	631.06
628.325	617.06
628.532	649.06
628.738	623.06
628.945	630.06
629.151	637.06
629.357	631.06
629.564	644.06
629.77	631.06
629.976	621.06
630.183	613.06
630.389	610.06
630.595	596.06
630.802	591.06
631.008	599.06
631.214	570.06
631.42	597.06
631.627	594.06
631.833	608.06
632.039	583.06
632.245	581.06
632.451	582.06
632.657	594.06
632.863	596.06
633.069	576.06
633.275	575.06
633.481	584.06
633.688	582.06
633.893	583.06
634.099	597.06
634.305	600.06
634.511	568.06
634.717	597.06
634.923	618.06
635.129	693.06
635.335	776.06
635.541	683.06
635.747	639.06
635.952	603.06
636.158	600.06
636.364	589.06
636.57	575.06
636.775	611.06
636.981	617.06
637.187	599.06
637.392	571.06
637.598	588.06
637.804	591.06
638.009	586.06
638.215	590.06
638.421	603.06
638.626	593.06
638.832	583.06
639.037	576.06
639.243	580.06
639.448	604.06
639.654	608.06
639.859	617.06
640.065	591.06
640.27	615.06
640.475	607.06
640.681	604.06
640.886	629.06
641.091	611.06
641.297	637.06
641.502	647.06
641.707	655.06
641.913	634.06
642.118	665.06
642.323	683.06
642.528	660.06
642.733	694.06
642.939	695.06
643.144	731.06
643.349	728.06
643.554	780.06
643.759	812.06
643.964	839.06
644.169	874.06
644.374	918.06
644.579	1043.06
644.784	1141.06
644.989	1267.06
645.194	1509.06
645.399	1869.06
645.604	1991.06
645.809	1482.06
646.014	1166.06
646.219	971.06
646.423	852.06
646.628	772.06
646.833	707.06
647.038	652.06
647.243	639.06
647.447	598.06
647.652	617.06
647.857	556.06
648.062	576.06
648.266	570.06
648.471	543.06
648.676	553.06
648.88	548.06
649.085	546.06
649.289	517.06
649.494	527.06
649.698	503.06
649.903	491.06
650.107	469.06
650.312	487.06
650.516	484.06
650.721	473.06
650.925	453.06
651.13	436.06
651.334	433.06
651.539	436.06
651.743	423.06
651.947	445.06
652.152	431.06
652.356	425.06
652.56	466.06
652.764	488.06
652.969	450.06
653.173	432.06
653.377	399.06
653.581	375.06
653.785	385.06
653.99	349.06
654.194	339.06
654.398	358.06
654.602	367.06
654.806	371.06
655.01	329.06
655.214	337.06
655.418	343.06
655.622	343.06
655.826	345.06
656.03	347.06
656.234	374.06
656.438	374.06
656.642	369.06
656.846	350.06
657.049	341.06
657.253	327.06
657.457	299.06
657.661	293.06
657.865	276.06
658.068	282.06
658.272	258.06
658.476	240.06
658.68	213.06
658.883	223.06
659.087	197.06
659.291	207.06
659.494	201.06
659.698	195.06
659.901	186.06
660.105	176.06
660.309	164.06
660.512	172.06
660.716	146.06
660.919	143.06
661.123	145.06
661.326	137.06
661.53	149.06
661.733	135.06
661.936	132.06
662.14	117.06
662.343	113.06
662.546	114.06
662.75	122.06
662.953	107.06
663.156	99.06
663.36	93.06
663.563	106.06
663.766	113.06
663.969	100.06
664.173	103.06
664.376	88.06
664.579	92.06
664.782	93.06
664.985	105.06
665.188	85.06
665.391	81.06
665.594	79.06
665.797	88.06
666	90.06
666.203	93.06
666.406	75.06
666.609	88.06
666.812	85.06
667.015	96.06
667.218	85.06
667.421	90.06
667.624	78.06
667.827	91.06
668.03	92.06
668.232	74.06
668.435	87.06
668.638	86.06
668.841	74.06
669.043	95.06
669.246	84.06
669.449	79.06
669.651	88.06
669.854	96.06
670.057	68.06
670.259	86.06
670.462	93.06
670.665	102.06
670.867	90.06
671.07	95.06
671.272	78.06
671.475	91.06
671.677	86.06
671.88	88.06
672.082	101.06
672.284	96.06
672.487	84.06
672.689	80.06
672.892	93.06
