Data from SnStandardFlinnAPT0064_LampEnergy10_LIBS07252019.E.O._I.C._HRD10591_15-22-21-494.txt Node
Date: Thu Jul 25 15:22:21 EDT 2019
User: cochatt
Spectrometer: HR+D1059
Trigger mode: 1
Integration Time (sec): 1.000000E-1
Scans to average: 1
Electric dark correction enabled: true
Nonlinearity correction enabled: false
Boxcar width: 0
XAxis mode: Wavelengths
Number of Pixels in Spectrum: 2048
>>>>>Begin Spectral Data<<<<<
223.165	-1.31
223.4	-1.31
223.635	-1.31
223.869	-22.31
224.104	-32.31
224.338	-15.31
224.573	-25.31
224.808	-13.31
225.042	-7.31
225.277	14.69
225.511	5.69
225.746	12.69
225.98	3.69
226.215	5.69
226.449	2.69
226.683	19.69
226.918	23.69
227.152	28.69
227.387	19.69
227.621	33.69
227.856	55.69
228.09	42.69
228.324	63.69
228.559	61.69
228.793	123.69
229.027	296.69
229.262	329.69
229.496	305.69
229.73	282.69
229.964	301.69
230.199	325.69
230.433	301.69
230.667	302.69
230.901	314.69
231.136	327.69
231.37	339.69
231.604	387.69
231.838	409.69
232.072	502.69
232.306	524.69
232.541	456.69
232.775	406.69
233.009	421.69
233.243	405.69
233.477	454.69
233.711	504.69
233.945	560.69
234.179	485.69
234.413	437.69
234.647	445.69
234.881	454.69
235.115	490.69
235.349	603.69
235.583	762.69
235.817	971.69
236.051	946.69
236.285	618.69
236.519	509.69
236.753	475.69
236.987	483.69
237.221	516.69
237.455	501.69
237.689	443.69
237.922	431.69
238.156	439.69
238.39	490.69
238.624	480.69
238.858	485.69
239.091	486.69
239.325	479.69
239.559	494.69
239.793	481.69
240.027	515.69
240.26	507.69
240.494	562.69
240.728	580.69
240.961	578.69
241.195	634.69
241.429	668.69
241.662	699.69
241.896	737.69
242.13	907.69
242.363	1214.69
242.597	1567.69
242.83	1478.69
243.064	1478.69
243.298	1737.69
243.531	1443.69
243.765	938.69
243.998	758.69
244.232	689.69
244.465	683.69
244.699	637.69
244.932	641.69
245.166	654.69
245.399	651.69
245.633	676.69
245.866	648.69
246.099	661.69
246.333	629.69
246.566	633.69
246.8	616.69
247.033	647.69
247.266	632.69
247.5	633.69
247.733	682.69
247.966	683.69
248.2	744.69
248.433	844.69
248.666	977.69
248.899	926.69
249.133	847.69
249.366	853.69
249.599	926.69
249.832	1044.69
250.066	1055.69
250.299	837.69
250.532	775.69
250.765	730.69
250.998	751.69
251.231	721.69
251.465	694.69
251.698	719.69
251.931	726.69
252.164	720.69
252.397	737.69
252.63	779.69
252.863	785.69
253.096	744.69
253.329	760.69
253.562	769.69
253.795	795.69
254.028	790.69
254.261	827.69
254.494	872.69
254.727	1001.69
254.96	1146.69
255.193	1177.69
255.426	955.69
255.659	875.69
255.892	844.69
256.124	854.69
256.357	898.69
256.59	913.69
256.823	959.69
257.056	1077.69
257.289	1297.69
257.521	1455.69
257.754	1166.69
257.987	951.69
258.22	893.69
258.452	870.69
258.685	884.69
258.918	924.69
259.151	974.69
259.383	1043.69
259.616	1201.69
259.849	1242.69
260.081	1064.69
260.314	1000.69
260.547	943.69
260.779	917.69
261.012	960.69
261.244	940.69
261.477	945.69
261.71	990.69
261.942	994.69
262.175	1002.69
262.407	1046.69
262.64	1070.69
262.872	1095.69
263.105	1167.69
263.337	1162.69
263.57	1261.69
263.802	1313.69
264.035	1330.69
264.267	1353.69
264.499	1341.69
264.732	1412.69
264.964	1433.69
265.197	1423.69
265.429	1425.69
265.661	1465.69
265.894	1557.69
266.126	1786.69
266.358	1943.69
266.591	1880.69
266.823	1601.69
267.055	1483.69
267.287	1367.69
267.52	1328.69
267.752	1286.69
267.984	1285.69
268.216	1273.69
268.448	1241.69
268.681	1218.69
268.913	1208.69
269.145	1207.69
269.377	1225.69
269.609	1246.69
269.841	1266.69
270.073	1360.69
270.306	1605.69
270.538	2104.69
270.77	3099.69
271.002	3761.69
271.234	2607.69
271.466	1809.69
271.698	1499.69
271.93	1366.69
272.162	1311.69
272.394	1268.69
272.626	1210.69
272.858	1225.69
273.09	1210.69
273.322	1181.69
273.553	1200.69
273.785	1206.69
274.017	1187.69
274.249	1198.69
274.481	1174.69
274.713	1190.69
274.945	1170.69
275.176	1183.69
275.408	1201.69
275.64	1190.69
275.872	1206.69
276.104	1247.69
276.335	1281.69
276.567	1297.69
276.799	1255.69
277.031	1286.69
277.262	1305.69
277.494	1380.69
277.726	1535.69
277.957	1787.69
278.189	2050.69
278.421	1929.69
278.652	1664.69
278.884	1624.69
279.115	1458.69
279.347	1421.69
279.579	1393.69
279.81	1366.69
280.042	1389.69
280.273	1376.69
280.505	1431.69
280.736	1471.69
280.968	1553.69
281.199	1712.69
281.431	1995.69
281.662	2055.69
281.894	1728.69
282.125	1611.69
282.356	1604.69
282.588	1600.69
282.819	1701.69
283.051	1793.69
283.282	1967.69
283.513	2406.69
283.745	3439.69
283.976	5457.69
284.207	7705.69
284.439	6989.69
284.67	4341.69
284.901	3610.69
285.132	3573.69
285.364	3435.69
285.595	2621.69
285.826	2363.69
286.057	2709.69
286.288	3705.69
286.52	4989.69
286.751	4639.69
286.982	2963.69
287.213	2262.69
287.444	1953.69
287.675	1855.69
287.906	1737.69
288.138	1694.69
288.369	1693.69
288.6	1675.69
288.831	1653.69
289.062	1661.69
289.293	1667.69
289.524	1654.69
289.755	1678.69
289.986	1704.69
290.217	1655.69
290.448	1671.69
290.679	1719.69
290.91	1741.69
291.141	1903.69
291.371	2018.69
291.602	2093.69
291.833	1937.69
292.064	1719.69
292.295	1683.69
292.526	1633.69
292.757	1625.69
292.987	1569.69
293.218	1560.69
293.449	1576.69
293.68	1586.69
293.91	1556.69
294.141	1535.69
294.372	1543.69
294.603	1552.69
294.833	1553.69
295.064	1573.69
295.295	1518.69
295.525	1519.69
295.756	1544.69
295.987	1541.69
296.217	1561.69
296.448	1575.69
296.679	1559.69
296.909	1573.69
297.14	1574.69
297.37	1618.69
297.601	1573.69
297.831	1606.69
298.062	1601.69
298.292	1634.69
298.523	1648.69
298.753	1700.69
298.984	1669.69
299.214	1692.69
299.445	1715.69
299.675	1749.69
299.905	1823.69
300.136	1903.69
300.366	2077.69
300.597	2685.69
300.827	3779.69
301.057	5039.69
301.288	5060.69
301.518	3285.69
301.748	2490.69
301.979	2283.69
302.209	2232.69
302.439	2256.69
302.669	2423.69
302.9	2888.69
303.13	4069.69
303.36	5951.69
303.59	7929.69
303.82	6837.69
304.051	4021.69
304.281	2910.69
304.511	2445.69
304.741	2207.69
304.971	2183.69
305.201	2054.69
305.431	1956.69
305.661	1925.69
305.891	1841.69
306.121	1858.69
306.352	1850.69
306.582	1850.69
306.812	1846.69
307.042	1808.69
307.272	1882.69
307.502	1792.69
307.731	1786.69
307.961	1796.69
308.191	1787.69
308.421	1795.69
308.651	1798.69
308.881	1763.69
309.111	1789.69
309.341	1810.69
309.571	1795.69
309.8	1803.69
310.03	1817.69
310.26	1793.69
310.49	1829.69
310.72	1838.69
310.949	1866.69
311.179	1860.69
311.409	1877.69
311.639	1933.69
311.868	1907.69
312.098	1916.69
312.328	1913.69
312.557	1907.69
312.787	1956.69
313.017	1961.69
313.246	1964.69
313.476	1991.69
313.706	2051.69
313.935	2190.69
314.165	2335.69
314.394	2453.69
314.624	2291.69
314.853	2134.69
315.083	2153.69
315.312	2165.69
315.542	2143.69
315.771	2159.69
316.001	2203.69
316.23	2328.69
316.46	2417.69
316.689	2629.69
316.919	3121.69
317.148	4497.69
317.377	6853.69
317.607	10049.69
317.836	10339.69
318.065	6289.69
318.295	4163.69
318.524	3336.69
318.753	2868.69
318.983	2651.69
319.212	2509.69
319.441	2441.69
319.67	2402.69
319.9	2355.69
320.129	2333.69
320.358	2322.69
320.587	2324.69
320.816	2316.69
321.046	2343.69
321.275	2317.69
321.504	2347.69
321.733	2422.69
321.962	2443.69
322.191	2509.69
322.42	2475.69
322.649	2469.69
322.878	2477.69
323.108	2440.69
323.337	2478.69
323.566	2464.69
323.795	2570.69
324.024	2666.69
324.253	2708.69
324.482	2789.69
324.71	2955.69
324.939	3117.69
325.168	3222.69
325.397	3336.69
325.626	3945.69
325.855	5441.69
326.084	8426.69
326.313	12333.69
326.542	13024.69
326.77	8674.69
326.999	5697.69
327.228	4793.69
327.457	4583.69
327.686	4665.69
327.914	5012.69
328.143	5834.69
328.372	6903.69
328.6	7587.69
328.829	6813.69
329.058	5712.69
329.287	4927.69
329.515	4545.69
329.744	4173.69
329.972	4005.69
330.201	3789.69
330.43	3708.69
330.658	3547.69
330.887	3506.69
331.115	3462.69
331.344	3467.69
331.572	3420.69
331.801	3455.69
332.03	3485.69
332.258	3566.69
332.486	3714.69
332.715	4239.69
332.943	5226.69
333.172	6376.69
333.4	6337.69
333.629	4758.69
333.857	4400.69
334.085	4360.69
334.314	4554.69
334.542	5010.69
334.771	5853.69
334.999	7261.69
335.227	9139.69
335.455	10110.69
335.684	9099.69
335.912	7527.69
336.14	6301.69
336.369	5535.69
336.597	5187.69
336.825	4734.69
337.053	4405.69
337.281	4199.69
337.51	3949.69
337.738	3769.69
337.966	3717.69
338.194	3578.69
338.422	3468.69
338.65	3391.69
338.878	3296.69
339.106	3216.69
339.334	3153.69
339.562	3121.69
339.79	3066.69
340.018	3118.69
340.246	3032.69
340.474	3016.69
340.702	2995.69
340.93	3033.69
341.158	3026.69
341.386	2975.69
341.614	2985.69
341.842	2916.69
342.07	2826.69
342.298	2801.69
342.526	2768.69
342.754	2719.69
342.981	2728.69
343.209	2718.69
343.437	2777.69
343.665	2758.69
343.893	2809.69
344.12	2826.69
344.348	2730.69
344.576	2728.69
344.804	2721.69
345.031	2585.69
345.259	2574.69
345.487	2578.69
345.714	2586.69
345.942	2547.69
346.17	2513.69
346.397	2490.69
346.625	2506.69
346.853	2496.69
347.08	2516.69
347.308	2515.69
347.535	2520.69
347.763	2538.69
347.99	2490.69
348.218	2457.69
348.445	2416.69
348.673	2475.69
348.9	2455.69
349.128	2455.69
349.355	2436.69
349.583	2465.69
349.81	2413.69
350.037	2406.69
350.265	2378.69
350.492	2402.69
350.72	2365.69
350.947	2403.69
351.174	2379.69
351.402	2403.69
351.629	2354.69
351.856	2369.69
352.083	2400.69
352.311	2367.69
352.538	2340.69
352.765	2325.69
352.992	2374.69
353.22	2391.69
353.447	2347.69
353.674	2384.69
353.901	2376.69
354.128	2423.69
354.355	2358.69
354.583	2371.69
354.81	2388.69
355.037	2426.69
355.264	2424.69
355.491	2387.69
355.718	2426.69
355.945	2430.69
356.172	2465.69
356.399	2445.69
356.626	2481.69
356.853	2500.69
357.08	2437.69
357.307	2514.69
357.534	2585.69
357.761	2561.69
357.988	2597.69
358.215	2556.69
358.441	2523.69
358.668	2532.69
358.895	2579.69
359.122	2526.69
359.349	2490.69
359.576	2498.69
359.802	2574.69
360.029	2524.69
360.256	2513.69
360.483	2566.69
360.709	2549.69
360.936	2507.69
361.163	2494.69
361.39	2521.69
361.616	2544.69
361.843	2521.69
362.07	2580.69
362.296	2575.69
362.523	2537.69
362.749	2530.69
362.976	2541.69
363.203	2527.69
363.429	2460.69
363.656	2563.69
363.882	2529.69
364.109	2509.69
364.335	2538.69
364.562	2529.69
364.788	2507.69
365.015	2585.69
365.241	2665.69
365.468	2798.69
365.694	2925.69
365.92	2850.69
366.147	2633.69
366.373	2618.69
366.599	2593.69
366.826	2590.69
367.052	2562.69
367.278	2629.69
367.505	2590.69
367.731	2650.69
367.957	2619.69
368.184	2633.69
368.41	2623.69
368.636	2648.69
368.862	2645.69
369.089	2670.69
369.315	2597.69
369.541	2613.69
369.767	2644.69
369.993	2634.69
370.219	2597.69
370.445	2647.69
370.672	2659.69
370.898	2663.69
371.124	2690.69
371.35	2705.69
371.576	2714.69
371.802	2703.69
372.028	2762.69
372.254	2763.69
372.48	2764.69
372.706	2746.69
372.932	2807.69
373.158	2797.69
373.384	2814.69
373.61	2759.69
373.835	2805.69
374.061	2857.69
374.287	2811.69
374.513	2842.69
374.739	2889.69
374.965	2882.69
375.191	2879.69
375.416	2914.69
375.642	2833.69
375.868	2869.69
376.094	2806.69
376.319	2804.69
376.545	2744.69
376.771	2761.69
376.997	2686.69
377.222	2713.69
377.448	2709.69
377.674	2708.69
377.899	2681.69
378.125	2799.69
378.35	2721.69
378.576	2721.69
378.802	2756.69
379.027	2854.69
379.253	2891.69
379.478	3038.69
379.704	3567.69
379.929	5037.69
380.155	7711.69
380.38	8235.69
380.606	5091.69
380.831	3651.69
381.057	3160.69
381.282	2890.69
381.507	2862.69
381.733	2755.69
381.958	2760.69
382.184	2688.69
382.409	2707.69
382.634	2689.69
382.86	2680.69
383.085	2623.69
383.31	2634.69
383.535	2641.69
383.761	2654.69
383.986	2685.69
384.211	2706.69
384.436	2739.69
384.662	2728.69
384.887	2795.69
385.112	2769.69
385.337	2743.69
385.562	2776.69
385.787	2778.69
386.013	2763.69
386.238	2785.69
386.463	2736.69
386.688	2772.69
386.913	2778.69
387.138	2753.69
387.363	2802.69
387.588	2755.69
387.813	2734.69
388.038	2801.69
388.263	2746.69
388.488	2789.69
388.713	2757.69
388.938	2710.69
389.163	2744.69
389.387	2779.69
389.612	2709.69
389.837	2778.69
390.062	2771.69
390.287	2772.69
390.512	2760.69
390.736	2847.69
390.961	2857.69
391.186	2865.69
391.411	2968.69
391.636	2896.69
391.86	2878.69
392.085	2906.69
392.31	2889.69
392.534	2895.69
392.759	2828.69
392.984	2823.69
393.208	2863.69
393.433	2887.69
393.658	2827.69
393.882	2805.69
394.107	2764.69
394.331	2763.69
394.556	2786.69
394.78	2805.69
395.005	2879.69
395.229	2813.69
395.454	2877.69
395.678	2942.69
395.903	2923.69
396.127	2913.69
396.352	2828.69
396.576	2858.69
396.801	2873.69
397.025	2872.69
397.249	2897.69
397.474	2954.69
397.698	2924.69
397.922	2949.69
398.147	2943.69
398.371	2964.69
398.595	2969.69
398.82	3103.69
399.044	3154.69
399.268	3318.69
399.492	3525.69
399.717	3654.69
399.941	3654.69
400.165	3528.69
400.389	3338.69
400.613	3205.69
400.837	3121.69
401.062	3138.69
401.286	3088.69
401.51	3041.69
401.734	3088.69
401.958	3041.69
402.182	3066.69
402.406	3074.69
402.63	3017.69
402.854	3045.69
403.078	3144.69
403.302	3099.69
403.526	3180.69
403.75	3189.69
403.974	3124.69
404.198	3147.69
404.422	3161.69
404.645	3149.69
404.869	3127.69
405.093	3128.69
405.317	3124.69
405.541	3242.69
405.765	3261.69
405.988	3247.69
406.212	3239.69
406.436	3255.69
406.66	3288.69
406.883	3265.69
407.107	3365.69
407.331	3457.69
407.555	3423.69
407.778	3407.69
408.002	3404.69
408.226	3367.69
408.449	3389.69
408.673	3346.69
408.896	3207.69
409.12	3213.69
409.344	3259.69
409.567	3121.69
409.791	3183.69
410.014	3122.69
410.238	3115.69
410.461	3165.69
410.685	3091.69
410.908	3089.69
411.132	3058.69
411.355	3001.69
411.578	3047.69
411.802	3069.69
412.025	3037.69
412.249	3025.69
412.472	3029.69
412.695	3001.69
412.919	2935.69
413.142	3016.69
413.365	2982.69
413.589	3028.69
413.812	2962.69
414.035	3011.69
414.258	2937.69
414.482	2967.69
414.705	2990.69
414.928	3015.69
415.151	2983.69
415.374	2973.69
415.597	2907.69
415.821	2865.69
416.044	2843.69
416.267	2882.69
416.49	2904.69
416.713	2877.69
416.936	2853.69
417.159	2856.69
417.382	2814.69
417.605	2775.69
417.828	2825.69
418.051	2872.69
418.274	2916.69
418.497	2865.69
418.72	2917.69
418.943	2893.69
419.166	3080.69
419.389	3181.69
419.611	3117.69
419.834	3071.69
420.057	2985.69
420.28	2954.69
420.503	2840.69
420.726	2854.69
420.948	2855.69
421.171	2912.69
421.394	2885.69
421.617	2837.69
421.839	2776.69
422.062	2920.69
422.285	2798.69
422.507	2916.69
422.73	2916.69
422.953	2934.69
423.175	2976.69
423.398	2943.69
423.621	2894.69
423.843	2865.69
424.066	2902.69
424.288	2819.69
424.511	2839.69
424.733	2797.69
424.956	2839.69
425.178	2794.69
425.401	2851.69
425.623	2846.69
425.846	2762.69
426.068	2738.69
426.291	2771.69
426.513	2790.69
426.735	2704.69
426.958	2776.69
427.18	2730.69
427.402	2744.69
427.625	2700.69
427.847	2641.69
428.069	2691.69
428.292	2693.69
428.514	2656.69
428.736	2635.69
428.958	2658.69
429.181	2575.69
429.403	2607.69
429.625	2637.69
429.847	2635.69
430.069	2673.69
430.292	2785.69
430.514	2829.69
430.736	2884.69
430.958	2690.69
431.18	2615.69
431.402	2634.69
431.624	2624.69
431.846	2618.69
432.068	2586.69
432.29	2632.69
432.512	2588.69
432.734	2650.69
432.956	2611.69
433.178	2673.69
433.4	2631.69
433.622	2649.69
433.844	2638.69
434.066	2631.69
434.287	2641.69
434.509	2649.69
434.731	2699.69
434.953	2687.69
435.175	2760.69
435.397	2777.69
435.618	2657.69
435.84	2650.69
436.062	2657.69
436.284	2621.69
436.505	2617.69
436.727	2612.69
436.949	2610.69
437.17	2582.69
437.392	2560.69
437.614	2501.69
437.835	2459.69
438.057	2545.69
438.278	2550.69
438.5	2555.69
438.721	2564.69
438.943	2697.69
439.165	2694.69
439.386	2684.69
439.608	2713.69
439.829	2706.69
440.05	2825.69
440.272	2803.69
440.493	2721.69
440.715	2716.69
440.936	2663.69
441.158	2737.69
441.379	2726.69
441.6	2800.69
441.822	2917.69
442.043	3034.69
442.264	3129.69
442.486	2907.69
442.707	2786.69
442.928	2839.69
443.149	2789.69
443.371	2786.69
443.592	2808.69
443.813	2839.69
444.034	2830.69
444.255	2881.69
444.476	2962.69
444.698	2939.69
444.919	3038.69
445.14	3061.69
445.361	2986.69
445.582	2889.69
445.803	2854.69
446.024	2803.69
446.245	2782.69
446.466	2743.69
446.687	2725.69
446.908	2703.69
447.129	2659.69
447.35	2652.69
447.571	2614.69
447.792	2549.69
448.013	2618.69
448.234	2565.69
448.455	2630.69
448.675	2629.69
448.896	2636.69
449.117	2759.69
449.338	2943.69
449.559	3027.69
449.779	2770.69
450	2585.69
450.221	2565.69
450.442	2526.69
450.662	2541.69
450.883	2493.69
451.104	2504.69
451.324	2486.69
451.545	2518.69
451.766	2594.69
451.986	2599.69
452.207	2727.69
452.428	3519.69
452.648	5361.69
452.869	4430.69
453.089	3109.69
453.31	2961.69
453.53	2926.69
453.751	3005.69
453.971	3063.69
454.192	3044.69
454.412	2683.69
454.633	2484.69
454.853	2492.69
455.073	2400.69
455.294	2407.69
455.514	2450.69
455.734	2399.69
455.955	2378.69
456.175	2406.69
456.395	2341.69
456.616	2455.69
456.836	2447.69
457.056	2443.69
457.276	2437.69
457.497	2612.69
457.717	2651.69
457.937	2548.69
458.157	2582.69
458.377	2554.69
458.598	2562.69
458.818	2556.69
459.038	2581.69
459.258	2605.69
459.478	2663.69
459.698	2650.69
459.918	2721.69
460.138	2703.69
460.358	2817.69
460.578	2816.69
460.798	2803.69
461.018	2845.69
461.238	2861.69
461.458	2815.69
461.678	2906.69
461.898	2953.69
462.118	2973.69
462.338	3041.69
462.558	3074.69
462.777	3148.69
462.997	3250.69
463.217	3305.69
463.437	3482.69
463.657	3543.69
463.876	3433.69
464.096	3255.69
464.316	3192.69
464.536	3125.69
464.755	3027.69
464.975	2979.69
465.195	2856.69
465.414	2772.69
465.634	2703.69
465.854	2709.69
466.073	2697.69
466.293	2644.69
466.512	2635.69
466.732	2677.69
466.951	2811.69
467.171	2975.69
467.391	2881.69
467.61	2695.69
467.829	2671.69
468.049	2572.69
468.268	2477.69
468.488	2509.69
468.707	2563.69
468.927	2518.69
469.146	2525.69
469.365	2578.69
469.585	2595.69
469.804	2637.69
470.023	2718.69
470.243	2714.69
470.462	2865.69
470.681	2949.69
470.901	3221.69
471.12	3705.69
471.339	3705.69
471.558	3118.69
471.777	2857.69
471.997	2751.69
472.216	2693.69
472.435	2640.69
472.654	2633.69
472.873	2563.69
473.092	2583.69
473.311	2557.69
473.53	2606.69
473.749	2685.69
473.968	2787.69
474.187	2637.69
474.406	2561.69
474.625	2607.69
474.844	2583.69
475.063	2550.69
475.282	2624.69
475.501	2589.69
475.72	2626.69
475.939	2655.69
476.158	2706.69
476.377	2804.69
476.596	2733.69
476.814	2688.69
477.033	2759.69
477.252	2757.69
477.471	2814.69
477.69	2895.69
477.908	2884.69
478.127	2911.69
478.346	2942.69
478.564	3002.69
478.783	2998.69
479.002	3030.69
479.22	3009.69
479.439	3117.69
479.658	3027.69
479.876	3035.69
480.095	3151.69
480.313	3202.69
480.532	3205.69
480.751	3229.69
480.969	3177.69
481.188	3137.69
481.406	3111.69
481.624	3129.69
481.843	3155.69
482.061	3139.69
482.28	3081.69
482.498	3160.69
482.717	3145.69
482.935	3121.69
483.153	3208.69
483.372	3235.69
483.59	3276.69
483.808	3271.69
484.027	3356.69
484.245	3589.69
484.463	4021.69
484.681	4412.69
484.9	4043.69
485.118	3753.69
485.336	3685.69
485.554	3759.69
485.772	3967.69
485.99	4400.69
486.209	4770.69
486.427	4039.69
486.645	3634.69
486.863	3498.69
487.081	3468.69
487.299	3364.69
487.517	3375.69
487.735	3357.69
487.953	3356.69
488.171	3326.69
488.389	3267.69
488.607	3267.69
488.825	3178.69
489.043	3212.69
489.261	3201.69
489.479	3212.69
489.696	3196.69
489.914	3200.69
490.132	3275.69
490.35	3264.69
490.568	3278.69
490.786	3312.69
491.003	3313.69
491.221	3415.69
491.439	3387.69
491.657	3318.69
491.874	3319.69
492.092	3394.69
492.31	3366.69
492.527	3357.69
492.745	3375.69
492.963	3336.69
493.18	3389.69
493.398	3363.69
493.615	3418.69
493.833	3361.69
494.05	3348.69
494.268	3343.69
494.485	3386.69
494.703	3361.69
494.92	3382.69
495.138	3381.69
495.355	3409.69
495.573	3447.69
495.79	3441.69
496.008	3460.69
496.225	3441.69
496.442	3565.69
496.66	3635.69
496.877	3809.69
497.094	3775.69
497.312	3736.69
497.529	3679.69
497.746	3741.69
497.963	3762.69
498.181	3878.69
498.398	3934.69
498.615	4116.69
498.832	4243.69
499.049	4444.69
499.267	4737.69
499.484	5000.69
499.701	5014.69
499.918	5142.69
500.135	5452.69
500.352	5653.69
500.569	5764.69
500.786	5691.69
501.003	5483.69
501.22	5267.69
501.437	4976.69
501.654	4742.69
501.871	4510.69
502.088	4377.69
502.305	4155.69
502.522	4094.69
502.739	3981.69
502.956	3884.69
503.172	3779.69
503.389	3729.69
503.606	3623.69
503.823	3596.69
504.04	3570.69
504.256	3575.69
504.473	3595.69
504.69	3557.69
504.907	3494.69
505.123	3421.69
505.34	3330.69
505.557	3275.69
505.773	3233.69
505.99	3199.69
506.207	3112.69
506.423	3122.69
506.64	3111.69
506.856	3089.69
507.073	3069.69
507.289	3053.69
507.506	2985.69
507.722	2964.69
507.939	2955.69
508.155	2973.69
508.372	2960.69
508.588	2897.69
508.805	2909.69
509.021	2977.69
509.238	2993.69
509.454	3184.69
509.67	3301.69
509.887	3088.69
510.103	2973.69
510.319	2905.69
510.536	2893.69
510.752	2940.69
510.968	2901.69
511.184	2833.69
511.401	2839.69
511.617	2804.69
511.833	2819.69
512.049	2826.69
512.265	2815.69
512.481	2861.69
512.698	2805.69
512.914	2807.69
513.13	2800.69
513.346	2817.69
513.562	2868.69
513.778	2836.69
513.994	2882.69
514.21	2901.69
514.426	3098.69
514.642	3241.69
514.858	2987.69
515.074	2901.69
515.29	2889.69
515.506	2922.69
515.721	2950.69
515.937	2899.69
516.153	2933.69
516.369	2883.69
516.585	2945.69
516.801	3045.69
517.016	3072.69
517.232	3133.69
517.448	3210.69
517.664	3270.69
517.879	3219.69
518.095	3200.69
518.311	3195.69
518.527	3126.69
518.742	3132.69
518.958	3203.69
519.173	3270.69
519.389	3089.69
519.605	2971.69
519.82	2847.69
520.036	2849.69
520.251	2847.69
520.467	2849.69
520.682	2758.69
520.898	2747.69
521.113	2777.69
521.329	2705.69
521.544	2760.69
521.76	2771.69
521.975	2792.69
522.19	2746.69
522.406	2733.69
522.621	2719.69
522.836	2698.69
523.052	2745.69
523.267	2701.69
523.482	2667.69
523.698	2718.69
523.913	2672.69
524.128	2729.69
524.343	2691.69
524.559	2673.69
524.774	2696.69
524.989	2714.69
525.204	2729.69
525.419	2653.69
525.634	2709.69
525.849	2638.69
526.064	2715.69
526.28	2654.69
526.495	2660.69
526.71	2687.69
526.925	2699.69
527.14	2652.69
527.355	2666.69
527.57	2740.69
527.785	2753.69
527.999	2688.69
528.214	2760.69
528.429	2755.69
528.644	2788.69
528.859	2824.69
529.074	2890.69
529.289	2895.69
529.503	2899.69
529.718	2840.69
529.933	2849.69
530.148	2831.69
530.363	2886.69
530.577	2825.69
530.792	2901.69
531.007	2913.69
531.221	2889.69
531.436	2950.69
531.651	2937.69
531.865	2991.69
532.08	3079.69
532.295	3160.69
532.509	3298.69
532.724	3311.69
532.938	3387.69
533.153	3464.69
533.367	3785.69
533.582	4000.69
533.796	3859.69
534.011	3665.69
534.225	3550.69
534.44	3415.69
534.654	3395.69
534.868	3253.69
535.083	3226.69
535.297	3136.69
535.511	3119.69
535.726	3090.69
535.94	3027.69
536.154	2970.69
536.369	2933.69
536.583	2925.69
536.797	2831.69
537.011	2890.69
537.225	2839.69
537.44	2760.69
537.654	2804.69
537.868	2792.69
538.082	2717.69
538.296	2713.69
538.51	2653.69
538.724	2709.69
538.938	2687.69
539.153	2657.69
539.367	2675.69
539.581	2590.69
539.795	2589.69
540.009	2601.69
540.222	2551.69
540.436	2610.69
540.65	2573.69
540.864	2619.69
541.078	2693.69
541.292	2801.69
541.506	3238.69
541.72	3427.69
541.934	3017.69
542.147	2884.69
542.361	2730.69
542.575	2607.69
542.789	2585.69
543.002	2518.69
543.216	2522.69
543.43	2519.69
543.644	2495.69
543.857	2464.69
544.071	2482.69
544.285	2568.69
544.498	2511.69
544.712	2521.69
544.925	2546.69
545.139	2482.69
545.352	2496.69
545.566	2545.69
545.779	2501.69
545.993	2566.69
546.206	2534.69
546.42	2541.69
546.633	2473.69
546.847	2477.69
547.06	2498.69
547.274	2554.69
547.487	2536.69
547.7	2521.69
547.914	2526.69
548.127	2547.69
548.34	2529.69
548.554	2515.69
548.767	2494.69
548.98	2485.69
549.193	2583.69
549.407	2497.69
549.62	2551.69
549.833	2571.69
550.046	2517.69
550.259	2525.69
550.473	2528.69
550.686	2499.69
550.899	2554.69
551.112	2500.69
551.325	2541.69
551.538	2528.69
551.751	2526.69
551.964	2530.69
552.177	2588.69
552.39	2617.69
552.603	2567.69
552.816	2702.69
553.029	2742.69
553.242	2738.69
553.455	2778.69
553.667	2785.69
553.88	2815.69
554.093	2785.69
554.306	2803.69
554.519	2818.69
554.732	2872.69
554.944	2891.69
555.157	2980.69
555.37	3125.69
555.583	3197.69
555.795	3351.69
556.008	3637.69
556.221	4001.69
556.433	4344.69
556.646	4331.69
556.859	4079.69
557.071	3923.69
557.284	3872.69
557.496	3671.69
557.709	3643.69
557.921	3611.69
558.134	3594.69
558.346	3584.69
558.559	3790.69
558.771	4000.69
558.984	4427.69
559.196	4675.69
559.409	4533.69
559.621	4186.69
559.833	3886.69
560.046	3604.69
560.258	3451.69
560.47	3270.69
560.683	3146.69
560.895	3071.69
561.107	2927.69
561.32	2849.69
561.532	2816.69
561.744	2723.69
561.956	2607.69
562.168	2642.69
562.381	2651.69
562.593	2571.69
562.805	2649.69
563.017	2698.69
563.229	2673.69
563.441	3159.69
563.653	2590.69
563.865	2466.69
564.077	2390.69
564.289	2361.69
564.501	2369.69
564.713	2400.69
564.925	2317.69
565.137	2389.69
565.349	2313.69
565.561	2350.69
565.773	2347.69
565.985	2372.69
566.197	2426.69
566.408	2469.69
566.62	2520.69
566.832	2553.69
567.044	2582.69
567.255	2564.69
567.467	2606.69
567.679	2677.69
567.891	2791.69
568.102	3075.69
568.314	3562.69
568.526	3067.69
568.737	2675.69
568.949	2469.69
569.161	2359.69
569.372	2229.69
569.584	2171.69
569.795	2097.69
570.007	2089.69
570.218	2147.69
570.43	2238.69
570.641	2071.69
570.853	2023.69
571.064	1978.69
571.276	1950.69
571.487	1881.69
571.698	1901.69
571.91	1855.69
572.121	1864.69
572.333	1867.69
572.544	1867.69
572.755	1949.69
572.966	2273.69
573.178	2076.69
573.389	1864.69
573.6	1805.69
573.811	1774.69
574.023	1717.69
574.234	1731.69
574.445	1727.69
574.656	1709.69
574.867	1690.69
575.078	1709.69
575.289	1690.69
575.501	1750.69
575.712	1685.69
575.923	1666.69
576.134	1700.69
576.345	1701.69
576.556	1737.69
576.767	1700.69
576.978	1699.69
577.188	1735.69
577.399	1744.69
577.61	1724.69
577.821	1725.69
578.032	1739.69
578.243	1732.69
578.454	1829.69
578.665	1838.69
578.875	1875.69
579.086	1987.69
579.297	2032.69
579.508	2168.69
579.718	2344.69
579.929	2698.69
580.14	3142.69
580.35	3248.69
580.561	2957.69
580.772	2674.69
580.982	2473.69
581.193	2281.69
581.403	2148.69
581.614	2047.69
581.825	1981.69
582.035	1912.69
582.246	1834.69
582.456	1793.69
582.667	1787.69
582.877	1740.69
583.087	1722.69
583.298	1631.69
583.508	1567.69
583.719	1555.69
583.929	1531.69
584.139	1486.69
584.35	1477.69
584.56	1456.69
584.77	1430.69
584.981	1398.69
585.191	1412.69
585.401	1398.69
585.611	1363.69
585.821	1346.69
586.032	1325.69
586.242	1365.69
586.452	1286.69
586.662	1277.69
586.872	1316.69
587.082	1273.69
587.292	1274.69
587.502	1253.69
587.713	1285.69
587.923	1279.69
588.133	1240.69
588.343	1232.69
588.553	1217.69
588.762	1235.69
588.972	1203.69
589.182	1205.69
589.392	1237.69
589.602	1206.69
589.812	1186.69
590.022	1185.69
590.232	1172.69
590.441	1177.69
590.651	1191.69
590.861	1187.69
591.071	1170.69
591.281	1171.69
591.49	1186.69
591.7	1192.69
591.91	1171.69
592.119	1199.69
592.329	1177.69
592.539	1181.69
592.748	1199.69
592.958	1237.69
593.167	1199.69
593.377	1229.69
593.587	1216.69
593.796	1254.69
594.006	1203.69
594.215	1210.69
594.424	1201.69
594.634	1208.69
594.843	1203.69
595.053	1147.69
595.262	1128.69
595.472	1144.69
595.681	1100.69
595.89	1125.69
596.1	1082.69
596.309	1038.69
596.518	1063.69
596.727	1028.69
596.937	1040.69
597.146	1047.69
597.355	1028.69
597.564	1006.69
597.774	989.69
597.983	973.69
598.192	962.69
598.401	975.69
598.61	975.69
598.819	980.69
599.028	939.69
599.237	947.69
599.446	941.69
599.655	930.69
599.864	938.69
600.073	961.69
600.282	926.69
600.491	932.69
600.7	945.69
600.909	906.69
601.118	931.69
601.327	947.69
601.536	954.69
601.745	962.69
601.953	1017.69
602.162	1165.69
602.371	1048.69
602.58	979.69
602.789	971.69
602.997	922.69
603.206	931.69
603.415	904.69
603.623	930.69
603.832	882.69
604.041	913.69
604.249	925.69
604.458	899.69
604.666	865.69
604.875	868.69
605.084	864.69
605.292	890.69
605.501	901.69
605.709	899.69
605.918	901.69
606.126	872.69
606.334	883.69
606.543	930.69
606.751	993.69
606.96	1111.69
607.168	1202.69
607.376	1041.69
607.585	958.69
607.793	947.69
608.001	936.69
608.21	881.69
608.418	845.69
608.626	848.69
608.834	881.69
609.043	864.69
609.251	857.69
609.459	834.69
609.667	831.69
609.875	857.69
610.083	808.69
610.291	833.69
610.499	810.69
610.707	813.69
610.916	808.69
611.124	833.69
611.332	820.69
611.54	822.69
611.748	814.69
611.955	806.69
612.163	808.69
612.371	825.69
612.579	787.69
612.787	811.69
612.995	770.69
613.203	821.69
613.411	769.69
613.618	787.69
613.826	805.69
614.034	804.69
614.242	790.69
614.449	801.69
614.657	790.69
614.865	796.69
615.072	774.69
615.28	800.69
615.488	798.69
615.695	780.69
615.903	766.69
616.111	785.69
616.318	780.69
616.526	767.69
616.733	765.69
616.941	758.69
617.148	790.69
617.356	763.69
617.563	774.69
617.771	767.69
617.978	730.69
618.185	760.69
618.393	745.69
618.6	749.69
618.807	749.69
619.015	754.69
619.222	730.69
619.429	722.69
619.637	743.69
619.844	717.69
620.051	739.69
620.258	737.69
620.466	728.69
620.673	709.69
620.88	703.69
621.087	683.69
621.294	703.69
621.501	694.69
621.708	661.69
621.915	698.69
622.122	691.69
622.329	699.69
622.536	720.69
622.743	699.69
622.95	700.69
623.157	686.69
623.364	702.69
623.571	683.69
623.778	670.69
623.985	669.69
624.192	690.69
624.399	655.69
624.606	668.69
624.812	674.69
625.019	648.69
625.226	659.69
625.433	643.69
625.639	634.69
625.846	635.69
626.053	643.69
626.259	639.69
626.466	633.69
626.673	630.69
626.879	618.69
627.086	610.69
627.293	614.69
627.499	644.69
627.706	644.69
627.912	649.69
628.119	652.69
628.325	616.69
628.532	610.69
628.738	619.69
628.945	617.69
629.151	603.69
629.357	642.69
629.564	633.69
629.77	610.69
629.976	617.69
630.183	598.69
630.389	597.69
630.595	587.69
630.802	591.69
631.008	613.69
631.214	596.69
631.42	581.69
631.627	585.69
631.833	584.69
632.039	568.69
632.245	599.69
632.451	573.69
632.657	562.69
632.863	580.69
633.069	580.69
633.275	587.69
633.481	560.69
633.688	563.69
633.893	572.69
634.099	569.69
634.305	580.69
634.511	573.69
634.717	558.69
634.923	613.69
635.129	675.69
635.335	735.69
635.541	664.69
635.747	631.69
635.952	605.69
636.158	596.69
636.364	579.69
636.57	616.69
636.775	590.69
636.981	586.69
637.187	577.69
637.392	576.69
637.598	583.69
637.804	578.69
638.009	573.69
638.215	586.69
638.421	588.69
638.626	567.69
638.832	577.69
639.037	552.69
639.243	582.69
639.448	575.69
639.654	601.69
639.859	573.69
640.065	605.69
640.27	607.69
640.475	603.69
640.681	601.69
640.886	614.69
641.091	608.69
641.297	632.69
641.502	631.69
641.707	628.69
641.913	623.69
642.118	661.69
642.323	649.69
642.528	662.69
642.733	666.69
642.939	710.69
643.144	720.69
643.349	742.69
643.554	785.69
643.759	789.69
643.964	833.69
644.169	878.69
644.374	902.69
644.579	1042.69
644.784	1108.69
644.989	1262.69
645.194	1489.69
645.399	1851.69
645.604	1985.69
645.809	1505.69
646.014	1121.69
646.219	925.69
646.423	815.69
646.628	753.69
646.833	718.69
647.038	655.69
647.243	643.69
647.447	597.69
647.652	587.69
647.857	549.69
648.062	579.69
648.266	550.69
648.471	547.69
648.676	555.69
648.88	534.69
649.085	517.69
649.289	527.69
649.494	509.69
649.698	477.69
649.903	479.69
650.107	477.69
650.312	474.69
650.516	456.69
650.721	469.69
650.925	459.69
651.13	445.69
651.334	443.69
651.539	418.69
651.743	408.69
651.947	397.69
652.152	421.69
652.356	415.69
652.56	434.69
652.764	495.69
652.969	464.69
653.173	418.69
653.377	401.69
653.581	398.69
653.785	374.69
653.99	378.69
654.194	351.69
654.398	371.69
654.602	365.69
654.806	348.69
655.01	323.69
655.214	339.69
655.418	357.69
655.622	362.69
655.826	337.69
656.03	360.69
656.234	381.69
656.438	375.69
656.642	383.69
656.846	371.69
657.049	335.69
657.253	317.69
657.457	291.69
657.661	283.69
657.865	272.69
658.068	255.69
658.272	239.69
658.476	219.69
658.68	218.69
658.883	199.69
659.087	204.69
659.291	195.69
659.494	194.69
659.698	177.69
659.901	188.69
660.105	176.69
660.309	168.69
660.512	159.69
660.716	158.69
660.919	142.69
661.123	136.69
661.326	147.69
661.53	127.69
661.733	131.69
661.936	121.69
662.14	113.69
662.343	115.69
662.546	107.69
662.75	116.69
662.953	119.69
663.156	94.69
663.36	115.69
663.563	97.69
663.766	108.69
663.969	80.69
664.173	81.69
664.376	94.69
664.579	81.69
664.782	65.69
664.985	72.69
665.188	102.69
665.391	101.69
665.594	92.69
665.797	82.69
666	78.69
666.203	89.69
666.406	80.69
666.609	66.69
666.812	91.69
667.015	96.69
667.218	79.69
667.421	83.69
667.624	85.69
667.827	76.69
668.03	86.69
668.232	73.69
668.435	64.69
668.638	81.69
668.841	92.69
669.043	79.69
669.246	73.69
669.449	88.69
669.651	83.69
669.854	74.69
670.057	89.69
670.259	77.69
670.462	105.69
670.665	91.69
670.867	74.69
671.07	78.69
671.272	71.69
671.475	78.69
671.677	76.69
671.88	70.69
672.082	87.69
672.284	71.69
672.487	97.69
672.689	81.69
672.892	81.69
