Data from SnStandardFlinnAPT0064_LampEnergy5.5_LIBS07252019.E.O._I.C._HRD10591_15-14-38-490.txt Node
Date: Thu Jul 25 15:14:38 EDT 2019
User: cochatt
Spectrometer: HR+D1059
Trigger mode: 1
Integration Time (sec): 1.000000E-1
Scans to average: 1
Electric dark correction enabled: true
Nonlinearity correction enabled: false
Boxcar width: 0
XAxis mode: Wavelengths
Number of Pixels in Spectrum: 2048
>>>>>Begin Spectral Data<<<<<
223.165	-15.62
223.4	-15.62
223.635	-15.62
223.869	-17.62
224.104	-1.62
224.338	-21.62
224.573	-1.62
224.808	2.38
225.042	-4.62
225.277	-6.62
225.511	-19.62
225.746	-4.62
225.98	8.38
226.215	11.38
226.449	14.38
226.683	13.38
226.918	31.38
227.152	12.38
227.387	29.38
227.621	46.38
227.856	18.38
228.09	45.38
228.324	52.38
228.559	51.38
228.793	82.38
229.027	134.38
229.262	152.38
229.496	149.38
229.73	152.38
229.964	137.38
230.199	139.38
230.433	148.38
230.667	148.38
230.901	161.38
231.136	165.38
231.37	168.38
231.604	183.38
231.838	176.38
232.072	205.38
232.306	233.38
232.541	199.38
232.775	188.38
233.009	193.38
233.243	188.38
233.477	194.38
233.711	213.38
233.945	246.38
234.179	225.38
234.413	213.38
234.647	210.38
234.881	223.38
235.115	222.38
235.349	268.38
235.583	291.38
235.817	368.38
236.051	362.38
236.285	262.38
236.519	232.38
236.753	224.38
236.987	220.38
237.221	224.38
237.455	229.38
237.689	228.38
237.922	202.38
238.156	223.38
238.39	210.38
238.624	218.38
238.858	210.38
239.091	229.38
239.325	212.38
239.559	209.38
239.793	219.38
240.027	229.38
240.26	247.38
240.494	260.38
240.728	252.38
240.961	245.38
241.195	272.38
241.429	269.38
241.662	279.38
241.896	304.38
242.13	349.38
242.363	419.38
242.597	527.38
242.83	520.38
243.064	520.38
243.298	607.38
243.531	513.38
243.765	372.38
243.998	318.38
244.232	280.38
244.465	281.38
244.699	275.38
244.932	291.38
245.166	297.38
245.399	279.38
245.633	291.38
245.866	283.38
246.099	274.38
246.333	284.38
246.566	280.38
246.8	279.38
247.033	274.38
247.266	271.38
247.5	277.38
247.733	295.38
247.966	299.38
248.2	320.38
248.433	320.38
248.666	370.38
248.899	362.38
249.133	328.38
249.366	344.38
249.599	354.38
249.832	412.38
250.066	404.38
250.299	352.38
250.532	314.38
250.765	305.38
250.998	314.38
251.231	313.38
251.465	308.38
251.698	312.38
251.931	302.38
252.164	326.38
252.397	328.38
252.63	310.38
252.863	333.38
253.096	330.38
253.329	341.38
253.562	331.38
253.795	324.38
254.028	352.38
254.261	352.38
254.494	363.38
254.727	403.38
254.96	456.38
255.193	442.38
255.426	378.38
255.659	362.38
255.892	368.38
256.124	364.38
256.357	366.38
256.59	369.38
256.823	396.38
257.056	428.38
257.289	470.38
257.521	484.38
257.754	457.38
257.987	385.38
258.22	370.38
258.452	386.38
258.685	381.38
258.918	384.38
259.151	393.38
259.383	399.38
259.616	441.38
259.849	467.38
260.081	439.38
260.314	408.38
260.547	393.38
260.779	395.38
261.012	387.38
261.244	401.38
261.477	426.38
261.71	446.38
261.942	439.38
262.175	428.38
262.407	448.38
262.64	441.38
262.872	455.38
263.105	492.38
263.337	498.38
263.57	524.38
263.802	536.38
264.035	547.38
264.267	574.38
264.499	547.38
264.732	613.38
264.964	585.38
265.197	598.38
265.429	603.38
265.661	626.38
265.894	644.38
266.126	702.38
266.358	733.38
266.591	731.38
266.823	640.38
267.055	600.38
267.287	562.38
267.52	542.38
267.752	556.38
267.984	524.38
268.216	522.38
268.448	525.38
268.681	513.38
268.913	500.38
269.145	497.38
269.377	512.38
269.609	528.38
269.841	521.38
270.073	556.38
270.306	610.38
270.538	767.38
270.77	1055.38
271.002	1245.38
271.234	944.38
271.466	675.38
271.698	578.38
271.93	546.38
272.162	529.38
272.394	530.38
272.626	518.38
272.858	499.38
273.09	498.38
273.322	486.38
273.553	497.38
273.785	508.38
274.017	503.38
274.249	500.38
274.481	522.38
274.713	500.38
274.945	498.38
275.176	478.38
275.408	518.38
275.64	507.38
275.872	525.38
276.104	500.38
276.335	530.38
276.567	527.38
276.799	498.38
277.031	522.38
277.262	519.38
277.494	536.38
277.726	589.38
277.957	670.38
278.189	682.38
278.421	683.38
278.652	611.38
278.884	592.38
279.115	565.38
279.347	546.38
279.579	560.38
279.81	544.38
280.042	532.38
280.273	570.38
280.505	573.38
280.736	569.38
280.968	592.38
281.199	639.38
281.431	680.38
281.662	700.38
281.894	660.38
282.125	623.38
282.356	619.38
282.588	635.38
282.819	668.38
283.051	680.38
283.282	763.38
283.513	876.38
283.745	1202.38
283.976	1816.38
284.207	2456.38
284.439	2250.38
284.67	1476.38
284.901	1198.38
285.132	1128.38
285.364	1089.38
285.595	912.38
285.826	856.38
286.057	981.38
286.288	1257.38
286.52	1620.38
286.751	1515.38
286.982	1046.38
287.213	838.38
287.444	744.38
287.675	672.38
287.906	709.38
288.138	669.38
288.369	660.38
288.6	670.38
288.831	658.38
289.062	667.38
289.293	651.38
289.524	648.38
289.755	682.38
289.986	663.38
290.217	646.38
290.448	664.38
290.679	669.38
290.91	703.38
291.141	690.38
291.371	723.38
291.602	706.38
291.833	698.38
292.064	679.38
292.295	660.38
292.526	692.38
292.757	646.38
292.987	607.38
293.218	639.38
293.449	616.38
293.68	652.38
293.91	628.38
294.141	638.38
294.372	649.38
294.603	632.38
294.833	631.38
295.064	630.38
295.295	635.38
295.525	621.38
295.756	598.38
295.987	633.38
296.217	636.38
296.448	653.38
296.679	633.38
296.909	628.38
297.14	654.38
297.37	646.38
297.601	644.38
297.831	638.38
298.062	660.38
298.292	653.38
298.523	670.38
298.753	688.38
298.984	655.38
299.214	658.38
299.445	678.38
299.675	705.38
299.905	696.38
300.136	716.38
300.366	755.38
300.597	956.38
300.827	1226.38
301.057	1599.38
301.288	1567.38
301.518	1106.38
301.748	913.38
301.979	856.38
302.209	836.38
302.439	821.38
302.669	873.38
302.9	990.38
303.13	1296.38
303.36	1818.38
303.59	2341.38
303.82	2080.38
304.051	1349.38
304.281	1038.38
304.511	911.38
304.741	845.38
304.971	829.38
305.201	804.38
305.431	780.38
305.661	772.38
305.891	738.38
306.121	752.38
306.352	730.38
306.582	739.38
306.812	712.38
307.042	719.38
307.272	726.38
307.502	699.38
307.731	722.38
307.961	712.38
308.191	710.38
308.421	715.38
308.651	720.38
308.881	706.38
309.111	729.38
309.341	726.38
309.571	724.38
309.8	744.38
310.03	730.38
310.26	729.38
310.49	734.38
310.72	730.38
310.949	734.38
311.179	771.38
311.409	751.38
311.639	760.38
311.868	769.38
312.098	755.38
312.328	780.38
312.557	767.38
312.787	776.38
313.017	797.38
313.246	788.38
313.476	773.38
313.706	786.38
313.935	829.38
314.165	861.38
314.394	881.38
314.624	863.38
314.853	825.38
315.083	832.38
315.312	811.38
315.542	853.38
315.771	845.38
316.001	849.38
316.23	893.38
316.46	918.38
316.689	980.38
316.919	1127.38
317.148	1522.38
317.377	2242.38
317.607	3074.38
317.836	3241.38
318.065	2039.38
318.295	1402.38
318.524	1163.38
318.753	1041.38
318.983	986.38
319.212	955.38
319.441	959.38
319.67	950.38
319.9	926.38
320.129	937.38
320.358	910.38
320.587	904.38
320.816	898.38
321.046	910.38
321.275	916.38
321.504	908.38
321.733	921.38
321.962	935.38
322.191	958.38
322.42	933.38
322.649	962.38
322.878	920.38
323.108	945.38
323.337	984.38
323.566	958.38
323.795	1005.38
324.024	997.38
324.253	1090.38
324.482	1036.38
324.71	1086.38
324.939	1151.38
325.168	1157.38
325.397	1213.38
325.626	1360.38
325.855	1820.38
326.084	2722.38
326.313	3888.38
326.542	4133.38
326.77	2765.38
326.999	1952.38
327.228	1677.38
327.457	1592.38
327.686	1660.38
327.914	1768.38
328.143	1961.38
328.372	2252.38
328.6	2492.38
328.829	2307.38
329.058	2046.38
329.287	1816.38
329.515	1709.38
329.744	1588.38
329.972	1520.38
330.201	1461.38
330.43	1422.38
330.658	1348.38
330.887	1320.38
331.115	1316.38
331.344	1303.38
331.572	1288.38
331.801	1316.38
332.03	1330.38
332.258	1350.38
332.486	1395.38
332.715	1538.38
332.943	1740.38
333.172	2087.38
333.4	2060.38
333.629	1722.38
333.857	1622.38
334.085	1626.38
334.314	1685.38
334.542	1801.38
334.771	2101.38
334.999	2448.38
335.227	2912.38
335.455	3260.38
335.684	3068.38
335.912	2651.38
336.14	2337.38
336.369	2073.38
336.597	1907.38
336.825	1799.38
337.053	1671.38
337.281	1601.38
337.51	1549.38
337.738	1485.38
337.966	1396.38
338.194	1369.38
338.422	1333.38
338.65	1304.38
338.878	1271.38
339.106	1255.38
339.334	1252.38
339.562	1189.38
339.79	1158.38
340.018	1189.38
340.246	1171.38
340.474	1164.38
340.702	1190.38
340.93	1187.38
341.158	1160.38
341.386	1157.38
341.614	1180.38
341.842	1165.38
342.07	1138.38
342.298	1106.38
342.526	1088.38
342.754	1061.38
342.981	1078.38
343.209	1090.38
343.437	1070.38
343.665	1093.38
343.893	1096.38
344.12	1112.38
344.348	1115.38
344.576	1089.38
344.804	1066.38
345.031	1033.38
345.259	1034.38
345.487	1018.38
345.714	1032.38
345.942	1012.38
346.17	1033.38
346.397	993.38
346.625	980.38
346.853	1021.38
347.08	977.38
347.308	1012.38
347.535	997.38
347.763	972.38
347.99	953.38
348.218	965.38
348.445	963.38
348.673	952.38
348.9	976.38
349.128	976.38
349.355	973.38
349.583	993.38
349.81	974.38
350.037	956.38
350.265	952.38
350.492	965.38
350.72	925.38
350.947	939.38
351.174	966.38
351.402	949.38
351.629	959.38
351.856	976.38
352.083	963.38
352.311	947.38
352.538	980.38
352.765	957.38
352.992	956.38
353.22	949.38
353.447	937.38
353.674	941.38
353.901	963.38
354.128	952.38
354.355	944.38
354.583	961.38
354.81	963.38
355.037	949.38
355.264	980.38
355.491	926.38
355.718	954.38
355.945	1005.38
356.172	962.38
356.399	949.38
356.626	980.38
356.853	969.38
357.08	946.38
357.307	988.38
357.534	1008.38
357.761	1015.38
357.988	1026.38
358.215	1010.38
358.441	998.38
358.668	1000.38
358.895	1014.38
359.122	1014.38
359.349	1001.38
359.576	991.38
359.802	980.38
360.029	992.38
360.256	993.38
360.483	996.38
360.709	1011.38
360.936	1028.38
361.163	1027.38
361.39	1021.38
361.616	1009.38
361.843	1015.38
362.07	997.38
362.296	1024.38
362.523	1004.38
362.749	1027.38
362.976	1008.38
363.203	981.38
363.429	986.38
363.656	1008.38
363.882	1030.38
364.109	1022.38
364.335	1018.38
364.562	988.38
364.788	980.38
365.015	1031.38
365.241	1034.38
365.468	1064.38
365.694	1114.38
365.92	1044.38
366.147	1012.38
366.373	1057.38
366.599	1029.38
366.826	1042.38
367.052	1004.38
367.278	1038.38
367.505	1038.38
367.731	1047.38
367.957	1047.38
368.184	1064.38
368.41	1067.38
368.636	1037.38
368.862	1038.38
369.089	1054.38
369.315	1041.38
369.541	1049.38
369.767	1052.38
369.993	1057.38
370.219	1061.38
370.445	1053.38
370.672	1060.38
370.898	1063.38
371.124	1072.38
371.35	1071.38
371.576	1093.38
371.802	1096.38
372.028	1061.38
372.254	1116.38
372.48	1082.38
372.706	1088.38
372.932	1138.38
373.158	1084.38
373.384	1124.38
373.61	1129.38
373.835	1128.38
374.061	1126.38
374.287	1142.38
374.513	1150.38
374.739	1146.38
374.965	1147.38
375.191	1146.38
375.416	1132.38
375.642	1096.38
375.868	1146.38
376.094	1136.38
376.319	1130.38
376.545	1114.38
376.771	1116.38
376.997	1097.38
377.222	1096.38
377.448	1057.38
377.674	1086.38
377.899	1076.38
378.125	1093.38
378.35	1068.38
378.576	1053.38
378.802	1072.38
379.027	1106.38
379.253	1144.38
379.478	1180.38
379.704	1298.38
379.929	1670.38
380.155	2389.38
380.38	2522.38
380.606	1758.38
380.831	1331.38
381.057	1208.38
381.282	1137.38
381.507	1105.38
381.733	1119.38
381.958	1102.38
382.184	1089.38
382.409	1108.38
382.634	1090.38
382.86	1053.38
383.085	1076.38
383.31	1106.38
383.535	1116.38
383.761	1095.38
383.986	1097.38
384.211	1100.38
384.436	1091.38
384.662	1099.38
384.887	1110.38
385.112	1098.38
385.337	1115.38
385.562	1094.38
385.787	1122.38
386.013	1145.38
386.238	1120.38
386.463	1125.38
386.688	1141.38
386.913	1102.38
387.138	1105.38
387.363	1105.38
387.588	1076.38
387.813	1109.38
388.038	1108.38
388.263	1097.38
388.488	1089.38
388.713	1097.38
388.938	1099.38
389.163	1092.38
389.387	1090.38
389.612	1138.38
389.837	1139.38
390.062	1133.38
390.287	1126.38
390.512	1104.38
390.736	1142.38
390.961	1146.38
391.186	1163.38
391.411	1182.38
391.636	1150.38
391.86	1154.38
392.085	1161.38
392.31	1147.38
392.534	1112.38
392.759	1156.38
392.984	1148.38
393.208	1137.38
393.433	1148.38
393.658	1154.38
393.882	1134.38
394.107	1129.38
394.331	1120.38
394.556	1103.38
394.78	1148.38
395.005	1148.38
395.229	1150.38
395.454	1147.38
395.678	1170.38
395.903	1189.38
396.127	1160.38
396.352	1184.38
396.576	1173.38
396.801	1176.38
397.025	1169.38
397.249	1167.38
397.474	1194.38
397.698	1189.38
397.922	1212.38
398.147	1192.38
398.371	1196.38
398.595	1212.38
398.82	1251.38
399.044	1305.38
399.268	1352.38
399.492	1415.38
399.717	1477.38
399.941	1486.38
400.165	1430.38
400.389	1382.38
400.613	1337.38
400.837	1303.38
401.062	1251.38
401.286	1270.38
401.51	1256.38
401.734	1236.38
401.958	1228.38
402.182	1278.38
402.406	1220.38
402.63	1273.38
402.854	1272.38
403.078	1253.38
403.302	1283.38
403.526	1264.38
403.75	1266.38
403.974	1295.38
404.198	1304.38
404.422	1293.38
404.645	1276.38
404.869	1284.38
405.093	1255.38
405.317	1253.38
405.541	1306.38
405.765	1316.38
405.988	1297.38
406.212	1298.38
406.436	1283.38
406.66	1301.38
406.883	1333.38
407.107	1378.38
407.331	1374.38
407.555	1392.38
407.778	1402.38
408.002	1357.38
408.226	1390.38
408.449	1388.38
408.673	1307.38
408.896	1267.38
409.12	1303.38
409.344	1308.38
409.567	1282.38
409.791	1305.38
410.014	1292.38
410.238	1280.38
410.461	1276.38
410.685	1246.38
410.908	1266.38
411.132	1249.38
411.355	1258.38
411.578	1232.38
411.802	1228.38
412.025	1229.38
412.249	1249.38
412.472	1232.38
412.695	1261.38
412.919	1209.38
413.142	1226.38
413.365	1212.38
413.589	1256.38
413.812	1212.38
414.035	1211.38
414.258	1191.38
414.482	1204.38
414.705	1227.38
414.928	1241.38
415.151	1225.38
415.374	1196.38
415.597	1189.38
415.821	1182.38
416.044	1194.38
416.267	1151.38
416.49	1194.38
416.713	1165.38
416.936	1178.38
417.159	1126.38
417.382	1144.38
417.605	1166.38
417.828	1182.38
418.051	1192.38
418.274	1170.38
418.497	1202.38
418.72	1208.38
418.943	1192.38
419.166	1272.38
419.389	1289.38
419.611	1285.38
419.834	1264.38
420.057	1238.38
420.28	1213.38
420.503	1214.38
420.726	1159.38
420.948	1190.38
421.171	1175.38
421.394	1156.38
421.617	1195.38
421.839	1205.38
422.062	1184.38
422.285	1165.38
422.507	1193.38
422.73	1185.38
422.953	1222.38
423.175	1195.38
423.398	1192.38
423.621	1195.38
423.843	1215.38
424.066	1198.38
424.288	1198.38
424.511	1196.38
424.733	1198.38
424.956	1148.38
425.178	1175.38
425.401	1205.38
425.623	1164.38
425.846	1128.38
426.068	1141.38
426.291	1152.38
426.513	1102.38
426.735	1146.38
426.958	1122.38
427.18	1099.38
427.402	1136.38
427.625	1137.38
427.847	1098.38
428.069	1109.38
428.292	1110.38
428.514	1111.38
428.736	1090.38
428.958	1085.38
429.181	1062.38
429.403	1087.38
429.625	1098.38
429.847	1098.38
430.069	1124.38
430.292	1133.38
430.514	1144.38
430.736	1136.38
430.958	1097.38
431.18	1083.38
431.402	1094.38
431.624	1089.38
431.846	1057.38
432.068	1024.38
432.29	1052.38
432.512	1062.38
432.734	1108.38
432.956	1065.38
433.178	1110.38
433.4	1090.38
433.622	1085.38
433.844	1126.38
434.066	1092.38
434.287	1065.38
434.509	1077.38
434.731	1091.38
434.953	1130.38
435.175	1160.38
435.397	1137.38
435.618	1099.38
435.84	1059.38
436.062	1091.38
436.284	1061.38
436.505	1084.38
436.727	1107.38
436.949	1077.38
437.17	1077.38
437.392	1062.38
437.614	1027.38
437.835	1039.38
438.057	1018.38
438.278	1027.38
438.5	1027.38
438.721	1060.38
438.943	1074.38
439.165	1092.38
439.386	1120.38
439.608	1125.38
439.829	1096.38
440.05	1160.38
440.272	1129.38
440.493	1115.38
440.715	1120.38
440.936	1119.38
441.158	1117.38
441.379	1152.38
441.6	1198.38
441.822	1179.38
442.043	1217.38
442.264	1240.38
442.486	1200.38
442.707	1175.38
442.928	1175.38
443.149	1158.38
443.371	1168.38
443.592	1169.38
443.813	1190.38
444.034	1178.38
444.255	1177.38
444.476	1211.38
444.698	1220.38
444.919	1252.38
445.14	1315.38
445.361	1239.38
445.582	1207.38
445.803	1186.38
446.024	1176.38
446.245	1187.38
446.466	1172.38
446.687	1116.38
446.908	1153.38
447.129	1124.38
447.35	1117.38
447.571	1114.38
447.792	1078.38
448.013	1099.38
448.234	1047.38
448.455	1119.38
448.675	1078.38
448.896	1102.38
449.117	1100.38
449.338	1166.38
449.559	1223.38
449.779	1117.38
450	1087.38
450.221	1016.38
450.442	1040.38
450.662	1036.38
450.883	1023.38
451.104	1060.38
451.324	1045.38
451.545	1048.38
451.766	1045.38
451.986	1078.38
452.207	1108.38
452.428	1245.38
452.648	1594.38
452.869	1438.38
453.089	1148.38
453.31	1126.38
453.53	1117.38
453.751	1126.38
453.971	1189.38
454.192	1147.38
454.412	1057.38
454.633	1015.38
454.853	1015.38
455.073	995.38
455.294	989.38
455.514	978.38
455.734	960.38
455.955	978.38
456.175	1009.38
456.395	999.38
456.616	996.38
456.836	1021.38
457.056	1028.38
457.276	965.38
457.497	1032.38
457.717	1061.38
457.937	1047.38
458.157	1034.38
458.377	1056.38
458.598	1049.38
458.818	1060.38
459.038	1060.38
459.258	1074.38
459.478	1067.38
459.698	1084.38
459.918	1112.38
460.138	1133.38
460.358	1127.38
460.578	1177.38
460.798	1189.38
461.018	1166.38
461.238	1199.38
461.458	1210.38
461.678	1196.38
461.898	1257.38
462.118	1202.38
462.338	1260.38
462.558	1272.38
462.777	1246.38
462.997	1304.38
463.217	1358.38
463.437	1390.38
463.657	1370.38
463.876	1366.38
464.096	1308.38
464.316	1274.38
464.536	1285.38
464.755	1236.38
464.975	1202.38
465.195	1200.38
465.414	1190.38
465.634	1128.38
465.854	1112.38
466.073	1083.38
466.293	1083.38
466.512	1099.38
466.732	1110.38
466.951	1133.38
467.171	1156.38
467.391	1164.38
467.61	1110.38
467.829	1121.38
468.049	1062.38
468.268	1064.38
468.488	1061.38
468.707	1087.38
468.927	1093.38
469.146	1093.38
469.365	1075.38
469.585	1084.38
469.804	1113.38
470.023	1112.38
470.243	1111.38
470.462	1142.38
470.681	1215.38
470.901	1305.38
471.12	1427.38
471.339	1388.38
471.558	1234.38
471.777	1168.38
471.997	1132.38
472.216	1093.38
472.435	1101.38
472.654	1063.38
472.873	1060.38
473.092	1082.38
473.311	1103.38
473.53	1079.38
473.749	1101.38
473.968	1102.38
474.187	1113.38
474.406	1067.38
474.625	1102.38
474.844	1094.38
475.063	1085.38
475.282	1088.38
475.501	1077.38
475.72	1124.38
475.939	1099.38
476.158	1128.38
476.377	1125.38
476.596	1141.38
476.814	1121.38
477.033	1116.38
477.252	1140.38
477.471	1155.38
477.69	1172.38
477.908	1186.38
478.127	1246.38
478.346	1222.38
478.564	1222.38
478.783	1237.38
479.002	1243.38
479.22	1277.38
479.439	1287.38
479.658	1239.38
479.876	1277.38
480.095	1248.38
480.313	1336.38
480.532	1302.38
480.751	1328.38
480.969	1256.38
481.188	1237.38
481.406	1260.38
481.624	1225.38
481.843	1267.38
482.061	1283.38
482.28	1282.38
482.498	1266.38
482.717	1251.38
482.935	1268.38
483.153	1316.38
483.372	1336.38
483.59	1318.38
483.808	1322.38
484.027	1370.38
484.245	1392.38
484.463	1520.38
484.681	1635.38
484.9	1543.38
485.118	1460.38
485.336	1456.38
485.554	1501.38
485.772	1556.38
485.99	1673.38
486.209	1769.38
486.427	1561.38
486.645	1451.38
486.863	1416.38
487.081	1373.38
487.299	1378.38
487.517	1392.38
487.735	1376.38
487.953	1406.38
488.171	1399.38
488.389	1364.38
488.607	1347.38
488.825	1285.38
489.043	1299.38
489.261	1330.38
489.479	1304.38
489.696	1350.38
489.914	1314.38
490.132	1352.38
490.35	1361.38
490.568	1357.38
490.786	1369.38
491.003	1371.38
491.221	1420.38
491.439	1430.38
491.657	1393.38
491.874	1454.38
492.092	1440.38
492.31	1485.38
492.527	1493.38
492.745	1445.38
492.963	1411.38
493.18	1445.38
493.398	1434.38
493.615	1427.38
493.833	1431.38
494.05	1443.38
494.268	1433.38
494.485	1442.38
494.703	1374.38
494.92	1408.38
495.138	1376.38
495.355	1420.38
495.573	1460.38
495.79	1443.38
496.008	1422.38
496.225	1429.38
496.442	1490.38
496.66	1494.38
496.877	1488.38
497.094	1547.38
497.312	1518.38
497.529	1512.38
497.746	1560.38
497.963	1543.38
498.181	1580.38
498.398	1589.38
498.615	1665.38
498.832	1698.38
499.049	1798.38
499.267	1891.38
499.484	1981.38
499.701	2046.38
499.918	2102.38
500.135	2279.38
500.352	2392.38
500.569	2439.38
500.786	2408.38
501.003	2326.38
501.22	2248.38
501.437	2087.38
501.654	1968.38
501.871	1885.38
502.088	1775.38
502.305	1694.38
502.522	1644.38
502.739	1652.38
502.956	1583.38
503.172	1542.38
503.389	1506.38
503.606	1477.38
503.823	1428.38
504.04	1438.38
504.256	1430.38
504.473	1474.38
504.69	1472.38
504.907	1425.38
505.123	1392.38
505.34	1364.38
505.557	1342.38
505.773	1290.38
505.99	1292.38
506.207	1296.38
506.423	1269.38
506.64	1265.38
506.856	1243.38
507.073	1241.38
507.289	1270.38
507.506	1239.38
507.722	1229.38
507.939	1241.38
508.155	1250.38
508.372	1229.38
508.588	1236.38
508.805	1150.38
509.021	1193.38
509.238	1244.38
509.454	1246.38
509.67	1294.38
509.887	1241.38
510.103	1227.38
510.319	1206.38
510.536	1227.38
510.752	1188.38
510.968	1172.38
511.184	1147.38
511.401	1170.38
511.617	1146.38
511.833	1187.38
512.049	1176.38
512.265	1138.38
512.481	1142.38
512.698	1128.38
512.914	1147.38
513.13	1140.38
513.346	1159.38
513.562	1148.38
513.778	1143.38
513.994	1163.38
514.21	1194.38
514.426	1207.38
514.642	1249.38
514.858	1213.38
515.074	1189.38
515.29	1157.38
515.506	1179.38
515.721	1159.38
515.937	1170.38
516.153	1202.38
516.369	1210.38
516.585	1206.38
516.801	1242.38
517.016	1252.38
517.232	1250.38
517.448	1278.38
517.664	1322.38
517.879	1329.38
518.095	1284.38
518.311	1316.38
518.527	1290.38
518.742	1290.38
518.958	1301.38
519.173	1278.38
519.389	1225.38
519.605	1224.38
519.82	1180.38
520.036	1168.38
520.251	1194.38
520.467	1158.38
520.682	1159.38
520.898	1131.38
521.113	1125.38
521.329	1141.38
521.544	1125.38
521.76	1150.38
521.975	1136.38
522.19	1138.38
522.406	1079.38
522.621	1103.38
522.836	1099.38
523.052	1114.38
523.267	1148.38
523.482	1116.38
523.698	1132.38
523.913	1099.38
524.128	1124.38
524.343	1140.38
524.559	1115.38
524.774	1108.38
524.989	1116.38
525.204	1115.38
525.419	1082.38
525.634	1086.38
525.849	1109.38
526.064	1120.38
526.28	1111.38
526.495	1094.38
526.71	1101.38
526.925	1118.38
527.14	1116.38
527.355	1126.38
527.57	1121.38
527.785	1104.38
527.999	1111.38
528.214	1118.38
528.429	1162.38
528.644	1115.38
528.859	1158.38
529.074	1187.38
529.289	1193.38
529.503	1221.38
529.718	1203.38
529.933	1156.38
530.148	1183.38
530.363	1212.38
530.577	1166.38
530.792	1180.38
531.007	1186.38
531.221	1182.38
531.436	1192.38
531.651	1167.38
531.865	1213.38
532.08	1223.38
532.295	1256.38
532.509	1304.38
532.724	1267.38
532.938	1282.38
533.153	1344.38
533.367	1357.38
533.582	1426.38
533.796	1443.38
534.011	1385.38
534.225	1356.38
534.44	1290.38
534.654	1333.38
534.868	1284.38
535.083	1309.38
535.297	1244.38
535.511	1243.38
535.726	1220.38
535.94	1228.38
536.154	1203.38
536.369	1202.38
536.583	1187.38
536.797	1158.38
537.011	1157.38
537.225	1158.38
537.44	1151.38
537.654	1136.38
537.868	1125.38
538.082	1131.38
538.296	1101.38
538.51	1096.38
538.724	1104.38
538.938	1136.38
539.153	1118.38
539.367	1108.38
539.581	1089.38
539.795	1089.38
540.009	1057.38
540.222	1091.38
540.436	1072.38
540.65	1058.38
540.864	1044.38
541.078	1105.38
541.292	1140.38
541.506	1308.38
541.72	1341.38
541.934	1239.38
542.147	1206.38
542.361	1166.38
542.575	1103.38
542.789	1082.38
543.002	1061.38
543.216	1052.38
543.43	1033.38
543.644	1042.38
543.857	1065.38
544.071	1090.38
544.285	1063.38
544.498	1087.38
544.712	1076.38
544.925	1110.38
545.139	1076.38
545.352	1073.38
545.566	1102.38
545.779	1092.38
545.993	1104.38
546.206	1152.38
546.42	1082.38
546.633	1108.38
546.847	1107.38
547.06	1116.38
547.274	1094.38
547.487	1085.38
547.7	1086.38
547.914	1081.38
548.127	1095.38
548.34	1114.38
548.554	1130.38
548.767	1107.38
548.98	1083.38
549.193	1077.38
549.407	1082.38
549.62	1090.38
549.833	1121.38
550.046	1102.38
550.259	1083.38
550.473	1096.38
550.686	1088.38
550.899	1100.38
551.112	1069.38
551.325	1092.38
551.538	1090.38
551.751	1054.38
551.964	1045.38
552.177	1073.38
552.39	1101.38
552.603	1138.38
552.816	1148.38
553.029	1180.38
553.242	1164.38
553.455	1167.38
553.667	1172.38
553.88	1184.38
554.093	1191.38
554.306	1185.38
554.519	1187.38
554.732	1218.38
554.944	1252.38
555.157	1217.38
555.37	1260.38
555.583	1271.38
555.795	1324.38
556.008	1386.38
556.221	1454.38
556.433	1544.38
556.646	1548.38
556.859	1490.38
557.071	1474.38
557.284	1443.38
557.496	1421.38
557.709	1430.38
557.921	1445.38
558.134	1403.38
558.346	1420.38
558.559	1469.38
558.771	1515.38
558.984	1572.38
559.196	1627.38
559.409	1660.38
559.621	1528.38
559.833	1474.38
560.046	1427.38
560.258	1346.38
560.47	1322.38
560.683	1274.38
560.895	1234.38
561.107	1194.38
561.32	1196.38
561.532	1144.38
561.744	1133.38
561.956	1105.38
562.168	1127.38
562.381	1113.38
562.593	1082.38
562.805	1123.38
563.017	1075.38
563.229	1084.38
563.441	1168.38
563.653	1057.38
563.865	1016.38
564.077	1020.38
564.289	984.38
564.501	1013.38
564.713	1010.38
564.925	994.38
565.137	992.38
565.349	1007.38
565.561	1011.38
565.773	1014.38
565.985	1028.38
566.197	1018.38
566.408	1039.38
566.62	1076.38
566.832	1088.38
567.044	1105.38
567.255	1074.38
567.467	1127.38
567.679	1143.38
567.891	1172.38
568.102	1289.38
568.314	1418.38
568.526	1264.38
568.737	1110.38
568.949	1036.38
569.161	946.38
569.372	912.38
569.584	908.38
569.795	897.38
570.007	884.38
570.218	880.38
570.43	896.38
570.641	861.38
570.853	832.38
571.064	832.38
571.276	851.38
571.487	821.38
571.698	808.38
571.91	798.38
572.121	820.38
572.333	784.38
572.544	800.38
572.755	817.38
572.966	905.38
573.178	854.38
573.389	770.38
573.6	770.38
573.811	740.38
574.023	748.38
574.234	734.38
574.445	709.38
574.656	728.38
574.867	738.38
575.078	723.38
575.289	741.38
575.501	718.38
575.712	745.38
575.923	726.38
576.134	728.38
576.345	721.38
576.556	747.38
576.767	711.38
576.978	735.38
577.188	740.38
577.399	732.38
577.61	731.38
577.821	745.38
578.032	746.38
578.243	709.38
578.454	741.38
578.665	764.38
578.875	787.38
579.086	823.38
579.297	846.38
579.508	845.38
579.718	893.38
579.929	984.38
580.14	1070.38
580.35	1087.38
580.561	1066.38
580.772	1005.38
580.982	951.38
581.193	915.38
581.403	858.38
581.614	833.38
581.825	811.38
582.035	778.38
582.246	776.38
582.456	732.38
582.667	728.38
582.877	728.38
583.087	715.38
583.298	691.38
583.508	683.38
583.719	659.38
583.929	653.38
584.139	625.38
584.35	622.38
584.56	624.38
584.77	641.38
584.981	617.38
585.191	596.38
585.401	600.38
585.611	593.38
585.821	586.38
586.032	601.38
586.242	588.38
586.452	580.38
586.662	553.38
586.872	564.38
587.082	569.38
587.292	570.38
587.502	576.38
587.713	537.38
587.923	548.38
588.133	550.38
588.343	555.38
588.553	554.38
588.762	530.38
588.972	545.38
589.182	525.38
589.392	544.38
589.602	552.38
589.812	532.38
590.022	528.38
590.232	530.38
590.441	508.38
590.651	514.38
590.861	526.38
591.071	509.38
591.281	530.38
591.49	538.38
591.7	527.38
591.91	523.38
592.119	528.38
592.329	537.38
592.539	530.38
592.748	548.38
592.958	562.38
593.167	523.38
593.377	550.38
593.587	548.38
593.796	555.38
594.006	531.38
594.215	541.38
594.424	550.38
594.634	562.38
594.843	522.38
595.053	510.38
595.262	524.38
595.472	521.38
595.681	496.38
595.89	512.38
596.1	484.38
596.309	476.38
596.518	472.38
596.727	470.38
596.937	465.38
597.146	451.38
597.355	453.38
597.564	459.38
597.774	445.38
597.983	435.38
598.192	442.38
598.401	456.38
598.61	449.38
598.819	441.38
599.028	440.38
599.237	453.38
599.446	438.38
599.655	433.38
599.864	425.38
600.073	422.38
600.282	418.38
600.491	438.38
600.7	428.38
600.909	412.38
601.118	420.38
601.327	443.38
601.536	430.38
601.745	445.38
601.953	470.38
602.162	516.38
602.371	449.38
602.58	448.38
602.789	438.38
602.997	442.38
603.206	437.38
603.415	445.38
603.623	424.38
603.832	434.38
604.041	429.38
604.249	393.38
604.458	414.38
604.666	382.38
604.875	397.38
605.084	388.38
605.292	421.38
605.501	424.38
605.709	434.38
605.918	432.38
606.126	411.38
606.334	422.38
606.543	425.38
606.751	454.38
606.96	478.38
607.168	501.38
607.376	458.38
607.585	443.38
607.793	436.38
608.001	432.38
608.21	395.38
608.418	421.38
608.626	421.38
608.834	415.38
609.043	381.38
609.251	409.38
609.459	404.38
609.667	393.38
609.875	395.38
610.083	406.38
610.291	384.38
610.499	392.38
610.707	405.38
610.916	400.38
611.124	385.38
611.332	403.38
611.54	398.38
611.748	389.38
611.955	386.38
612.163	406.38
612.371	402.38
612.579	394.38
612.787	375.38
612.995	348.38
613.203	378.38
613.411	390.38
613.618	377.38
613.826	392.38
614.034	374.38
614.242	400.38
614.449	385.38
614.657	396.38
614.865	363.38
615.072	384.38
615.28	398.38
615.488	376.38
615.695	361.38
615.903	368.38
616.111	386.38
616.318	399.38
616.526	383.38
616.733	375.38
616.941	371.38
617.148	360.38
617.356	372.38
617.563	381.38
617.771	395.38
617.978	352.38
618.185	384.38
618.393	372.38
618.6	381.38
618.807	364.38
619.015	384.38
619.222	364.38
619.429	372.38
619.637	365.38
619.844	364.38
620.051	354.38
620.258	347.38
620.466	343.38
620.673	321.38
620.88	363.38
621.087	342.38
621.294	320.38
621.501	349.38
621.708	351.38
621.915	338.38
622.122	342.38
622.329	336.38
622.536	353.38
622.743	357.38
622.95	341.38
623.157	332.38
623.364	358.38
623.571	331.38
623.778	334.38
623.985	332.38
624.192	343.38
624.399	330.38
624.606	327.38
624.812	328.38
625.019	326.38
625.226	332.38
625.433	326.38
625.639	316.38
625.846	300.38
626.053	324.38
626.259	326.38
626.466	325.38
626.673	295.38
626.879	312.38
627.086	291.38
627.293	324.38
627.499	333.38
627.706	323.38
627.912	312.38
628.119	316.38
628.325	324.38
628.532	314.38
628.738	315.38
628.945	323.38
629.151	329.38
629.357	317.38
629.564	300.38
629.77	297.38
629.976	285.38
630.183	292.38
630.389	315.38
630.595	296.38
630.802	318.38
631.008	313.38
631.214	301.38
631.42	320.38
631.627	306.38
631.833	310.38
632.039	285.38
632.245	300.38
632.451	298.38
632.657	318.38
632.863	293.38
633.069	294.38
633.275	304.38
633.481	284.38
633.688	294.38
633.893	311.38
634.099	292.38
634.305	294.38
634.511	296.38
634.717	291.38
634.923	329.38
635.129	331.38
635.335	359.38
635.541	307.38
635.747	304.38
635.952	300.38
636.158	295.38
636.364	282.38
636.57	310.38
636.775	302.38
636.981	288.38
637.187	295.38
637.392	310.38
637.598	287.38
637.804	303.38
638.009	268.38
638.215	304.38
638.421	287.38
638.626	295.38
638.832	298.38
639.037	299.38
639.243	296.38
639.448	306.38
639.654	296.38
639.859	265.38
640.065	314.38
640.27	309.38
640.475	315.38
640.681	301.38
640.886	311.38
641.091	317.38
641.297	312.38
641.502	323.38
641.707	315.38
641.913	300.38
642.118	338.38
642.323	339.38
642.528	339.38
642.733	334.38
642.939	320.38
643.144	353.38
643.349	336.38
643.554	355.38
643.759	362.38
643.964	392.38
644.169	371.38
644.374	398.38
644.579	443.38
644.784	460.38
644.989	532.38
645.194	572.38
645.399	642.38
645.604	672.38
645.809	550.38
646.014	467.38
646.219	410.38
646.423	376.38
646.628	343.38
646.833	332.38
647.038	338.38
647.243	312.38
647.447	306.38
647.652	307.38
647.857	306.38
648.062	282.38
648.266	278.38
648.471	276.38
648.676	264.38
648.88	250.38
649.085	271.38
649.289	262.38
649.494	269.38
649.698	284.38
649.903	242.38
650.107	258.38
650.312	236.38
650.516	248.38
650.721	237.38
650.925	238.38
651.13	253.38
651.334	252.38
651.539	234.38
651.743	227.38
651.947	223.38
652.152	219.38
652.356	210.38
652.56	220.38
652.764	268.38
652.969	247.38
653.173	221.38
653.377	218.38
653.581	223.38
653.785	203.38
653.99	205.38
654.194	203.38
654.398	182.38
654.602	215.38
654.806	189.38
655.01	209.38
655.214	209.38
655.418	214.38
655.622	190.38
655.826	189.38
656.03	214.38
656.234	210.38
656.438	217.38
656.642	220.38
656.846	217.38
657.049	213.38
657.253	180.38
657.457	180.38
657.661	154.38
657.865	165.38
658.068	165.38
658.272	175.38
658.476	146.38
658.68	142.38
658.883	134.38
659.087	148.38
659.291	125.38
659.494	123.38
659.698	127.38
659.901	132.38
660.105	129.38
660.309	132.38
660.512	115.38
660.716	127.38
660.919	123.38
661.123	124.38
661.326	110.38
661.53	100.38
661.733	114.38
661.936	99.38
662.14	104.38
662.343	100.38
662.546	100.38
662.75	89.38
662.953	103.38
663.156	84.38
663.36	90.38
663.563	99.38
663.766	89.38
663.969	91.38
664.173	101.38
664.376	92.38
664.579	101.38
664.782	77.38
664.985	85.38
665.188	85.38
665.391	102.38
665.594	97.38
665.797	82.38
666	79.38
666.203	85.38
666.406	99.38
666.609	90.38
666.812	103.38
667.015	84.38
667.218	94.38
667.421	81.38
667.624	78.38
667.827	82.38
668.03	78.38
668.232	91.38
668.435	84.38
668.638	72.38
668.841	85.38
669.043	80.38
669.246	85.38
669.449	81.38
669.651	70.38
669.854	86.38
670.057	64.38
670.259	77.38
670.462	75.38
670.665	72.38
670.867	78.38
671.07	89.38
671.272	73.38
671.475	86.38
671.677	88.38
671.88	83.38
672.082	86.38
672.284	87.38
672.487	86.38
672.689	84.38
672.892	87.38
