Data from SnStandardFlinnAPT0064_QswitchEnergy10_LIBS07252019.E.O._I.C._HRD10591_15-28-59-974.txt Node
Date: Thu Jul 25 15:28:59 EDT 2019
User: cochatt
Spectrometer: HR+D1059
Trigger mode: 1
Integration Time (sec): 1.000000E-1
Scans to average: 1
Electric dark correction enabled: true
Nonlinearity correction enabled: false
Boxcar width: 0
XAxis mode: Wavelengths
Number of Pixels in Spectrum: 2048
>>>>>Begin Spectral Data<<<<<
223.165	-16.94
223.4	-16.94
223.635	-16.94
223.869	-12.94
224.104	-25.94
224.338	-11.94
224.573	-16.94
224.808	-0.94
225.042	-8.94
225.277	-6.94
225.511	3.06
225.746	-4.94
225.98	1.06
226.215	12.06
226.449	20.06
226.683	27.06
226.918	21.06
227.152	22.06
227.387	38.06
227.621	39.06
227.856	49.06
228.09	49.06
228.324	39.06
228.559	53.06
228.793	48.06
229.027	61.06
229.262	83.06
229.496	72.06
229.73	76.06
229.964	72.06
230.199	90.06
230.433	62.06
230.667	73.06
230.901	79.06
231.136	83.06
231.37	89.06
231.604	88.06
231.838	98.06
232.072	121.06
232.306	127.06
232.541	98.06
232.775	94.06
233.009	88.06
233.243	91.06
233.477	82.06
233.711	92.06
233.945	116.06
234.179	102.06
234.413	84.06
234.647	79.06
234.881	95.06
235.115	85.06
235.349	90.06
235.583	106.06
235.817	124.06
236.051	129.06
236.285	100.06
236.519	77.06
236.753	95.06
236.987	87.06
237.221	92.06
237.455	83.06
237.689	85.06
237.922	80.06
238.156	73.06
238.39	98.06
238.624	85.06
238.858	77.06
239.091	70.06
239.325	78.06
239.559	81.06
239.793	92.06
240.027	87.06
240.26	76.06
240.494	70.06
240.728	90.06
240.961	90.06
241.195	92.06
241.429	90.06
241.662	66.06
241.896	116.06
242.13	107.06
242.363	133.06
242.597	172.06
242.83	157.06
243.064	143.06
243.298	197.06
243.531	173.06
243.765	104.06
243.998	93.06
244.232	65.06
244.465	83.06
244.699	75.06
244.932	90.06
245.166	74.06
245.399	82.06
245.633	92.06
245.866	105.06
246.099	86.06
246.333	87.06
246.566	88.06
246.8	68.06
247.033	72.06
247.266	75.06
247.5	77.06
247.733	94.06
247.966	86.06
248.2	91.06
248.433	114.06
248.666	146.06
248.899	111.06
249.133	85.06
249.366	91.06
249.599	111.06
249.832	136.06
250.066	141.06
250.299	101.06
250.532	81.06
250.765	86.06
250.998	80.06
251.231	83.06
251.465	76.06
251.698	81.06
251.931	84.06
252.164	78.06
252.397	98.06
252.63	108.06
252.863	96.06
253.096	95.06
253.329	90.06
253.562	116.06
253.795	74.06
254.028	97.06
254.261	77.06
254.494	92.06
254.727	127.06
254.96	163.06
255.193	135.06
255.426	110.06
255.659	94.06
255.892	87.06
256.124	104.06
256.357	91.06
256.59	96.06
256.823	99.06
257.056	113.06
257.289	149.06
257.521	201.06
257.754	123.06
257.987	95.06
258.22	103.06
258.452	87.06
258.685	84.06
258.918	88.06
259.151	97.06
259.383	108.06
259.616	137.06
259.849	167.06
260.081	118.06
260.314	89.06
260.547	93.06
260.779	86.06
261.012	89.06
261.244	81.06
261.477	97.06
261.71	96.06
261.942	87.06
262.175	89.06
262.407	72.06
262.64	97.06
262.872	98.06
263.105	95.06
263.337	93.06
263.57	92.06
263.802	91.06
264.035	87.06
264.267	99.06
264.499	95.06
264.732	83.06
264.964	89.06
265.197	87.06
265.429	81.06
265.661	96.06
265.894	95.06
266.126	145.06
266.358	161.06
266.591	162.06
266.823	106.06
267.055	89.06
267.287	87.06
267.52	87.06
267.752	74.06
267.984	87.06
268.216	86.06
268.448	87.06
268.681	94.06
268.913	100.06
269.145	84.06
269.377	89.06
269.609	84.06
269.841	107.06
270.073	111.06
270.306	137.06
270.538	203.06
270.77	344.06
271.002	413.06
271.234	227.06
271.466	117.06
271.698	109.06
271.93	91.06
272.162	96.06
272.394	81.06
272.626	83.06
272.858	88.06
273.09	89.06
273.322	79.06
273.553	78.06
273.785	91.06
274.017	83.06
274.249	92.06
274.481	99.06
274.713	93.06
274.945	75.06
275.176	87.06
275.408	103.06
275.64	99.06
275.872	91.06
276.104	83.06
276.335	105.06
276.567	101.06
276.799	98.06
277.031	99.06
277.262	98.06
277.494	104.06
277.726	134.06
277.957	195.06
278.189	277.06
278.421	265.06
278.652	219.06
278.884	208.06
279.115	157.06
279.347	118.06
279.579	109.06
279.81	97.06
280.042	102.06
280.273	118.06
280.505	102.06
280.736	103.06
280.968	123.06
281.199	180.06
281.431	283.06
281.662	293.06
281.894	159.06
282.125	125.06
282.356	125.06
282.588	114.06
282.819	128.06
283.051	125.06
283.282	151.06
283.513	211.06
283.745	339.06
283.976	605.06
284.207	889.06
284.439	677.06
284.67	295.06
284.901	293.06
285.132	387.06
285.364	443.06
285.595	250.06
285.826	183.06
286.057	268.06
286.288	452.06
286.52	683.06
286.751	559.06
286.982	210.06
287.213	133.06
287.444	117.06
287.675	100.06
287.906	91.06
288.138	100.06
288.369	97.06
288.6	85.06
288.831	104.06
289.062	85.06
289.293	101.06
289.524	93.06
289.755	84.06
289.986	93.06
290.217	95.06
290.448	117.06
290.679	112.06
290.91	132.06
291.141	192.06
291.371	246.06
291.602	319.06
291.833	225.06
292.064	141.06
292.295	102.06
292.526	96.06
292.757	96.06
292.987	100.06
293.218	94.06
293.449	103.06
293.68	96.06
293.91	100.06
294.141	93.06
294.372	109.06
294.603	95.06
294.833	96.06
295.064	104.06
295.295	105.06
295.525	85.06
295.756	84.06
295.987	91.06
296.217	92.06
296.448	95.06
296.679	99.06
296.909	106.06
297.14	113.06
297.37	111.06
297.601	116.06
297.831	102.06
298.062	100.06
298.292	107.06
298.523	93.06
298.753	105.06
298.984	112.06
299.214	106.06
299.445	127.06
299.675	137.06
299.905	125.06
300.136	140.06
300.366	188.06
300.597	304.06
300.827	505.06
301.057	791.06
301.288	711.06
301.518	283.06
301.748	175.06
301.979	149.06
302.209	142.06
302.439	157.06
302.669	183.06
302.9	310.06
303.13	544.06
303.36	1008.06
303.59	1406.06
303.82	969.06
304.051	307.06
304.281	175.06
304.511	131.06
304.741	118.06
304.971	125.06
305.201	124.06
305.431	115.06
305.661	103.06
305.891	113.06
306.121	113.06
306.352	121.06
306.582	120.06
306.812	113.06
307.042	121.06
307.272	98.06
307.502	115.06
307.731	116.06
307.961	117.06
308.191	96.06
308.421	103.06
308.651	95.06
308.881	99.06
309.111	107.06
309.341	103.06
309.571	114.06
309.8	121.06
310.03	113.06
310.26	104.06
310.49	125.06
310.72	120.06
310.949	121.06
311.179	126.06
311.409	115.06
311.639	125.06
311.868	107.06
312.098	101.06
312.328	114.06
312.557	116.06
312.787	123.06
313.017	118.06
313.246	124.06
313.476	116.06
313.706	132.06
313.935	169.06
314.165	215.06
314.394	259.06
314.624	201.06
314.853	143.06
315.083	132.06
315.312	145.06
315.542	124.06
315.771	145.06
316.001	143.06
316.23	151.06
316.46	166.06
316.689	183.06
316.919	290.06
317.148	556.06
317.377	1045.06
317.607	1650.06
317.836	1555.06
318.065	596.06
318.295	243.06
318.524	169.06
318.753	142.06
318.983	139.06
319.212	129.06
319.441	132.06
319.67	121.06
319.9	120.06
320.129	112.06
320.358	130.06
320.587	117.06
320.816	125.06
321.046	131.06
321.275	149.06
321.504	140.06
321.733	149.06
321.962	169.06
322.191	183.06
322.42	150.06
322.649	134.06
322.878	141.06
323.108	124.06
323.337	127.06
323.566	130.06
323.795	153.06
324.024	152.06
324.253	164.06
324.482	193.06
324.71	245.06
324.939	299.06
325.168	256.06
325.397	211.06
325.626	291.06
325.855	561.06
326.084	1101.06
326.313	1793.06
326.542	1767.06
326.77	683.06
326.999	292.06
327.228	247.06
327.457	251.06
327.686	239.06
327.914	173.06
328.143	152.06
328.372	131.06
328.6	135.06
328.829	135.06
329.058	130.06
329.287	124.06
329.515	116.06
329.744	140.06
329.972	117.06
330.201	122.06
330.43	117.06
330.658	125.06
330.887	123.06
331.115	124.06
331.344	131.06
331.572	133.06
331.801	129.06
332.03	138.06
332.258	133.06
332.486	196.06
332.715	323.06
332.943	567.06
333.172	866.06
333.4	726.06
333.629	291.06
333.857	159.06
334.085	133.06
334.314	120.06
334.542	107.06
334.771	124.06
334.999	135.06
335.227	128.06
335.455	134.06
335.684	123.06
335.912	123.06
336.14	108.06
336.369	129.06
336.597	119.06
336.825	116.06
337.053	126.06
337.281	116.06
337.51	113.06
337.738	130.06
337.966	113.06
338.194	115.06
338.422	106.06
338.65	123.06
338.878	109.06
339.106	127.06
339.334	132.06
339.562	129.06
339.79	123.06
340.018	123.06
340.246	130.06
340.474	126.06
340.702	133.06
340.93	117.06
341.158	124.06
341.386	117.06
341.614	125.06
341.842	124.06
342.07	107.06
342.298	115.06
342.526	120.06
342.754	111.06
342.981	124.06
343.209	122.06
343.437	124.06
343.665	106.06
343.893	112.06
344.12	130.06
344.348	119.06
344.576	130.06
344.804	121.06
345.031	113.06
345.259	115.06
345.487	117.06
345.714	116.06
345.942	120.06
346.17	104.06
346.397	116.06
346.625	115.06
346.853	111.06
347.08	117.06
347.308	124.06
347.535	96.06
347.763	118.06
347.99	108.06
348.218	112.06
348.445	119.06
348.673	124.06
348.9	116.06
349.128	136.06
349.355	135.06
349.583	132.06
349.81	123.06
350.037	133.06
350.265	125.06
350.492	123.06
350.72	109.06
350.947	125.06
351.174	120.06
351.402	115.06
351.629	119.06
351.856	139.06
352.083	107.06
352.311	133.06
352.538	133.06
352.765	122.06
352.992	103.06
353.22	117.06
353.447	97.06
353.674	111.06
353.901	109.06
354.128	120.06
354.355	109.06
354.583	117.06
354.81	106.06
355.037	105.06
355.264	123.06
355.491	102.06
355.718	109.06
355.945	103.06
356.172	112.06
356.399	104.06
356.626	119.06
356.853	115.06
357.08	116.06
357.307	111.06
357.534	103.06
357.761	125.06
357.988	123.06
358.215	113.06
358.441	121.06
358.668	121.06
358.895	124.06
359.122	132.06
359.349	122.06
359.576	103.06
359.802	127.06
360.029	134.06
360.256	126.06
360.483	121.06
360.709	114.06
360.936	116.06
361.163	114.06
361.39	109.06
361.616	100.06
361.843	112.06
362.07	128.06
362.296	117.06
362.523	109.06
362.749	105.06
362.976	95.06
363.203	124.06
363.429	112.06
363.656	103.06
363.882	115.06
364.109	120.06
364.335	122.06
364.562	117.06
364.788	114.06
365.015	113.06
365.241	149.06
365.468	202.06
365.694	292.06
365.92	225.06
366.147	129.06
366.373	106.06
366.599	105.06
366.826	100.06
367.052	100.06
367.278	106.06
367.505	97.06
367.731	102.06
367.957	108.06
368.184	107.06
368.41	128.06
368.636	123.06
368.862	118.06
369.089	107.06
369.315	103.06
369.541	130.06
369.767	120.06
369.993	107.06
370.219	111.06
370.445	89.06
370.672	119.06
370.898	130.06
371.124	104.06
371.35	113.06
371.576	104.06
371.802	99.06
372.028	127.06
372.254	124.06
372.48	125.06
372.706	125.06
372.932	122.06
373.158	112.06
373.384	129.06
373.61	120.06
373.835	126.06
374.061	129.06
374.287	119.06
374.513	111.06
374.739	121.06
374.965	117.06
375.191	115.06
375.416	105.06
375.642	109.06
375.868	123.06
376.094	111.06
376.319	103.06
376.545	93.06
376.771	113.06
376.997	114.06
377.222	100.06
377.448	113.06
377.674	111.06
377.899	112.06
378.125	113.06
378.35	109.06
378.576	116.06
378.802	126.06
379.027	121.06
379.253	147.06
379.478	195.06
379.704	348.06
379.929	868.06
380.155	1785.06
380.38	1878.06
380.606	575.06
380.831	208.06
381.057	143.06
381.282	112.06
381.507	100.06
381.733	108.06
381.958	120.06
382.184	118.06
382.409	119.06
382.634	107.06
382.86	107.06
383.085	107.06
383.31	109.06
383.535	132.06
383.761	104.06
383.986	107.06
384.211	109.06
384.436	131.06
384.662	109.06
384.887	100.06
385.112	112.06
385.337	100.06
385.562	120.06
385.787	102.06
386.013	129.06
386.238	117.06
386.463	114.06
386.688	105.06
386.913	106.06
387.138	101.06
387.363	117.06
387.588	104.06
387.813	119.06
388.038	124.06
388.263	114.06
388.488	107.06
388.713	125.06
388.938	121.06
389.163	117.06
389.387	109.06
389.612	111.06
389.837	106.06
390.062	90.06
390.287	128.06
390.512	101.06
390.736	113.06
390.961	111.06
391.186	104.06
391.411	101.06
391.636	103.06
391.86	113.06
392.085	111.06
392.31	111.06
392.534	103.06
392.759	112.06
392.984	97.06
393.208	123.06
393.433	164.06
393.658	166.06
393.882	112.06
394.107	107.06
394.331	99.06
394.556	99.06
394.78	111.06
395.005	97.06
395.229	105.06
395.454	112.06
395.678	101.06
395.903	101.06
396.127	103.06
396.352	105.06
396.576	103.06
396.801	123.06
397.025	138.06
397.249	125.06
397.474	105.06
397.698	112.06
397.922	92.06
398.147	131.06
398.371	96.06
398.595	111.06
398.82	95.06
399.044	95.06
399.268	97.06
399.492	92.06
399.717	108.06
399.941	108.06
400.165	96.06
400.389	108.06
400.613	91.06
400.837	80.06
401.062	103.06
401.286	99.06
401.51	97.06
401.734	112.06
401.958	102.06
402.182	80.06
402.406	88.06
402.63	105.06
402.854	92.06
403.078	101.06
403.302	105.06
403.526	103.06
403.75	100.06
403.974	89.06
404.198	91.06
404.422	85.06
404.645	95.06
404.869	104.06
405.093	92.06
405.317	94.06
405.541	112.06
405.765	142.06
405.988	160.06
406.212	125.06
406.436	117.06
406.66	112.06
406.883	100.06
407.107	96.06
407.331	107.06
407.555	98.06
407.778	104.06
408.002	110.06
408.226	107.06
408.449	102.06
408.673	108.06
408.896	100.06
409.12	113.06
409.344	109.06
409.567	106.06
409.791	105.06
410.014	108.06
410.238	108.06
410.461	113.06
410.685	100.06
410.908	111.06
411.132	100.06
411.355	112.06
411.578	107.06
411.802	111.06
412.025	109.06
412.249	98.06
412.472	105.06
412.695	105.06
412.919	112.06
413.142	93.06
413.365	103.06
413.589	111.06
413.812	107.06
414.035	115.06
414.258	109.06
414.482	107.06
414.705	108.06
414.928	123.06
415.151	96.06
415.374	93.06
415.597	99.06
415.821	111.06
416.044	101.06
416.267	110.06
416.49	108.06
416.713	103.06
416.936	85.06
417.159	102.06
417.382	107.06
417.605	103.06
417.828	88.06
418.051	97.06
418.274	106.06
418.497	104.06
418.72	96.06
418.943	108.06
419.166	105.06
419.389	108.06
419.611	122.06
419.834	108.06
420.057	108.06
420.28	105.06
420.503	111.06
420.726	121.06
420.948	97.06
421.171	103.06
421.394	108.06
421.617	100.06
421.839	89.06
422.062	104.06
422.285	104.06
422.507	112.06
422.73	122.06
422.953	144.06
423.175	129.06
423.398	96.06
423.621	88.06
423.843	98.06
424.066	105.06
424.288	101.06
424.511	112.06
424.733	101.06
424.956	95.06
425.178	91.06
425.401	93.06
425.623	99.06
425.846	105.06
426.068	107.06
426.291	97.06
426.513	92.06
426.735	98.06
426.958	100.06
427.18	98.06
427.402	106.06
427.625	88.06
427.847	101.06
428.069	90.06
428.292	99.06
428.514	116.06
428.736	111.06
428.958	85.06
429.181	111.06
429.403	80.06
429.625	91.06
429.847	109.06
430.069	106.06
430.292	114.06
430.514	107.06
430.736	103.06
430.958	101.06
431.18	95.06
431.402	105.06
431.624	112.06
431.846	91.06
432.068	83.06
432.29	107.06
432.512	98.06
432.734	82.06
432.956	91.06
433.178	93.06
433.4	88.06
433.622	99.06
433.844	105.06
434.066	113.06
434.287	107.06
434.509	97.06
434.731	94.06
434.953	107.06
435.175	96.06
435.397	99.06
435.618	99.06
435.84	114.06
436.062	102.06
436.284	99.06
436.505	93.06
436.727	97.06
436.949	95.06
437.17	98.06
437.392	104.06
437.614	102.06
437.835	104.06
438.057	90.06
438.278	104.06
438.5	109.06
438.721	98.06
438.943	113.06
439.165	125.06
439.386	120.06
439.608	103.06
439.829	113.06
440.05	116.06
440.272	131.06
440.493	111.06
440.715	93.06
440.936	99.06
441.158	89.06
441.379	97.06
441.6	99.06
441.822	104.06
442.043	103.06
442.264	149.06
442.486	111.06
442.707	93.06
442.928	99.06
443.149	114.06
443.371	100.06
443.592	104.06
443.813	120.06
444.034	99.06
444.255	102.06
444.476	98.06
444.698	95.06
444.919	98.06
445.14	172.06
445.361	137.06
445.582	104.06
445.803	105.06
446.024	101.06
446.245	86.06
446.466	101.06
446.687	119.06
446.908	105.06
447.129	104.06
447.35	107.06
447.571	106.06
447.792	112.06
448.013	101.06
448.234	108.06
448.455	103.06
448.675	112.06
448.896	101.06
449.117	116.06
449.338	141.06
449.559	160.06
449.779	122.06
450	108.06
450.221	103.06
450.442	105.06
450.662	137.06
450.883	107.06
451.104	126.06
451.324	143.06
451.545	124.06
451.766	127.06
451.986	149.06
452.207	229.06
452.428	633.06
452.648	1568.06
452.869	872.06
453.089	239.06
453.31	141.06
453.53	125.06
453.751	165.06
453.971	183.06
454.192	166.06
454.412	119.06
454.633	118.06
454.853	95.06
455.073	98.06
455.294	85.06
455.514	96.06
455.734	100.06
455.955	80.06
456.175	90.06
456.395	91.06
456.616	85.06
456.836	88.06
457.056	94.06
457.276	106.06
457.497	123.06
457.717	131.06
457.937	92.06
458.157	77.06
458.377	82.06
458.598	79.06
458.818	91.06
459.038	93.06
459.258	82.06
459.478	99.06
459.698	86.06
459.918	91.06
460.138	83.06
460.358	96.06
460.578	108.06
460.798	93.06
461.018	85.06
461.238	100.06
461.458	88.06
461.678	87.06
461.898	102.06
462.118	83.06
462.338	79.06
462.558	102.06
462.777	103.06
462.997	97.06
463.217	104.06
463.437	135.06
463.657	214.06
463.876	204.06
464.096	133.06
464.316	99.06
464.536	96.06
464.755	89.06
464.975	104.06
465.195	108.06
465.414	101.06
465.634	92.06
465.854	88.06
466.073	108.06
466.293	93.06
466.512	86.06
466.732	102.06
466.951	120.06
467.171	151.06
467.391	142.06
467.61	103.06
467.829	107.06
468.049	102.06
468.268	100.06
468.488	87.06
468.707	86.06
468.927	103.06
469.146	106.06
469.365	100.06
469.585	82.06
469.804	98.06
470.023	86.06
470.243	104.06
470.462	96.06
470.681	120.06
470.901	143.06
471.12	195.06
471.339	227.06
471.558	168.06
471.777	120.06
471.997	101.06
472.216	121.06
472.435	92.06
472.654	101.06
472.873	95.06
473.092	104.06
473.311	95.06
473.53	102.06
473.749	94.06
473.968	92.06
474.187	100.06
474.406	87.06
474.625	96.06
474.844	102.06
475.063	100.06
475.282	99.06
475.501	99.06
475.72	88.06
475.939	88.06
476.158	113.06
476.377	107.06
476.596	115.06
476.814	111.06
477.033	112.06
477.252	103.06
477.471	113.06
477.69	104.06
477.908	97.06
478.127	89.06
478.346	107.06
478.564	80.06
478.783	81.06
479.002	99.06
479.22	100.06
479.439	111.06
479.658	114.06
479.876	110.06
480.095	97.06
480.313	101.06
480.532	115.06
480.751	100.06
480.969	92.06
481.188	93.06
481.406	94.06
481.624	95.06
481.843	126.06
482.061	120.06
482.28	117.06
482.498	109.06
482.717	98.06
482.935	100.06
483.153	94.06
483.372	101.06
483.59	92.06
483.808	99.06
484.027	113.06
484.245	135.06
484.463	187.06
484.681	261.06
484.9	164.06
485.118	134.06
485.336	109.06
485.554	115.06
485.772	120.06
485.99	210.06
486.209	291.06
486.427	189.06
486.645	129.06
486.863	100.06
487.081	105.06
487.299	81.06
487.517	104.06
487.735	92.06
487.953	85.06
488.171	102.06
488.389	99.06
488.607	96.06
488.825	101.06
489.043	98.06
489.261	106.06
489.479	98.06
489.696	92.06
489.914	96.06
490.132	104.06
490.35	95.06
490.568	104.06
490.786	102.06
491.003	114.06
491.221	103.06
491.439	119.06
491.657	100.06
491.874	99.06
492.092	116.06
492.31	125.06
492.527	108.06
492.745	109.06
492.963	122.06
493.18	112.06
493.398	109.06
493.615	106.06
493.833	103.06
494.05	111.06
494.268	104.06
494.485	118.06
494.703	105.06
494.92	108.06
495.138	105.06
495.355	121.06
495.573	106.06
495.79	101.06
496.008	123.06
496.225	120.06
496.442	119.06
496.66	142.06
496.877	182.06
497.094	175.06
497.312	109.06
497.529	105.06
497.746	98.06
497.963	112.06
498.181	117.06
498.398	97.06
498.615	103.06
498.832	107.06
499.049	119.06
499.267	139.06
499.484	168.06
499.701	124.06
499.918	103.06
500.135	93.06
500.352	110.06
500.569	97.06
500.786	93.06
501.003	91.06
501.22	101.06
501.437	96.06
501.654	104.06
501.871	95.06
502.088	96.06
502.305	106.06
502.522	112.06
502.739	113.06
502.956	119.06
503.172	103.06
503.389	103.06
503.606	94.06
503.823	111.06
504.04	97.06
504.256	105.06
504.473	109.06
504.69	104.06
504.907	107.06
505.123	127.06
505.34	106.06
505.557	104.06
505.773	104.06
505.99	115.06
506.207	100.06
506.423	104.06
506.64	125.06
506.856	109.06
507.073	104.06
507.289	105.06
507.506	106.06
507.722	115.06
507.939	100.06
508.155	95.06
508.372	116.06
508.588	111.06
508.805	113.06
509.021	107.06
509.238	104.06
509.454	149.06
509.67	175.06
509.887	122.06
510.103	100.06
510.319	98.06
510.536	99.06
510.752	113.06
510.968	100.06
511.184	109.06
511.401	105.06
511.617	101.06
511.833	108.06
512.049	102.06
512.265	105.06
512.481	94.06
512.698	92.06
512.914	115.06
513.13	119.06
513.346	91.06
513.562	98.06
513.778	113.06
513.994	96.06
514.21	119.06
514.426	157.06
514.642	181.06
514.858	127.06
515.074	122.06
515.29	108.06
515.506	101.06
515.721	105.06
515.937	101.06
516.153	100.06
516.369	114.06
516.585	107.06
516.801	96.06
517.016	89.06
517.232	105.06
517.448	102.06
517.664	108.06
517.879	114.06
518.095	102.06
518.311	105.06
518.527	99.06
518.742	105.06
518.958	129.06
519.173	165.06
519.389	131.06
519.605	99.06
519.82	108.06
520.036	89.06
520.251	109.06
520.467	106.06
520.682	97.06
520.898	103.06
521.113	91.06
521.329	86.06
521.544	87.06
521.76	85.06
521.975	110.06
522.19	112.06
522.406	106.06
522.621	97.06
522.836	98.06
523.052	101.06
523.267	105.06
523.482	89.06
523.698	104.06
523.913	88.06
524.128	97.06
524.343	94.06
524.559	104.06
524.774	104.06
524.989	103.06
525.204	93.06
525.419	93.06
525.634	103.06
525.849	112.06
526.064	118.06
526.28	104.06
526.495	100.06
526.71	104.06
526.925	98.06
527.14	109.06
527.355	95.06
527.57	111.06
527.785	94.06
527.999	89.06
528.214	96.06
528.429	91.06
528.644	97.06
528.859	116.06
529.074	104.06
529.289	88.06
529.503	105.06
529.718	88.06
529.933	99.06
530.148	101.06
530.363	100.06
530.577	93.06
530.792	103.06
531.007	103.06
531.221	108.06
531.436	98.06
531.651	87.06
531.865	100.06
532.08	106.06
532.295	105.06
532.509	164.06
532.724	114.06
532.938	114.06
533.153	102.06
533.367	99.06
533.582	101.06
533.796	107.06
534.011	97.06
534.225	91.06
534.44	90.06
534.654	109.06
534.868	93.06
535.083	94.06
535.297	95.06
535.511	107.06
535.726	120.06
535.94	99.06
536.154	105.06
536.369	96.06
536.583	103.06
536.797	106.06
537.011	101.06
537.225	100.06
537.44	89.06
537.654	98.06
537.868	99.06
538.082	94.06
538.296	88.06
538.51	98.06
538.724	114.06
538.938	104.06
539.153	109.06
539.367	115.06
539.581	104.06
539.795	92.06
540.009	96.06
540.222	108.06
540.436	89.06
540.65	111.06
540.864	106.06
541.078	104.06
541.292	135.06
541.506	197.06
541.72	215.06
541.934	149.06
542.147	118.06
542.361	99.06
542.575	97.06
542.789	96.06
543.002	86.06
543.216	99.06
543.43	93.06
543.644	96.06
543.857	106.06
544.071	108.06
544.285	99.06
544.498	95.06
544.712	108.06
544.925	111.06
545.139	93.06
545.352	117.06
545.566	104.06
545.779	121.06
545.993	108.06
546.206	121.06
546.42	107.06
546.633	110.06
546.847	107.06
547.06	107.06
547.274	107.06
547.487	108.06
547.7	94.06
547.914	99.06
548.127	116.06
548.34	97.06
548.554	113.06
548.767	119.06
548.98	109.06
549.193	109.06
549.407	101.06
549.62	103.06
549.833	88.06
550.046	114.06
550.259	108.06
550.473	103.06
550.686	94.06
550.899	103.06
551.112	103.06
551.325	96.06
551.538	96.06
551.751	94.06
551.964	91.06
552.177	112.06
552.39	102.06
552.603	101.06
552.816	90.06
553.029	105.06
553.242	110.06
553.455	115.06
553.667	100.06
553.88	106.06
554.093	105.06
554.306	95.06
554.519	102.06
554.732	105.06
554.944	108.06
555.157	93.06
555.37	99.06
555.583	114.06
555.795	97.06
556.008	125.06
556.221	167.06
556.433	128.06
556.646	110.06
556.859	111.06
557.071	112.06
557.284	135.06
557.496	106.06
557.709	95.06
557.921	123.06
558.134	100.06
558.346	99.06
558.559	97.06
558.771	121.06
558.984	105.06
559.196	121.06
559.409	96.06
559.621	102.06
559.833	94.06
560.046	91.06
560.258	114.06
560.47	96.06
560.683	91.06
560.895	104.06
561.107	114.06
561.32	99.06
561.532	86.06
561.744	101.06
561.956	96.06
562.168	90.06
562.381	114.06
562.593	100.06
562.805	137.06
563.017	180.06
563.229	278.06
563.441	689.06
563.653	231.06
563.865	113.06
564.077	113.06
564.289	93.06
564.501	90.06
564.713	104.06
564.925	103.06
565.137	110.06
565.349	107.06
565.561	111.06
565.773	100.06
565.985	107.06
566.197	106.06
566.408	102.06
566.62	94.06
566.832	113.06
567.044	101.06
567.255	81.06
567.467	94.06
567.679	105.06
567.891	133.06
568.102	185.06
568.314	263.06
568.526	155.06
568.737	121.06
568.949	97.06
569.161	102.06
569.372	91.06
569.584	96.06
569.795	103.06
570.007	100.06
570.218	137.06
570.43	168.06
570.641	126.06
570.853	104.06
571.064	104.06
571.276	111.06
571.487	103.06
571.698	87.06
571.91	101.06
572.121	99.06
572.333	101.06
572.544	101.06
572.755	147.06
572.966	223.06
573.178	142.06
573.389	115.06
573.6	112.06
573.811	103.06
574.023	88.06
574.234	92.06
574.445	109.06
574.656	100.06
574.867	92.06
575.078	98.06
575.289	106.06
575.501	95.06
575.712	111.06
575.923	93.06
576.134	89.06
576.345	100.06
576.556	100.06
576.767	84.06
576.978	98.06
577.188	97.06
577.399	87.06
577.61	96.06
577.821	85.06
578.032	88.06
578.243	90.06
578.454	106.06
578.665	81.06
578.875	99.06
579.086	101.06
579.297	97.06
579.508	106.06
579.718	103.06
579.929	91.06
580.14	107.06
580.35	90.06
580.561	91.06
580.772	90.06
580.982	108.06
581.193	98.06
581.403	79.06
581.614	96.06
581.825	101.06
582.035	88.06
582.246	88.06
582.456	98.06
582.667	114.06
582.877	136.06
583.087	117.06
583.298	100.06
583.508	99.06
583.719	88.06
583.929	108.06
584.139	98.06
584.35	100.06
584.56	96.06
584.77	94.06
584.981	99.06
585.191	104.06
585.401	98.06
585.611	79.06
585.821	98.06
586.032	97.06
586.242	100.06
586.452	79.06
586.662	84.06
586.872	93.06
587.082	90.06
587.292	105.06
587.502	102.06
587.713	104.06
587.923	85.06
588.133	94.06
588.343	99.06
588.553	99.06
588.762	99.06
588.972	101.06
589.182	120.06
589.392	117.06
589.602	111.06
589.812	109.06
590.022	87.06
590.232	92.06
590.441	95.06
590.651	84.06
590.861	105.06
591.071	102.06
591.281	107.06
591.49	100.06
591.7	87.06
591.91	100.06
592.119	91.06
592.329	109.06
592.539	97.06
592.748	93.06
592.958	95.06
593.167	95.06
593.377	96.06
593.587	105.06
593.796	97.06
594.006	106.06
594.215	109.06
594.424	93.06
594.634	103.06
594.843	96.06
595.053	102.06
595.262	95.06
595.472	88.06
595.681	84.06
595.89	98.06
596.1	99.06
596.309	94.06
596.518	108.06
596.727	91.06
596.937	93.06
597.146	90.06
597.355	90.06
597.564	104.06
597.774	86.06
597.983	87.06
598.192	90.06
598.401	98.06
598.61	93.06
598.819	104.06
599.028	96.06
599.237	117.06
599.446	101.06
599.655	98.06
599.864	107.06
600.073	105.06
600.282	97.06
600.491	108.06
600.7	90.06
600.909	95.06
601.118	88.06
601.327	102.06
601.536	106.06
601.745	106.06
601.953	142.06
602.162	163.06
602.371	134.06
602.58	96.06
602.789	89.06
602.997	97.06
603.206	99.06
603.415	100.06
603.623	112.06
603.832	95.06
604.041	108.06
604.249	102.06
604.458	115.06
604.666	93.06
604.875	111.06
605.084	96.06
605.292	93.06
605.501	99.06
605.709	98.06
605.918	101.06
606.126	115.06
606.334	100.06
606.543	104.06
606.751	146.06
606.96	180.06
607.168	194.06
607.376	119.06
607.585	121.06
607.793	112.06
608.001	104.06
608.21	95.06
608.418	90.06
608.626	98.06
608.834	89.06
609.043	95.06
609.251	91.06
609.459	77.06
609.667	79.06
609.875	85.06
610.083	100.06
610.291	90.06
610.499	101.06
610.707	83.06
610.916	88.06
611.124	78.06
611.332	110.06
611.54	96.06
611.748	90.06
611.955	95.06
612.163	90.06
612.371	91.06
612.579	92.06
612.787	91.06
612.995	102.06
613.203	95.06
613.411	92.06
613.618	103.06
613.826	111.06
614.034	88.06
614.242	81.06
614.449	105.06
614.657	117.06
614.865	93.06
615.072	108.06
615.28	127.06
615.488	106.06
615.695	111.06
615.903	108.06
616.111	114.06
616.318	105.06
616.526	98.06
616.733	100.06
616.941	98.06
617.148	95.06
617.356	93.06
617.563	98.06
617.771	92.06
617.978	96.06
618.185	100.06
618.393	96.06
618.6	95.06
618.807	87.06
619.015	91.06
619.222	91.06
619.429	101.06
619.637	91.06
619.844	79.06
620.051	93.06
620.258	97.06
620.466	98.06
620.673	81.06
620.88	97.06
621.087	89.06
621.294	102.06
621.501	95.06
621.708	85.06
621.915	97.06
622.122	86.06
622.329	93.06
622.536	94.06
622.743	93.06
622.95	103.06
623.157	98.06
623.364	85.06
623.571	88.06
623.778	109.06
623.985	98.06
624.192	101.06
624.399	99.06
624.606	80.06
624.812	84.06
625.019	75.06
625.226	100.06
625.433	99.06
625.639	87.06
625.846	90.06
626.053	100.06
626.259	89.06
626.466	102.06
626.673	90.06
626.879	90.06
627.086	88.06
627.293	91.06
627.499	100.06
627.706	99.06
627.912	94.06
628.119	92.06
628.325	94.06
628.532	87.06
628.738	90.06
628.945	83.06
629.151	91.06
629.357	97.06
629.564	89.06
629.77	97.06
629.976	103.06
630.183	100.06
630.389	81.06
630.595	96.06
630.802	84.06
631.008	80.06
631.214	101.06
631.42	87.06
631.627	96.06
631.833	85.06
632.039	85.06
632.245	73.06
632.451	85.06
632.657	98.06
632.863	96.06
633.069	87.06
633.275	88.06
633.481	95.06
633.688	84.06
633.893	97.06
634.099	81.06
634.305	99.06
634.511	96.06
634.717	83.06
634.923	101.06
635.129	117.06
635.335	133.06
635.541	118.06
635.747	102.06
635.952	96.06
636.158	88.06
636.364	98.06
636.57	101.06
636.775	88.06
636.981	87.06
637.187	96.06
637.392	95.06
637.598	82.06
637.804	96.06
638.009	83.06
638.215	95.06
638.421	85.06
638.626	109.06
638.832	94.06
639.037	93.06
639.243	87.06
639.448	81.06
639.654	85.06
639.859	90.06
640.065	73.06
640.27	99.06
640.475	98.06
640.681	98.06
640.886	83.06
641.091	85.06
641.297	87.06
641.502	98.06
641.707	81.06
641.913	81.06
642.118	80.06
642.323	82.06
642.528	90.06
642.733	89.06
642.939	88.06
643.144	85.06
643.349	93.06
643.554	78.06
643.759	85.06
643.964	93.06
644.169	88.06
644.374	85.06
644.579	108.06
644.784	91.06
644.989	96.06
645.194	99.06
645.399	96.06
645.604	116.06
645.809	78.06
646.014	79.06
646.219	92.06
646.423	87.06
646.628	85.06
646.833	88.06
647.038	85.06
647.243	90.06
647.447	89.06
647.652	92.06
647.857	91.06
648.062	104.06
648.266	79.06
648.471	85.06
648.676	88.06
648.88	76.06
649.085	93.06
649.289	82.06
649.494	91.06
649.698	88.06
649.903	79.06
650.107	84.06
650.312	91.06
650.516	94.06
650.721	87.06
650.925	91.06
651.13	92.06
651.334	86.06
651.539	95.06
651.743	82.06
651.947	91.06
652.152	91.06
652.356	83.06
652.56	103.06
652.764	113.06
652.969	102.06
653.173	100.06
653.377	74.06
653.581	66.06
653.785	75.06
653.99	82.06
654.194	80.06
654.398	87.06
654.602	102.06
654.806	92.06
655.01	83.06
655.214	87.06
655.418	82.06
655.622	80.06
655.826	75.06
656.03	85.06
656.234	77.06
656.438	90.06
656.642	84.06
656.846	89.06
657.049	86.06
657.253	107.06
657.457	83.06
657.661	94.06
657.865	83.06
658.068	92.06
658.272	76.06
658.476	81.06
658.68	80.06
658.883	78.06
659.087	90.06
659.291	94.06
659.494	81.06
659.698	79.06
659.901	85.06
660.105	80.06
660.309	93.06
660.512	83.06
660.716	65.06
660.919	88.06
661.123	89.06
661.326	82.06
661.53	89.06
661.733	84.06
661.936	83.06
662.14	102.06
662.343	89.06
662.546	89.06
662.75	73.06
662.953	100.06
663.156	83.06
663.36	79.06
663.563	93.06
663.766	80.06
663.969	87.06
664.173	91.06
664.376	84.06
664.579	88.06
664.782	79.06
664.985	93.06
665.188	75.06
665.391	69.06
665.594	81.06
665.797	84.06
666	92.06
666.203	98.06
666.406	76.06
666.609	69.06
666.812	79.06
667.015	100.06
667.218	92.06
667.421	88.06
667.624	77.06
667.827	92.06
668.03	78.06
668.232	77.06
668.435	90.06
668.638	97.06
668.841	90.06
669.043	85.06
669.246	84.06
669.449	78.06
669.651	78.06
669.854	75.06
670.057	75.06
670.259	92.06
670.462	87.06
670.665	75.06
670.867	91.06
671.07	88.06
671.272	85.06
671.475	89.06
671.677	75.06
671.88	74.06
672.082	78.06
672.284	83.06
672.487	86.06
672.689	71.06
672.892	77.06
