Data from SnStandardFlinnAPT0064_LampEnergy5.5_LIBS07252019.E.O._I.C._HRD10591_15-15-41-491.txt Node
Date: Thu Jul 25 15:15:41 EDT 2019
User: cochatt
Spectrometer: HR+D1059
Trigger mode: 1
Integration Time (sec): 1.000000E-1
Scans to average: 1
Electric dark correction enabled: true
Nonlinearity correction enabled: false
Boxcar width: 0
XAxis mode: Wavelengths
Number of Pixels in Spectrum: 2048
>>>>>Begin Spectral Data<<<<<
223.165	-11.56
223.4	-11.56
223.635	-11.56
223.869	-20.56
224.104	-21.56
224.338	-21.56
224.573	-11.56
224.808	-1.56
225.042	-14.56
225.277	-23.56
225.511	-4.56
225.746	-1.56
225.98	4.44
226.215	9.44
226.449	15.44
226.683	18.44
226.918	46.44
227.152	38.44
227.387	36.44
227.621	41.44
227.856	43.44
228.09	41.44
228.324	55.44
228.559	63.44
228.793	79.44
229.027	157.44
229.262	158.44
229.496	159.44
229.73	160.44
229.964	161.44
230.199	174.44
230.433	171.44
230.667	139.44
230.901	150.44
231.136	152.44
231.37	170.44
231.604	184.44
231.838	198.44
232.072	216.44
232.306	244.44
232.541	210.44
232.775	200.44
233.009	186.44
233.243	185.44
233.477	199.44
233.711	213.44
233.945	238.44
234.179	227.44
234.413	204.44
234.647	206.44
234.881	232.44
235.115	225.44
235.349	263.44
235.583	295.44
235.817	399.44
236.051	371.44
236.285	266.44
236.519	218.44
236.753	230.44
236.987	215.44
237.221	229.44
237.455	228.44
237.689	242.44
237.922	210.44
238.156	230.44
238.39	216.44
238.624	224.44
238.858	228.44
239.091	226.44
239.325	203.44
239.559	238.44
239.793	227.44
240.027	243.44
240.26	242.44
240.494	239.44
240.728	247.44
240.961	264.44
241.195	289.44
241.429	280.44
241.662	318.44
241.896	312.44
242.13	352.44
242.363	462.44
242.597	553.44
242.83	564.44
243.064	551.44
243.298	642.44
243.531	536.44
243.765	378.44
243.998	295.44
244.232	287.44
244.465	277.44
244.699	265.44
244.932	288.44
245.166	286.44
245.399	278.44
245.633	299.44
245.866	316.44
246.099	267.44
246.333	278.44
246.566	275.44
246.8	282.44
247.033	295.44
247.266	299.44
247.5	296.44
247.733	280.44
247.966	288.44
248.2	323.44
248.433	341.44
248.666	369.44
248.899	378.44
249.133	343.44
249.366	351.44
249.599	387.44
249.832	415.44
250.066	386.44
250.299	359.44
250.532	339.44
250.765	305.44
250.998	312.44
251.231	323.44
251.465	307.44
251.698	316.44
251.931	318.44
252.164	333.44
252.397	348.44
252.63	347.44
252.863	346.44
253.096	337.44
253.329	339.44
253.562	357.44
253.795	335.44
254.028	347.44
254.261	356.44
254.494	390.44
254.727	406.44
254.96	455.44
255.193	442.44
255.426	395.44
255.659	361.44
255.892	378.44
256.124	373.44
256.357	374.44
256.59	369.44
256.823	415.44
257.056	406.44
257.289	498.44
257.521	536.44
257.754	466.44
257.987	385.44
258.22	387.44
258.452	373.44
258.685	382.44
258.918	391.44
259.151	392.44
259.383	424.44
259.616	469.44
259.849	474.44
260.081	452.44
260.314	427.44
260.547	414.44
260.779	399.44
261.012	412.44
261.244	417.44
261.477	431.44
261.71	414.44
261.942	430.44
262.175	436.44
262.407	484.44
262.64	448.44
262.872	454.44
263.105	471.44
263.337	518.44
263.57	540.44
263.802	563.44
264.035	543.44
264.267	563.44
264.499	569.44
264.732	601.44
264.964	591.44
265.197	595.44
265.429	624.44
265.661	634.44
265.894	656.44
266.126	709.44
266.358	742.44
266.591	736.44
266.823	677.44
267.055	617.44
267.287	579.44
267.52	561.44
267.752	558.44
267.984	550.44
268.216	548.44
268.448	539.44
268.681	522.44
268.913	501.44
269.145	536.44
269.377	516.44
269.609	549.44
269.841	545.44
270.073	529.44
270.306	610.44
270.538	843.44
270.77	1102.44
271.002	1326.44
271.234	982.44
271.466	706.44
271.698	570.44
271.93	571.44
272.162	562.44
272.394	530.44
272.626	521.44
272.858	520.44
273.09	516.44
273.322	525.44
273.553	536.44
273.785	521.44
274.017	528.44
274.249	497.44
274.481	511.44
274.713	512.44
274.945	542.44
275.176	514.44
275.408	514.44
275.64	521.44
275.872	517.44
276.104	535.44
276.335	534.44
276.567	505.44
276.799	516.44
277.031	517.44
277.262	545.44
277.494	570.44
277.726	611.44
277.957	666.44
278.189	737.44
278.421	691.44
278.652	643.44
278.884	636.44
279.115	595.44
279.347	576.44
279.579	566.44
279.81	580.44
280.042	544.44
280.273	585.44
280.505	570.44
280.736	605.44
280.968	605.44
281.199	662.44
281.431	731.44
281.662	750.44
281.894	692.44
282.125	640.44
282.356	666.44
282.588	658.44
282.819	670.44
283.051	688.44
283.282	764.44
283.513	906.44
283.745	1302.44
283.976	1966.44
284.207	2753.44
284.439	2445.44
284.67	1544.44
284.901	1245.44
285.132	1240.44
285.364	1176.44
285.595	959.44
285.826	896.44
286.057	1012.44
286.288	1336.44
286.52	1755.44
286.751	1643.44
286.982	1086.44
287.213	860.44
287.444	763.44
287.675	734.44
287.906	697.44
288.138	693.44
288.369	691.44
288.6	680.44
288.831	700.44
289.062	719.44
289.293	689.44
289.524	704.44
289.755	692.44
289.986	704.44
290.217	705.44
290.448	666.44
290.679	697.44
290.91	708.44
291.141	712.44
291.371	744.44
291.602	738.44
291.833	710.44
292.064	679.44
292.295	679.44
292.526	670.44
292.757	643.44
292.987	632.44
293.218	638.44
293.449	659.44
293.68	652.44
293.91	670.44
294.141	643.44
294.372	662.44
294.603	651.44
294.833	665.44
295.064	646.44
295.295	654.44
295.525	653.44
295.756	640.44
295.987	624.44
296.217	656.44
296.448	651.44
296.679	645.44
296.909	650.44
297.14	637.44
297.37	664.44
297.601	662.44
297.831	674.44
298.062	683.44
298.292	681.44
298.523	688.44
298.753	686.44
298.984	698.44
299.214	693.44
299.445	687.44
299.675	708.44
299.905	752.44
300.136	754.44
300.366	804.44
300.597	983.44
300.827	1318.44
301.057	1715.44
301.288	1730.44
301.518	1166.44
301.748	910.44
301.979	895.44
302.209	866.44
302.439	874.44
302.669	936.44
302.9	1054.44
303.13	1398.44
303.36	2003.44
303.59	2598.44
303.82	2312.44
304.051	1466.44
304.281	1113.44
304.511	934.44
304.741	867.44
304.971	848.44
305.201	806.44
305.431	804.44
305.661	786.44
305.891	772.44
306.121	771.44
306.352	776.44
306.582	757.44
306.812	736.44
307.042	741.44
307.272	728.44
307.502	744.44
307.731	741.44
307.961	740.44
308.191	761.44
308.421	752.44
308.651	737.44
308.881	736.44
309.111	723.44
309.341	712.44
309.571	731.44
309.8	774.44
310.03	784.44
310.26	758.44
310.49	759.44
310.72	746.44
310.949	772.44
311.179	756.44
311.409	796.44
311.639	814.44
311.868	770.44
312.098	798.44
312.328	762.44
312.557	812.44
312.787	824.44
313.017	804.44
313.246	823.44
313.476	808.44
313.706	828.44
313.935	856.44
314.165	915.44
314.394	904.44
314.624	897.44
314.853	851.44
315.083	841.44
315.312	849.44
315.542	872.44
315.771	860.44
316.001	871.44
316.23	922.44
316.46	956.44
316.689	997.44
316.919	1168.44
317.148	1620.44
317.377	2392.44
317.607	3425.44
317.836	3540.44
318.065	2174.44
318.295	1465.44
318.524	1202.44
318.753	1100.44
318.983	1015.44
319.212	984.44
319.441	963.44
319.67	985.44
319.9	942.44
320.129	937.44
320.358	942.44
320.587	942.44
320.816	970.44
321.046	912.44
321.275	936.44
321.504	972.44
321.733	942.44
321.962	980.44
322.191	994.44
322.42	1003.44
322.649	962.44
322.878	986.44
323.108	999.44
323.337	1007.44
323.566	989.44
323.795	1029.44
324.024	1050.44
324.253	1080.44
324.482	1092.44
324.71	1142.44
324.939	1209.44
325.168	1211.44
325.397	1228.44
325.626	1456.44
325.855	1972.44
326.084	2954.44
326.313	4325.44
326.542	4502.44
326.77	3033.44
326.999	2067.44
327.228	1731.44
327.457	1654.44
327.686	1666.44
327.914	1811.44
328.143	2103.44
328.372	2368.44
328.6	2544.44
328.829	2392.44
329.058	2115.44
329.287	1850.44
329.515	1750.44
329.744	1623.44
329.972	1536.44
330.201	1479.44
330.43	1481.44
330.658	1384.44
330.887	1398.44
331.115	1332.44
331.344	1319.44
331.572	1360.44
331.801	1351.44
332.03	1339.44
332.258	1379.44
332.486	1391.44
332.715	1605.44
332.943	1850.44
333.172	2202.44
333.4	2178.44
333.629	1775.44
333.857	1704.44
334.085	1658.44
334.314	1775.44
334.542	1918.44
334.771	2187.44
334.999	2532.44
335.227	3061.44
335.455	3370.44
335.684	3169.44
335.912	2746.44
336.14	2391.44
336.369	2136.44
336.597	1996.44
336.825	1813.44
337.053	1717.44
337.281	1662.44
337.51	1547.44
337.738	1525.44
337.966	1414.44
338.194	1454.44
338.422	1357.44
338.65	1326.44
338.878	1332.44
339.106	1307.44
339.334	1291.44
339.562	1276.44
339.79	1195.44
340.018	1208.44
340.246	1220.44
340.474	1226.44
340.702	1211.44
340.93	1217.44
341.158	1199.44
341.386	1206.44
341.614	1202.44
341.842	1147.44
342.07	1111.44
342.298	1150.44
342.526	1122.44
342.754	1097.44
342.981	1120.44
343.209	1104.44
343.437	1134.44
343.665	1126.44
343.893	1135.44
344.12	1134.44
344.348	1151.44
344.576	1106.44
344.804	1103.44
345.031	1079.44
345.259	1053.44
345.487	1026.44
345.714	1055.44
345.942	1024.44
346.17	1063.44
346.397	1044.44
346.625	1025.44
346.853	1007.44
347.08	1029.44
347.308	1012.44
347.535	1033.44
347.763	999.44
347.99	1014.44
348.218	1018.44
348.445	1011.44
348.673	997.44
348.9	1019.44
349.128	988.44
349.355	996.44
349.583	992.44
349.81	1006.44
350.037	981.44
350.265	994.44
350.492	998.44
350.72	980.44
350.947	992.44
351.174	1026.44
351.402	992.44
351.629	977.44
351.856	982.44
352.083	967.44
352.311	950.44
352.538	961.44
352.765	987.44
352.992	977.44
353.22	974.44
353.447	973.44
353.674	973.44
353.901	1002.44
354.128	975.44
354.355	982.44
354.583	995.44
354.81	984.44
355.037	998.44
355.264	994.44
355.491	992.44
355.718	980.44
355.945	1009.44
356.172	992.44
356.399	994.44
356.626	1021.44
356.853	1016.44
357.08	1010.44
357.307	1008.44
357.534	1024.44
357.761	1040.44
357.988	1036.44
358.215	1025.44
358.441	1037.44
358.668	1024.44
358.895	1081.44
359.122	1042.44
359.349	1030.44
359.576	1046.44
359.802	1024.44
360.029	1018.44
360.256	1040.44
360.483	1023.44
360.709	1024.44
360.936	1048.44
361.163	1047.44
361.39	1039.44
361.616	1023.44
361.843	1015.44
362.07	1033.44
362.296	1029.44
362.523	1052.44
362.749	1057.44
362.976	1000.44
363.203	1043.44
363.429	1020.44
363.656	1052.44
363.882	1032.44
364.109	1057.44
364.335	1024.44
364.562	1052.44
364.788	1051.44
365.015	1056.44
365.241	1086.44
365.468	1092.44
365.694	1138.44
365.92	1101.44
366.147	1090.44
366.373	1059.44
366.599	1043.44
366.826	1063.44
367.052	1070.44
367.278	1070.44
367.505	1043.44
367.731	1082.44
367.957	1071.44
368.184	1082.44
368.41	1081.44
368.636	1079.44
368.862	1097.44
369.089	1083.44
369.315	1104.44
369.541	1091.44
369.767	1077.44
369.993	1068.44
370.219	1078.44
370.445	1084.44
370.672	1098.44
370.898	1095.44
371.124	1126.44
371.35	1110.44
371.576	1121.44
371.802	1097.44
372.028	1113.44
372.254	1144.44
372.48	1131.44
372.706	1177.44
372.932	1144.44
373.158	1148.44
373.384	1136.44
373.61	1108.44
373.835	1151.44
374.061	1130.44
374.287	1144.44
374.513	1157.44
374.739	1188.44
374.965	1190.44
375.191	1156.44
375.416	1185.44
375.642	1166.44
375.868	1158.44
376.094	1172.44
376.319	1161.44
376.545	1139.44
376.771	1111.44
376.997	1147.44
377.222	1135.44
377.448	1126.44
377.674	1127.44
377.899	1110.44
378.125	1095.44
378.35	1123.44
378.576	1150.44
378.802	1149.44
379.027	1161.44
379.253	1156.44
379.478	1203.44
379.704	1329.44
379.929	1844.44
380.155	2543.44
380.38	2738.44
380.606	1804.44
380.831	1371.44
381.057	1252.44
381.282	1207.44
381.507	1152.44
381.733	1117.44
381.958	1126.44
382.184	1121.44
382.409	1113.44
382.634	1115.44
382.86	1118.44
383.085	1118.44
383.31	1112.44
383.535	1099.44
383.761	1126.44
383.986	1114.44
384.211	1164.44
384.436	1123.44
384.662	1141.44
384.887	1145.44
385.112	1154.44
385.337	1152.44
385.562	1154.44
385.787	1146.44
386.013	1191.44
386.238	1160.44
386.463	1164.44
386.688	1207.44
386.913	1141.44
387.138	1128.44
387.363	1148.44
387.588	1162.44
387.813	1152.44
388.038	1148.44
388.263	1159.44
388.488	1154.44
388.713	1171.44
388.938	1134.44
389.163	1163.44
389.387	1181.44
389.612	1162.44
389.837	1140.44
390.062	1163.44
390.287	1169.44
390.512	1142.44
390.736	1173.44
390.961	1217.44
391.186	1196.44
391.411	1198.44
391.636	1214.44
391.86	1239.44
392.085	1239.44
392.31	1194.44
392.534	1203.44
392.759	1194.44
392.984	1177.44
393.208	1160.44
393.433	1136.44
393.658	1124.44
393.882	1178.44
394.107	1160.44
394.331	1166.44
394.556	1134.44
394.78	1159.44
395.005	1188.44
395.229	1168.44
395.454	1191.44
395.678	1190.44
395.903	1189.44
396.127	1171.44
396.352	1186.44
396.576	1164.44
396.801	1170.44
397.025	1178.44
397.249	1206.44
397.474	1198.44
397.698	1200.44
397.922	1241.44
398.147	1209.44
398.371	1223.44
398.595	1287.44
398.82	1299.44
399.044	1352.44
399.268	1376.44
399.492	1464.44
399.717	1576.44
399.941	1546.44
400.165	1497.44
400.389	1408.44
400.613	1367.44
400.837	1331.44
401.062	1317.44
401.286	1300.44
401.51	1263.44
401.734	1290.44
401.958	1283.44
402.182	1292.44
402.406	1273.44
402.63	1262.44
402.854	1310.44
403.078	1289.44
403.302	1335.44
403.526	1321.44
403.75	1348.44
403.974	1339.44
404.198	1320.44
404.422	1310.44
404.645	1335.44
404.869	1334.44
405.093	1350.44
405.317	1334.44
405.541	1322.44
405.765	1338.44
405.988	1351.44
406.212	1383.44
406.436	1346.44
406.66	1390.44
406.883	1370.44
407.107	1410.44
407.331	1452.44
407.555	1438.44
407.778	1435.44
408.002	1383.44
408.226	1372.44
408.449	1403.44
408.673	1370.44
408.896	1335.44
409.12	1321.44
409.344	1333.44
409.567	1339.44
409.791	1354.44
410.014	1346.44
410.238	1324.44
410.461	1332.44
410.685	1340.44
410.908	1321.44
411.132	1282.44
411.355	1280.44
411.578	1295.44
411.802	1258.44
412.025	1262.44
412.249	1294.44
412.472	1278.44
412.695	1257.44
412.919	1218.44
413.142	1239.44
413.365	1251.44
413.589	1282.44
413.812	1257.44
414.035	1253.44
414.258	1283.44
414.482	1256.44
414.705	1229.44
414.928	1273.44
415.151	1262.44
415.374	1255.44
415.597	1227.44
415.821	1235.44
416.044	1218.44
416.267	1224.44
416.49	1226.44
416.713	1204.44
416.936	1233.44
417.159	1185.44
417.382	1178.44
417.605	1173.44
417.828	1200.44
418.051	1184.44
418.274	1258.44
418.497	1243.44
418.72	1244.44
418.943	1213.44
419.166	1310.44
419.389	1369.44
419.611	1341.44
419.834	1277.44
420.057	1282.44
420.28	1239.44
420.503	1193.44
420.726	1209.44
420.948	1190.44
421.171	1207.44
421.394	1194.44
421.617	1190.44
421.839	1224.44
422.062	1251.44
422.285	1249.44
422.507	1236.44
422.73	1222.44
422.953	1234.44
423.175	1282.44
423.398	1239.44
423.621	1217.44
423.843	1242.44
424.066	1212.44
424.288	1222.44
424.511	1222.44
424.733	1228.44
424.956	1206.44
425.178	1187.44
425.401	1202.44
425.623	1204.44
425.846	1196.44
426.068	1179.44
426.291	1178.44
426.513	1170.44
426.735	1190.44
426.958	1208.44
427.18	1155.44
427.402	1154.44
427.625	1160.44
427.847	1140.44
428.069	1122.44
428.292	1148.44
428.514	1151.44
428.736	1150.44
428.958	1147.44
429.181	1134.44
429.403	1106.44
429.625	1109.44
429.847	1136.44
430.069	1122.44
430.292	1150.44
430.514	1210.44
430.736	1156.44
430.958	1156.44
431.18	1138.44
431.402	1112.44
431.624	1092.44
431.846	1093.44
432.068	1083.44
432.29	1110.44
432.512	1108.44
432.734	1107.44
432.956	1129.44
433.178	1135.44
433.4	1140.44
433.622	1102.44
433.844	1155.44
434.066	1140.44
434.287	1122.44
434.509	1142.44
434.731	1127.44
434.953	1118.44
435.175	1141.44
435.397	1184.44
435.618	1130.44
435.84	1135.44
436.062	1128.44
436.284	1112.44
436.505	1118.44
436.727	1114.44
436.949	1113.44
437.17	1116.44
437.392	1079.44
437.614	1055.44
437.835	1067.44
438.057	1067.44
438.278	1067.44
438.5	1097.44
438.721	1098.44
438.943	1134.44
439.165	1140.44
439.386	1134.44
439.608	1149.44
439.829	1152.44
440.05	1170.44
440.272	1201.44
440.493	1154.44
440.715	1158.44
440.936	1185.44
441.158	1164.44
441.379	1207.44
441.6	1222.44
441.822	1211.44
442.043	1280.44
442.264	1318.44
442.486	1224.44
442.707	1177.44
442.928	1200.44
443.149	1218.44
443.371	1221.44
443.592	1202.44
443.813	1242.44
444.034	1217.44
444.255	1249.44
444.476	1265.44
444.698	1277.44
444.919	1298.44
445.14	1355.44
445.361	1262.44
445.582	1227.44
445.803	1192.44
446.024	1200.44
446.245	1190.44
446.466	1179.44
446.687	1202.44
446.908	1168.44
447.129	1154.44
447.35	1140.44
447.571	1125.44
447.792	1154.44
448.013	1121.44
448.234	1105.44
448.455	1091.44
448.675	1144.44
448.896	1099.44
449.117	1146.44
449.338	1232.44
449.559	1267.44
449.779	1168.44
450	1107.44
450.221	1097.44
450.442	1078.44
450.662	1043.44
450.883	1048.44
451.104	1064.44
451.324	1055.44
451.545	1063.44
451.766	1050.44
451.986	1081.44
452.207	1134.44
452.428	1343.44
452.648	1755.44
452.869	1520.44
453.089	1213.44
453.31	1139.44
453.53	1138.44
453.751	1175.44
453.971	1225.44
454.192	1189.44
454.412	1118.44
454.633	1067.44
454.853	1001.44
455.073	1015.44
455.294	1016.44
455.514	1024.44
455.734	1011.44
455.955	1049.44
456.175	998.44
456.395	1007.44
456.616	1002.44
456.836	1040.44
457.056	1037.44
457.276	1011.44
457.497	1074.44
457.717	1099.44
457.937	1049.44
458.157	1072.44
458.377	1071.44
458.598	1081.44
458.818	1089.44
459.038	1088.44
459.258	1081.44
459.478	1106.44
459.698	1123.44
459.918	1125.44
460.138	1148.44
460.358	1164.44
460.578	1190.44
460.798	1209.44
461.018	1208.44
461.238	1206.44
461.458	1222.44
461.678	1224.44
461.898	1228.44
462.118	1242.44
462.338	1278.44
462.558	1322.44
462.777	1317.44
462.997	1366.44
463.217	1376.44
463.437	1400.44
463.657	1434.44
463.876	1425.44
464.096	1359.44
464.316	1294.44
464.536	1305.44
464.755	1303.44
464.975	1302.44
465.195	1204.44
465.414	1206.44
465.634	1153.44
465.854	1139.44
466.073	1131.44
466.293	1120.44
466.512	1138.44
466.732	1147.44
466.951	1159.44
467.171	1229.44
467.391	1220.44
467.61	1132.44
467.829	1093.44
468.049	1096.44
468.268	1111.44
468.488	1107.44
468.707	1093.44
468.927	1096.44
469.146	1081.44
469.365	1123.44
469.585	1114.44
469.804	1170.44
470.023	1144.44
470.243	1174.44
470.462	1214.44
470.681	1229.44
470.901	1329.44
471.12	1521.44
471.339	1481.44
471.558	1278.44
471.777	1183.44
471.997	1145.44
472.216	1111.44
472.435	1108.44
472.654	1062.44
472.873	1072.44
473.092	1103.44
473.311	1108.44
473.53	1106.44
473.749	1137.44
473.968	1160.44
474.187	1130.44
474.406	1076.44
474.625	1114.44
474.844	1081.44
475.063	1096.44
475.282	1102.44
475.501	1101.44
475.72	1118.44
475.939	1118.44
476.158	1142.44
476.377	1167.44
476.596	1153.44
476.814	1144.44
477.033	1171.44
477.252	1168.44
477.471	1182.44
477.69	1218.44
477.908	1237.44
478.127	1263.44
478.346	1264.44
478.564	1289.44
478.783	1314.44
479.002	1351.44
479.22	1319.44
479.439	1319.44
479.658	1306.44
479.876	1280.44
480.095	1302.44
480.313	1326.44
480.532	1375.44
480.751	1342.44
480.969	1321.44
481.188	1310.44
481.406	1283.44
481.624	1284.44
481.843	1292.44
482.061	1300.44
482.28	1312.44
482.498	1308.44
482.717	1287.44
482.935	1294.44
483.153	1349.44
483.372	1374.44
483.59	1385.44
483.808	1395.44
484.027	1391.44
484.245	1447.44
484.463	1594.44
484.681	1725.44
484.9	1584.44
485.118	1522.44
485.336	1513.44
485.554	1500.44
485.772	1553.44
485.99	1742.44
486.209	1836.44
486.427	1622.44
486.645	1483.44
486.863	1438.44
487.081	1425.44
487.299	1408.44
487.517	1375.44
487.735	1434.44
487.953	1428.44
488.171	1436.44
488.389	1414.44
488.607	1371.44
488.825	1396.44
489.043	1374.44
489.261	1363.44
489.479	1347.44
489.696	1376.44
489.914	1354.44
490.132	1350.44
490.35	1355.44
490.568	1370.44
490.786	1401.44
491.003	1397.44
491.221	1434.44
491.439	1470.44
491.657	1429.44
491.874	1490.44
492.092	1469.44
492.31	1525.44
492.527	1485.44
492.745	1496.44
492.963	1463.44
493.18	1430.44
493.398	1432.44
493.615	1483.44
493.833	1474.44
494.05	1467.44
494.268	1465.44
494.485	1441.44
494.703	1473.44
494.92	1446.44
495.138	1450.44
495.355	1450.44
495.573	1444.44
495.79	1476.44
496.008	1483.44
496.225	1515.44
496.442	1511.44
496.66	1513.44
496.877	1530.44
497.094	1574.44
497.312	1556.44
497.529	1550.44
497.746	1569.44
497.963	1532.44
498.181	1626.44
498.398	1668.44
498.615	1706.44
498.832	1743.44
499.049	1840.44
499.267	1937.44
499.484	2075.44
499.701	2150.44
499.918	2169.44
500.135	2347.44
500.352	2459.44
500.569	2501.44
500.786	2484.44
501.003	2404.44
501.22	2282.44
501.437	2108.44
501.654	1976.44
501.871	1894.44
502.088	1861.44
502.305	1777.44
502.522	1702.44
502.739	1718.44
502.956	1627.44
503.172	1618.44
503.389	1558.44
503.606	1537.44
503.823	1518.44
504.04	1512.44
504.256	1522.44
504.473	1511.44
504.69	1505.44
504.907	1472.44
505.123	1437.44
505.34	1386.44
505.557	1355.44
505.773	1350.44
505.99	1311.44
506.207	1307.44
506.423	1330.44
506.64	1294.44
506.856	1307.44
507.073	1266.44
507.289	1278.44
507.506	1281.44
507.722	1232.44
507.939	1274.44
508.155	1266.44
508.372	1227.44
508.588	1203.44
508.805	1241.44
509.021	1234.44
509.238	1233.44
509.454	1300.44
509.67	1361.44
509.887	1253.44
510.103	1218.44
510.319	1230.44
510.536	1218.44
510.752	1192.44
510.968	1206.44
511.184	1179.44
511.401	1178.44
511.617	1157.44
511.833	1195.44
512.049	1169.44
512.265	1158.44
512.481	1169.44
512.698	1170.44
512.914	1159.44
513.13	1164.44
513.346	1180.44
513.562	1165.44
513.778	1188.44
513.994	1208.44
514.21	1224.44
514.426	1273.44
514.642	1266.44
514.858	1216.44
515.074	1218.44
515.29	1183.44
515.506	1201.44
515.721	1185.44
515.937	1208.44
516.153	1205.44
516.369	1231.44
516.585	1255.44
516.801	1280.44
517.016	1270.44
517.232	1324.44
517.448	1329.44
517.664	1334.44
517.879	1332.44
518.095	1350.44
518.311	1368.44
518.527	1313.44
518.742	1292.44
518.958	1270.44
519.173	1317.44
519.389	1287.44
519.605	1230.44
519.82	1195.44
520.036	1210.44
520.251	1208.44
520.467	1193.44
520.682	1176.44
520.898	1157.44
521.113	1176.44
521.329	1145.44
521.544	1131.44
521.76	1171.44
521.975	1179.44
522.19	1145.44
522.406	1141.44
522.621	1177.44
522.836	1149.44
523.052	1156.44
523.267	1116.44
523.482	1152.44
523.698	1141.44
523.913	1129.44
524.128	1137.44
524.343	1160.44
524.559	1170.44
524.774	1141.44
524.989	1164.44
525.204	1131.44
525.419	1146.44
525.634	1158.44
525.849	1117.44
526.064	1156.44
526.28	1126.44
526.495	1098.44
526.71	1145.44
526.925	1125.44
527.14	1164.44
527.355	1148.44
527.57	1116.44
527.785	1126.44
527.999	1142.44
528.214	1159.44
528.429	1189.44
528.644	1213.44
528.859	1200.44
529.074	1219.44
529.289	1213.44
529.503	1213.44
529.718	1231.44
529.933	1174.44
530.148	1218.44
530.363	1196.44
530.577	1210.44
530.792	1172.44
531.007	1194.44
531.221	1218.44
531.436	1217.44
531.651	1220.44
531.865	1247.44
532.08	1242.44
532.295	1252.44
532.509	1282.44
532.724	1335.44
532.938	1322.44
533.153	1374.44
533.367	1399.44
533.582	1470.44
533.796	1476.44
534.011	1441.44
534.225	1369.44
534.44	1383.44
534.654	1360.44
534.868	1321.44
535.083	1343.44
535.297	1284.44
535.511	1272.44
535.726	1254.44
535.94	1222.44
536.154	1214.44
536.369	1218.44
536.583	1178.44
536.797	1216.44
537.011	1162.44
537.225	1143.44
537.44	1160.44
537.654	1189.44
537.868	1151.44
538.082	1150.44
538.296	1123.44
538.51	1135.44
538.724	1154.44
538.938	1126.44
539.153	1124.44
539.367	1127.44
539.581	1129.44
539.795	1091.44
540.009	1091.44
540.222	1083.44
540.436	1100.44
540.65	1100.44
540.864	1102.44
541.078	1174.44
541.292	1159.44
541.506	1387.44
541.72	1407.44
541.934	1265.44
542.147	1234.44
542.361	1147.44
542.575	1127.44
542.789	1106.44
543.002	1085.44
543.216	1083.44
543.43	1056.44
543.644	1092.44
543.857	1067.44
544.071	1121.44
544.285	1120.44
544.498	1082.44
544.712	1118.44
544.925	1094.44
545.139	1129.44
545.352	1117.44
545.566	1093.44
545.779	1113.44
545.993	1146.44
546.206	1114.44
546.42	1126.44
546.633	1100.44
546.847	1107.44
547.06	1126.44
547.274	1119.44
547.487	1128.44
547.7	1115.44
547.914	1124.44
548.127	1094.44
548.34	1120.44
548.554	1117.44
548.767	1106.44
548.98	1094.44
549.193	1105.44
549.407	1096.44
549.62	1114.44
549.833	1101.44
550.046	1122.44
550.259	1123.44
550.473	1072.44
550.686	1109.44
550.899	1105.44
551.112	1087.44
551.325	1096.44
551.538	1108.44
551.751	1122.44
551.964	1115.44
552.177	1129.44
552.39	1105.44
552.603	1146.44
552.816	1195.44
553.029	1207.44
553.242	1160.44
553.455	1210.44
553.667	1202.44
553.88	1205.44
554.093	1204.44
554.306	1190.44
554.519	1216.44
554.732	1247.44
554.944	1242.44
555.157	1265.44
555.37	1274.44
555.583	1299.44
555.795	1376.44
556.008	1449.44
556.221	1508.44
556.433	1569.44
556.646	1579.44
556.859	1562.44
557.071	1519.44
557.284	1531.44
557.496	1470.44
557.709	1476.44
557.921	1456.44
558.134	1475.44
558.346	1489.44
558.559	1505.44
558.771	1543.44
558.984	1634.44
559.196	1738.44
559.409	1679.44
559.621	1613.44
559.833	1555.44
560.046	1486.44
560.258	1420.44
560.47	1336.44
560.683	1322.44
560.895	1322.44
561.107	1231.44
561.32	1215.44
561.532	1196.44
561.744	1149.44
561.956	1142.44
562.168	1122.44
562.381	1127.44
562.593	1110.44
562.805	1119.44
563.017	1118.44
563.229	1105.44
563.441	1191.44
563.653	1094.44
563.865	1054.44
564.077	1026.44
564.289	1009.44
564.501	1003.44
564.713	1009.44
564.925	1046.44
565.137	1020.44
565.349	1022.44
565.561	1028.44
565.773	998.44
565.985	1026.44
566.197	1058.44
566.408	1076.44
566.62	1091.44
566.832	1140.44
567.044	1132.44
567.255	1113.44
567.467	1187.44
567.679	1158.44
567.891	1234.44
568.102	1306.44
568.314	1442.44
568.526	1286.44
568.737	1129.44
568.949	1052.44
569.161	1001.44
569.372	956.44
569.584	929.44
569.795	916.44
570.007	886.44
570.218	908.44
570.43	903.44
570.641	897.44
570.853	849.44
571.064	862.44
571.276	839.44
571.487	855.44
571.698	812.44
571.91	800.44
572.121	835.44
572.333	804.44
572.544	818.44
572.755	848.44
572.966	950.44
573.178	855.44
573.389	770.44
573.6	798.44
573.811	745.44
574.023	736.44
574.234	739.44
574.445	740.44
574.656	757.44
574.867	728.44
575.078	759.44
575.289	753.44
575.501	733.44
575.712	729.44
575.923	746.44
576.134	737.44
576.345	719.44
576.556	771.44
576.767	766.44
576.978	735.44
577.188	757.44
577.399	743.44
577.61	720.44
577.821	731.44
578.032	777.44
578.243	783.44
578.454	803.44
578.665	801.44
578.875	780.44
579.086	796.44
579.297	827.44
579.508	902.44
579.718	950.44
579.929	1041.44
580.14	1110.44
580.35	1152.44
580.561	1104.44
580.772	1049.44
580.982	1002.44
581.193	946.44
581.403	908.44
581.614	866.44
581.825	847.44
582.035	808.44
582.246	808.44
582.456	769.44
582.667	772.44
582.877	738.44
583.087	730.44
583.298	695.44
583.508	689.44
583.719	673.44
583.929	661.44
584.139	659.44
584.35	657.44
584.56	658.44
584.77	631.44
584.981	623.44
585.191	626.44
585.401	602.44
585.611	600.44
585.821	620.44
586.032	598.44
586.242	602.44
586.452	586.44
586.662	583.44
586.872	597.44
587.082	592.44
587.292	576.44
587.502	569.44
587.713	538.44
587.923	569.44
588.133	560.44
588.343	552.44
588.553	544.44
588.762	538.44
588.972	570.44
589.182	556.44
589.392	567.44
589.602	545.44
589.812	537.44
590.022	545.44
590.232	532.44
590.441	524.44
590.651	538.44
590.861	538.44
591.071	534.44
591.281	540.44
591.49	545.44
591.7	526.44
591.91	537.44
592.119	530.44
592.329	532.44
592.539	561.44
592.748	550.44
592.958	543.44
593.167	545.44
593.377	578.44
593.587	542.44
593.796	570.44
594.006	567.44
594.215	552.44
594.424	553.44
594.634	555.44
594.843	548.44
595.053	560.44
595.262	547.44
595.472	501.44
595.681	503.44
595.89	531.44
596.1	502.44
596.309	510.44
596.518	466.44
596.727	488.44
596.937	482.44
597.146	484.44
597.355	474.44
597.564	463.44
597.774	458.44
597.983	450.44
598.192	456.44
598.401	434.44
598.61	423.44
598.819	440.44
599.028	447.44
599.237	460.44
599.446	466.44
599.655	452.44
599.864	445.44
600.073	439.44
600.282	452.44
600.491	424.44
600.7	435.44
600.909	436.44
601.118	427.44
601.327	460.44
601.536	434.44
601.745	438.44
601.953	496.44
602.162	527.44
602.371	495.44
602.58	452.44
602.789	440.44
602.997	462.44
603.206	439.44
603.415	407.44
603.623	424.44
603.832	444.44
604.041	439.44
604.249	425.44
604.458	424.44
604.666	396.44
604.875	384.44
605.084	421.44
605.292	436.44
605.501	418.44
605.709	417.44
605.918	418.44
606.126	431.44
606.334	431.44
606.543	446.44
606.751	440.44
606.96	503.44
607.168	534.44
607.376	456.44
607.585	469.44
607.793	450.44
608.001	445.44
608.21	410.44
608.418	426.44
608.626	435.44
608.834	414.44
609.043	410.44
609.251	410.44
609.459	409.44
609.667	412.44
609.875	394.44
610.083	410.44
610.291	403.44
610.499	400.44
610.707	407.44
610.916	394.44
611.124	386.44
611.332	410.44
611.54	412.44
611.748	381.44
611.955	389.44
612.163	395.44
612.371	381.44
612.579	379.44
612.787	400.44
612.995	395.44
613.203	406.44
613.411	394.44
613.618	388.44
613.826	407.44
614.034	382.44
614.242	374.44
614.449	391.44
614.657	399.44
614.865	379.44
615.072	383.44
615.28	402.44
615.488	383.44
615.695	384.44
615.903	390.44
616.111	388.44
616.318	380.44
616.526	389.44
616.733	410.44
616.941	390.44
617.148	395.44
617.356	379.44
617.563	376.44
617.771	397.44
617.978	376.44
618.185	368.44
618.393	362.44
618.6	374.44
618.807	367.44
619.015	370.44
619.222	350.44
619.429	373.44
619.637	380.44
619.844	350.44
620.051	352.44
620.258	359.44
620.466	358.44
620.673	336.44
620.88	342.44
621.087	354.44
621.294	352.44
621.501	349.44
621.708	356.44
621.915	351.44
622.122	353.44
622.329	355.44
622.536	356.44
622.743	362.44
622.95	382.44
623.157	339.44
623.364	345.44
623.571	347.44
623.778	335.44
623.985	343.44
624.192	332.44
624.399	340.44
624.606	337.44
624.812	342.44
625.019	346.44
625.226	326.44
625.433	337.44
625.639	320.44
625.846	324.44
626.053	300.44
626.259	315.44
626.466	334.44
626.673	332.44
626.879	317.44
627.086	311.44
627.293	317.44
627.499	329.44
627.706	336.44
627.912	328.44
628.119	327.44
628.325	314.44
628.532	334.44
628.738	328.44
628.945	311.44
629.151	338.44
629.357	303.44
629.564	279.44
629.77	308.44
629.976	294.44
630.183	296.44
630.389	286.44
630.595	318.44
630.802	313.44
631.008	320.44
631.214	290.44
631.42	297.44
631.627	293.44
631.833	298.44
632.039	298.44
632.245	284.44
632.451	304.44
632.657	296.44
632.863	311.44
633.069	300.44
633.275	298.44
633.481	280.44
633.688	306.44
633.893	282.44
634.099	294.44
634.305	289.44
634.511	279.44
634.717	298.44
634.923	316.44
635.129	322.44
635.335	357.44
635.541	317.44
635.747	316.44
635.952	324.44
636.158	293.44
636.364	311.44
636.57	297.44
636.775	290.44
636.981	289.44
637.187	290.44
637.392	306.44
637.598	290.44
637.804	303.44
638.009	303.44
638.215	309.44
638.421	278.44
638.626	294.44
638.832	289.44
639.037	297.44
639.243	291.44
639.448	308.44
639.654	310.44
639.859	292.44
640.065	292.44
640.27	299.44
640.475	284.44
640.681	308.44
640.886	323.44
641.091	290.44
641.297	312.44
641.502	329.44
641.707	312.44
641.913	316.44
642.118	325.44
642.323	336.44
642.528	320.44
642.733	330.44
642.939	339.44
643.144	354.44
643.349	360.44
643.554	364.44
643.759	359.44
643.964	392.44
644.169	395.44
644.374	418.44
644.579	446.44
644.784	489.44
644.989	528.44
645.194	596.44
645.399	668.44
645.604	693.44
645.809	562.44
646.014	487.44
646.219	418.44
646.423	367.44
646.628	342.44
646.833	338.44
647.038	324.44
647.243	315.44
647.447	307.44
647.652	300.44
647.857	313.44
648.062	289.44
648.266	286.44
648.471	264.44
648.676	289.44
648.88	286.44
649.085	286.44
649.289	259.44
649.494	258.44
649.698	261.44
649.903	247.44
650.107	278.44
650.312	261.44
650.516	244.44
650.721	260.44
650.925	257.44
651.13	247.44
651.334	248.44
651.539	255.44
651.743	226.44
651.947	224.44
652.152	211.44
652.356	225.44
652.56	236.44
652.764	276.44
652.969	245.44
653.173	229.44
653.377	214.44
653.581	206.44
653.785	223.44
653.99	215.44
654.194	206.44
654.398	212.44
654.602	198.44
654.806	206.44
655.01	215.44
655.214	189.44
655.418	196.44
655.622	212.44
655.826	196.44
656.03	208.44
656.234	210.44
656.438	214.44
656.642	232.44
656.846	230.44
657.049	215.44
657.253	212.44
657.457	182.44
657.661	166.44
657.865	163.44
658.068	172.44
658.272	166.44
658.476	167.44
658.68	146.44
658.883	161.44
659.087	129.44
659.291	149.44
659.494	128.44
659.698	128.44
659.901	119.44
660.105	140.44
660.309	123.44
660.512	98.44
660.716	119.44
660.919	105.44
661.123	110.44
661.326	98.44
661.53	93.44
661.733	110.44
661.936	98.44
662.14	82.44
662.343	90.44
662.546	103.44
662.75	80.44
662.953	87.44
663.156	94.44
663.36	77.44
663.563	94.44
663.766	88.44
663.969	89.44
664.173	93.44
664.376	82.44
664.579	85.44
664.782	91.44
664.985	86.44
665.188	99.44
665.391	80.44
665.594	83.44
665.797	81.44
666	83.44
666.203	84.44
666.406	94.44
666.609	88.44
666.812	76.44
667.015	93.44
667.218	74.44
667.421	81.44
667.624	100.44
667.827	72.44
668.03	74.44
668.232	81.44
668.435	80.44
668.638	88.44
668.841	80.44
669.043	82.44
669.246	87.44
669.449	87.44
669.651	81.44
669.854	84.44
670.057	81.44
670.259	71.44
670.462	78.44
670.665	83.44
670.867	75.44
671.07	80.44
671.272	92.44
671.475	87.44
671.677	85.44
671.88	73.44
672.082	74.44
672.284	93.44
672.487	81.44
672.689	76.44
672.892	103.44
