Data from SnStandardFlinnAPT0064_LampEnergy5.5_LIBS07252019.E.O._I.C._HRD10591_15-16-05-497.txt Node
Date: Thu Jul 25 15:16:05 EDT 2019
User: cochatt
Spectrometer: HR+D1059
Trigger mode: 1
Integration Time (sec): 1.000000E-1
Scans to average: 1
Electric dark correction enabled: true
Nonlinearity correction enabled: false
Boxcar width: 0
XAxis mode: Wavelengths
Number of Pixels in Spectrum: 2048
>>>>>Begin Spectral Data<<<<<
223.165	-11.94
223.4	-11.94
223.635	-11.94
223.869	-19.94
224.104	-21.94
224.338	-18.94
224.573	-12.94
224.808	-7.94
225.042	-17.94
225.277	-11.94
225.511	4.06
225.746	3.06
225.98	13.06
226.215	11.06
226.449	8.06
226.683	35.06
226.918	28.06
227.152	21.06
227.387	34.06
227.621	46.06
227.856	47.06
228.09	33.06
228.324	56.06
228.559	57.06
228.793	81.06
229.027	146.06
229.262	150.06
229.496	160.06
229.73	128.06
229.964	148.06
230.199	163.06
230.433	160.06
230.667	172.06
230.901	171.06
231.136	161.06
231.37	184.06
231.604	172.06
231.838	201.06
232.072	246.06
232.306	236.06
232.541	236.06
232.775	199.06
233.009	205.06
233.243	203.06
233.477	230.06
233.711	242.06
233.945	271.06
234.179	253.06
234.413	206.06
234.647	225.06
234.881	222.06
235.115	242.06
235.349	270.06
235.583	335.06
235.817	435.06
236.051	422.06
236.285	262.06
236.519	240.06
236.753	232.06
236.987	220.06
237.221	239.06
237.455	235.06
237.689	218.06
237.922	200.06
238.156	228.06
238.39	226.06
238.624	228.06
238.858	228.06
239.091	217.06
239.325	238.06
239.559	246.06
239.793	256.06
240.027	248.06
240.26	229.06
240.494	256.06
240.728	272.06
240.961	279.06
241.195	286.06
241.429	285.06
241.662	292.06
241.896	324.06
242.13	393.06
242.363	488.06
242.597	631.06
242.83	601.06
243.064	608.06
243.298	720.06
243.531	616.06
243.765	391.06
243.998	333.06
244.232	294.06
244.465	293.06
244.699	274.06
244.932	279.06
245.166	302.06
245.399	290.06
245.633	318.06
245.866	281.06
246.099	318.06
246.333	287.06
246.566	276.06
246.8	284.06
247.033	296.06
247.266	292.06
247.5	288.06
247.733	284.06
247.966	310.06
248.2	338.06
248.433	373.06
248.666	417.06
248.899	387.06
249.133	377.06
249.366	361.06
249.599	380.06
249.832	453.06
250.066	428.06
250.299	392.06
250.532	337.06
250.765	329.06
250.998	330.06
251.231	351.06
251.465	336.06
251.698	329.06
251.931	320.06
252.164	333.06
252.397	337.06
252.63	349.06
252.863	355.06
253.096	370.06
253.329	358.06
253.562	332.06
253.795	336.06
254.028	351.06
254.261	348.06
254.494	386.06
254.727	407.06
254.96	480.06
255.193	490.06
255.426	408.06
255.659	388.06
255.892	375.06
256.124	387.06
256.357	388.06
256.59	383.06
256.823	404.06
257.056	439.06
257.289	521.06
257.521	569.06
257.754	485.06
257.987	420.06
258.22	399.06
258.452	387.06
258.685	406.06
258.918	410.06
259.151	413.06
259.383	455.06
259.616	497.06
259.849	516.06
260.081	444.06
260.314	429.06
260.547	414.06
260.779	424.06
261.012	425.06
261.244	446.06
261.477	426.06
261.71	432.06
261.942	440.06
262.175	463.06
262.407	462.06
262.64	470.06
262.872	483.06
263.105	508.06
263.337	512.06
263.57	548.06
263.802	575.06
264.035	584.06
264.267	578.06
264.499	618.06
264.732	615.06
264.964	618.06
265.197	625.06
265.429	622.06
265.661	636.06
265.894	673.06
266.126	740.06
266.358	788.06
266.591	742.06
266.823	679.06
267.055	648.06
267.287	614.06
267.52	592.06
267.752	578.06
267.984	557.06
268.216	567.06
268.448	558.06
268.681	556.06
268.913	537.06
269.145	533.06
269.377	542.06
269.609	532.06
269.841	551.06
270.073	568.06
270.306	657.06
270.538	871.06
270.77	1269.06
271.002	1450.06
271.234	1066.06
271.466	738.06
271.698	632.06
271.93	584.06
272.162	557.06
272.394	549.06
272.626	544.06
272.858	521.06
273.09	515.06
273.322	522.06
273.553	521.06
273.785	522.06
274.017	517.06
274.249	527.06
274.481	529.06
274.713	532.06
274.945	528.06
275.176	533.06
275.408	541.06
275.64	526.06
275.872	526.06
276.104	546.06
276.335	532.06
276.567	566.06
276.799	548.06
277.031	561.06
277.262	563.06
277.494	575.06
277.726	639.06
277.957	694.06
278.189	732.06
278.421	739.06
278.652	651.06
278.884	670.06
279.115	621.06
279.347	568.06
279.579	572.06
279.81	584.06
280.042	581.06
280.273	589.06
280.505	613.06
280.736	621.06
280.968	632.06
281.199	670.06
281.431	769.06
281.662	781.06
281.894	689.06
282.125	654.06
282.356	690.06
282.588	676.06
282.819	711.06
283.051	743.06
283.282	801.06
283.513	956.06
283.745	1396.06
283.976	2171.06
284.207	3119.06
284.439	2697.06
284.67	1656.06
284.901	1342.06
285.132	1301.06
285.364	1267.06
285.595	1034.06
285.826	924.06
286.057	1109.06
286.288	1484.06
286.52	1930.06
286.751	1826.06
286.982	1130.06
287.213	880.06
287.444	791.06
287.675	782.06
287.906	740.06
288.138	695.06
288.369	708.06
288.6	708.06
288.831	708.06
289.062	695.06
289.293	701.06
289.524	701.06
289.755	696.06
289.986	695.06
290.217	703.06
290.448	718.06
290.679	713.06
290.91	747.06
291.141	765.06
291.371	782.06
291.602	805.06
291.833	767.06
292.064	712.06
292.295	699.06
292.526	693.06
292.757	678.06
292.987	689.06
293.218	670.06
293.449	668.06
293.68	676.06
293.91	662.06
294.141	669.06
294.372	660.06
294.603	661.06
294.833	679.06
295.064	672.06
295.295	666.06
295.525	663.06
295.756	670.06
295.987	678.06
296.217	690.06
296.448	656.06
296.679	667.06
296.909	682.06
297.14	693.06
297.37	708.06
297.601	694.06
297.831	674.06
298.062	677.06
298.292	672.06
298.523	697.06
298.753	702.06
298.984	727.06
299.214	719.06
299.445	706.06
299.675	723.06
299.905	729.06
300.136	785.06
300.366	858.06
300.597	1060.06
300.827	1420.06
301.057	1966.06
301.288	1923.06
301.518	1285.06
301.748	1008.06
301.979	910.06
302.209	904.06
302.439	896.06
302.669	921.06
302.9	1122.06
303.13	1511.06
303.36	2196.06
303.59	2968.06
303.82	2605.06
304.051	1560.06
304.281	1136.06
304.511	1004.06
304.741	930.06
304.971	869.06
305.201	858.06
305.431	831.06
305.661	796.06
305.891	796.06
306.121	790.06
306.352	765.06
306.582	777.06
306.812	752.06
307.042	788.06
307.272	789.06
307.502	755.06
307.731	766.06
307.961	770.06
308.191	749.06
308.421	753.06
308.651	765.06
308.881	769.06
309.111	745.06
309.341	762.06
309.571	796.06
309.8	788.06
310.03	801.06
310.26	786.06
310.49	796.06
310.72	809.06
310.949	797.06
311.179	806.06
311.409	797.06
311.639	785.06
311.868	801.06
312.098	814.06
312.328	834.06
312.557	829.06
312.787	836.06
313.017	815.06
313.246	827.06
313.476	826.06
313.706	850.06
313.935	889.06
314.165	954.06
314.394	987.06
314.624	976.06
314.853	888.06
315.083	886.06
315.312	890.06
315.542	921.06
315.771	904.06
316.001	902.06
316.23	925.06
316.46	968.06
316.689	1062.06
316.919	1242.06
317.148	1750.06
317.377	2650.06
317.607	3849.06
317.836	4012.06
318.065	2396.06
318.295	1557.06
318.524	1272.06
318.753	1146.06
318.983	1071.06
319.212	1028.06
319.441	1004.06
319.67	1004.06
319.9	982.06
320.129	988.06
320.358	961.06
320.587	976.06
320.816	952.06
321.046	937.06
321.275	975.06
321.504	982.06
321.733	974.06
321.962	986.06
322.191	1045.06
322.42	993.06
322.649	1040.06
322.878	1009.06
323.108	1033.06
323.337	1028.06
323.566	1061.06
323.795	1084.06
324.024	1096.06
324.253	1092.06
324.482	1138.06
324.71	1184.06
324.939	1192.06
325.168	1242.06
325.397	1270.06
325.626	1539.06
325.855	2118.06
326.084	3262.06
326.313	4744.06
326.542	5060.06
326.77	3268.06
326.999	2138.06
327.228	1832.06
327.457	1769.06
327.686	1798.06
327.914	1874.06
328.143	2142.06
328.372	2469.06
328.6	2663.06
328.829	2466.06
329.058	2205.06
329.287	1937.06
329.515	1780.06
329.744	1698.06
329.972	1601.06
330.201	1516.06
330.43	1496.06
330.658	1435.06
330.887	1412.06
331.115	1389.06
331.344	1394.06
331.572	1385.06
331.801	1407.06
332.03	1390.06
332.258	1419.06
332.486	1487.06
332.715	1632.06
332.943	1964.06
333.172	2400.06
333.4	2352.06
333.629	1878.06
333.857	1730.06
334.085	1744.06
334.314	1805.06
334.542	1992.06
334.771	2239.06
334.999	2662.06
335.227	3155.06
335.455	3619.06
335.684	3324.06
335.912	2834.06
336.14	2464.06
336.369	2220.06
336.597	2056.06
336.825	1864.06
337.053	1795.06
337.281	1685.06
337.51	1640.06
337.738	1552.06
337.966	1495.06
338.194	1459.06
338.422	1400.06
338.65	1365.06
338.878	1327.06
339.106	1302.06
339.334	1328.06
339.562	1274.06
339.79	1255.06
340.018	1246.06
340.246	1241.06
340.474	1257.06
340.702	1231.06
340.93	1228.06
341.158	1221.06
341.386	1214.06
341.614	1183.06
341.842	1194.06
342.07	1178.06
342.298	1176.06
342.526	1152.06
342.754	1151.06
342.981	1125.06
343.209	1114.06
343.437	1174.06
343.665	1173.06
343.893	1148.06
344.12	1148.06
344.348	1151.06
344.576	1132.06
344.804	1135.06
345.031	1131.06
345.259	1098.06
345.487	1053.06
345.714	1045.06
345.942	1061.06
346.17	1086.06
346.397	1043.06
346.625	1047.06
346.853	1024.06
347.08	1060.06
347.308	1085.06
347.535	1060.06
347.763	1047.06
347.99	1031.06
348.218	1019.06
348.445	1018.06
348.673	1025.06
348.9	1029.06
349.128	1042.06
349.355	1005.06
349.583	1018.06
349.81	990.06
350.037	999.06
350.265	1041.06
350.492	1030.06
350.72	1017.06
350.947	1009.06
351.174	1006.06
351.402	1021.06
351.629	1014.06
351.856	1032.06
352.083	1006.06
352.311	973.06
352.538	1012.06
352.765	1011.06
352.992	1031.06
353.22	1000.06
353.447	1025.06
353.674	994.06
353.901	1013.06
354.128	998.06
354.355	1007.06
354.583	1036.06
354.81	1004.06
355.037	1037.06
355.264	1029.06
355.491	1014.06
355.718	1033.06
355.945	1058.06
356.172	1034.06
356.399	1047.06
356.626	1015.06
356.853	1048.06
357.08	1069.06
357.307	1062.06
357.534	1073.06
357.761	1071.06
357.988	1067.06
358.215	1093.06
358.441	1078.06
358.668	1033.06
358.895	1042.06
359.122	1052.06
359.349	1057.06
359.576	1080.06
359.802	1062.06
360.029	1070.06
360.256	1062.06
360.483	1082.06
360.709	1084.06
360.936	1070.06
361.163	1090.06
361.39	1094.06
361.616	1085.06
361.843	1098.06
362.07	1057.06
362.296	1090.06
362.523	1073.06
362.749	1089.06
362.976	1082.06
363.203	1088.06
363.429	1069.06
363.656	1076.06
363.882	1075.06
364.109	1096.06
364.335	1068.06
364.562	1061.06
364.788	1087.06
365.015	1058.06
365.241	1082.06
365.468	1128.06
365.694	1163.06
365.92	1161.06
366.147	1079.06
366.373	1132.06
366.599	1098.06
366.826	1089.06
367.052	1084.06
367.278	1088.06
367.505	1108.06
367.731	1108.06
367.957	1120.06
368.184	1093.06
368.41	1118.06
368.636	1142.06
368.862	1118.06
369.089	1110.06
369.315	1098.06
369.541	1105.06
369.767	1093.06
369.993	1094.06
370.219	1110.06
370.445	1149.06
370.672	1136.06
370.898	1117.06
371.124	1100.06
371.35	1113.06
371.576	1143.06
371.802	1163.06
372.028	1148.06
372.254	1162.06
372.48	1174.06
372.706	1176.06
372.932	1204.06
373.158	1187.06
373.384	1164.06
373.61	1164.06
373.835	1170.06
374.061	1132.06
374.287	1162.06
374.513	1200.06
374.739	1230.06
374.965	1228.06
375.191	1226.06
375.416	1232.06
375.642	1219.06
375.868	1194.06
376.094	1170.06
376.319	1183.06
376.545	1186.06
376.771	1169.06
376.997	1158.06
377.222	1159.06
377.448	1157.06
377.674	1132.06
377.899	1181.06
378.125	1136.06
378.35	1134.06
378.576	1147.06
378.802	1168.06
379.027	1214.06
379.253	1194.06
379.478	1286.06
379.704	1397.06
379.929	1968.06
380.155	2886.06
380.38	3081.06
380.606	1954.06
380.831	1415.06
381.057	1276.06
381.282	1241.06
381.507	1190.06
381.733	1160.06
381.958	1165.06
382.184	1185.06
382.409	1154.06
382.634	1154.06
382.86	1139.06
383.085	1146.06
383.31	1169.06
383.535	1162.06
383.761	1117.06
383.986	1137.06
384.211	1151.06
384.436	1149.06
384.662	1225.06
384.887	1152.06
385.112	1169.06
385.337	1185.06
385.562	1178.06
385.787	1160.06
386.013	1218.06
386.238	1163.06
386.463	1186.06
386.688	1183.06
386.913	1200.06
387.138	1179.06
387.363	1196.06
387.588	1134.06
387.813	1183.06
388.038	1173.06
388.263	1162.06
388.488	1177.06
388.713	1196.06
388.938	1204.06
389.163	1196.06
389.387	1172.06
389.612	1177.06
389.837	1186.06
390.062	1175.06
390.287	1180.06
390.512	1182.06
390.736	1203.06
390.961	1210.06
391.186	1198.06
391.411	1239.06
391.636	1247.06
391.86	1234.06
392.085	1246.06
392.31	1240.06
392.534	1221.06
392.759	1235.06
392.984	1230.06
393.208	1210.06
393.433	1238.06
393.658	1260.06
393.882	1225.06
394.107	1206.06
394.331	1223.06
394.556	1198.06
394.78	1196.06
395.005	1219.06
395.229	1185.06
395.454	1230.06
395.678	1272.06
395.903	1228.06
396.127	1260.06
396.352	1216.06
396.576	1245.06
396.801	1216.06
397.025	1277.06
397.249	1217.06
397.474	1257.06
397.698	1230.06
397.922	1265.06
398.147	1233.06
398.371	1283.06
398.595	1337.06
398.82	1318.06
399.044	1369.06
399.268	1435.06
399.492	1546.06
399.717	1585.06
399.941	1561.06
400.165	1501.06
400.389	1434.06
400.613	1409.06
400.837	1342.06
401.062	1318.06
401.286	1340.06
401.51	1317.06
401.734	1270.06
401.958	1304.06
402.182	1319.06
402.406	1297.06
402.63	1320.06
402.854	1328.06
403.078	1353.06
403.302	1351.06
403.526	1354.06
403.75	1350.06
403.974	1367.06
404.198	1342.06
404.422	1381.06
404.645	1367.06
404.869	1360.06
405.093	1366.06
405.317	1350.06
405.541	1369.06
405.765	1394.06
405.988	1392.06
406.212	1402.06
406.436	1376.06
406.66	1414.06
406.883	1388.06
407.107	1417.06
407.331	1464.06
407.555	1460.06
407.778	1473.06
408.002	1475.06
408.226	1438.06
408.449	1424.06
408.673	1385.06
408.896	1386.06
409.12	1364.06
409.344	1383.06
409.567	1331.06
409.791	1337.06
410.014	1362.06
410.238	1373.06
410.461	1361.06
410.685	1354.06
410.908	1351.06
411.132	1354.06
411.355	1317.06
411.578	1307.06
411.802	1325.06
412.025	1318.06
412.249	1331.06
412.472	1332.06
412.695	1301.06
412.919	1303.06
413.142	1274.06
413.365	1291.06
413.589	1317.06
413.812	1264.06
414.035	1267.06
414.258	1302.06
414.482	1303.06
414.705	1290.06
414.928	1311.06
415.151	1294.06
415.374	1286.06
415.597	1279.06
415.821	1254.06
416.044	1253.06
416.267	1236.06
416.49	1237.06
416.713	1222.06
416.936	1222.06
417.159	1222.06
417.382	1230.06
417.605	1213.06
417.828	1247.06
418.051	1264.06
418.274	1233.06
418.497	1252.06
418.72	1281.06
418.943	1256.06
419.166	1311.06
419.389	1377.06
419.611	1353.06
419.834	1324.06
420.057	1270.06
420.28	1248.06
420.503	1253.06
420.726	1253.06
420.948	1206.06
421.171	1218.06
421.394	1233.06
421.617	1206.06
421.839	1238.06
422.062	1284.06
422.285	1213.06
422.507	1264.06
422.73	1280.06
422.953	1246.06
423.175	1304.06
423.398	1268.06
423.621	1236.06
423.843	1260.06
424.066	1264.06
424.288	1260.06
424.511	1256.06
424.733	1231.06
424.956	1237.06
425.178	1226.06
425.401	1236.06
425.623	1228.06
425.846	1192.06
426.068	1180.06
426.291	1216.06
426.513	1191.06
426.735	1210.06
426.958	1222.06
427.18	1166.06
427.402	1200.06
427.625	1198.06
427.847	1143.06
428.069	1172.06
428.292	1180.06
428.514	1156.06
428.736	1143.06
428.958	1183.06
429.181	1151.06
429.403	1127.06
429.625	1150.06
429.847	1150.06
430.069	1146.06
430.292	1216.06
430.514	1215.06
430.736	1209.06
430.958	1185.06
431.18	1158.06
431.402	1163.06
431.624	1148.06
431.846	1113.06
432.068	1099.06
432.29	1095.06
432.512	1120.06
432.734	1157.06
432.956	1148.06
433.178	1126.06
433.4	1133.06
433.622	1136.06
433.844	1188.06
434.066	1128.06
434.287	1121.06
434.509	1150.06
434.731	1163.06
434.953	1182.06
435.175	1186.06
435.397	1224.06
435.618	1170.06
435.84	1134.06
436.062	1136.06
436.284	1125.06
436.505	1109.06
436.727	1132.06
436.949	1134.06
437.17	1176.06
437.392	1121.06
437.614	1138.06
437.835	1088.06
438.057	1137.06
438.278	1092.06
438.5	1116.06
438.721	1129.06
438.943	1176.06
439.165	1196.06
439.386	1185.06
439.608	1182.06
439.829	1201.06
440.05	1193.06
440.272	1224.06
440.493	1176.06
440.715	1184.06
440.936	1187.06
441.158	1190.06
441.379	1223.06
441.6	1245.06
441.822	1287.06
442.043	1336.06
442.264	1376.06
442.486	1286.06
442.707	1252.06
442.928	1197.06
443.149	1200.06
443.371	1239.06
443.592	1236.06
443.813	1211.06
444.034	1233.06
444.255	1260.06
444.476	1302.06
444.698	1309.06
444.919	1324.06
445.14	1374.06
445.361	1320.06
445.582	1273.06
445.803	1208.06
446.024	1246.06
446.245	1218.06
446.466	1224.06
446.687	1203.06
446.908	1216.06
447.129	1194.06
447.35	1184.06
447.571	1188.06
447.792	1153.06
448.013	1169.06
448.234	1129.06
448.455	1141.06
448.675	1138.06
448.896	1152.06
449.117	1154.06
449.338	1261.06
449.559	1337.06
449.779	1171.06
450	1112.06
450.221	1115.06
450.442	1141.06
450.662	1121.06
450.883	1098.06
451.104	1116.06
451.324	1100.06
451.545	1102.06
451.766	1095.06
451.986	1088.06
452.207	1156.06
452.428	1363.06
452.648	1888.06
452.869	1625.06
453.089	1246.06
453.31	1211.06
453.53	1204.06
453.751	1219.06
453.971	1299.06
454.192	1286.06
454.412	1132.06
454.633	1109.06
454.853	1068.06
455.073	1050.06
455.294	1034.06
455.514	1038.06
455.734	1048.06
455.955	1038.06
456.175	1038.06
456.395	1015.06
456.616	1063.06
456.836	1057.06
457.056	1037.06
457.276	1039.06
457.497	1133.06
457.717	1102.06
457.937	1054.06
458.157	1117.06
458.377	1097.06
458.598	1117.06
458.818	1102.06
459.038	1106.06
459.258	1110.06
459.478	1137.06
459.698	1158.06
459.918	1159.06
460.138	1197.06
460.358	1184.06
460.578	1215.06
460.798	1246.06
461.018	1234.06
461.238	1255.06
461.458	1291.06
461.678	1234.06
461.898	1285.06
462.118	1260.06
462.338	1309.06
462.558	1310.06
462.777	1365.06
462.997	1359.06
463.217	1450.06
463.437	1475.06
463.657	1485.06
463.876	1445.06
464.096	1414.06
464.316	1332.06
464.536	1348.06
464.755	1316.06
464.975	1317.06
465.195	1266.06
465.414	1233.06
465.634	1194.06
465.854	1152.06
466.073	1169.06
466.293	1166.06
466.512	1154.06
466.732	1133.06
466.951	1221.06
467.171	1265.06
467.391	1231.06
467.61	1159.06
467.829	1153.06
468.049	1156.06
468.268	1118.06
468.488	1132.06
468.707	1112.06
468.927	1125.06
469.146	1108.06
469.365	1136.06
469.585	1110.06
469.804	1168.06
470.023	1187.06
470.243	1190.06
470.462	1249.06
470.681	1261.06
470.901	1381.06
471.12	1572.06
471.339	1572.06
471.558	1333.06
471.777	1226.06
471.997	1159.06
472.216	1147.06
472.435	1123.06
472.654	1146.06
472.873	1094.06
473.092	1088.06
473.311	1118.06
473.53	1135.06
473.749	1150.06
473.968	1191.06
474.187	1103.06
474.406	1150.06
474.625	1156.06
474.844	1136.06
475.063	1124.06
475.282	1120.06
475.501	1118.06
475.72	1158.06
475.939	1176.06
476.158	1179.06
476.377	1182.06
476.596	1181.06
476.814	1175.06
477.033	1133.06
477.252	1187.06
477.471	1205.06
477.69	1242.06
477.908	1268.06
478.127	1278.06
478.346	1266.06
478.564	1292.06
478.783	1298.06
479.002	1329.06
479.22	1323.06
479.439	1361.06
479.658	1334.06
479.876	1336.06
480.095	1330.06
480.313	1391.06
480.532	1358.06
480.751	1347.06
480.969	1375.06
481.188	1349.06
481.406	1346.06
481.624	1314.06
481.843	1307.06
482.061	1350.06
482.28	1343.06
482.498	1315.06
482.717	1302.06
482.935	1347.06
483.153	1377.06
483.372	1417.06
483.59	1420.06
483.808	1417.06
484.027	1419.06
484.245	1470.06
484.463	1636.06
484.681	1839.06
484.9	1641.06
485.118	1565.06
485.336	1542.06
485.554	1568.06
485.772	1653.06
485.99	1857.06
486.209	2012.06
486.427	1709.06
486.645	1573.06
486.863	1498.06
487.081	1468.06
487.299	1447.06
487.517	1434.06
487.735	1487.06
487.953	1450.06
488.171	1453.06
488.389	1452.06
488.607	1428.06
488.825	1435.06
489.043	1381.06
489.261	1386.06
489.479	1377.06
489.696	1410.06
489.914	1424.06
490.132	1365.06
490.35	1417.06
490.568	1419.06
490.786	1442.06
491.003	1455.06
491.221	1483.06
491.439	1497.06
491.657	1485.06
491.874	1523.06
492.092	1514.06
492.31	1542.06
492.527	1544.06
492.745	1512.06
492.963	1485.06
493.18	1510.06
493.398	1462.06
493.615	1492.06
493.833	1464.06
494.05	1486.06
494.268	1507.06
494.485	1469.06
494.703	1524.06
494.92	1475.06
495.138	1491.06
495.355	1488.06
495.573	1528.06
495.79	1526.06
496.008	1497.06
496.225	1504.06
496.442	1548.06
496.66	1574.06
496.877	1639.06
497.094	1626.06
497.312	1589.06
497.529	1580.06
497.746	1625.06
497.963	1652.06
498.181	1661.06
498.398	1701.06
498.615	1728.06
498.832	1824.06
499.049	1855.06
499.267	1986.06
499.484	2123.06
499.701	2116.06
499.918	2253.06
500.135	2346.06
500.352	2480.06
500.569	2550.06
500.786	2492.06
501.003	2463.06
501.22	2266.06
501.437	2183.06
501.654	2072.06
501.871	1978.06
502.088	1884.06
502.305	1792.06
502.522	1744.06
502.739	1732.06
502.956	1639.06
503.172	1625.06
503.389	1607.06
503.606	1575.06
503.823	1570.06
504.04	1510.06
504.256	1556.06
504.473	1526.06
504.69	1512.06
504.907	1538.06
505.123	1470.06
505.34	1455.06
505.557	1404.06
505.773	1420.06
505.99	1386.06
506.207	1336.06
506.423	1329.06
506.64	1347.06
506.856	1303.06
507.073	1308.06
507.289	1302.06
507.506	1273.06
507.722	1283.06
507.939	1280.06
508.155	1289.06
508.372	1271.06
508.588	1267.06
508.805	1266.06
509.021	1256.06
509.238	1294.06
509.454	1334.06
509.67	1367.06
509.887	1262.06
510.103	1280.06
510.319	1255.06
510.536	1260.06
510.752	1235.06
510.968	1199.06
511.184	1230.06
511.401	1221.06
511.617	1188.06
511.833	1216.06
512.049	1215.06
512.265	1224.06
512.481	1216.06
512.698	1210.06
512.914	1216.06
513.13	1205.06
513.346	1187.06
513.562	1177.06
513.778	1209.06
513.994	1247.06
514.21	1260.06
514.426	1270.06
514.642	1335.06
514.858	1281.06
515.074	1238.06
515.29	1212.06
515.506	1248.06
515.721	1212.06
515.937	1243.06
516.153	1267.06
516.369	1272.06
516.585	1293.06
516.801	1298.06
517.016	1340.06
517.232	1326.06
517.448	1359.06
517.664	1388.06
517.879	1388.06
518.095	1345.06
518.311	1403.06
518.527	1315.06
518.742	1336.06
518.958	1309.06
519.173	1321.06
519.389	1327.06
519.605	1265.06
519.82	1248.06
520.036	1254.06
520.251	1238.06
520.467	1236.06
520.682	1222.06
520.898	1168.06
521.113	1195.06
521.329	1209.06
521.544	1191.06
521.76	1193.06
521.975	1178.06
522.19	1174.06
522.406	1183.06
522.621	1196.06
522.836	1144.06
523.052	1180.06
523.267	1198.06
523.482	1169.06
523.698	1164.06
523.913	1155.06
524.128	1192.06
524.343	1182.06
524.559	1187.06
524.774	1148.06
524.989	1196.06
525.204	1178.06
525.419	1144.06
525.634	1158.06
525.849	1148.06
526.064	1158.06
526.28	1188.06
526.495	1166.06
526.71	1135.06
526.925	1182.06
527.14	1156.06
527.355	1160.06
527.57	1176.06
527.785	1157.06
527.999	1152.06
528.214	1183.06
528.429	1210.06
528.644	1229.06
528.859	1207.06
529.074	1257.06
529.289	1232.06
529.503	1275.06
529.718	1244.06
529.933	1236.06
530.148	1254.06
530.363	1236.06
530.577	1232.06
530.792	1214.06
531.007	1241.06
531.221	1217.06
531.436	1246.06
531.651	1196.06
531.865	1281.06
532.08	1326.06
532.295	1334.06
532.509	1365.06
532.724	1381.06
532.938	1399.06
533.153	1429.06
533.367	1475.06
533.582	1525.06
533.796	1516.06
534.011	1467.06
534.225	1451.06
534.44	1390.06
534.654	1406.06
534.868	1371.06
535.083	1360.06
535.297	1338.06
535.511	1316.06
535.726	1285.06
535.94	1265.06
536.154	1303.06
536.369	1276.06
536.583	1246.06
536.797	1281.06
537.011	1216.06
537.225	1210.06
537.44	1204.06
537.654	1213.06
537.868	1159.06
538.082	1144.06
538.296	1168.06
538.51	1160.06
538.724	1181.06
538.938	1160.06
539.153	1128.06
539.367	1154.06
539.581	1127.06
539.795	1140.06
540.009	1090.06
540.222	1108.06
540.436	1091.06
540.65	1129.06
540.864	1137.06
541.078	1151.06
541.292	1246.06
541.506	1421.06
541.72	1465.06
541.934	1329.06
542.147	1278.06
542.361	1212.06
542.575	1139.06
542.789	1140.06
543.002	1103.06
543.216	1078.06
543.43	1095.06
543.644	1095.06
543.857	1088.06
544.071	1145.06
544.285	1150.06
544.498	1137.06
544.712	1128.06
544.925	1155.06
545.139	1140.06
545.352	1135.06
545.566	1132.06
545.779	1156.06
545.993	1125.06
546.206	1154.06
546.42	1148.06
546.633	1147.06
546.847	1118.06
547.06	1126.06
547.274	1148.06
547.487	1152.06
547.7	1157.06
547.914	1140.06
548.127	1133.06
548.34	1109.06
548.554	1145.06
548.767	1145.06
548.98	1130.06
549.193	1140.06
549.407	1126.06
549.62	1132.06
549.833	1142.06
550.046	1137.06
550.259	1126.06
550.473	1108.06
550.686	1175.06
550.899	1140.06
551.112	1150.06
551.325	1111.06
551.538	1105.06
551.751	1082.06
551.964	1097.06
552.177	1108.06
552.39	1142.06
552.603	1211.06
552.816	1184.06
553.029	1208.06
553.242	1207.06
553.455	1226.06
553.667	1257.06
553.88	1230.06
554.093	1269.06
554.306	1226.06
554.519	1288.06
554.732	1245.06
554.944	1254.06
555.157	1282.06
555.37	1303.06
555.583	1371.06
555.795	1396.06
556.008	1481.06
556.221	1537.06
556.433	1632.06
556.646	1641.06
556.859	1627.06
557.071	1599.06
557.284	1558.06
557.496	1511.06
557.709	1535.06
557.921	1510.06
558.134	1546.06
558.346	1512.06
558.559	1543.06
558.771	1603.06
558.984	1693.06
559.196	1787.06
559.409	1732.06
559.621	1660.06
559.833	1598.06
560.046	1519.06
560.258	1418.06
560.47	1429.06
560.683	1359.06
560.895	1326.06
561.107	1288.06
561.32	1262.06
561.532	1236.06
561.744	1202.06
561.956	1150.06
562.168	1156.06
562.381	1129.06
562.593	1146.06
562.805	1119.06
563.017	1155.06
563.229	1174.06
563.441	1240.06
563.653	1120.06
563.865	1063.06
564.077	1035.06
564.289	1052.06
564.501	1059.06
564.713	1037.06
564.925	1009.06
565.137	1079.06
565.349	1046.06
565.561	1035.06
565.773	1076.06
565.985	1057.06
566.197	1074.06
566.408	1109.06
566.62	1117.06
566.832	1145.06
567.044	1160.06
567.255	1145.06
567.467	1164.06
567.679	1179.06
567.891	1261.06
568.102	1389.06
568.314	1574.06
568.526	1323.06
568.737	1132.06
568.949	1064.06
569.161	1012.06
569.372	966.06
569.584	953.06
569.795	933.06
570.007	925.06
570.218	929.06
570.43	982.06
570.641	891.06
570.853	898.06
571.064	869.06
571.276	872.06
571.487	876.06
571.698	864.06
571.91	854.06
572.121	830.06
572.333	839.06
572.544	825.06
572.755	868.06
572.966	1009.06
573.178	894.06
573.389	833.06
573.6	765.06
573.811	757.06
574.023	783.06
574.234	764.06
574.445	770.06
574.656	744.06
574.867	739.06
575.078	756.06
575.289	753.06
575.501	761.06
575.712	749.06
575.923	737.06
576.134	741.06
576.345	782.06
576.556	796.06
576.767	776.06
576.978	784.06
577.188	784.06
577.399	772.06
577.61	771.06
577.821	780.06
578.032	764.06
578.243	787.06
578.454	803.06
578.665	804.06
578.875	801.06
579.086	846.06
579.297	879.06
579.508	894.06
579.718	994.06
579.929	1068.06
580.14	1159.06
580.35	1212.06
580.561	1166.06
580.772	1064.06
580.982	990.06
581.193	973.06
581.403	936.06
581.614	884.06
581.825	853.06
582.035	849.06
582.246	807.06
582.456	789.06
582.667	770.06
582.877	751.06
583.087	748.06
583.298	710.06
583.508	706.06
583.719	695.06
583.929	686.06
584.139	674.06
584.35	673.06
584.56	657.06
584.77	660.06
584.981	644.06
585.191	613.06
585.401	647.06
585.611	624.06
585.821	607.06
586.032	628.06
586.242	603.06
586.452	607.06
586.662	608.06
586.872	599.06
587.082	583.06
587.292	585.06
587.502	578.06
587.713	555.06
587.923	540.06
588.133	572.06
588.343	570.06
588.553	579.06
588.762	544.06
588.972	573.06
589.182	560.06
589.392	574.06
589.602	551.06
589.812	542.06
590.022	552.06
590.232	529.06
590.441	529.06
590.651	533.06
590.861	543.06
591.071	530.06
591.281	574.06
591.49	558.06
591.7	542.06
591.91	547.06
592.119	554.06
592.329	550.06
592.539	574.06
592.748	565.06
592.958	576.06
593.167	551.06
593.377	558.06
593.587	564.06
593.796	578.06
594.006	581.06
594.215	556.06
594.424	558.06
594.634	540.06
594.843	542.06
595.053	553.06
595.262	533.06
595.472	541.06
595.681	510.06
595.89	516.06
596.1	534.06
596.309	508.06
596.518	479.06
596.727	478.06
596.937	492.06
597.146	494.06
597.355	505.06
597.564	481.06
597.774	466.06
597.983	470.06
598.192	462.06
598.401	439.06
598.61	478.06
598.819	462.06
599.028	447.06
599.237	434.06
599.446	451.06
599.655	444.06
599.864	450.06
600.073	434.06
600.282	452.06
600.491	438.06
600.7	450.06
600.909	424.06
601.118	446.06
601.327	461.06
601.536	460.06
601.745	491.06
601.953	504.06
602.162	543.06
602.371	497.06
602.58	451.06
602.789	426.06
602.997	447.06
603.206	450.06
603.415	439.06
603.623	440.06
603.832	434.06
604.041	423.06
604.249	441.06
604.458	406.06
604.666	404.06
604.875	411.06
605.084	436.06
605.292	440.06
605.501	435.06
605.709	418.06
605.918	440.06
606.126	428.06
606.334	444.06
606.543	444.06
606.751	477.06
606.96	510.06
607.168	549.06
607.376	480.06
607.585	485.06
607.793	455.06
608.001	420.06
608.21	437.06
608.418	439.06
608.626	433.06
608.834	439.06
609.043	424.06
609.251	423.06
609.459	399.06
609.667	423.06
609.875	408.06
610.083	411.06
610.291	417.06
610.499	400.06
610.707	419.06
610.916	417.06
611.124	419.06
611.332	426.06
611.54	410.06
611.748	407.06
611.955	392.06
612.163	402.06
612.371	398.06
612.579	428.06
612.787	422.06
612.995	412.06
613.203	407.06
613.411	406.06
613.618	415.06
613.826	408.06
614.034	372.06
614.242	397.06
614.449	393.06
614.657	394.06
614.865	373.06
615.072	398.06
615.28	394.06
615.488	394.06
615.695	396.06
615.903	393.06
616.111	383.06
616.318	396.06
616.526	392.06
616.733	378.06
616.941	375.06
617.148	385.06
617.356	377.06
617.563	380.06
617.771	391.06
617.978	382.06
618.185	372.06
618.393	372.06
618.6	388.06
618.807	378.06
619.015	386.06
619.222	377.06
619.429	371.06
619.637	369.06
619.844	356.06
620.051	353.06
620.258	376.06
620.466	359.06
620.673	364.06
620.88	372.06
621.087	356.06
621.294	347.06
621.501	357.06
621.708	343.06
621.915	341.06
622.122	349.06
622.329	357.06
622.536	352.06
622.743	340.06
622.95	365.06
623.157	348.06
623.364	344.06
623.571	347.06
623.778	344.06
623.985	345.06
624.192	356.06
624.399	344.06
624.606	351.06
624.812	336.06
625.019	340.06
625.226	335.06
625.433	336.06
625.639	318.06
625.846	323.06
626.053	316.06
626.259	311.06
626.466	322.06
626.673	324.06
626.879	278.06
627.086	287.06
627.293	311.06
627.499	328.06
627.706	338.06
627.912	321.06
628.119	316.06
628.325	322.06
628.532	319.06
628.738	321.06
628.945	327.06
629.151	331.06
629.357	300.06
629.564	302.06
629.77	320.06
629.976	324.06
630.183	317.06
630.389	306.06
630.595	305.06
630.802	297.06
631.008	292.06
631.214	303.06
631.42	335.06
631.627	290.06
631.833	322.06
632.039	312.06
632.245	322.06
632.451	285.06
632.657	324.06
632.863	297.06
633.069	303.06
633.275	316.06
633.481	316.06
633.688	302.06
633.893	288.06
634.099	312.06
634.305	291.06
634.511	284.06
634.717	292.06
634.923	302.06
635.129	356.06
635.335	376.06
635.541	314.06
635.747	313.06
635.952	310.06
636.158	295.06
636.364	309.06
636.57	316.06
636.775	308.06
636.981	296.06
637.187	303.06
637.392	306.06
637.598	284.06
637.804	298.06
638.009	297.06
638.215	303.06
638.421	304.06
638.626	323.06
638.832	293.06
639.037	295.06
639.243	277.06
639.448	276.06
639.654	297.06
639.859	302.06
640.065	300.06
640.27	307.06
640.475	292.06
640.681	316.06
640.886	317.06
641.091	326.06
641.297	312.06
641.502	319.06
641.707	328.06
641.913	329.06
642.118	340.06
642.323	340.06
642.528	350.06
642.733	345.06
642.939	345.06
643.144	356.06
643.349	357.06
643.554	383.06
643.759	375.06
643.964	390.06
644.169	409.06
644.374	442.06
644.579	464.06
644.784	489.06
644.989	540.06
645.194	609.06
645.399	712.06
645.604	703.06
645.809	604.06
646.014	471.06
646.219	422.06
646.423	375.06
646.628	361.06
646.833	347.06
647.038	334.06
647.243	331.06
647.447	315.06
647.652	287.06
647.857	313.06
648.062	322.06
648.266	303.06
648.471	288.06
648.676	294.06
648.88	280.06
649.085	293.06
649.289	287.06
649.494	268.06
649.698	258.06
649.903	248.06
650.107	268.06
650.312	263.06
650.516	237.06
650.721	257.06
650.925	240.06
651.13	250.06
651.334	245.06
651.539	230.06
651.743	215.06
651.947	217.06
652.152	240.06
652.356	225.06
652.56	262.06
652.764	264.06
652.969	237.06
653.173	237.06
653.377	215.06
653.581	210.06
653.785	214.06
653.99	209.06
654.194	201.06
654.398	206.06
654.602	200.06
654.806	205.06
655.01	215.06
655.214	216.06
655.418	197.06
655.622	201.06
655.826	215.06
656.03	200.06
656.234	225.06
656.438	244.06
656.642	216.06
656.846	218.06
657.049	214.06
657.253	195.06
657.457	199.06
657.661	177.06
657.865	161.06
658.068	150.06
658.272	173.06
658.476	156.06
658.68	141.06
658.883	152.06
659.087	127.06
659.291	134.06
659.494	135.06
659.698	126.06
659.901	118.06
660.105	141.06
660.309	111.06
660.512	129.06
660.716	112.06
660.919	121.06
661.123	107.06
661.326	114.06
661.53	100.06
661.733	106.06
661.936	87.06
662.14	102.06
662.343	89.06
662.546	106.06
662.75	91.06
662.953	83.06
663.156	92.06
663.36	96.06
663.563	95.06
663.766	82.06
663.969	74.06
664.173	90.06
664.376	93.06
664.579	80.06
664.782	86.06
664.985	82.06
665.188	88.06
665.391	89.06
665.594	81.06
665.797	79.06
666	78.06
666.203	93.06
666.406	92.06
666.609	67.06
666.812	94.06
667.015	84.06
667.218	93.06
667.421	87.06
667.624	71.06
667.827	74.06
668.03	78.06
668.232	85.06
668.435	83.06
668.638	84.06
668.841	82.06
669.043	74.06
669.246	80.06
669.449	88.06
669.651	64.06
669.854	84.06
670.057	63.06
670.259	76.06
670.462	78.06
670.665	74.06
670.867	91.06
671.07	89.06
671.272	83.06
671.475	88.06
671.677	82.06
671.88	85.06
672.082	92.06
672.284	76.06
672.487	78.06
672.689	75.06
672.892	74.06
