Data from SnStandardFlinnAPT0064_LampEnergy10_LIBS07252019.E.O._I.C._HRD10591_15-21-18-494.txt Node
Date: Thu Jul 25 15:21:18 EDT 2019
User: cochatt
Spectrometer: HR+D1059
Trigger mode: 1
Integration Time (sec): 1.000000E-1
Scans to average: 1
Electric dark correction enabled: true
Nonlinearity correction enabled: false
Boxcar width: 0
XAxis mode: Wavelengths
Number of Pixels in Spectrum: 2048
>>>>>Begin Spectral Data<<<<<
223.165	-16.75
223.4	-16.75
223.635	-16.75
223.869	-19.75
224.104	-12.75
224.338	-9.75
224.573	-19.75
224.808	-15.75
225.042	-0.75
225.277	-6.75
225.511	-5.75
225.746	-0.75
225.98	2.25
226.215	13.25
226.449	15.25
226.683	24.25
226.918	25.25
227.152	28.25
227.387	35.25
227.621	33.25
227.856	43.25
228.09	51.25
228.324	51.25
228.559	62.25
228.793	120.25
229.027	309.25
229.262	334.25
229.496	309.25
229.73	284.25
229.964	282.25
230.199	305.25
230.433	306.25
230.667	314.25
230.901	319.25
231.136	329.25
231.37	348.25
231.604	385.25
231.838	420.25
232.072	496.25
232.306	539.25
232.541	461.25
232.775	431.25
233.009	407.25
233.243	407.25
233.477	456.25
233.711	507.25
233.945	566.25
234.179	491.25
234.413	459.25
234.647	450.25
234.881	482.25
235.115	519.25
235.349	586.25
235.583	743.25
235.817	962.25
236.051	967.25
236.285	678.25
236.519	545.25
236.753	486.25
236.987	529.25
237.221	532.25
237.455	507.25
237.689	448.25
237.922	469.25
238.156	473.25
238.39	486.25
238.624	499.25
238.858	466.25
239.091	491.25
239.325	501.25
239.559	510.25
239.793	515.25
240.027	526.25
240.26	536.25
240.494	566.25
240.728	579.25
240.961	606.25
241.195	651.25
241.429	652.25
241.662	679.25
241.896	784.25
242.13	939.25
242.363	1262.25
242.597	1575.25
242.83	1520.25
243.064	1534.25
243.298	1750.25
243.531	1470.25
243.765	947.25
243.998	772.25
244.232	720.25
244.465	661.25
244.699	659.25
244.932	642.25
245.166	641.25
245.399	691.25
245.633	672.25
245.866	684.25
246.099	690.25
246.333	666.25
246.566	659.25
246.8	630.25
247.033	648.25
247.266	661.25
247.5	658.25
247.733	700.25
247.966	711.25
248.2	776.25
248.433	888.25
248.666	976.25
248.899	954.25
249.133	852.25
249.366	870.25
249.599	938.25
249.832	1078.25
250.066	1098.25
250.299	862.25
250.532	797.25
250.765	777.25
250.998	740.25
251.231	754.25
251.465	718.25
251.698	747.25
251.931	747.25
252.164	751.25
252.397	755.25
252.63	780.25
252.863	817.25
253.096	800.25
253.329	776.25
253.562	818.25
253.795	772.25
254.028	798.25
254.261	806.25
254.494	890.25
254.727	1020.25
254.96	1238.25
255.193	1227.25
255.426	964.25
255.659	882.25
255.892	864.25
256.124	854.25
256.357	854.25
256.59	919.25
256.823	999.25
257.056	1085.25
257.289	1348.25
257.521	1495.25
257.754	1202.25
257.987	973.25
258.22	948.25
258.452	915.25
258.685	920.25
258.918	943.25
259.151	995.25
259.383	1101.25
259.616	1233.25
259.849	1249.25
260.081	1103.25
260.314	993.25
260.547	969.25
260.779	982.25
261.012	961.25
261.244	971.25
261.477	978.25
261.71	1021.25
261.942	1024.25
262.175	1024.25
262.407	1076.25
262.64	1073.25
262.872	1071.25
263.105	1170.25
263.337	1218.25
263.57	1280.25
263.802	1293.25
264.035	1325.25
264.267	1363.25
264.499	1377.25
264.732	1442.25
264.964	1471.25
265.197	1472.25
265.429	1429.25
265.661	1493.25
265.894	1587.25
266.126	1739.25
266.358	1950.25
266.591	1910.25
266.823	1600.25
267.055	1454.25
267.287	1413.25
267.52	1337.25
267.752	1337.25
267.984	1301.25
268.216	1270.25
268.448	1278.25
268.681	1206.25
268.913	1229.25
269.145	1226.25
269.377	1218.25
269.609	1260.25
269.841	1305.25
270.073	1383.25
270.306	1574.25
270.538	2103.25
270.77	3102.25
271.002	3863.25
271.234	2716.25
271.466	1851.25
271.698	1545.25
271.93	1398.25
272.162	1336.25
272.394	1287.25
272.626	1255.25
272.858	1189.25
273.09	1232.25
273.322	1201.25
273.553	1206.25
273.785	1213.25
274.017	1206.25
274.249	1242.25
274.481	1257.25
274.713	1210.25
274.945	1198.25
275.176	1217.25
275.408	1205.25
275.64	1192.25
275.872	1242.25
276.104	1268.25
276.335	1249.25
276.567	1267.25
276.799	1264.25
277.031	1306.25
277.262	1323.25
277.494	1387.25
277.726	1546.25
277.957	1834.25
278.189	2098.25
278.421	2008.25
278.652	1745.25
278.884	1657.25
279.115	1483.25
279.347	1425.25
279.579	1386.25
279.81	1352.25
280.042	1359.25
280.273	1407.25
280.505	1468.25
280.736	1492.25
280.968	1578.25
281.199	1783.25
281.431	2017.25
281.662	2088.25
281.894	1797.25
282.125	1632.25
282.356	1636.25
282.588	1640.25
282.819	1676.25
283.051	1847.25
283.282	1998.25
283.513	2448.25
283.745	3566.25
283.976	5508.25
284.207	7811.25
284.439	7067.25
284.67	4460.25
284.901	3688.25
285.132	3621.25
285.364	3518.25
285.595	2672.25
285.826	2450.25
286.057	2854.25
286.288	3809.25
286.52	5104.25
286.751	4762.25
286.982	3009.25
287.213	2289.25
287.444	2007.25
287.675	1863.25
287.906	1775.25
288.138	1728.25
288.369	1696.25
288.6	1712.25
288.831	1681.25
289.062	1702.25
289.293	1744.25
289.524	1696.25
289.755	1699.25
289.986	1702.25
290.217	1734.25
290.448	1685.25
290.679	1731.25
290.91	1780.25
291.141	1874.25
291.371	2004.25
291.602	2124.25
291.833	1925.25
292.064	1743.25
292.295	1708.25
292.526	1662.25
292.757	1623.25
292.987	1600.25
293.218	1598.25
293.449	1594.25
293.68	1605.25
293.91	1605.25
294.141	1545.25
294.372	1543.25
294.603	1590.25
294.833	1582.25
295.064	1557.25
295.295	1556.25
295.525	1570.25
295.756	1576.25
295.987	1576.25
296.217	1601.25
296.448	1594.25
296.679	1615.25
296.909	1600.25
297.14	1627.25
297.37	1616.25
297.601	1660.25
297.831	1638.25
298.062	1632.25
298.292	1663.25
298.523	1663.25
298.753	1679.25
298.984	1730.25
299.214	1759.25
299.445	1738.25
299.675	1720.25
299.905	1826.25
300.136	1896.25
300.366	2184.25
300.597	2713.25
300.827	3734.25
301.057	5106.25
301.288	5094.25
301.518	3340.25
301.748	2582.25
301.979	2320.25
302.209	2293.25
302.439	2337.25
302.669	2417.25
302.9	2967.25
303.13	4053.25
303.36	6022.25
303.59	7942.25
303.82	6988.25
304.051	4216.25
304.281	2976.25
304.511	2532.25
304.741	2344.25
304.971	2198.25
305.201	2081.25
305.431	1996.25
305.661	1995.25
305.891	1941.25
306.121	1873.25
306.352	1911.25
306.582	1869.25
306.812	1838.25
307.042	1866.25
307.272	1873.25
307.502	1797.25
307.731	1834.25
307.961	1862.25
308.191	1780.25
308.421	1813.25
308.651	1834.25
308.881	1806.25
309.111	1861.25
309.341	1842.25
309.571	1874.25
309.8	1872.25
310.03	1883.25
310.26	1874.25
310.49	1872.25
310.72	1899.25
310.949	1897.25
311.179	1877.25
311.409	1911.25
311.639	1961.25
311.868	1918.25
312.098	1951.25
312.328	1939.25
312.557	1979.25
312.787	1981.25
313.017	1950.25
313.246	2014.25
313.476	2048.25
313.706	2124.25
313.935	2194.25
314.165	2397.25
314.394	2430.25
314.624	2378.25
314.853	2182.25
315.083	2152.25
315.312	2140.25
315.542	2225.25
315.771	2196.25
316.001	2251.25
316.23	2283.25
316.46	2461.25
316.689	2688.25
316.919	3192.25
317.148	4507.25
317.377	6920.25
317.607	10136.25
317.836	10526.25
318.065	6467.25
318.295	4252.25
318.524	3460.25
318.753	2963.25
318.983	2758.25
319.212	2545.25
319.441	2503.25
319.67	2473.25
319.9	2403.25
320.129	2388.25
320.358	2360.25
320.587	2353.25
320.816	2366.25
321.046	2392.25
321.275	2403.25
321.504	2373.25
321.733	2416.25
321.962	2502.25
322.191	2556.25
322.42	2528.25
322.649	2509.25
322.878	2486.25
323.108	2517.25
323.337	2521.25
323.566	2632.25
323.795	2664.25
324.024	2697.25
324.253	2706.25
324.482	2835.25
324.71	3036.25
324.939	3257.25
325.168	3250.25
325.397	3411.25
325.626	3987.25
325.855	5577.25
326.084	8688.25
326.313	12389.25
326.542	13160.25
326.77	8873.25
326.999	5864.25
327.228	4926.25
327.457	4759.25
327.686	4834.25
327.914	5168.25
328.143	5942.25
328.372	7182.25
328.6	7732.25
328.829	6930.25
329.058	5839.25
329.287	5092.25
329.515	4694.25
329.744	4251.25
329.972	4122.25
330.201	3944.25
330.43	3708.25
330.658	3660.25
330.887	3584.25
331.115	3598.25
331.344	3507.25
331.572	3486.25
331.801	3521.25
332.03	3609.25
332.258	3557.25
332.486	3727.25
332.715	4258.25
332.943	5305.25
333.172	6584.25
333.4	6550.25
333.629	5034.25
333.857	4584.25
334.085	4527.25
334.314	4743.25
334.542	5207.25
334.771	6066.25
334.999	7414.25
335.227	9356.25
335.455	10434.25
335.684	9483.25
335.912	7704.25
336.14	6518.25
336.369	5803.25
336.597	5284.25
336.825	4889.25
337.053	4511.25
337.281	4321.25
337.51	4022.25
337.738	3869.25
337.966	3703.25
338.194	3606.25
338.422	3466.25
338.65	3422.25
338.878	3362.25
339.106	3302.25
339.334	3240.25
339.562	3201.25
339.79	3124.25
340.018	3123.25
340.246	3082.25
340.474	3019.25
340.702	3059.25
340.93	3050.25
341.158	3052.25
341.386	3028.25
341.614	3020.25
341.842	2930.25
342.07	2870.25
342.298	2855.25
342.526	2807.25
342.754	2774.25
342.981	2772.25
343.209	2696.25
343.437	2791.25
343.665	2829.25
343.893	2843.25
344.12	2866.25
344.348	2777.25
344.576	2753.25
344.804	2740.25
345.031	2655.25
345.259	2666.25
345.487	2635.25
345.714	2575.25
345.942	2550.25
346.17	2578.25
346.397	2619.25
346.625	2529.25
346.853	2517.25
347.08	2529.25
347.308	2538.25
347.535	2547.25
347.763	2514.25
347.99	2544.25
348.218	2494.25
348.445	2553.25
348.673	2504.25
348.9	2489.25
349.128	2482.25
349.355	2472.25
349.583	2499.25
349.81	2416.25
350.037	2446.25
350.265	2403.25
350.492	2442.25
350.72	2372.25
350.947	2430.25
351.174	2378.25
351.402	2473.25
351.629	2407.25
351.856	2386.25
352.083	2432.25
352.311	2404.25
352.538	2457.25
352.765	2390.25
352.992	2370.25
353.22	2448.25
353.447	2337.25
353.674	2374.25
353.901	2422.25
354.128	2416.25
354.355	2416.25
354.583	2443.25
354.81	2428.25
355.037	2424.25
355.264	2402.25
355.491	2448.25
355.718	2450.25
355.945	2482.25
356.172	2434.25
356.399	2458.25
356.626	2454.25
356.853	2572.25
357.08	2531.25
357.307	2562.25
357.534	2576.25
357.761	2619.25
357.988	2615.25
358.215	2562.25
358.441	2543.25
358.668	2598.25
358.895	2572.25
359.122	2584.25
359.349	2579.25
359.576	2566.25
359.802	2556.25
360.029	2508.25
360.256	2572.25
360.483	2574.25
360.709	2550.25
360.936	2594.25
361.163	2544.25
361.39	2556.25
361.616	2586.25
361.843	2584.25
362.07	2565.25
362.296	2532.25
362.523	2577.25
362.749	2582.25
362.976	2590.25
363.203	2590.25
363.429	2547.25
363.656	2528.25
363.882	2539.25
364.109	2555.25
364.335	2530.25
364.562	2562.25
364.788	2568.25
365.015	2606.25
365.241	2635.25
365.468	2776.25
365.694	2955.25
365.92	2826.25
366.147	2646.25
366.373	2657.25
366.599	2659.25
366.826	2635.25
367.052	2608.25
367.278	2655.25
367.505	2642.25
367.731	2619.25
367.957	2592.25
368.184	2599.25
368.41	2695.25
368.636	2706.25
368.862	2665.25
369.089	2666.25
369.315	2655.25
369.541	2634.25
369.767	2700.25
369.993	2641.25
370.219	2659.25
370.445	2681.25
370.672	2695.25
370.898	2660.25
371.124	2695.25
371.35	2668.25
371.576	2750.25
371.802	2733.25
372.028	2728.25
372.254	2755.25
372.48	2785.25
372.706	2791.25
372.932	2814.25
373.158	2833.25
373.384	2793.25
373.61	2808.25
373.835	2835.25
374.061	2870.25
374.287	2823.25
374.513	2863.25
374.739	2881.25
374.965	2905.25
375.191	2943.25
375.416	2938.25
375.642	2866.25
375.868	2836.25
376.094	2867.25
376.319	2806.25
376.545	2792.25
376.771	2812.25
376.997	2772.25
377.222	2730.25
377.448	2735.25
377.674	2789.25
377.899	2770.25
378.125	2786.25
378.35	2770.25
378.576	2746.25
378.802	2752.25
379.027	2884.25
379.253	2901.25
379.478	3079.25
379.704	3550.25
379.929	5079.25
380.155	7787.25
380.38	8439.25
380.606	5240.25
380.831	3707.25
381.057	3272.25
381.282	3022.25
381.507	2887.25
381.733	2820.25
381.958	2808.25
382.184	2723.25
382.409	2737.25
382.634	2718.25
382.86	2739.25
383.085	2738.25
383.31	2719.25
383.535	2731.25
383.761	2709.25
383.986	2712.25
384.211	2736.25
384.436	2812.25
384.662	2792.25
384.887	2806.25
385.112	2755.25
385.337	2773.25
385.562	2817.25
385.787	2752.25
386.013	2887.25
386.238	2779.25
386.463	2826.25
386.688	2836.25
386.913	2805.25
387.138	2820.25
387.363	2828.25
387.588	2750.25
387.813	2735.25
388.038	2738.25
388.263	2782.25
388.488	2818.25
388.713	2827.25
388.938	2753.25
389.163	2678.25
389.387	2730.25
389.612	2776.25
389.837	2765.25
390.062	2800.25
390.287	2815.25
390.512	2775.25
390.736	2852.25
390.961	2937.25
391.186	2858.25
391.411	2921.25
391.636	2961.25
391.86	2921.25
392.085	2918.25
392.31	2908.25
392.534	2923.25
392.759	2870.25
392.984	2806.25
393.208	2846.25
393.433	2832.25
393.658	2824.25
393.882	2789.25
394.107	2850.25
394.331	2848.25
394.556	2839.25
394.78	2868.25
395.005	2852.25
395.229	2880.25
395.454	2880.25
395.678	2904.25
395.903	2881.25
396.127	2947.25
396.352	2857.25
396.576	2878.25
396.801	2871.25
397.025	2904.25
397.249	2916.25
397.474	2926.25
397.698	2919.25
397.922	2937.25
398.147	2956.25
398.371	3022.25
398.595	3059.25
398.82	3092.25
399.044	3201.25
399.268	3392.25
399.492	3563.25
399.717	3714.25
399.941	3678.25
400.165	3549.25
400.389	3447.25
400.613	3344.25
400.837	3190.25
401.062	3137.25
401.286	3106.25
401.51	3072.25
401.734	3030.25
401.958	3060.25
402.182	3075.25
402.406	3124.25
402.63	3102.25
402.854	3182.25
403.078	3130.25
403.302	3092.25
403.526	3174.25
403.75	3147.25
403.974	3204.25
404.198	3186.25
404.422	3243.25
404.645	3196.25
404.869	3170.25
405.093	3206.25
405.317	3196.25
405.541	3265.25
405.765	3287.25
405.988	3314.25
406.212	3280.25
406.436	3243.25
406.66	3306.25
406.883	3267.25
407.107	3416.25
407.331	3454.25
407.555	3508.25
407.778	3466.25
408.002	3429.25
408.226	3450.25
408.449	3450.25
408.673	3343.25
408.896	3304.25
409.12	3224.25
409.344	3236.25
409.567	3164.25
409.791	3249.25
410.014	3218.25
410.238	3128.25
410.461	3200.25
410.685	3142.25
410.908	3115.25
411.132	3155.25
411.355	3109.25
411.578	3080.25
411.802	3009.25
412.025	3057.25
412.249	3088.25
412.472	3071.25
412.695	3029.25
412.919	2990.25
413.142	2997.25
413.365	2955.25
413.589	2974.25
413.812	3017.25
414.035	3022.25
414.258	3035.25
414.482	3004.25
414.705	3031.25
414.928	3002.25
415.151	3016.25
415.374	2983.25
415.597	2932.25
415.821	2885.25
416.044	2898.25
416.267	2947.25
416.49	2897.25
416.713	2829.25
416.936	2916.25
417.159	2887.25
417.382	2832.25
417.605	2824.25
417.828	2931.25
418.051	2895.25
418.274	2957.25
418.497	2946.25
418.72	2989.25
418.943	2850.25
419.166	3074.25
419.389	3238.25
419.611	3192.25
419.834	3104.25
420.057	3062.25
420.28	2943.25
420.503	2898.25
420.726	2856.25
420.948	2875.25
421.171	2885.25
421.394	2915.25
421.617	2854.25
421.839	2923.25
422.062	2896.25
422.285	2882.25
422.507	2929.25
422.73	2943.25
422.953	2990.25
423.175	3042.25
423.398	2957.25
423.621	2886.25
423.843	2909.25
424.066	2971.25
424.288	2848.25
424.511	2867.25
424.733	2858.25
424.956	2820.25
425.178	2866.25
425.401	2870.25
425.623	2876.25
425.846	2791.25
426.068	2763.25
426.291	2777.25
426.513	2756.25
426.735	2742.25
426.958	2717.25
427.18	2682.25
427.402	2727.25
427.625	2710.25
427.847	2671.25
428.069	2650.25
428.292	2700.25
428.514	2712.25
428.736	2678.25
428.958	2710.25
429.181	2666.25
429.403	2659.25
429.625	2623.25
429.847	2662.25
430.069	2722.25
430.292	2812.25
430.514	2840.25
430.736	2877.25
430.958	2742.25
431.18	2657.25
431.402	2675.25
431.624	2620.25
431.846	2630.25
432.068	2592.25
432.29	2672.25
432.512	2594.25
432.734	2677.25
432.956	2644.25
433.178	2592.25
433.4	2673.25
433.622	2664.25
433.844	2690.25
434.066	2719.25
434.287	2688.25
434.509	2688.25
434.731	2753.25
434.953	2754.25
435.175	2779.25
435.397	2813.25
435.618	2739.25
435.84	2666.25
436.062	2632.25
436.284	2594.25
436.505	2590.25
436.727	2634.25
436.949	2642.25
437.17	2641.25
437.392	2578.25
437.614	2578.25
437.835	2572.25
438.057	2601.25
438.278	2511.25
438.5	2581.25
438.721	2596.25
438.943	2662.25
439.165	2754.25
439.386	2739.25
439.608	2728.25
439.829	2728.25
440.05	2872.25
440.272	2863.25
440.493	2758.25
440.715	2753.25
440.936	2736.25
441.158	2762.25
441.379	2817.25
441.6	2857.25
441.822	2917.25
442.043	3088.25
442.264	3173.25
442.486	2994.25
442.707	2890.25
442.928	2885.25
443.149	2858.25
443.371	2796.25
443.592	2859.25
443.813	2829.25
444.034	2907.25
444.255	2931.25
444.476	2955.25
444.698	3055.25
444.919	3041.25
445.14	3120.25
445.361	2956.25
445.582	2890.25
445.803	2850.25
446.024	2829.25
446.245	2806.25
446.466	2823.25
446.687	2764.25
446.908	2791.25
447.129	2653.25
447.35	2662.25
447.571	2671.25
447.792	2620.25
448.013	2614.25
448.234	2632.25
448.455	2620.25
448.675	2616.25
448.896	2675.25
449.117	2792.25
449.338	3004.25
449.559	3144.25
449.779	2795.25
450	2666.25
450.221	2530.25
450.442	2569.25
450.662	2583.25
450.883	2506.25
451.104	2520.25
451.324	2554.25
451.545	2575.25
451.766	2545.25
451.986	2616.25
452.207	2840.25
452.428	3636.25
452.648	5344.25
452.869	4483.25
453.089	3172.25
453.31	2974.25
453.53	2944.25
453.751	2987.25
453.971	3110.25
454.192	3078.25
454.412	2696.25
454.633	2582.25
454.853	2511.25
455.073	2485.25
455.294	2483.25
455.514	2448.25
455.734	2467.25
455.955	2427.25
456.175	2421.25
456.395	2460.25
456.616	2478.25
456.836	2482.25
457.056	2436.25
457.276	2484.25
457.497	2676.25
457.717	2676.25
457.937	2592.25
458.157	2608.25
458.377	2642.25
458.598	2644.25
458.818	2637.25
459.038	2684.25
459.258	2593.25
459.478	2666.25
459.698	2688.25
459.918	2748.25
460.138	2760.25
460.358	2862.25
460.578	2887.25
460.798	2891.25
461.018	2909.25
461.238	2920.25
461.458	2898.25
461.678	2964.25
461.898	3016.25
462.118	3030.25
462.338	3090.25
462.558	3064.25
462.777	3167.25
462.997	3276.25
463.217	3404.25
463.437	3499.25
463.657	3576.25
463.876	3504.25
464.096	3436.25
464.316	3189.25
464.536	3204.25
464.755	3156.25
464.975	3016.25
465.195	2947.25
465.414	2923.25
465.634	2763.25
465.854	2762.25
466.073	2759.25
466.293	2718.25
466.512	2631.25
466.732	2727.25
466.951	2885.25
467.171	3007.25
467.391	2955.25
467.61	2675.25
467.829	2603.25
468.049	2641.25
468.268	2585.25
468.488	2563.25
468.707	2579.25
468.927	2614.25
469.146	2562.25
469.365	2597.25
469.585	2642.25
469.804	2668.25
470.023	2782.25
470.243	2801.25
470.462	2854.25
470.681	3002.25
470.901	3300.25
471.12	3780.25
471.339	3751.25
471.558	3162.25
471.777	2888.25
471.997	2727.25
472.216	2666.25
472.435	2660.25
472.654	2624.25
472.873	2597.25
473.092	2623.25
473.311	2619.25
473.53	2606.25
473.749	2709.25
473.968	2791.25
474.187	2687.25
474.406	2624.25
474.625	2622.25
474.844	2675.25
475.063	2636.25
475.282	2582.25
475.501	2695.25
475.72	2682.25
475.939	2671.25
476.158	2756.25
476.377	2793.25
476.596	2775.25
476.814	2774.25
477.033	2756.25
477.252	2767.25
477.471	2871.25
477.69	2885.25
477.908	2933.25
478.127	2950.25
478.346	2971.25
478.564	3032.25
478.783	3081.25
479.002	3112.25
479.22	3077.25
479.439	3079.25
479.658	3131.25
479.876	3187.25
480.095	3166.25
480.313	3196.25
480.532	3286.25
480.751	3265.25
480.969	3189.25
481.188	3197.25
481.406	3154.25
481.624	3208.25
481.843	3220.25
482.061	3198.25
482.28	3123.25
482.498	3191.25
482.717	3195.25
482.935	3213.25
483.153	3273.25
483.372	3296.25
483.59	3287.25
483.808	3313.25
484.027	3453.25
484.245	3666.25
484.463	4074.25
484.681	4420.25
484.9	4130.25
485.118	3839.25
485.336	3748.25
485.554	3849.25
485.772	4026.25
485.99	4514.25
486.209	4825.25
486.427	4105.25
486.645	3688.25
486.863	3600.25
487.081	3465.25
487.299	3399.25
487.517	3389.25
487.735	3471.25
487.953	3426.25
488.171	3390.25
488.389	3341.25
488.607	3258.25
488.825	3319.25
489.043	3206.25
489.261	3253.25
489.479	3303.25
489.696	3282.25
489.914	3314.25
490.132	3311.25
490.35	3305.25
490.568	3355.25
490.786	3367.25
491.003	3400.25
491.221	3404.25
491.439	3444.25
491.657	3342.25
491.874	3452.25
492.092	3427.25
492.31	3420.25
492.527	3411.25
492.745	3408.25
492.963	3383.25
493.18	3403.25
493.398	3385.25
493.615	3458.25
493.833	3472.25
494.05	3464.25
494.268	3451.25
494.485	3410.25
494.703	3469.25
494.92	3458.25
495.138	3478.25
495.355	3446.25
495.573	3503.25
495.79	3484.25
496.008	3531.25
496.225	3514.25
496.442	3593.25
496.66	3732.25
496.877	3886.25
497.094	3861.25
497.312	3704.25
497.529	3704.25
497.746	3794.25
497.963	3846.25
498.181	3877.25
498.398	3961.25
498.615	4142.25
498.832	4325.25
499.049	4574.25
499.267	4833.25
499.484	5077.25
499.701	5114.25
499.918	5130.25
500.135	5516.25
500.352	5792.25
500.569	5808.25
500.786	5800.25
501.003	5533.25
501.22	5334.25
501.437	5063.25
501.654	4748.25
501.871	4631.25
502.088	4401.25
502.305	4327.25
502.522	4210.25
502.739	4067.25
502.956	3891.25
503.172	3810.25
503.389	3748.25
503.606	3730.25
503.823	3608.25
504.04	3574.25
504.256	3576.25
504.473	3622.25
504.69	3616.25
504.907	3579.25
505.123	3508.25
505.34	3392.25
505.557	3315.25
505.773	3254.25
505.99	3252.25
506.207	3197.25
506.423	3124.25
506.64	3141.25
506.856	3088.25
507.073	3080.25
507.289	3047.25
507.506	3058.25
507.722	3006.25
507.939	2969.25
508.155	3015.25
508.372	2978.25
508.588	3026.25
508.805	2960.25
509.021	2992.25
509.238	2993.25
509.454	3199.25
509.67	3350.25
509.887	3160.25
510.103	3038.25
510.319	2960.25
510.536	2955.25
510.752	2946.25
510.968	2914.25
511.184	2903.25
511.401	2822.25
511.617	2850.25
511.833	2856.25
512.049	2801.25
512.265	2797.25
512.481	2873.25
512.698	2874.25
512.914	2870.25
513.13	2834.25
513.346	2883.25
513.562	2822.25
513.778	2894.25
513.994	2900.25
514.21	2983.25
514.426	3120.25
514.642	3300.25
514.858	3019.25
515.074	2961.25
515.29	2917.25
515.506	2963.25
515.721	2968.25
515.937	2921.25
516.153	2978.25
516.369	3008.25
516.585	3070.25
516.801	3076.25
517.016	3105.25
517.232	3182.25
517.448	3222.25
517.664	3250.25
517.879	3243.25
518.095	3260.25
518.311	3254.25
518.527	3224.25
518.742	3222.25
518.958	3211.25
519.173	3265.25
519.389	3118.25
519.605	3038.25
519.82	2987.25
520.036	2926.25
520.251	2911.25
520.467	2914.25
520.682	2882.25
520.898	2846.25
521.113	2842.25
521.329	2793.25
521.544	2775.25
521.76	2743.25
521.975	2834.25
522.19	2793.25
522.406	2792.25
522.621	2801.25
522.836	2768.25
523.052	2730.25
523.267	2780.25
523.482	2758.25
523.698	2747.25
523.913	2695.25
524.128	2746.25
524.343	2715.25
524.559	2720.25
524.774	2676.25
524.989	2715.25
525.204	2750.25
525.419	2664.25
525.634	2765.25
525.849	2713.25
526.064	2708.25
526.28	2746.25
526.495	2729.25
526.71	2779.25
526.925	2768.25
527.14	2751.25
527.355	2672.25
527.57	2716.25
527.785	2766.25
527.999	2764.25
528.214	2802.25
528.429	2817.25
528.644	2879.25
528.859	2904.25
529.074	2866.25
529.289	2906.25
529.503	2928.25
529.718	2917.25
529.933	2918.25
530.148	2946.25
530.363	2910.25
530.577	2917.25
530.792	2899.25
531.007	3004.25
531.221	2954.25
531.436	2996.25
531.651	3074.25
531.865	3099.25
532.08	3106.25
532.295	3219.25
532.509	3375.25
532.724	3452.25
532.938	3430.25
533.153	3558.25
533.367	3805.25
533.582	4042.25
533.796	3919.25
534.011	3774.25
534.225	3620.25
534.44	3489.25
534.654	3403.25
534.868	3330.25
535.083	3346.25
535.297	3249.25
535.511	3176.25
535.726	3182.25
535.94	3114.25
536.154	3019.25
536.369	2952.25
536.583	2960.25
536.797	2905.25
537.011	2901.25
537.225	2876.25
537.44	2841.25
537.654	2787.25
537.868	2810.25
538.082	2759.25
538.296	2756.25
538.51	2704.25
538.724	2742.25
538.938	2702.25
539.153	2695.25
539.367	2710.25
539.581	2627.25
539.795	2640.25
540.009	2548.25
540.222	2611.25
540.436	2645.25
540.65	2651.25
540.864	2677.25
541.078	2702.25
541.292	2887.25
541.506	3320.25
541.72	3479.25
541.934	3016.25
542.147	2890.25
542.361	2752.25
542.575	2698.25
542.789	2655.25
543.002	2606.25
543.216	2558.25
543.43	2537.25
543.644	2511.25
543.857	2588.25
544.071	2570.25
544.285	2607.25
544.498	2522.25
544.712	2556.25
544.925	2539.25
545.139	2539.25
545.352	2550.25
545.566	2600.25
545.779	2553.25
545.993	2547.25
546.206	2611.25
546.42	2572.25
546.633	2579.25
546.847	2526.25
547.06	2550.25
547.274	2582.25
547.487	2550.25
547.7	2528.25
547.914	2516.25
548.127	2587.25
548.34	2543.25
548.554	2569.25
548.767	2546.25
548.98	2558.25
549.193	2566.25
549.407	2525.25
549.62	2529.25
549.833	2551.25
550.046	2577.25
550.259	2549.25
550.473	2562.25
550.686	2549.25
550.899	2624.25
551.112	2592.25
551.325	2591.25
551.538	2560.25
551.751	2596.25
551.964	2574.25
552.177	2624.25
552.39	2640.25
552.603	2725.25
552.816	2734.25
553.029	2779.25
553.242	2831.25
553.455	2818.25
553.667	2835.25
553.88	2838.25
554.093	2843.25
554.306	2892.25
554.519	2856.25
554.732	2933.25
554.944	3013.25
555.157	3051.25
555.37	3148.25
555.583	3225.25
555.795	3431.25
556.008	3772.25
556.221	4176.25
556.433	4503.25
556.646	4410.25
556.859	4186.25
557.071	4032.25
557.284	3994.25
557.496	3874.25
557.709	3748.25
557.921	3712.25
558.134	3716.25
558.346	3768.25
558.559	3938.25
558.771	4172.25
558.984	4488.25
559.196	4893.25
559.409	4532.25
559.621	4274.25
559.833	4018.25
560.046	3780.25
560.258	3568.25
560.47	3352.25
560.683	3254.25
560.895	3128.25
561.107	3031.25
561.32	2905.25
561.532	2835.25
561.744	2797.25
561.956	2756.25
562.168	2742.25
562.381	2675.25
562.593	2665.25
562.805	2680.25
563.017	2696.25
563.229	2801.25
563.441	3129.25
563.653	2671.25
563.865	2558.25
564.077	2446.25
564.289	2411.25
564.501	2399.25
564.713	2409.25
564.925	2400.25
565.137	2355.25
565.349	2360.25
565.561	2395.25
565.773	2432.25
565.985	2398.25
566.197	2442.25
566.408	2514.25
566.62	2550.25
566.832	2611.25
567.044	2639.25
567.255	2642.25
567.467	2681.25
567.679	2719.25
567.891	2871.25
568.102	3128.25
568.314	3567.25
568.526	3104.25
568.737	2778.25
568.949	2553.25
569.161	2374.25
569.372	2232.25
569.584	2204.25
569.795	2173.25
570.007	2147.25
570.218	2178.25
570.43	2314.25
570.641	2098.25
570.853	2032.25
571.064	1993.25
571.276	1958.25
571.487	1938.25
571.698	1949.25
571.91	1900.25
572.121	1875.25
572.333	1835.25
572.544	1841.25
572.755	1981.25
572.966	2335.25
573.178	2134.25
573.389	1921.25
573.6	1849.25
573.811	1809.25
574.023	1774.25
574.234	1731.25
574.445	1780.25
574.656	1738.25
574.867	1701.25
575.078	1755.25
575.289	1716.25
575.501	1708.25
575.712	1688.25
575.923	1642.25
576.134	1701.25
576.345	1722.25
576.556	1740.25
576.767	1720.25
576.978	1745.25
577.188	1740.25
577.399	1739.25
577.61	1816.25
577.821	1774.25
578.032	1745.25
578.243	1808.25
578.454	1881.25
578.665	1896.25
578.875	1949.25
579.086	2011.25
579.297	2115.25
579.508	2219.25
579.718	2427.25
579.929	2803.25
580.14	3209.25
580.35	3275.25
580.561	3047.25
580.772	2731.25
580.982	2550.25
581.193	2350.25
581.403	2249.25
581.614	2091.25
581.825	2054.25
582.035	1944.25
582.246	1857.25
582.456	1824.25
582.667	1833.25
582.877	1759.25
583.087	1720.25
583.298	1678.25
583.508	1632.25
583.719	1561.25
583.929	1564.25
584.139	1560.25
584.35	1508.25
584.56	1484.25
584.77	1492.25
584.981	1452.25
585.191	1426.25
585.401	1406.25
585.611	1392.25
585.821	1383.25
586.032	1338.25
586.242	1375.25
586.452	1337.25
586.662	1340.25
586.872	1329.25
587.082	1310.25
587.292	1290.25
587.502	1286.25
587.713	1278.25
587.923	1247.25
588.133	1249.25
588.343	1264.25
588.553	1220.25
588.762	1229.25
588.972	1200.25
589.182	1240.25
589.392	1241.25
589.602	1215.25
589.812	1204.25
590.022	1226.25
590.232	1207.25
590.441	1210.25
590.651	1183.25
590.861	1168.25
591.071	1176.25
591.281	1206.25
591.49	1168.25
591.7	1194.25
591.91	1188.25
592.119	1214.25
592.329	1168.25
592.539	1189.25
592.748	1207.25
592.958	1202.25
593.167	1217.25
593.377	1219.25
593.587	1265.25
593.796	1188.25
594.006	1249.25
594.215	1250.25
594.424	1240.25
594.634	1204.25
594.843	1198.25
595.053	1188.25
595.262	1175.25
595.472	1118.25
595.681	1086.25
595.89	1104.25
596.1	1068.25
596.309	1074.25
596.518	1051.25
596.727	1055.25
596.937	1050.25
597.146	1041.25
597.355	1064.25
597.564	1030.25
597.774	1029.25
597.983	1019.25
598.192	982.25
598.401	977.25
598.61	948.25
598.819	962.25
599.028	975.25
599.237	978.25
599.446	952.25
599.655	966.25
599.864	950.25
600.073	930.25
600.282	947.25
600.491	954.25
600.7	963.25
600.909	939.25
601.118	955.25
601.327	945.25
601.536	976.25
601.745	995.25
601.953	1065.25
602.162	1224.25
602.371	1063.25
602.58	995.25
602.789	966.25
602.997	968.25
603.206	962.25
603.415	942.25
603.623	915.25
603.832	937.25
604.041	916.25
604.249	906.25
604.458	904.25
604.666	897.25
604.875	879.25
605.084	876.25
605.292	908.25
605.501	896.25
605.709	915.25
605.918	886.25
606.126	935.25
606.334	929.25
606.543	924.25
606.751	1003.25
606.96	1150.25
607.168	1231.25
607.376	1027.25
607.585	988.25
607.793	934.25
608.001	919.25
608.21	908.25
608.418	894.25
608.626	876.25
608.834	855.25
609.043	882.25
609.251	871.25
609.459	871.25
609.667	863.25
609.875	860.25
610.083	838.25
610.291	850.25
610.499	835.25
610.707	836.25
610.916	830.25
611.124	817.25
611.332	830.25
611.54	810.25
611.748	800.25
611.955	794.25
612.163	839.25
612.371	808.25
612.579	824.25
612.787	809.25
612.995	794.25
613.203	796.25
613.411	798.25
613.618	820.25
613.826	791.25
614.034	782.25
614.242	810.25
614.449	775.25
614.657	800.25
614.865	785.25
615.072	801.25
615.28	807.25
615.488	782.25
615.695	824.25
615.903	784.25
616.111	780.25
616.318	778.25
616.526	797.25
616.733	782.25
616.941	769.25
617.148	753.25
617.356	773.25
617.563	778.25
617.771	778.25
617.978	742.25
618.185	755.25
618.393	770.25
618.6	764.25
618.807	761.25
619.015	766.25
619.222	743.25
619.429	745.25
619.637	731.25
619.844	729.25
620.051	737.25
620.258	690.25
620.466	698.25
620.673	707.25
620.88	702.25
621.087	706.25
621.294	704.25
621.501	692.25
621.708	694.25
621.915	706.25
622.122	692.25
622.329	698.25
622.536	675.25
622.743	692.25
622.95	699.25
623.157	695.25
623.364	688.25
623.571	660.25
623.778	676.25
623.985	683.25
624.192	686.25
624.399	662.25
624.606	693.25
624.812	686.25
625.019	648.25
625.226	649.25
625.433	657.25
625.639	663.25
625.846	646.25
626.053	649.25
626.259	625.25
626.466	635.25
626.673	631.25
626.879	624.25
627.086	623.25
627.293	640.25
627.499	615.25
627.706	640.25
627.912	651.25
628.119	638.25
628.325	628.25
628.532	646.25
628.738	632.25
628.945	630.25
629.151	620.25
629.357	613.25
629.564	620.25
629.77	614.25
629.976	612.25
630.183	595.25
630.389	628.25
630.595	607.25
630.802	608.25
631.008	590.25
631.214	585.25
631.42	622.25
631.627	594.25
631.833	600.25
632.039	598.25
632.245	588.25
632.451	575.25
632.657	612.25
632.863	609.25
633.069	574.25
633.275	583.25
633.481	578.25
633.688	568.25
633.893	592.25
634.099	587.25
634.305	584.25
634.511	598.25
634.717	610.25
634.923	618.25
635.129	680.25
635.335	744.25
635.541	689.25
635.747	629.25
635.952	602.25
636.158	602.25
636.364	602.25
636.57	592.25
636.775	582.25
636.981	590.25
637.187	592.25
637.392	582.25
637.598	559.25
637.804	582.25
638.009	580.25
638.215	588.25
638.421	593.25
638.626	579.25
638.832	571.25
639.037	580.25
639.243	575.25
639.448	587.25
639.654	604.25
639.859	599.25
640.065	611.25
640.27	640.25
640.475	599.25
640.681	619.25
640.886	635.25
641.091	626.25
641.297	643.25
641.502	631.25
641.707	647.25
641.913	627.25
642.118	643.25
642.323	660.25
642.528	703.25
642.733	682.25
642.939	708.25
643.144	714.25
643.349	753.25
643.554	788.25
643.759	837.25
643.964	848.25
644.169	915.25
644.374	923.25
644.579	1032.25
644.784	1179.25
644.989	1294.25
645.194	1530.25
645.399	1896.25
645.604	2001.25
645.809	1488.25
646.014	1152.25
646.219	956.25
646.423	815.25
646.628	756.25
646.833	739.25
647.038	675.25
647.243	640.25
647.447	599.25
647.652	614.25
647.857	589.25
648.062	586.25
648.266	595.25
648.471	560.25
648.676	530.25
648.88	525.25
649.085	536.25
649.289	517.25
649.494	501.25
649.698	512.25
649.903	490.25
650.107	487.25
650.312	491.25
650.516	481.25
650.721	458.25
650.925	455.25
651.13	451.25
651.334	456.25
651.539	413.25
651.743	425.25
651.947	441.25
652.152	422.25
652.356	443.25
652.56	425.25
652.764	517.25
652.969	471.25
653.173	418.25
653.377	395.25
653.581	388.25
653.785	381.25
653.99	370.25
654.194	338.25
654.398	375.25
654.602	368.25
654.806	380.25
655.01	346.25
655.214	356.25
655.418	347.25
655.622	359.25
655.826	359.25
656.03	347.25
656.234	355.25
656.438	384.25
656.642	378.25
656.846	378.25
657.049	347.25
657.253	337.25
657.457	315.25
657.661	293.25
657.865	302.25
658.068	272.25
658.272	263.25
658.476	217.25
658.68	222.25
658.883	211.25
659.087	211.25
659.291	208.25
659.494	186.25
659.698	189.25
659.901	165.25
660.105	187.25
660.309	166.25
660.512	168.25
660.716	168.25
660.919	152.25
661.123	144.25
661.326	147.25
661.53	131.25
661.733	136.25
661.936	121.25
662.14	113.25
662.343	114.25
662.546	99.25
662.75	103.25
662.953	113.25
663.156	98.25
663.36	107.25
663.563	113.25
663.766	105.25
663.969	109.25
664.173	88.25
664.376	86.25
664.579	86.25
664.782	89.25
664.985	88.25
665.188	79.25
665.391	89.25
665.594	86.25
665.797	99.25
666	83.25
666.203	86.25
666.406	86.25
666.609	75.25
666.812	99.25
667.015	87.25
667.218	96.25
667.421	80.25
667.624	79.25
667.827	89.25
668.03	88.25
668.232	77.25
668.435	85.25
668.638	92.25
668.841	79.25
669.043	92.25
669.246	110.25
669.449	68.25
669.651	65.25
669.854	74.25
670.057	89.25
670.259	72.25
670.462	86.25
670.665	80.25
670.867	83.25
671.07	84.25
671.272	81.25
671.475	94.25
671.677	84.25
671.88	73.25
672.082	80.25
672.284	72.25
672.487	82.25
672.689	88.25
672.892	76.25
