Data from SnStandardFlinnAPT0064_QswitchEnergy10_LIBS07252019.E.O._I.C._HRD10591_15-28-37-974.txt Node
Date: Thu Jul 25 15:28:37 EDT 2019
User: cochatt
Spectrometer: HR+D1059
Trigger mode: 1
Integration Time (sec): 1.000000E-1
Scans to average: 1
Electric dark correction enabled: true
Nonlinearity correction enabled: false
Boxcar width: 0
XAxis mode: Wavelengths
Number of Pixels in Spectrum: 2048
>>>>>Begin Spectral Data<<<<<
223.165	-4.31
223.4	-4.31
223.635	-4.31
223.869	-22.31
224.104	-20.31
224.338	-13.31
224.573	-5.31
224.808	-6.31
225.042	5.69
225.277	-11.31
225.511	-0.31
225.746	-4.31
225.98	2.69
226.215	7.69
226.449	12.69
226.683	16.69
226.918	15.69
227.152	26.69
227.387	38.69
227.621	41.69
227.856	36.69
228.09	63.69
228.324	47.69
228.559	61.69
228.793	59.69
229.027	62.69
229.262	79.69
229.496	64.69
229.73	66.69
229.964	56.69
230.199	71.69
230.433	71.69
230.667	76.69
230.901	77.69
231.136	78.69
231.37	90.69
231.604	88.69
231.838	98.69
232.072	108.69
232.306	127.69
232.541	94.69
232.775	95.69
233.009	80.69
233.243	94.69
233.477	105.69
233.711	92.69
233.945	97.69
234.179	90.69
234.413	80.69
234.647	61.69
234.881	88.69
235.115	87.69
235.349	99.69
235.583	103.69
235.817	126.69
236.051	137.69
236.285	101.69
236.519	70.69
236.753	73.69
236.987	97.69
237.221	72.69
237.455	66.69
237.689	79.69
237.922	65.69
238.156	69.69
238.39	84.69
238.624	85.69
238.858	79.69
239.091	75.69
239.325	70.69
239.559	71.69
239.793	79.69
240.027	90.69
240.26	84.69
240.494	69.69
240.728	79.69
240.961	83.69
241.195	85.69
241.429	76.69
241.662	78.69
241.896	87.69
242.13	90.69
242.363	115.69
242.597	183.69
242.83	137.69
243.064	145.69
243.298	166.69
243.531	167.69
243.765	97.69
243.998	79.69
244.232	79.69
244.465	82.69
244.699	83.69
244.932	54.69
245.166	78.69
245.399	87.69
245.633	82.69
245.866	81.69
246.099	78.69
246.333	86.69
246.566	77.69
246.8	85.69
247.033	65.69
247.266	80.69
247.5	80.69
247.733	88.69
247.966	73.69
248.2	101.69
248.433	119.69
248.666	117.69
248.899	115.69
249.133	94.69
249.366	102.69
249.599	111.69
249.832	131.69
250.066	143.69
250.299	81.69
250.532	80.69
250.765	88.69
250.998	87.69
251.231	70.69
251.465	70.69
251.698	87.69
251.931	72.69
252.164	87.69
252.397	87.69
252.63	104.69
252.863	103.69
253.096	94.69
253.329	91.69
253.562	96.69
253.795	79.69
254.028	80.69
254.261	79.69
254.494	107.69
254.727	129.69
254.96	149.69
255.193	115.69
255.426	86.69
255.659	85.69
255.892	98.69
256.124	94.69
256.357	82.69
256.59	88.69
256.823	98.69
257.056	106.69
257.289	156.69
257.521	193.69
257.754	136.69
257.987	98.69
258.22	84.69
258.452	74.69
258.685	87.69
258.918	73.69
259.151	104.69
259.383	106.69
259.616	139.69
259.849	161.69
260.081	123.69
260.314	77.69
260.547	70.69
260.779	70.69
261.012	81.69
261.244	77.69
261.477	88.69
261.71	89.69
261.942	86.69
262.175	91.69
262.407	91.69
262.64	71.69
262.872	68.69
263.105	84.69
263.337	94.69
263.57	82.69
263.802	85.69
264.035	81.69
264.267	69.69
264.499	69.69
264.732	70.69
264.964	59.69
265.197	76.69
265.429	70.69
265.661	74.69
265.894	100.69
266.126	120.69
266.358	170.69
266.591	148.69
266.823	99.69
267.055	79.69
267.287	87.69
267.52	77.69
267.752	96.69
267.984	82.69
268.216	80.69
268.448	100.69
268.681	93.69
268.913	83.69
269.145	71.69
269.377	97.69
269.609	94.69
269.841	90.69
270.073	100.69
270.306	130.69
270.538	220.69
270.77	344.69
271.002	410.69
271.234	225.69
271.466	111.69
271.698	98.69
271.93	87.69
272.162	86.69
272.394	95.69
272.626	93.69
272.858	77.69
273.09	80.69
273.322	80.69
273.553	90.69
273.785	94.69
274.017	80.69
274.249	102.69
274.481	80.69
274.713	81.69
274.945	88.69
275.176	83.69
275.408	83.69
275.64	86.69
275.872	93.69
276.104	109.69
276.335	102.69
276.567	95.69
276.799	74.69
277.031	87.69
277.262	100.69
277.494	92.69
277.726	128.69
277.957	199.69
278.189	273.69
278.421	270.69
278.652	220.69
278.884	220.69
279.115	145.69
279.347	108.69
279.579	94.69
279.81	93.69
280.042	98.69
280.273	96.69
280.505	104.69
280.736	103.69
280.968	134.69
281.199	200.69
281.431	283.69
281.662	297.69
281.894	166.69
282.125	117.69
282.356	104.69
282.588	106.69
282.819	109.69
283.051	127.69
283.282	152.69
283.513	211.69
283.745	350.69
283.976	646.69
284.207	883.69
284.439	689.69
284.67	307.69
284.901	303.69
285.132	414.69
285.364	449.69
285.595	233.69
285.826	187.69
286.057	282.69
286.288	472.69
286.52	698.69
286.751	577.69
286.982	214.69
287.213	121.69
287.444	123.69
287.675	111.69
287.906	105.69
288.138	103.69
288.369	87.69
288.6	102.69
288.831	97.69
289.062	109.69
289.293	91.69
289.524	105.69
289.755	87.69
289.986	109.69
290.217	86.69
290.448	109.69
290.679	90.69
290.91	137.69
291.141	180.69
291.371	286.69
291.602	338.69
291.833	230.69
292.064	115.69
292.295	116.69
292.526	89.69
292.757	108.69
292.987	95.69
293.218	114.69
293.449	83.69
293.68	85.69
293.91	83.69
294.141	92.69
294.372	94.69
294.603	96.69
294.833	97.69
295.064	92.69
295.295	89.69
295.525	83.69
295.756	102.69
295.987	111.69
296.217	86.69
296.448	81.69
296.679	97.69
296.909	105.69
297.14	105.69
297.37	101.69
297.601	98.69
297.831	96.69
298.062	107.69
298.292	100.69
298.523	105.69
298.753	91.69
298.984	110.69
299.214	95.69
299.445	117.69
299.675	113.69
299.905	112.69
300.136	134.69
300.366	191.69
300.597	287.69
300.827	520.69
301.057	795.69
301.288	725.69
301.518	287.69
301.748	153.69
301.979	130.69
302.209	137.69
302.439	145.69
302.669	183.69
302.9	329.69
303.13	583.69
303.36	1030.69
303.59	1440.69
303.82	970.69
304.051	327.69
304.281	162.69
304.511	127.69
304.741	123.69
304.971	115.69
305.201	126.69
305.431	112.69
305.661	115.69
305.891	107.69
306.121	101.69
306.352	109.69
306.582	108.69
306.812	121.69
307.042	111.69
307.272	121.69
307.502	106.69
307.731	117.69
307.961	115.69
308.191	107.69
308.421	94.69
308.651	96.69
308.881	106.69
309.111	113.69
309.341	87.69
309.571	109.69
309.8	120.69
310.03	115.69
310.26	112.69
310.49	115.69
310.72	101.69
310.949	101.69
311.179	104.69
311.409	122.69
311.639	109.69
311.868	107.69
312.098	116.69
312.328	112.69
312.557	116.69
312.787	121.69
313.017	105.69
313.246	127.69
313.476	111.69
313.706	142.69
313.935	174.69
314.165	219.69
314.394	266.69
314.624	194.69
314.853	132.69
315.083	141.69
315.312	141.69
315.542	134.69
315.771	116.69
316.001	146.69
316.23	155.69
316.46	150.69
316.689	187.69
316.919	293.69
317.148	571.69
317.377	1070.69
317.607	1741.69
317.836	1629.69
318.065	629.69
318.295	265.69
318.524	179.69
318.753	137.69
318.983	143.69
319.212	118.69
319.441	125.69
319.67	128.69
319.9	116.69
320.129	119.69
320.358	112.69
320.587	132.69
320.816	135.69
321.046	121.69
321.275	115.69
321.504	132.69
321.733	166.69
321.962	180.69
322.191	183.69
322.42	144.69
322.649	127.69
322.878	133.69
323.108	131.69
323.337	128.69
323.566	110.69
323.795	135.69
324.024	152.69
324.253	126.69
324.482	184.69
324.71	243.69
324.939	311.69
325.168	273.69
325.397	205.69
325.626	285.69
325.855	590.69
326.084	1093.69
326.313	1846.69
326.542	1789.69
326.77	692.69
326.999	276.69
327.228	228.69
327.457	274.69
327.686	255.69
327.914	157.69
328.143	146.69
328.372	124.69
328.6	141.69
328.829	134.69
329.058	128.69
329.287	126.69
329.515	127.69
329.744	127.69
329.972	124.69
330.201	120.69
330.43	114.69
330.658	125.69
330.887	116.69
331.115	103.69
331.344	128.69
331.572	119.69
331.801	125.69
332.03	125.69
332.258	141.69
332.486	197.69
332.715	334.69
332.943	582.69
333.172	901.69
333.4	744.69
333.629	272.69
333.857	164.69
334.085	144.69
334.314	138.69
334.542	138.69
334.771	135.69
334.999	136.69
335.227	118.69
335.455	121.69
335.684	124.69
335.912	114.69
336.14	110.69
336.369	120.69
336.597	117.69
336.825	114.69
337.053	108.69
337.281	109.69
337.51	119.69
337.738	117.69
337.966	109.69
338.194	119.69
338.422	125.69
338.65	116.69
338.878	113.69
339.106	131.69
339.334	141.69
339.562	124.69
339.79	115.69
340.018	115.69
340.246	118.69
340.474	110.69
340.702	125.69
340.93	132.69
341.158	127.69
341.386	120.69
341.614	122.69
341.842	113.69
342.07	113.69
342.298	136.69
342.526	118.69
342.754	118.69
342.981	125.69
343.209	113.69
343.437	113.69
343.665	116.69
343.893	123.69
344.12	128.69
344.348	130.69
344.576	117.69
344.804	112.69
345.031	126.69
345.259	116.69
345.487	125.69
345.714	119.69
345.942	118.69
346.17	96.69
346.397	127.69
346.625	115.69
346.853	92.69
347.08	110.69
347.308	121.69
347.535	111.69
347.763	117.69
347.99	102.69
348.218	111.69
348.445	119.69
348.673	118.69
348.9	126.69
349.128	136.69
349.355	123.69
349.583	116.69
349.81	125.69
350.037	117.69
350.265	117.69
350.492	118.69
350.72	107.69
350.947	122.69
351.174	117.69
351.402	109.69
351.629	116.69
351.856	125.69
352.083	112.69
352.311	111.69
352.538	123.69
352.765	109.69
352.992	89.69
353.22	103.69
353.447	92.69
353.674	104.69
353.901	108.69
354.128	104.69
354.355	104.69
354.583	111.69
354.81	107.69
355.037	112.69
355.264	108.69
355.491	120.69
355.718	110.69
355.945	109.69
356.172	108.69
356.399	115.69
356.626	111.69
356.853	124.69
357.08	104.69
357.307	119.69
357.534	125.69
357.761	100.69
357.988	123.69
358.215	112.69
358.441	113.69
358.668	137.69
358.895	117.69
359.122	120.69
359.349	111.69
359.576	110.69
359.802	123.69
360.029	112.69
360.256	125.69
360.483	109.69
360.709	104.69
360.936	118.69
361.163	115.69
361.39	111.69
361.616	121.69
361.843	119.69
362.07	119.69
362.296	118.69
362.523	105.69
362.749	108.69
362.976	113.69
363.203	107.69
363.429	118.69
363.656	125.69
363.882	114.69
364.109	113.69
364.335	117.69
364.562	104.69
364.788	100.69
365.015	121.69
365.241	148.69
365.468	218.69
365.694	310.69
365.92	241.69
366.147	141.69
366.373	103.69
366.599	117.69
366.826	97.69
367.052	104.69
367.278	101.69
367.505	97.69
367.731	114.69
367.957	91.69
368.184	116.69
368.41	126.69
368.636	127.69
368.862	104.69
369.089	105.69
369.315	103.69
369.541	102.69
369.767	115.69
369.993	110.69
370.219	123.69
370.445	109.69
370.672	103.69
370.898	115.69
371.124	113.69
371.35	98.69
371.576	109.69
371.802	111.69
372.028	107.69
372.254	121.69
372.48	121.69
372.706	113.69
372.932	122.69
373.158	115.69
373.384	109.69
373.61	121.69
373.835	121.69
374.061	108.69
374.287	116.69
374.513	116.69
374.739	130.69
374.965	126.69
375.191	111.69
375.416	119.69
375.642	115.69
375.868	124.69
376.094	114.69
376.319	98.69
376.545	113.69
376.771	109.69
376.997	119.69
377.222	111.69
377.448	105.69
377.674	115.69
377.899	114.69
378.125	103.69
378.35	118.69
378.576	123.69
378.802	139.69
379.027	122.69
379.253	141.69
379.478	200.69
379.704	351.69
379.929	882.69
380.155	1891.69
380.38	1917.69
380.606	584.69
380.831	203.69
381.057	145.69
381.282	119.69
381.507	117.69
381.733	105.69
381.958	115.69
382.184	120.69
382.409	114.69
382.634	120.69
382.86	115.69
383.085	111.69
383.31	116.69
383.535	119.69
383.761	116.69
383.986	111.69
384.211	111.69
384.436	103.69
384.662	115.69
384.887	100.69
385.112	109.69
385.337	104.69
385.562	99.69
385.787	111.69
386.013	112.69
386.238	114.69
386.463	96.69
386.688	96.69
386.913	115.69
387.138	96.69
387.363	111.69
387.588	106.69
387.813	115.69
388.038	98.69
388.263	98.69
388.488	115.69
388.713	97.69
388.938	100.69
389.163	95.69
389.387	103.69
389.612	107.69
389.837	90.69
390.062	103.69
390.287	101.69
390.512	98.69
390.736	104.69
390.961	95.69
391.186	97.69
391.411	117.69
391.636	111.69
391.86	115.69
392.085	90.69
392.31	93.69
392.534	100.69
392.759	114.69
392.984	104.69
393.208	112.69
393.433	139.69
393.658	137.69
393.882	111.69
394.107	100.69
394.331	111.69
394.556	102.69
394.78	104.69
395.005	99.69
395.229	94.69
395.454	79.69
395.678	99.69
395.903	108.69
396.127	99.69
396.352	100.69
396.576	108.69
396.801	121.69
397.025	129.69
397.249	120.69
397.474	99.69
397.698	93.69
397.922	92.69
398.147	103.69
398.371	100.69
398.595	108.69
398.82	104.69
399.044	94.69
399.268	98.69
399.492	93.69
399.717	88.69
399.941	90.69
400.165	97.69
400.389	111.69
400.613	93.69
400.837	90.69
401.062	94.69
401.286	100.69
401.51	120.69
401.734	91.69
401.958	94.69
402.182	88.69
402.406	108.69
402.63	110.69
402.854	96.69
403.078	107.69
403.302	81.69
403.526	89.69
403.75	94.69
403.974	111.69
404.198	112.69
404.422	96.69
404.645	103.69
404.869	93.69
405.093	109.69
405.317	103.69
405.541	118.69
405.765	134.69
405.988	159.69
406.212	119.69
406.436	90.69
406.66	109.69
406.883	88.69
407.107	109.69
407.331	99.69
407.555	92.69
407.778	99.69
408.002	93.69
408.226	111.69
408.449	99.69
408.673	111.69
408.896	96.69
409.12	96.69
409.344	93.69
409.567	84.69
409.791	94.69
410.014	113.69
410.238	101.69
410.461	105.69
410.685	105.69
410.908	100.69
411.132	104.69
411.355	98.69
411.578	100.69
411.802	106.69
412.025	99.69
412.249	108.69
412.472	91.69
412.695	101.69
412.919	109.69
413.142	104.69
413.365	107.69
413.589	96.69
413.812	115.69
414.035	104.69
414.258	100.69
414.482	107.69
414.705	118.69
414.928	105.69
415.151	92.69
415.374	95.69
415.597	108.69
415.821	99.69
416.044	99.69
416.267	96.69
416.49	95.69
416.713	98.69
416.936	100.69
417.159	107.69
417.382	94.69
417.605	83.69
417.828	92.69
418.051	100.69
418.274	98.69
418.497	113.69
418.72	96.69
418.943	96.69
419.166	119.69
419.389	110.69
419.611	107.69
419.834	95.69
420.057	93.69
420.28	89.69
420.503	112.69
420.726	112.69
420.948	96.69
421.171	90.69
421.394	100.69
421.617	95.69
421.839	114.69
422.062	102.69
422.285	81.69
422.507	105.69
422.73	133.69
422.953	146.69
423.175	126.69
423.398	101.69
423.621	91.69
423.843	79.69
424.066	95.69
424.288	89.69
424.511	94.69
424.733	103.69
424.956	91.69
425.178	88.69
425.401	107.69
425.623	91.69
425.846	94.69
426.068	96.69
426.291	103.69
426.513	99.69
426.735	85.69
426.958	88.69
427.18	104.69
427.402	102.69
427.625	94.69
427.847	99.69
428.069	92.69
428.292	96.69
428.514	107.69
428.736	96.69
428.958	101.69
429.181	94.69
429.403	88.69
429.625	90.69
429.847	109.69
430.069	109.69
430.292	102.69
430.514	103.69
430.736	101.69
430.958	110.69
431.18	86.69
431.402	89.69
431.624	103.69
431.846	89.69
432.068	95.69
432.29	107.69
432.512	95.69
432.734	97.69
432.956	99.69
433.178	96.69
433.4	88.69
433.622	91.69
433.844	91.69
434.066	91.69
434.287	98.69
434.509	96.69
434.731	104.69
434.953	101.69
435.175	89.69
435.397	102.69
435.618	91.69
435.84	89.69
436.062	71.69
436.284	90.69
436.505	91.69
436.727	101.69
436.949	98.69
437.17	91.69
437.392	99.69
437.614	84.69
437.835	93.69
438.057	100.69
438.278	99.69
438.5	91.69
438.721	100.69
438.943	89.69
439.165	118.69
439.386	117.69
439.608	114.69
439.829	83.69
440.05	113.69
440.272	129.69
440.493	104.69
440.715	100.69
440.936	100.69
441.158	96.69
441.379	90.69
441.6	85.69
441.822	100.69
442.043	120.69
442.264	130.69
442.486	111.69
442.707	112.69
442.928	95.69
443.149	95.69
443.371	98.69
443.592	97.69
443.813	93.69
444.034	100.69
444.255	99.69
444.476	90.69
444.698	88.69
444.919	72.69
445.14	191.69
445.361	143.69
445.582	107.69
445.803	84.69
446.024	95.69
446.245	99.69
446.466	101.69
446.687	112.69
446.908	87.69
447.129	96.69
447.35	99.69
447.571	97.69
447.792	94.69
448.013	102.69
448.234	103.69
448.455	93.69
448.675	96.69
448.896	103.69
449.117	108.69
449.338	134.69
449.559	160.69
449.779	137.69
450	108.69
450.221	113.69
450.442	119.69
450.662	109.69
450.883	110.69
451.104	108.69
451.324	115.69
451.545	111.69
451.766	120.69
451.986	151.69
452.207	229.69
452.428	649.69
452.648	1614.69
452.869	905.69
453.089	229.69
453.31	115.69
453.53	138.69
453.751	165.69
453.971	171.69
454.192	154.69
454.412	104.69
454.633	84.69
454.853	113.69
455.073	98.69
455.294	97.69
455.514	99.69
455.734	102.69
455.955	93.69
456.175	98.69
456.395	99.69
456.616	95.69
456.836	96.69
457.056	102.69
457.276	99.69
457.497	118.69
457.717	123.69
457.937	107.69
458.157	89.69
458.377	94.69
458.598	83.69
458.818	91.69
459.038	86.69
459.258	80.69
459.478	99.69
459.698	89.69
459.918	92.69
460.138	89.69
460.358	78.69
460.578	82.69
460.798	100.69
461.018	98.69
461.238	95.69
461.458	87.69
461.678	91.69
461.898	92.69
462.118	100.69
462.338	82.69
462.558	80.69
462.777	86.69
462.997	101.69
463.217	95.69
463.437	143.69
463.657	205.69
463.876	189.69
464.096	129.69
464.316	101.69
464.536	108.69
464.755	100.69
464.975	99.69
465.195	102.69
465.414	97.69
465.634	96.69
465.854	111.69
466.073	95.69
466.293	98.69
466.512	78.69
466.732	95.69
466.951	113.69
467.171	148.69
467.391	148.69
467.61	104.69
467.829	99.69
468.049	107.69
468.268	117.69
468.488	104.69
468.707	90.69
468.927	92.69
469.146	98.69
469.365	108.69
469.585	101.69
469.804	98.69
470.023	93.69
470.243	94.69
470.462	118.69
470.681	107.69
470.901	145.69
471.12	198.69
471.339	229.69
471.558	149.69
471.777	121.69
471.997	106.69
472.216	95.69
472.435	96.69
472.654	91.69
472.873	87.69
473.092	90.69
473.311	102.69
473.53	76.69
473.749	97.69
473.968	101.69
474.187	71.69
474.406	98.69
474.625	94.69
474.844	101.69
475.063	95.69
475.282	99.69
475.501	105.69
475.72	99.69
475.939	103.69
476.158	99.69
476.377	116.69
476.596	99.69
476.814	108.69
477.033	82.69
477.252	104.69
477.471	94.69
477.69	87.69
477.908	103.69
478.127	99.69
478.346	102.69
478.564	102.69
478.783	105.69
479.002	98.69
479.22	97.69
479.439	96.69
479.658	81.69
479.876	110.69
480.095	89.69
480.313	90.69
480.532	92.69
480.751	114.69
480.969	110.69
481.188	110.69
481.406	97.69
481.624	112.69
481.843	121.69
482.061	127.69
482.28	92.69
482.498	102.69
482.717	108.69
482.935	104.69
483.153	102.69
483.372	95.69
483.59	99.69
483.808	108.69
484.027	105.69
484.245	143.69
484.463	183.69
484.681	251.69
484.9	161.69
485.118	124.69
485.336	131.69
485.554	109.69
485.772	133.69
485.99	199.69
486.209	264.69
486.427	189.69
486.645	122.69
486.863	113.69
487.081	102.69
487.299	96.69
487.517	107.69
487.735	98.69
487.953	95.69
488.171	106.69
488.389	89.69
488.607	90.69
488.825	99.69
489.043	92.69
489.261	93.69
489.479	99.69
489.696	104.69
489.914	98.69
490.132	110.69
490.35	85.69
490.568	90.69
490.786	96.69
491.003	102.69
491.221	112.69
491.439	107.69
491.657	93.69
491.874	101.69
492.092	110.69
492.31	105.69
492.527	93.69
492.745	102.69
492.963	109.69
493.18	107.69
493.398	120.69
493.615	112.69
493.833	109.69
494.05	100.69
494.268	100.69
494.485	101.69
494.703	100.69
494.92	95.69
495.138	100.69
495.355	116.69
495.573	116.69
495.79	108.69
496.008	104.69
496.225	115.69
496.442	109.69
496.66	125.69
496.877	177.69
497.094	148.69
497.312	111.69
497.529	113.69
497.746	104.69
497.963	112.69
498.181	105.69
498.398	109.69
498.615	119.69
498.832	106.69
499.049	109.69
499.267	138.69
499.484	167.69
499.701	115.69
499.918	107.69
500.135	107.69
500.352	107.69
500.569	88.69
500.786	107.69
501.003	109.69
501.22	97.69
501.437	86.69
501.654	108.69
501.871	97.69
502.088	85.69
502.305	87.69
502.522	92.69
502.739	96.69
502.956	110.69
503.172	100.69
503.389	108.69
503.606	101.69
503.823	83.69
504.04	84.69
504.256	96.69
504.473	85.69
504.69	86.69
504.907	116.69
505.123	123.69
505.34	107.69
505.557	93.69
505.773	104.69
505.99	99.69
506.207	99.69
506.423	97.69
506.64	123.69
506.856	120.69
507.073	116.69
507.289	108.69
507.506	99.69
507.722	100.69
507.939	94.69
508.155	86.69
508.372	97.69
508.588	90.69
508.805	95.69
509.021	93.69
509.238	108.69
509.454	157.69
509.67	168.69
509.887	110.69
510.103	92.69
510.319	103.69
510.536	96.69
510.752	114.69
510.968	105.69
511.184	97.69
511.401	102.69
511.617	97.69
511.833	93.69
512.049	107.69
512.265	92.69
512.481	90.69
512.698	98.69
512.914	102.69
513.13	103.69
513.346	80.69
513.562	87.69
513.778	84.69
513.994	97.69
514.21	101.69
514.426	173.69
514.642	182.69
514.858	113.69
515.074	100.69
515.29	96.69
515.506	103.69
515.721	87.69
515.937	103.69
516.153	100.69
516.369	94.69
516.585	102.69
516.801	99.69
517.016	86.69
517.232	117.69
517.448	117.69
517.664	103.69
517.879	99.69
518.095	110.69
518.311	103.69
518.527	106.69
518.742	101.69
518.958	110.69
519.173	166.69
519.389	134.69
519.605	106.69
519.82	102.69
520.036	99.69
520.251	101.69
520.467	95.69
520.682	107.69
520.898	90.69
521.113	103.69
521.329	100.69
521.544	91.69
521.76	84.69
521.975	123.69
522.19	96.69
522.406	93.69
522.621	86.69
522.836	91.69
523.052	96.69
523.267	95.69
523.482	97.69
523.698	81.69
523.913	91.69
524.128	102.69
524.343	96.69
524.559	75.69
524.774	106.69
524.989	96.69
525.204	120.69
525.419	117.69
525.634	87.69
525.849	88.69
526.064	81.69
526.28	112.69
526.495	99.69
526.71	81.69
526.925	89.69
527.14	90.69
527.355	102.69
527.57	101.69
527.785	100.69
527.999	85.69
528.214	88.69
528.429	109.69
528.644	90.69
528.859	91.69
529.074	102.69
529.289	96.69
529.503	93.69
529.718	94.69
529.933	101.69
530.148	100.69
530.363	88.69
530.577	102.69
530.792	95.69
531.007	93.69
531.221	99.69
531.436	90.69
531.651	98.69
531.865	97.69
532.08	96.69
532.295	107.69
532.509	138.69
532.724	131.69
532.938	108.69
533.153	95.69
533.367	92.69
533.582	93.69
533.796	97.69
534.011	83.69
534.225	101.69
534.44	96.69
534.654	89.69
534.868	83.69
535.083	100.69
535.297	89.69
535.511	102.69
535.726	100.69
535.94	98.69
536.154	89.69
536.369	88.69
536.583	97.69
536.797	102.69
537.011	98.69
537.225	87.69
537.44	96.69
537.654	98.69
537.868	104.69
538.082	97.69
538.296	100.69
538.51	99.69
538.724	99.69
538.938	102.69
539.153	102.69
539.367	96.69
539.581	89.69
539.795	104.69
540.009	96.69
540.222	100.69
540.436	101.69
540.65	107.69
540.864	103.69
541.078	95.69
541.292	130.69
541.506	225.69
541.72	196.69
541.934	129.69
542.147	120.69
542.361	103.69
542.575	108.69
542.789	100.69
543.002	103.69
543.216	105.69
543.43	115.69
543.644	102.69
543.857	107.69
544.071	85.69
544.285	109.69
544.498	96.69
544.712	104.69
544.925	83.69
545.139	99.69
545.352	93.69
545.566	100.69
545.779	112.69
545.993	103.69
546.206	95.69
546.42	96.69
546.633	112.69
546.847	87.69
547.06	83.69
547.274	99.69
547.487	87.69
547.7	88.69
547.914	119.69
548.127	100.69
548.34	117.69
548.554	109.69
548.767	94.69
548.98	102.69
549.193	93.69
549.407	104.69
549.62	110.69
549.833	105.69
550.046	107.69
550.259	91.69
550.473	103.69
550.686	103.69
550.899	103.69
551.112	109.69
551.325	107.69
551.538	95.69
551.751	111.69
551.964	96.69
552.177	98.69
552.39	112.69
552.603	107.69
552.816	98.69
553.029	91.69
553.242	97.69
553.455	101.69
553.667	109.69
553.88	109.69
554.093	98.69
554.306	101.69
554.519	95.69
554.732	94.69
554.944	99.69
555.157	112.69
555.37	116.69
555.583	109.69
555.795	111.69
556.008	114.69
556.221	135.69
556.433	116.69
556.646	104.69
556.859	117.69
557.071	103.69
557.284	129.69
557.496	121.69
557.709	108.69
557.921	106.69
558.134	92.69
558.346	93.69
558.559	98.69
558.771	99.69
558.984	115.69
559.196	119.69
559.409	101.69
559.621	99.69
559.833	101.69
560.046	100.69
560.258	100.69
560.47	91.69
560.683	88.69
560.895	102.69
561.107	98.69
561.32	101.69
561.532	101.69
561.744	107.69
561.956	88.69
562.168	87.69
562.381	105.69
562.593	115.69
562.805	131.69
563.017	175.69
563.229	300.69
563.441	720.69
563.653	238.69
563.865	112.69
564.077	89.69
564.289	107.69
564.501	91.69
564.713	96.69
564.925	102.69
565.137	103.69
565.349	104.69
565.561	108.69
565.773	109.69
565.985	96.69
566.197	85.69
566.408	98.69
566.62	110.69
566.832	89.69
567.044	100.69
567.255	96.69
567.467	100.69
567.679	110.69
567.891	119.69
568.102	177.69
568.314	281.69
568.526	164.69
568.737	124.69
568.949	94.69
569.161	98.69
569.372	86.69
569.584	108.69
569.795	96.69
570.007	110.69
570.218	152.69
570.43	171.69
570.641	108.69
570.853	108.69
571.064	91.69
571.276	92.69
571.487	108.69
571.698	83.69
571.91	92.69
572.121	97.69
572.333	89.69
572.544	97.69
572.755	150.69
572.966	210.69
573.178	123.69
573.389	100.69
573.6	94.69
573.811	97.69
574.023	84.69
574.234	90.69
574.445	84.69
574.656	99.69
574.867	100.69
575.078	92.69
575.289	104.69
575.501	105.69
575.712	95.69
575.923	87.69
576.134	77.69
576.345	99.69
576.556	97.69
576.767	104.69
576.978	95.69
577.188	88.69
577.399	87.69
577.61	96.69
577.821	99.69
578.032	95.69
578.243	108.69
578.454	87.69
578.665	99.69
578.875	93.69
579.086	85.69
579.297	81.69
579.508	96.69
579.718	96.69
579.929	98.69
580.14	102.69
580.35	89.69
580.561	89.69
580.772	89.69
580.982	95.69
581.193	92.69
581.403	95.69
581.614	95.69
581.825	88.69
582.035	88.69
582.246	92.69
582.456	93.69
582.667	84.69
582.877	116.69
583.087	120.69
583.298	96.69
583.508	92.69
583.719	94.69
583.929	86.69
584.139	91.69
584.35	85.69
584.56	111.69
584.77	102.69
584.981	98.69
585.191	98.69
585.401	100.69
585.611	95.69
585.821	84.69
586.032	87.69
586.242	87.69
586.452	86.69
586.662	83.69
586.872	85.69
587.082	83.69
587.292	86.69
587.502	83.69
587.713	95.69
587.923	96.69
588.133	72.69
588.343	96.69
588.553	84.69
588.762	87.69
588.972	85.69
589.182	124.69
589.392	112.69
589.602	93.69
589.812	103.69
590.022	115.69
590.232	83.69
590.441	100.69
590.651	91.69
590.861	88.69
591.071	100.69
591.281	92.69
591.49	95.69
591.7	82.69
591.91	94.69
592.119	103.69
592.329	84.69
592.539	89.69
592.748	94.69
592.958	86.69
593.167	88.69
593.377	94.69
593.587	94.69
593.796	83.69
594.006	89.69
594.215	92.69
594.424	79.69
594.634	85.69
594.843	74.69
595.053	90.69
595.262	85.69
595.472	87.69
595.681	79.69
595.89	95.69
596.1	84.69
596.309	76.69
596.518	99.69
596.727	100.69
596.937	101.69
597.146	93.69
597.355	99.69
597.564	87.69
597.774	100.69
597.983	90.69
598.192	93.69
598.401	84.69
598.61	92.69
598.819	83.69
599.028	82.69
599.237	92.69
599.446	87.69
599.655	94.69
599.864	87.69
600.073	86.69
600.282	100.69
600.491	94.69
600.7	102.69
600.909	88.69
601.118	89.69
601.327	84.69
601.536	93.69
601.745	98.69
601.953	127.69
602.162	179.69
602.371	109.69
602.58	104.69
602.789	109.69
602.997	77.69
603.206	87.69
603.415	87.69
603.623	72.69
603.832	102.69
604.041	103.69
604.249	92.69
604.458	107.69
604.666	98.69
604.875	96.69
605.084	82.69
605.292	83.69
605.501	88.69
605.709	79.69
605.918	102.69
606.126	102.69
606.334	111.69
606.543	115.69
606.751	143.69
606.96	176.69
607.168	187.69
607.376	124.69
607.585	102.69
607.793	98.69
608.001	107.69
608.21	102.69
608.418	102.69
608.626	84.69
608.834	91.69
609.043	90.69
609.251	100.69
609.459	87.69
609.667	92.69
609.875	101.69
610.083	96.69
610.291	94.69
610.499	95.69
610.707	101.69
610.916	99.69
611.124	80.69
611.332	89.69
611.54	86.69
611.748	91.69
611.955	77.69
612.163	81.69
612.371	84.69
612.579	98.69
612.787	96.69
612.995	82.69
613.203	96.69
613.411	103.69
613.618	85.69
613.826	99.69
614.034	96.69
614.242	94.69
614.449	102.69
614.657	104.69
614.865	109.69
615.072	114.69
615.28	112.69
615.488	93.69
615.695	95.69
615.903	98.69
616.111	93.69
616.318	110.69
616.526	99.69
616.733	87.69
616.941	93.69
617.148	107.69
617.356	99.69
617.563	100.69
617.771	94.69
617.978	85.69
618.185	81.69
618.393	86.69
618.6	95.69
618.807	83.69
619.015	88.69
619.222	87.69
619.429	88.69
619.637	90.69
619.844	76.69
620.051	91.69
620.258	103.69
620.466	100.69
620.673	95.69
620.88	93.69
621.087	85.69
621.294	80.69
621.501	87.69
621.708	87.69
621.915	91.69
622.122	85.69
622.329	91.69
622.536	95.69
622.743	87.69
622.95	95.69
623.157	81.69
623.364	68.69
623.571	78.69
623.778	79.69
623.985	86.69
624.192	99.69
624.399	91.69
624.606	95.69
624.812	106.69
625.019	92.69
625.226	71.69
625.433	76.69
625.639	91.69
625.846	102.69
626.053	100.69
626.259	90.69
626.466	94.69
626.673	95.69
626.879	83.69
627.086	83.69
627.293	96.69
627.499	84.69
627.706	81.69
627.912	91.69
628.119	86.69
628.325	96.69
628.532	97.69
628.738	87.69
628.945	93.69
629.151	93.69
629.357	84.69
629.564	85.69
629.77	91.69
629.976	73.69
630.183	79.69
630.389	83.69
630.595	83.69
630.802	82.69
631.008	85.69
631.214	91.69
631.42	73.69
631.627	97.69
631.833	81.69
632.039	87.69
632.245	96.69
632.451	82.69
632.657	84.69
632.863	76.69
633.069	88.69
633.275	89.69
633.481	73.69
633.688	95.69
633.893	89.69
634.099	94.69
634.305	85.69
634.511	72.69
634.717	82.69
634.923	97.69
635.129	114.69
635.335	133.69
635.541	99.69
635.747	95.69
635.952	88.69
636.158	86.69
636.364	76.69
636.57	85.69
636.775	101.69
636.981	88.69
637.187	83.69
637.392	78.69
637.598	85.69
637.804	88.69
638.009	87.69
638.215	79.69
638.421	96.69
638.626	87.69
638.832	84.69
639.037	89.69
639.243	87.69
639.448	89.69
639.654	85.69
639.859	83.69
640.065	91.69
640.27	88.69
640.475	96.69
640.681	80.69
640.886	79.69
641.091	89.69
641.297	87.69
641.502	87.69
641.707	85.69
641.913	101.69
642.118	92.69
642.323	87.69
642.528	89.69
642.733	93.69
642.939	86.69
643.144	73.69
643.349	74.69
643.554	77.69
643.759	87.69
643.964	77.69
644.169	94.69
644.374	82.69
644.579	97.69
644.784	73.69
644.989	75.69
645.194	103.69
645.399	100.69
645.604	110.69
645.809	95.69
646.014	96.69
646.219	93.69
646.423	96.69
646.628	75.69
646.833	88.69
647.038	81.69
647.243	79.69
647.447	109.69
647.652	88.69
647.857	78.69
648.062	73.69
648.266	77.69
648.471	74.69
648.676	86.69
648.88	90.69
649.085	82.69
649.289	79.69
649.494	79.69
649.698	92.69
649.903	75.69
650.107	83.69
650.312	87.69
650.516	80.69
650.721	73.69
650.925	87.69
651.13	87.69
651.334	78.69
651.539	62.69
651.743	89.69
651.947	97.69
652.152	90.69
652.356	86.69
652.56	103.69
652.764	114.69
652.969	95.69
653.173	90.69
653.377	84.69
653.581	75.69
653.785	89.69
653.99	93.69
654.194	82.69
654.398	87.69
654.602	74.69
654.806	79.69
655.01	79.69
655.214	87.69
655.418	73.69
655.622	82.69
655.826	85.69
656.03	80.69
656.234	82.69
656.438	70.69
656.642	79.69
656.846	83.69
657.049	84.69
657.253	82.69
657.457	73.69
657.661	67.69
657.865	89.69
658.068	76.69
658.272	83.69
658.476	83.69
658.68	77.69
658.883	83.69
659.087	88.69
659.291	77.69
659.494	69.69
659.698	86.69
659.901	72.69
660.105	91.69
660.309	84.69
660.512	81.69
660.716	74.69
660.919	75.69
661.123	86.69
661.326	86.69
661.53	76.69
661.733	77.69
661.936	85.69
662.14	69.69
662.343	88.69
662.546	85.69
662.75	91.69
662.953	79.69
663.156	77.69
663.36	81.69
663.563	79.69
663.766	71.69
663.969	90.69
664.173	88.69
664.376	79.69
664.579	89.69
664.782	83.69
664.985	83.69
665.188	80.69
665.391	77.69
665.594	88.69
665.797	70.69
666	69.69
666.203	77.69
666.406	77.69
666.609	76.69
666.812	78.69
667.015	87.69
667.218	70.69
667.421	67.69
667.624	78.69
667.827	93.69
668.03	77.69
668.232	62.69
668.435	71.69
668.638	74.69
668.841	78.69
669.043	70.69
669.246	92.69
669.449	79.69
669.651	81.69
669.854	82.69
670.057	71.69
670.259	78.69
670.462	80.69
670.665	77.69
670.867	69.69
671.07	68.69
671.272	74.69
671.475	85.69
671.677	83.69
671.88	71.69
672.082	85.69
672.284	78.69
672.487	81.69
672.689	72.69
672.892	87.69
