Data from SnStandardFlinnAPT0064_LampEnergy10_LIBS07252019.E.O._I.C._HRD10591_15-20-20-493.txt Node
Date: Thu Jul 25 15:20:20 EDT 2019
User: cochatt
Spectrometer: HR+D1059
Trigger mode: 1
Integration Time (sec): 1.000000E-1
Scans to average: 1
Electric dark correction enabled: true
Nonlinearity correction enabled: false
Boxcar width: 0
XAxis mode: Wavelengths
Number of Pixels in Spectrum: 2048
>>>>>Begin Spectral Data<<<<<
223.165	-26.25
223.4	-26.25
223.635	-26.25
223.869	-21.25
224.104	-24.25
224.338	-12.25
224.573	-18.25
224.808	-6.25
225.042	-11.25
225.277	-6.25
225.511	12.75
225.746	-3.25
225.98	1.75
226.215	14.75
226.449	14.75
226.683	22.75
226.918	21.75
227.152	40.75
227.387	34.75
227.621	29.75
227.856	47.75
228.09	37.75
228.324	49.75
228.559	43.75
228.793	133.75
229.027	311.75
229.262	337.75
229.496	305.75
229.73	285.75
229.964	309.75
230.199	308.75
230.433	298.75
230.667	300.75
230.901	316.75
231.136	323.75
231.37	360.75
231.604	379.75
231.838	433.75
232.072	509.75
232.306	575.75
232.541	469.75
232.775	414.75
233.009	410.75
233.243	413.75
233.477	452.75
233.711	519.75
233.945	598.75
234.179	538.75
234.413	462.75
234.647	445.75
234.881	460.75
235.115	528.75
235.349	627.75
235.583	789.75
235.817	997.75
236.051	999.75
236.285	636.75
236.519	509.75
236.753	486.75
236.987	497.75
237.221	544.75
237.455	486.75
237.689	448.75
237.922	438.75
238.156	464.75
238.39	479.75
238.624	489.75
238.858	486.75
239.091	471.75
239.325	479.75
239.559	500.75
239.793	491.75
240.027	527.75
240.26	550.75
240.494	521.75
240.728	584.75
240.961	611.75
241.195	636.75
241.429	689.75
241.662	696.75
241.896	767.75
242.13	903.75
242.363	1258.75
242.597	1589.75
242.83	1523.75
243.064	1543.75
243.298	1845.75
243.531	1493.75
243.765	953.75
243.998	783.75
244.232	686.75
244.465	629.75
244.699	623.75
244.932	630.75
245.166	653.75
245.399	645.75
245.633	644.75
245.866	684.75
246.099	651.75
246.333	629.75
246.566	607.75
246.8	619.75
247.033	648.75
247.266	647.75
247.5	641.75
247.733	666.75
247.966	695.75
248.2	764.75
248.433	899.75
248.666	997.75
248.899	920.75
249.133	830.75
249.366	849.75
249.599	939.75
249.832	1082.75
250.066	1097.75
250.299	846.75
250.532	739.75
250.765	739.75
250.998	710.75
251.231	702.75
251.465	704.75
251.698	707.75
251.931	701.75
252.164	737.75
252.397	744.75
252.63	798.75
252.863	774.75
253.096	749.75
253.329	763.75
253.562	755.75
253.795	780.75
254.028	786.75
254.261	806.75
254.494	865.75
254.727	1000.75
254.96	1243.75
255.193	1196.75
255.426	943.75
255.659	866.75
255.892	832.75
256.124	853.75
256.357	853.75
256.59	867.75
256.823	940.75
257.056	1101.75
257.289	1347.75
257.521	1501.75
257.754	1153.75
257.987	957.75
258.22	895.75
258.452	894.75
258.685	899.75
258.918	906.75
259.151	985.75
259.383	1049.75
259.616	1218.75
259.849	1277.75
260.081	1062.75
260.314	973.75
260.547	926.75
260.779	930.75
261.012	907.75
261.244	903.75
261.477	934.75
261.71	940.75
261.942	959.75
262.175	989.75
262.407	977.75
262.64	1010.75
262.872	1041.75
263.105	1107.75
263.337	1158.75
263.57	1203.75
263.802	1250.75
264.035	1227.75
264.267	1289.75
264.499	1308.75
264.732	1338.75
264.964	1355.75
265.197	1358.75
265.429	1351.75
265.661	1368.75
265.894	1479.75
266.126	1681.75
266.358	1905.75
266.591	1840.75
266.823	1561.75
267.055	1367.75
267.287	1329.75
267.52	1254.75
267.752	1253.75
267.984	1241.75
268.216	1220.75
268.448	1207.75
268.681	1221.75
268.913	1200.75
269.145	1210.75
269.377	1198.75
269.609	1197.75
269.841	1250.75
270.073	1332.75
270.306	1574.75
270.538	2147.75
270.77	3164.75
271.002	3919.75
271.234	2809.75
271.466	1848.75
271.698	1515.75
271.93	1348.75
272.162	1296.75
272.394	1231.75
272.626	1219.75
272.858	1184.75
273.09	1159.75
273.322	1194.75
273.553	1130.75
273.785	1186.75
274.017	1168.75
274.249	1181.75
274.481	1161.75
274.713	1159.75
274.945	1194.75
275.176	1186.75
275.408	1191.75
275.64	1215.75
275.872	1202.75
276.104	1253.75
276.335	1250.75
276.567	1249.75
276.799	1230.75
277.031	1245.75
277.262	1308.75
277.494	1358.75
277.726	1514.75
277.957	1811.75
278.189	2060.75
278.421	1981.75
278.652	1750.75
278.884	1639.75
279.115	1493.75
279.347	1391.75
279.579	1359.75
279.81	1373.75
280.042	1346.75
280.273	1419.75
280.505	1381.75
280.736	1463.75
280.968	1533.75
281.199	1746.75
281.431	2068.75
281.662	2071.75
281.894	1729.75
282.125	1627.75
282.356	1590.75
282.588	1590.75
282.819	1641.75
283.051	1793.75
283.282	1986.75
283.513	2421.75
283.745	3548.75
283.976	5627.75
284.207	7981.75
284.439	7277.75
284.67	4561.75
284.901	3771.75
285.132	3819.75
285.364	3568.75
285.595	2685.75
285.826	2394.75
286.057	2837.75
286.288	3772.75
286.52	5228.75
286.751	4905.75
286.982	3029.75
287.213	2268.75
287.444	1956.75
287.675	1811.75
287.906	1717.75
288.138	1671.75
288.369	1645.75
288.6	1645.75
288.831	1591.75
289.062	1613.75
289.293	1610.75
289.524	1647.75
289.755	1644.75
289.986	1641.75
290.217	1631.75
290.448	1646.75
290.679	1683.75
290.91	1751.75
291.141	1865.75
291.371	2011.75
291.602	2101.75
291.833	1913.75
292.064	1726.75
292.295	1631.75
292.526	1607.75
292.757	1553.75
292.987	1547.75
293.218	1542.75
293.449	1591.75
293.68	1504.75
293.91	1564.75
294.141	1539.75
294.372	1529.75
294.603	1532.75
294.833	1531.75
295.064	1525.75
295.295	1500.75
295.525	1537.75
295.756	1509.75
295.987	1483.75
296.217	1553.75
296.448	1513.75
296.679	1548.75
296.909	1513.75
297.14	1546.75
297.37	1549.75
297.601	1576.75
297.831	1568.75
298.062	1590.75
298.292	1600.75
298.523	1647.75
298.753	1653.75
298.984	1687.75
299.214	1723.75
299.445	1692.75
299.675	1746.75
299.905	1804.75
300.136	1854.75
300.366	2115.75
300.597	2692.75
300.827	3828.75
301.057	5218.75
301.288	5277.75
301.518	3349.75
301.748	2561.75
301.979	2292.75
302.209	2232.75
302.439	2242.75
302.669	2422.75
302.9	2887.75
303.13	4172.75
303.36	6206.75
303.59	8310.75
303.82	7160.75
304.051	4257.75
304.281	3014.75
304.511	2514.75
304.741	2266.75
304.971	2185.75
305.201	2041.75
305.431	1953.75
305.661	1960.75
305.891	1865.75
306.121	1848.75
306.352	1836.75
306.582	1802.75
306.812	1799.75
307.042	1798.75
307.272	1763.75
307.502	1777.75
307.731	1772.75
307.961	1787.75
308.191	1784.75
308.421	1752.75
308.651	1761.75
308.881	1774.75
309.111	1760.75
309.341	1743.75
309.571	1813.75
309.8	1826.75
310.03	1789.75
310.26	1784.75
310.49	1813.75
310.72	1813.75
310.949	1786.75
311.179	1841.75
311.409	1853.75
311.639	1843.75
311.868	1847.75
312.098	1881.75
312.328	1924.75
312.557	1921.75
312.787	1861.75
313.017	1922.75
313.246	1921.75
313.476	1933.75
313.706	2046.75
313.935	2163.75
314.165	2339.75
314.394	2486.75
314.624	2361.75
314.853	2105.75
315.083	2069.75
315.312	2090.75
315.542	2130.75
315.771	2154.75
316.001	2195.75
316.23	2253.75
316.46	2401.75
316.689	2617.75
316.919	3149.75
317.148	4563.75
317.377	7057.75
317.607	10402.75
317.836	10920.75
318.065	6682.75
318.295	4247.75
318.524	3417.75
318.753	2907.75
318.983	2680.75
319.212	2469.75
319.441	2434.75
319.67	2377.75
319.9	2304.75
320.129	2304.75
320.358	2309.75
320.587	2275.75
320.816	2261.75
321.046	2270.75
321.275	2286.75
321.504	2294.75
321.733	2337.75
321.962	2430.75
322.191	2457.75
322.42	2433.75
322.649	2383.75
322.878	2433.75
323.108	2393.75
323.337	2434.75
323.566	2509.75
323.795	2543.75
324.024	2554.75
324.253	2667.75
324.482	2742.75
324.71	2961.75
324.939	3114.75
325.168	3171.75
325.397	3321.75
325.626	3909.75
325.855	5481.75
326.084	8562.75
326.313	12644.75
326.542	13429.75
326.77	9053.75
326.999	5877.75
327.228	4845.75
327.457	4650.75
327.686	4623.75
327.914	4893.75
328.143	5646.75
328.372	6726.75
328.6	7309.75
328.829	6488.75
329.058	5486.75
329.287	4804.75
329.515	4446.75
329.744	4121.75
329.972	3873.75
330.201	3695.75
330.43	3586.75
330.658	3444.75
330.887	3424.75
331.115	3314.75
331.344	3294.75
331.572	3330.75
331.801	3302.75
332.03	3318.75
332.258	3469.75
332.486	3605.75
332.715	4153.75
332.943	5140.75
333.172	6535.75
333.4	6549.75
333.629	4869.75
333.857	4388.75
334.085	4280.75
334.314	4506.75
334.542	4840.75
334.771	5676.75
334.999	6951.75
335.227	8753.75
335.455	9738.75
335.684	8784.75
335.912	7291.75
336.14	6172.75
336.369	5431.75
336.597	5035.75
336.825	4547.75
337.053	4286.75
337.281	4038.75
337.51	3791.75
337.738	3702.75
337.966	3500.75
338.194	3429.75
338.422	3273.75
338.65	3258.75
338.878	3168.75
339.106	3145.75
339.334	3121.75
339.562	3043.75
339.79	2969.75
340.018	2958.75
340.246	2900.75
340.474	2918.75
340.702	2901.75
340.93	2922.75
341.158	2914.75
341.386	2890.75
341.614	2851.75
341.842	2742.75
342.07	2781.75
342.298	2733.75
342.526	2709.75
342.754	2645.75
342.981	2662.75
343.209	2629.75
343.437	2681.75
343.665	2691.75
343.893	2742.75
344.12	2711.75
344.348	2663.75
344.576	2678.75
344.804	2647.75
345.031	2495.75
345.259	2520.75
345.487	2499.75
345.714	2467.75
345.942	2488.75
346.17	2474.75
346.397	2470.75
346.625	2441.75
346.853	2438.75
347.08	2407.75
347.308	2449.75
347.535	2413.75
347.763	2397.75
347.99	2374.75
348.218	2408.75
348.445	2396.75
348.673	2402.75
348.9	2357.75
349.128	2358.75
349.355	2371.75
349.583	2355.75
349.81	2344.75
350.037	2341.75
350.265	2334.75
350.492	2316.75
350.72	2338.75
350.947	2321.75
351.174	2336.75
351.402	2322.75
351.629	2325.75
351.856	2295.75
352.083	2305.75
352.311	2301.75
352.538	2284.75
352.765	2330.75
352.992	2319.75
353.22	2255.75
353.447	2242.75
353.674	2260.75
353.901	2328.75
354.128	2306.75
354.355	2334.75
354.583	2343.75
354.81	2326.75
355.037	2332.75
355.264	2334.75
355.491	2320.75
355.718	2333.75
355.945	2366.75
356.172	2365.75
356.399	2342.75
356.626	2344.75
356.853	2398.75
357.08	2453.75
357.307	2435.75
357.534	2496.75
357.761	2503.75
357.988	2475.75
358.215	2458.75
358.441	2473.75
358.668	2420.75
358.895	2453.75
359.122	2412.75
359.349	2453.75
359.576	2442.75
359.802	2421.75
360.029	2460.75
360.256	2451.75
360.483	2447.75
360.709	2447.75
360.936	2446.75
361.163	2440.75
361.39	2454.75
361.616	2461.75
361.843	2465.75
362.07	2487.75
362.296	2479.75
362.523	2440.75
362.749	2441.75
362.976	2431.75
363.203	2435.75
363.429	2431.75
363.656	2445.75
363.882	2472.75
364.109	2454.75
364.335	2415.75
364.562	2459.75
364.788	2435.75
365.015	2473.75
365.241	2527.75
365.468	2699.75
365.694	2882.75
365.92	2761.75
366.147	2554.75
366.373	2519.75
366.599	2479.75
366.826	2490.75
367.052	2502.75
367.278	2542.75
367.505	2518.75
367.731	2531.75
367.957	2502.75
368.184	2532.75
368.41	2545.75
368.636	2617.75
368.862	2582.75
369.089	2561.75
369.315	2518.75
369.541	2533.75
369.767	2521.75
369.993	2533.75
370.219	2535.75
370.445	2529.75
370.672	2536.75
370.898	2516.75
371.124	2605.75
371.35	2609.75
371.576	2611.75
371.802	2629.75
372.028	2639.75
372.254	2670.75
372.48	2642.75
372.706	2653.75
372.932	2634.75
373.158	2636.75
373.384	2690.75
373.61	2628.75
373.835	2674.75
374.061	2733.75
374.287	2707.75
374.513	2664.75
374.739	2756.75
374.965	2804.75
375.191	2776.75
375.416	2750.75
375.642	2697.75
375.868	2704.75
376.094	2686.75
376.319	2655.75
376.545	2646.75
376.771	2632.75
376.997	2638.75
377.222	2619.75
377.448	2650.75
377.674	2649.75
377.899	2609.75
378.125	2639.75
378.35	2569.75
378.576	2627.75
378.802	2698.75
379.027	2754.75
379.253	2769.75
379.478	2955.75
379.704	3507.75
379.929	5065.75
380.155	7986.75
380.38	8747.75
380.606	5273.75
380.831	3587.75
381.057	3192.75
381.282	2858.75
381.507	2775.75
381.733	2687.75
381.958	2685.75
382.184	2628.75
382.409	2668.75
382.634	2628.75
382.86	2559.75
383.085	2587.75
383.31	2602.75
383.535	2566.75
383.761	2601.75
383.986	2619.75
384.211	2631.75
384.436	2697.75
384.662	2682.75
384.887	2723.75
385.112	2665.75
385.337	2697.75
385.562	2664.75
385.787	2707.75
386.013	2679.75
386.238	2689.75
386.463	2745.75
386.688	2703.75
386.913	2683.75
387.138	2620.75
387.363	2718.75
387.588	2603.75
387.813	2647.75
388.038	2647.75
388.263	2707.75
388.488	2696.75
388.713	2667.75
388.938	2670.75
389.163	2663.75
389.387	2677.75
389.612	2707.75
389.837	2692.75
390.062	2690.75
390.287	2713.75
390.512	2727.75
390.736	2754.75
390.961	2790.75
391.186	2761.75
391.411	2787.75
391.636	2846.75
391.86	2839.75
392.085	2794.75
392.31	2799.75
392.534	2792.75
392.759	2766.75
392.984	2776.75
393.208	2768.75
393.433	2758.75
393.658	2751.75
393.882	2701.75
394.107	2718.75
394.331	2737.75
394.556	2755.75
394.78	2767.75
395.005	2745.75
395.229	2754.75
395.454	2850.75
395.678	2830.75
395.903	2821.75
396.127	2806.75
396.352	2795.75
396.576	2787.75
396.801	2788.75
397.025	2787.75
397.249	2854.75
397.474	2818.75
397.698	2846.75
397.922	2902.75
398.147	2862.75
398.371	2914.75
398.595	2989.75
398.82	3009.75
399.044	3083.75
399.268	3268.75
399.492	3458.75
399.717	3538.75
399.941	3607.75
400.165	3421.75
400.389	3279.75
400.613	3193.75
400.837	3083.75
401.062	3071.75
401.286	2994.75
401.51	2949.75
401.734	2924.75
401.958	2949.75
402.182	2924.75
402.406	2952.75
402.63	3019.75
402.854	3022.75
403.078	2993.75
403.302	3079.75
403.526	3065.75
403.75	3041.75
403.974	3095.75
404.198	3044.75
404.422	3129.75
404.645	3086.75
404.869	3078.75
405.093	3077.75
405.317	3081.75
405.541	3123.75
405.765	3137.75
405.988	3168.75
406.212	3198.75
406.436	3171.75
406.66	3201.75
406.883	3136.75
407.107	3263.75
407.331	3304.75
407.555	3434.75
407.778	3366.75
408.002	3342.75
408.226	3323.75
408.449	3284.75
408.673	3204.75
408.896	3106.75
409.12	3121.75
409.344	3131.75
409.567	3078.75
409.791	3090.75
410.014	3105.75
410.238	3041.75
410.461	3081.75
410.685	3073.75
410.908	3021.75
411.132	3027.75
411.355	2954.75
411.578	2954.75
411.802	2932.75
412.025	2984.75
412.249	2971.75
412.472	3034.75
412.695	2902.75
412.919	2881.75
413.142	2877.75
413.365	2926.75
413.589	2961.75
413.812	2885.75
414.035	2916.75
414.258	2905.75
414.482	2913.75
414.705	2945.75
414.928	2913.75
415.151	2916.75
415.374	2877.75
415.597	2850.75
415.821	2801.75
416.044	2855.75
416.267	2777.75
416.49	2794.75
416.713	2725.75
416.936	2783.75
417.159	2848.75
417.382	2791.75
417.605	2817.75
417.828	2765.75
418.051	2750.75
418.274	2794.75
418.497	2846.75
418.72	2908.75
418.943	2843.75
419.166	2943.75
419.389	3134.75
419.611	3078.75
419.834	2970.75
420.057	2867.75
420.28	2822.75
420.503	2810.75
420.726	2755.75
420.948	2786.75
421.171	2764.75
421.394	2829.75
421.617	2785.75
421.839	2788.75
422.062	2804.75
422.285	2748.75
422.507	2792.75
422.73	2883.75
422.953	2911.75
423.175	2872.75
423.398	2873.75
423.621	2762.75
423.843	2851.75
424.066	2791.75
424.288	2784.75
424.511	2788.75
424.733	2860.75
424.956	2795.75
425.178	2766.75
425.401	2749.75
425.623	2739.75
425.846	2683.75
426.068	2718.75
426.291	2629.75
426.513	2668.75
426.735	2683.75
426.958	2678.75
427.18	2637.75
427.402	2655.75
427.625	2639.75
427.847	2619.75
428.069	2584.75
428.292	2611.75
428.514	2579.75
428.736	2611.75
428.958	2637.75
429.181	2537.75
429.403	2598.75
429.625	2606.75
429.847	2604.75
430.069	2612.75
430.292	2690.75
430.514	2724.75
430.736	2798.75
430.958	2658.75
431.18	2559.75
431.402	2566.75
431.624	2580.75
431.846	2565.75
432.068	2559.75
432.29	2609.75
432.512	2518.75
432.734	2603.75
432.956	2531.75
433.178	2574.75
433.4	2573.75
433.622	2557.75
433.844	2609.75
434.066	2591.75
434.287	2614.75
434.509	2642.75
434.731	2575.75
434.953	2691.75
435.175	2705.75
435.397	2709.75
435.618	2636.75
435.84	2594.75
436.062	2594.75
436.284	2599.75
436.505	2550.75
436.727	2594.75
436.949	2564.75
437.17	2553.75
437.392	2511.75
437.614	2493.75
437.835	2497.75
438.057	2467.75
438.278	2523.75
438.5	2478.75
438.721	2549.75
438.943	2645.75
439.165	2683.75
439.386	2675.75
439.608	2649.75
439.829	2667.75
440.05	2752.75
440.272	2780.75
440.493	2705.75
440.715	2662.75
440.936	2689.75
441.158	2703.75
441.379	2740.75
441.6	2870.75
441.822	2881.75
442.043	2980.75
442.264	3091.75
442.486	2918.75
442.707	2825.75
442.928	2751.75
443.149	2748.75
443.371	2707.75
443.592	2761.75
443.813	2780.75
444.034	2792.75
444.255	2860.75
444.476	2796.75
444.698	2913.75
444.919	2951.75
445.14	2986.75
445.361	2871.75
445.582	2794.75
445.803	2822.75
446.024	2756.75
446.245	2742.75
446.466	2693.75
446.687	2667.75
446.908	2693.75
447.129	2614.75
447.35	2538.75
447.571	2534.75
447.792	2515.75
448.013	2538.75
448.234	2515.75
448.455	2547.75
448.675	2519.75
448.896	2606.75
449.117	2742.75
449.338	2934.75
449.559	3043.75
449.779	2770.75
450	2548.75
450.221	2472.75
450.442	2521.75
450.662	2434.75
450.883	2468.75
451.104	2471.75
451.324	2473.75
451.545	2441.75
451.766	2526.75
451.986	2546.75
452.207	2737.75
452.428	3586.75
452.648	5542.75
452.869	4606.75
453.089	3141.75
453.31	2904.75
453.53	2843.75
453.751	2961.75
453.971	3128.75
454.192	3063.75
454.412	2650.75
454.633	2503.75
454.853	2422.75
455.073	2405.75
455.294	2421.75
455.514	2347.75
455.734	2287.75
455.955	2355.75
456.175	2334.75
456.395	2339.75
456.616	2379.75
456.836	2417.75
457.056	2427.75
457.276	2419.75
457.497	2574.75
457.717	2568.75
457.937	2494.75
458.157	2461.75
458.377	2501.75
458.598	2525.75
458.818	2556.75
459.038	2532.75
459.258	2548.75
459.478	2609.75
459.698	2597.75
459.918	2619.75
460.138	2671.75
460.358	2737.75
460.578	2734.75
460.798	2831.75
461.018	2757.75
461.238	2767.75
461.458	2847.75
461.678	2874.75
461.898	2887.75
462.118	2937.75
462.338	2978.75
462.558	3003.75
462.777	3097.75
462.997	3170.75
463.217	3331.75
463.437	3412.75
463.657	3480.75
463.876	3460.75
464.096	3306.75
464.316	3143.75
464.536	3086.75
464.755	3023.75
464.975	2941.75
465.195	2831.75
465.414	2758.75
465.634	2667.75
465.854	2636.75
466.073	2633.75
466.293	2610.75
466.512	2646.75
466.732	2678.75
466.951	2773.75
467.171	2982.75
467.391	2884.75
467.61	2649.75
467.829	2571.75
468.049	2534.75
468.268	2548.75
468.488	2563.75
468.707	2540.75
468.927	2528.75
469.146	2507.75
469.365	2564.75
469.585	2585.75
469.804	2634.75
470.023	2684.75
470.243	2721.75
470.462	2806.75
470.681	2931.75
470.901	3245.75
471.12	3685.75
471.339	3687.75
471.558	3119.75
471.777	2833.75
471.997	2675.75
472.216	2630.75
472.435	2569.75
472.654	2497.75
472.873	2540.75
473.092	2513.75
473.311	2576.75
473.53	2524.75
473.749	2643.75
473.968	2751.75
474.187	2561.75
474.406	2533.75
474.625	2498.75
474.844	2565.75
475.063	2559.75
475.282	2556.75
475.501	2556.75
475.72	2578.75
475.939	2606.75
476.158	2649.75
476.377	2746.75
476.596	2669.75
476.814	2716.75
477.033	2694.75
477.252	2695.75
477.471	2748.75
477.69	2851.75
477.908	2830.75
478.127	2845.75
478.346	2878.75
478.564	2931.75
478.783	2977.75
479.002	3003.75
479.22	3041.75
479.439	3021.75
479.658	3030.75
479.876	3029.75
480.095	3057.75
480.313	3161.75
480.532	3181.75
480.751	3149.75
480.969	3070.75
481.188	3048.75
481.406	3029.75
481.624	3097.75
481.843	3039.75
482.061	3107.75
482.28	3044.75
482.498	3065.75
482.717	3057.75
482.935	3124.75
483.153	3144.75
483.372	3186.75
483.59	3195.75
483.808	3282.75
484.027	3351.75
484.245	3509.75
484.463	3979.75
484.681	4457.75
484.9	4017.75
485.118	3657.75
485.336	3653.75
485.554	3713.75
485.772	3979.75
485.99	4476.75
486.209	4731.75
486.427	4053.75
486.645	3583.75
486.863	3464.75
487.081	3371.75
487.299	3341.75
487.517	3254.75
487.735	3225.75
487.953	3273.75
488.171	3325.75
488.389	3197.75
488.607	3166.75
488.825	3142.75
489.043	3167.75
489.261	3155.75
489.479	3161.75
489.696	3160.75
489.914	3224.75
490.132	3207.75
490.35	3247.75
490.568	3223.75
490.786	3212.75
491.003	3281.75
491.221	3325.75
491.439	3242.75
491.657	3270.75
491.874	3313.75
492.092	3351.75
492.31	3405.75
492.527	3296.75
492.745	3310.75
492.963	3296.75
493.18	3348.75
493.398	3304.75
493.615	3293.75
493.833	3322.75
494.05	3366.75
494.268	3349.75
494.485	3322.75
494.703	3331.75
494.92	3350.75
495.138	3313.75
495.355	3385.75
495.573	3367.75
495.79	3354.75
496.008	3417.75
496.225	3465.75
496.442	3477.75
496.66	3610.75
496.877	3753.75
497.094	3807.75
497.312	3585.75
497.529	3581.75
497.746	3726.75
497.963	3732.75
498.181	3786.75
498.398	3856.75
498.615	4071.75
498.832	4147.75
499.049	4340.75
499.267	4679.75
499.484	5017.75
499.701	4955.75
499.918	5121.75
500.135	5325.75
500.352	5579.75
500.569	5593.75
500.786	5609.75
501.003	5397.75
501.22	5079.75
501.437	4907.75
501.654	4636.75
501.871	4409.75
502.088	4275.75
502.305	4137.75
502.522	3983.75
502.739	3935.75
502.956	3773.75
503.172	3668.75
503.389	3641.75
503.606	3532.75
503.823	3457.75
504.04	3467.75
504.256	3383.75
504.473	3466.75
504.69	3491.75
504.907	3394.75
505.123	3339.75
505.34	3255.75
505.557	3199.75
505.773	3199.75
505.99	3106.75
506.207	3030.75
506.423	3030.75
506.64	2984.75
506.856	2963.75
507.073	2980.75
507.289	2974.75
507.506	2939.75
507.722	3001.75
507.939	2920.75
508.155	2857.75
508.372	2858.75
508.588	2852.75
508.805	2888.75
509.021	2877.75
509.238	2905.75
509.454	3067.75
509.67	3297.75
509.887	3053.75
510.103	2895.75
510.319	2870.75
510.536	2858.75
510.752	2878.75
510.968	2819.75
511.184	2772.75
511.401	2775.75
511.617	2754.75
511.833	2787.75
512.049	2755.75
512.265	2729.75
512.481	2747.75
512.698	2730.75
512.914	2767.75
513.13	2798.75
513.346	2741.75
513.562	2741.75
513.778	2782.75
513.994	2828.75
514.21	2852.75
514.426	3038.75
514.642	3192.75
514.858	2941.75
515.074	2811.75
515.29	2837.75
515.506	2798.75
515.721	2865.75
515.937	2842.75
516.153	2856.75
516.369	2877.75
516.585	2916.75
516.801	2993.75
517.016	2997.75
517.232	3032.75
517.448	3093.75
517.664	3187.75
517.879	3129.75
518.095	3102.75
518.311	3159.75
518.527	3104.75
518.742	3068.75
518.958	3098.75
519.173	3215.75
519.389	3029.75
519.605	2945.75
519.82	2855.75
520.036	2831.75
520.251	2763.75
520.467	2765.75
520.682	2747.75
520.898	2686.75
521.113	2708.75
521.329	2660.75
521.544	2737.75
521.76	2693.75
521.975	2678.75
522.19	2709.75
522.406	2654.75
522.621	2650.75
522.836	2644.75
523.052	2665.75
523.267	2640.75
523.482	2654.75
523.698	2639.75
523.913	2617.75
524.128	2648.75
524.343	2597.75
524.559	2650.75
524.774	2639.75
524.989	2635.75
525.204	2626.75
525.419	2593.75
525.634	2581.75
525.849	2675.75
526.064	2606.75
526.28	2593.75
526.495	2633.75
526.71	2677.75
526.925	2605.75
527.14	2655.75
527.355	2624.75
527.57	2623.75
527.785	2642.75
527.999	2636.75
528.214	2645.75
528.429	2708.75
528.644	2747.75
528.859	2780.75
529.074	2779.75
529.289	2782.75
529.503	2822.75
529.718	2762.75
529.933	2801.75
530.148	2780.75
530.363	2808.75
530.577	2823.75
530.792	2799.75
531.007	2773.75
531.221	2899.75
531.436	2896.75
531.651	2903.75
531.865	2910.75
532.08	2978.75
532.295	3071.75
532.509	3254.75
532.724	3253.75
532.938	3309.75
533.153	3379.75
533.367	3643.75
533.582	3848.75
533.796	3741.75
534.011	3611.75
534.225	3484.75
534.44	3356.75
534.654	3280.75
534.868	3205.75
535.083	3146.75
535.297	3119.75
535.511	3005.75
535.726	2957.75
535.94	2939.75
536.154	2867.75
536.369	2873.75
536.583	2810.75
536.797	2845.75
537.011	2822.75
537.225	2735.75
537.44	2685.75
537.654	2741.75
537.868	2664.75
538.082	2689.75
538.296	2631.75
538.51	2615.75
538.724	2606.75
538.938	2657.75
539.153	2598.75
539.367	2607.75
539.581	2559.75
539.795	2588.75
540.009	2552.75
540.222	2510.75
540.436	2541.75
540.65	2530.75
540.864	2546.75
541.078	2631.75
541.292	2798.75
541.506	3225.75
541.72	3432.75
541.934	2987.75
542.147	2785.75
542.361	2623.75
542.575	2595.75
542.789	2527.75
543.002	2474.75
543.216	2467.75
543.43	2400.75
543.644	2400.75
543.857	2465.75
544.071	2461.75
544.285	2499.75
544.498	2491.75
544.712	2478.75
544.925	2478.75
545.139	2474.75
545.352	2477.75
545.566	2446.75
545.779	2477.75
545.993	2452.75
546.206	2482.75
546.42	2473.75
546.633	2489.75
546.847	2461.75
547.06	2464.75
547.274	2474.75
547.487	2464.75
547.7	2488.75
547.914	2483.75
548.127	2490.75
548.34	2471.75
548.554	2451.75
548.767	2468.75
548.98	2446.75
549.193	2488.75
549.407	2486.75
549.62	2524.75
549.833	2493.75
550.046	2506.75
550.259	2494.75
550.473	2436.75
550.686	2487.75
550.899	2459.75
551.112	2486.75
551.325	2455.75
551.538	2451.75
551.751	2472.75
551.964	2500.75
552.177	2505.75
552.39	2541.75
552.603	2634.75
552.816	2631.75
553.029	2633.75
553.242	2661.75
553.455	2766.75
553.667	2677.75
553.88	2726.75
554.093	2761.75
554.306	2811.75
554.519	2779.75
554.732	2818.75
554.944	2869.75
555.157	2914.75
555.37	3062.75
555.583	3176.75
555.795	3305.75
556.008	3492.75
556.221	3933.75
556.433	4283.75
556.646	4216.75
556.859	4072.75
557.071	3880.75
557.284	3798.75
557.496	3615.75
557.709	3579.75
557.921	3554.75
558.134	3521.75
558.346	3594.75
558.559	3650.75
558.771	3897.75
558.984	4259.75
559.196	4563.75
559.409	4365.75
559.621	4043.75
559.833	3745.75
560.046	3560.75
560.258	3347.75
560.47	3229.75
560.683	3096.75
560.895	3065.75
561.107	2940.75
561.32	2809.75
561.532	2735.75
561.744	2681.75
561.956	2693.75
562.168	2595.75
562.381	2600.75
562.593	2543.75
562.805	2584.75
563.017	2613.75
563.229	2678.75
563.441	3140.75
563.653	2598.75
563.865	2386.75
564.077	2423.75
564.289	2297.75
564.501	2307.75
564.713	2331.75
564.925	2366.75
565.137	2331.75
565.349	2253.75
565.561	2313.75
565.773	2342.75
565.985	2308.75
566.197	2382.75
566.408	2418.75
566.62	2466.75
566.832	2526.75
567.044	2505.75
567.255	2551.75
567.467	2574.75
567.679	2660.75
567.891	2785.75
568.102	3057.75
568.314	3527.75
568.526	3053.75
568.737	2680.75
568.949	2443.75
569.161	2260.75
569.372	2201.75
569.584	2110.75
569.795	2080.75
570.007	2065.75
570.218	2106.75
570.43	2212.75
570.641	2043.75
570.853	1915.75
571.064	1948.75
571.276	1926.75
571.487	1861.75
571.698	1835.75
571.91	1806.75
572.121	1793.75
572.333	1809.75
572.544	1790.75
572.755	1950.75
572.966	2291.75
573.178	2086.75
573.389	1882.75
573.6	1791.75
573.811	1749.75
574.023	1721.75
574.234	1702.75
574.445	1691.75
574.656	1671.75
574.867	1652.75
575.078	1687.75
575.289	1655.75
575.501	1660.75
575.712	1602.75
575.923	1665.75
576.134	1665.75
576.345	1649.75
576.556	1651.75
576.767	1662.75
576.978	1682.75
577.188	1666.75
577.399	1691.75
577.61	1725.75
577.821	1686.75
578.032	1707.75
578.243	1731.75
578.454	1842.75
578.665	1820.75
578.875	1838.75
579.086	1921.75
579.297	2013.75
579.508	2123.75
579.718	2292.75
579.929	2638.75
580.14	3104.75
580.35	3123.75
580.561	2861.75
580.772	2575.75
580.982	2337.75
581.193	2235.75
581.403	2140.75
581.614	2007.75
581.825	1949.75
582.035	1853.75
582.246	1814.75
582.456	1779.75
582.667	1727.75
582.877	1724.75
583.087	1677.75
583.298	1607.75
583.508	1580.75
583.719	1547.75
583.929	1537.75
584.139	1459.75
584.35	1465.75
584.56	1444.75
584.77	1424.75
584.981	1395.75
585.191	1407.75
585.401	1357.75
585.611	1352.75
585.821	1339.75
586.032	1313.75
586.242	1311.75
586.452	1280.75
586.662	1254.75
586.872	1273.75
587.082	1268.75
587.292	1252.75
587.502	1244.75
587.713	1240.75
587.923	1224.75
588.133	1244.75
588.343	1223.75
588.553	1234.75
588.762	1187.75
588.972	1211.75
589.182	1223.75
589.392	1213.75
589.602	1172.75
589.812	1179.75
590.022	1149.75
590.232	1161.75
590.441	1125.75
590.651	1161.75
590.861	1150.75
591.071	1153.75
591.281	1150.75
591.49	1164.75
591.7	1146.75
591.91	1160.75
592.119	1161.75
592.329	1172.75
592.539	1183.75
592.748	1157.75
592.958	1201.75
593.167	1206.75
593.377	1187.75
593.587	1177.75
593.796	1199.75
594.006	1202.75
594.215	1191.75
594.424	1180.75
594.634	1196.75
594.843	1174.75
595.053	1134.75
595.262	1109.75
595.472	1092.75
595.681	1073.75
595.89	1073.75
596.1	1055.75
596.309	1028.75
596.518	1059.75
596.727	1013.75
596.937	997.75
597.146	1012.75
597.355	979.75
597.564	988.75
597.774	964.75
597.983	935.75
598.192	1002.75
598.401	977.75
598.61	966.75
598.819	967.75
599.028	967.75
599.237	933.75
599.446	947.75
599.655	966.75
599.864	928.75
600.073	943.75
600.282	929.75
600.491	931.75
600.7	926.75
600.909	926.75
601.118	923.75
601.327	913.75
601.536	923.75
601.745	951.75
601.953	1061.75
602.162	1176.75
602.371	1049.75
602.58	995.75
602.789	941.75
602.997	926.75
603.206	911.75
603.415	898.75
603.623	906.75
603.832	904.75
604.041	906.75
604.249	894.75
604.458	869.75
604.666	853.75
604.875	853.75
605.084	854.75
605.292	890.75
605.501	881.75
605.709	897.75
605.918	862.75
606.126	899.75
606.334	892.75
606.543	902.75
606.751	987.75
606.96	1103.75
607.168	1229.75
607.376	1030.75
607.585	958.75
607.793	932.75
608.001	893.75
608.21	844.75
608.418	873.75
608.626	853.75
608.834	860.75
609.043	839.75
609.251	843.75
609.459	838.75
609.667	853.75
609.875	834.75
610.083	845.75
610.291	843.75
610.499	808.75
610.707	814.75
610.916	821.75
611.124	795.75
611.332	813.75
611.54	810.75
611.748	809.75
611.955	775.75
612.163	780.75
612.371	801.75
612.579	778.75
612.787	796.75
612.995	789.75
613.203	779.75
613.411	795.75
613.618	776.75
613.826	756.75
614.034	749.75
614.242	773.75
614.449	771.75
614.657	789.75
614.865	749.75
615.072	796.75
615.28	812.75
615.488	783.75
615.695	770.75
615.903	747.75
616.111	783.75
616.318	775.75
616.526	771.75
616.733	786.75
616.941	776.75
617.148	750.75
617.356	777.75
617.563	755.75
617.771	760.75
617.978	750.75
618.185	738.75
618.393	726.75
618.6	725.75
618.807	728.75
619.015	732.75
619.222	748.75
619.429	748.75
619.637	719.75
619.844	713.75
620.051	718.75
620.258	711.75
620.466	722.75
620.673	683.75
620.88	675.75
621.087	673.75
621.294	693.75
621.501	663.75
621.708	677.75
621.915	683.75
622.122	675.75
622.329	703.75
622.536	712.75
622.743	667.75
622.95	675.75
623.157	679.75
623.364	676.75
623.571	657.75
623.778	689.75
623.985	683.75
624.192	647.75
624.399	665.75
624.606	650.75
624.812	681.75
625.019	651.75
625.226	664.75
625.433	641.75
625.639	656.75
625.846	626.75
626.053	626.75
626.259	625.75
626.466	632.75
626.673	619.75
626.879	604.75
627.086	615.75
627.293	622.75
627.499	643.75
627.706	618.75
627.912	615.75
628.119	630.75
628.325	622.75
628.532	622.75
628.738	618.75
628.945	627.75
629.151	604.75
629.357	596.75
629.564	613.75
629.77	591.75
629.976	605.75
630.183	583.75
630.389	602.75
630.595	588.75
630.802	611.75
631.008	551.75
631.214	588.75
631.42	563.75
631.627	582.75
631.833	567.75
632.039	584.75
632.245	579.75
632.451	575.75
632.657	593.75
632.863	580.75
633.069	593.75
633.275	607.75
633.481	579.75
633.688	559.75
633.893	559.75
634.099	571.75
634.305	591.75
634.511	591.75
634.717	584.75
634.923	615.75
635.129	675.75
635.335	758.75
635.541	653.75
635.747	592.75
635.952	599.75
636.158	593.75
636.364	585.75
636.57	597.75
636.775	588.75
636.981	572.75
637.187	578.75
637.392	567.75
637.598	576.75
637.804	572.75
638.009	594.75
638.215	598.75
638.421	558.75
638.626	570.75
638.832	580.75
639.037	573.75
639.243	582.75
639.448	577.75
639.654	581.75
639.859	588.75
640.065	605.75
640.27	598.75
640.475	615.75
640.681	604.75
640.886	606.75
641.091	605.75
641.297	612.75
641.502	603.75
641.707	643.75
641.913	651.75
642.118	643.75
642.323	635.75
642.528	668.75
642.733	679.75
642.939	674.75
643.144	689.75
643.349	711.75
643.554	745.75
643.759	757.75
643.964	794.75
644.169	860.75
644.374	922.75
644.579	985.75
644.784	1092.75
644.989	1237.75
645.194	1451.75
645.399	1805.75
645.604	1954.75
645.809	1447.75
646.014	1098.75
646.219	906.75
646.423	839.75
646.628	762.75
646.833	683.75
647.038	656.75
647.243	629.75
647.447	624.75
647.652	585.75
647.857	588.75
648.062	575.75
648.266	558.75
648.471	537.75
648.676	547.75
648.88	527.75
649.085	525.75
649.289	514.75
649.494	511.75
649.698	498.75
649.903	471.75
650.107	447.75
650.312	483.75
650.516	464.75
650.721	455.75
650.925	444.75
651.13	436.75
651.334	425.75
651.539	430.75
651.743	441.75
651.947	414.75
652.152	425.75
652.356	431.75
652.56	454.75
652.764	462.75
652.969	451.75
653.173	420.75
653.377	371.75
653.581	385.75
653.785	350.75
653.99	359.75
654.194	364.75
654.398	350.75
654.602	354.75
654.806	365.75
655.01	355.75
655.214	347.75
655.418	335.75
655.622	337.75
655.826	336.75
656.03	372.75
656.234	379.75
656.438	376.75
656.642	370.75
656.846	351.75
657.049	351.75
657.253	338.75
657.457	313.75
657.661	290.75
657.865	266.75
658.068	253.75
658.272	266.75
658.476	244.75
658.68	251.75
658.883	221.75
659.087	204.75
659.291	199.75
659.494	193.75
659.698	179.75
659.901	178.75
660.105	171.75
660.309	173.75
660.512	174.75
660.716	152.75
660.919	160.75
661.123	144.75
661.326	133.75
661.53	146.75
661.733	139.75
661.936	125.75
662.14	115.75
662.343	110.75
662.546	115.75
662.75	104.75
662.953	107.75
663.156	88.75
663.36	97.75
663.563	91.75
663.766	86.75
663.969	93.75
664.173	89.75
664.376	104.75
664.579	102.75
664.782	84.75
664.985	85.75
665.188	104.75
665.391	95.75
665.594	86.75
665.797	98.75
666	93.75
666.203	79.75
666.406	94.75
666.609	83.75
666.812	74.75
667.015	88.75
667.218	79.75
667.421	92.75
667.624	85.75
667.827	97.75
668.03	92.75
668.232	87.75
668.435	85.75
668.638	92.75
668.841	100.75
669.043	79.75
669.246	86.75
669.449	85.75
669.651	80.75
669.854	87.75
670.057	81.75
670.259	97.75
670.462	87.75
670.665	82.75
670.867	89.75
671.07	85.75
671.272	95.75
671.475	104.75
671.677	83.75
671.88	102.75
672.082	83.75
672.284	83.75
672.487	77.75
672.689	86.75
672.892	79.75
