Data from SnStandardFlinnAPT0064_QswitchEnergy10_LIBS07252019.E.O._I.C._HRD10591_15-26-08-973.txt Node
Date: Thu Jul 25 15:26:08 EDT 2019
User: cochatt
Spectrometer: HR+D1059
Trigger mode: 1
Integration Time (sec): 1.000000E-1
Scans to average: 1
Electric dark correction enabled: true
Nonlinearity correction enabled: false
Boxcar width: 0
XAxis mode: Wavelengths
Number of Pixels in Spectrum: 2048
>>>>>Begin Spectral Data<<<<<
223.165	-14.25
223.4	-14.25
223.635	-14.25
223.869	-14.25
224.104	-41.25
224.338	-17.25
224.573	-9.25
224.808	-13.25
225.042	-14.25
225.277	2.75
225.511	5.75
225.746	3.75
225.98	11.75
226.215	11.75
226.449	10.75
226.683	36.75
226.918	14.75
227.152	25.75
227.387	47.75
227.621	42.75
227.856	37.75
228.09	42.75
228.324	42.75
228.559	58.75
228.793	52.75
229.027	71.75
229.262	74.75
229.496	81.75
229.73	68.75
229.964	64.75
230.199	67.75
230.433	85.75
230.667	63.75
230.901	80.75
231.136	61.75
231.37	74.75
231.604	91.75
231.838	79.75
232.072	102.75
232.306	115.75
232.541	98.75
232.775	89.75
233.009	83.75
233.243	76.75
233.477	77.75
233.711	101.75
233.945	106.75
234.179	105.75
234.413	90.75
234.647	88.75
234.881	79.75
235.115	95.75
235.349	90.75
235.583	99.75
235.817	130.75
236.051	134.75
236.285	89.75
236.519	85.75
236.753	89.75
236.987	81.75
237.221	73.75
237.455	76.75
237.689	79.75
237.922	101.75
238.156	81.75
238.39	77.75
238.624	72.75
238.858	103.75
239.091	63.75
239.325	82.75
239.559	89.75
239.793	76.75
240.027	80.75
240.26	84.75
240.494	81.75
240.728	76.75
240.961	93.75
241.195	89.75
241.429	69.75
241.662	78.75
241.896	94.75
242.13	94.75
242.363	133.75
242.597	141.75
242.83	122.75
243.064	122.75
243.298	159.75
243.531	139.75
243.765	99.75
243.998	79.75
244.232	78.75
244.465	85.75
244.699	83.75
244.932	89.75
245.166	78.75
245.399	89.75
245.633	94.75
245.866	93.75
246.099	98.75
246.333	81.75
246.566	83.75
246.8	89.75
247.033	91.75
247.266	82.75
247.5	79.75
247.733	95.75
247.966	89.75
248.2	80.75
248.433	113.75
248.666	136.75
248.899	116.75
249.133	101.75
249.366	84.75
249.599	107.75
249.832	116.75
250.066	121.75
250.299	94.75
250.532	90.75
250.765	77.75
250.998	81.75
251.231	76.75
251.465	88.75
251.698	89.75
251.931	83.75
252.164	79.75
252.397	88.75
252.63	82.75
252.863	95.75
253.096	87.75
253.329	84.75
253.562	101.75
253.795	84.75
254.028	102.75
254.261	95.75
254.494	82.75
254.727	121.75
254.96	141.75
255.193	144.75
255.426	102.75
255.659	98.75
255.892	84.75
256.124	92.75
256.357	92.75
256.59	85.75
256.823	89.75
257.056	105.75
257.289	138.75
257.521	161.75
257.754	125.75
257.987	89.75
258.22	91.75
258.452	86.75
258.685	87.75
258.918	99.75
259.151	101.75
259.383	100.75
259.616	133.75
259.849	144.75
260.081	104.75
260.314	91.75
260.547	84.75
260.779	84.75
261.012	82.75
261.244	86.75
261.477	90.75
261.71	82.75
261.942	89.75
262.175	88.75
262.407	75.75
262.64	81.75
262.872	82.75
263.105	75.75
263.337	94.75
263.57	87.75
263.802	91.75
264.035	82.75
264.267	88.75
264.499	88.75
264.732	94.75
264.964	91.75
265.197	86.75
265.429	83.75
265.661	95.75
265.894	93.75
266.126	120.75
266.358	141.75
266.591	145.75
266.823	111.75
267.055	96.75
267.287	88.75
267.52	91.75
267.752	96.75
267.984	90.75
268.216	84.75
268.448	83.75
268.681	82.75
268.913	77.75
269.145	86.75
269.377	88.75
269.609	92.75
269.841	86.75
270.073	79.75
270.306	113.75
270.538	179.75
270.77	294.75
271.002	354.75
271.234	191.75
271.466	104.75
271.698	101.75
271.93	98.75
272.162	71.75
272.394	94.75
272.626	84.75
272.858	84.75
273.09	78.75
273.322	79.75
273.553	70.75
273.785	87.75
274.017	96.75
274.249	97.75
274.481	81.75
274.713	94.75
274.945	93.75
275.176	86.75
275.408	90.75
275.64	87.75
275.872	96.75
276.104	90.75
276.335	99.75
276.567	99.75
276.799	87.75
277.031	89.75
277.262	98.75
277.494	106.75
277.726	116.75
277.957	168.75
278.189	238.75
278.421	227.75
278.652	189.75
278.884	171.75
279.115	136.75
279.347	110.75
279.579	93.75
279.81	99.75
280.042	94.75
280.273	111.75
280.505	103.75
280.736	107.75
280.968	124.75
281.199	167.75
281.431	253.75
281.662	258.75
281.894	146.75
282.125	106.75
282.356	103.75
282.588	119.75
282.819	96.75
283.051	121.75
283.282	127.75
283.513	186.75
283.745	287.75
283.976	507.75
284.207	710.75
284.439	538.75
284.67	253.75
284.901	245.75
285.132	329.75
285.364	353.75
285.595	212.75
285.826	174.75
286.057	239.75
286.288	389.75
286.52	579.75
286.751	497.75
286.982	179.75
287.213	98.75
287.444	111.75
287.675	90.75
287.906	104.75
288.138	88.75
288.369	103.75
288.6	106.75
288.831	75.75
289.062	111.75
289.293	94.75
289.524	88.75
289.755	96.75
289.986	98.75
290.217	100.75
290.448	89.75
290.679	101.75
290.91	115.75
291.141	161.75
291.371	251.75
291.602	279.75
291.833	195.75
292.064	122.75
292.295	101.75
292.526	102.75
292.757	98.75
292.987	100.75
293.218	79.75
293.449	92.75
293.68	89.75
293.91	94.75
294.141	80.75
294.372	82.75
294.603	87.75
294.833	98.75
295.064	94.75
295.295	90.75
295.525	85.75
295.756	82.75
295.987	87.75
296.217	96.75
296.448	107.75
296.679	96.75
296.909	81.75
297.14	90.75
297.37	100.75
297.601	97.75
297.831	90.75
298.062	95.75
298.292	96.75
298.523	92.75
298.753	102.75
298.984	105.75
299.214	100.75
299.445	119.75
299.675	115.75
299.905	121.75
300.136	120.75
300.366	144.75
300.597	243.75
300.827	426.75
301.057	629.75
301.288	572.75
301.518	243.75
301.748	141.75
301.979	122.75
302.209	122.75
302.439	129.75
302.669	166.75
302.9	241.75
303.13	469.75
303.36	871.75
303.59	1153.75
303.82	777.75
304.051	270.75
304.281	152.75
304.511	118.75
304.741	113.75
304.971	106.75
305.201	111.75
305.431	105.75
305.661	102.75
305.891	91.75
306.121	96.75
306.352	105.75
306.582	105.75
306.812	106.75
307.042	102.75
307.272	97.75
307.502	96.75
307.731	98.75
307.961	96.75
308.191	102.75
308.421	110.75
308.651	101.75
308.881	93.75
309.111	90.75
309.341	113.75
309.571	109.75
309.8	94.75
310.03	106.75
310.26	107.75
310.49	110.75
310.72	95.75
310.949	106.75
311.179	99.75
311.409	109.75
311.639	110.75
311.868	95.75
312.098	113.75
312.328	123.75
312.557	103.75
312.787	121.75
313.017	109.75
313.246	120.75
313.476	122.75
313.706	121.75
313.935	137.75
314.165	189.75
314.394	230.75
314.624	193.75
314.853	135.75
315.083	125.75
315.312	127.75
315.542	134.75
315.771	133.75
316.001	146.75
316.23	128.75
316.46	158.75
316.689	171.75
316.919	229.75
317.148	446.75
317.377	858.75
317.607	1386.75
317.836	1322.75
318.065	505.75
318.295	213.75
318.524	145.75
318.753	127.75
318.983	111.75
319.212	131.75
319.441	119.75
319.67	101.75
319.9	100.75
320.129	113.75
320.358	125.75
320.587	128.75
320.816	121.75
321.046	112.75
321.275	96.75
321.504	133.75
321.733	141.75
321.962	175.75
322.191	149.75
322.42	131.75
322.649	133.75
322.878	131.75
323.108	96.75
323.337	124.75
323.566	119.75
323.795	113.75
324.024	143.75
324.253	130.75
324.482	182.75
324.71	226.75
324.939	273.75
325.168	221.75
325.397	187.75
325.626	244.75
325.855	436.75
326.084	895.75
326.313	1476.75
326.542	1465.75
326.77	580.75
326.999	259.75
327.228	209.75
327.457	223.75
327.686	223.75
327.914	161.75
328.143	139.75
328.372	133.75
328.6	122.75
328.829	114.75
329.058	122.75
329.287	94.75
329.515	102.75
329.744	115.75
329.972	110.75
330.201	102.75
330.43	109.75
330.658	103.75
330.887	92.75
331.115	107.75
331.344	105.75
331.572	119.75
331.801	116.75
332.03	106.75
332.258	136.75
332.486	170.75
332.715	279.75
332.943	466.75
333.172	714.75
333.4	646.75
333.629	253.75
333.857	133.75
334.085	129.75
334.314	121.75
334.542	116.75
334.771	111.75
334.999	110.75
335.227	119.75
335.455	122.75
335.684	110.75
335.912	111.75
336.14	109.75
336.369	118.75
336.597	118.75
336.825	97.75
337.053	105.75
337.281	102.75
337.51	101.75
337.738	105.75
337.966	107.75
338.194	106.75
338.422	98.75
338.65	110.75
338.878	104.75
339.106	116.75
339.334	120.75
339.562	112.75
339.79	111.75
340.018	113.75
340.246	100.75
340.474	115.75
340.702	113.75
340.93	120.75
341.158	121.75
341.386	117.75
341.614	130.75
341.842	137.75
342.07	109.75
342.298	104.75
342.526	104.75
342.754	111.75
342.981	119.75
343.209	102.75
343.437	108.75
343.665	117.75
343.893	112.75
344.12	103.75
344.348	85.75
344.576	107.75
344.804	105.75
345.031	109.75
345.259	99.75
345.487	117.75
345.714	105.75
345.942	119.75
346.17	114.75
346.397	98.75
346.625	97.75
346.853	107.75
347.08	102.75
347.308	109.75
347.535	106.75
347.763	93.75
347.99	99.75
348.218	118.75
348.445	103.75
348.673	111.75
348.9	117.75
349.128	124.75
349.355	113.75
349.583	102.75
349.81	109.75
350.037	115.75
350.265	114.75
350.492	116.75
350.72	107.75
350.947	102.75
351.174	118.75
351.402	98.75
351.629	112.75
351.856	109.75
352.083	104.75
352.311	105.75
352.538	111.75
352.765	108.75
352.992	99.75
353.22	102.75
353.447	114.75
353.674	101.75
353.901	103.75
354.128	86.75
354.355	99.75
354.583	115.75
354.81	117.75
355.037	121.75
355.264	114.75
355.491	88.75
355.718	89.75
355.945	104.75
356.172	104.75
356.399	117.75
356.626	105.75
356.853	108.75
357.08	116.75
357.307	106.75
357.534	97.75
357.761	104.75
357.988	104.75
358.215	106.75
358.441	113.75
358.668	100.75
358.895	108.75
359.122	129.75
359.349	104.75
359.576	91.75
359.802	109.75
360.029	109.75
360.256	105.75
360.483	120.75
360.709	98.75
360.936	111.75
361.163	106.75
361.39	117.75
361.616	108.75
361.843	102.75
362.07	109.75
362.296	116.75
362.523	105.75
362.749	115.75
362.976	105.75
363.203	105.75
363.429	111.75
363.656	97.75
363.882	105.75
364.109	106.75
364.335	105.75
364.562	99.75
364.788	105.75
365.015	101.75
365.241	138.75
365.468	170.75
365.694	238.75
365.92	189.75
366.147	124.75
366.373	103.75
366.599	94.75
366.826	93.75
367.052	98.75
367.278	95.75
367.505	103.75
367.731	95.75
367.957	95.75
368.184	102.75
368.41	123.75
368.636	111.75
368.862	98.75
369.089	102.75
369.315	104.75
369.541	101.75
369.767	100.75
369.993	100.75
370.219	117.75
370.445	94.75
370.672	119.75
370.898	106.75
371.124	109.75
371.35	108.75
371.576	113.75
371.802	112.75
372.028	105.75
372.254	98.75
372.48	100.75
372.706	109.75
372.932	110.75
373.158	102.75
373.384	94.75
373.61	118.75
373.835	105.75
374.061	114.75
374.287	114.75
374.513	100.75
374.739	94.75
374.965	109.75
375.191	113.75
375.416	112.75
375.642	105.75
375.868	115.75
376.094	111.75
376.319	93.75
376.545	103.75
376.771	95.75
376.997	102.75
377.222	100.75
377.448	107.75
377.674	113.75
377.899	102.75
378.125	101.75
378.35	113.75
378.576	109.75
378.802	99.75
379.027	111.75
379.253	143.75
379.478	161.75
379.704	296.75
379.929	737.75
380.155	1487.75
380.38	1533.75
380.606	524.75
380.831	173.75
381.057	139.75
381.282	120.75
381.507	103.75
381.733	105.75
381.958	90.75
382.184	103.75
382.409	93.75
382.634	109.75
382.86	93.75
383.085	102.75
383.31	110.75
383.535	108.75
383.761	104.75
383.986	106.75
384.211	92.75
384.436	103.75
384.662	105.75
384.887	110.75
385.112	102.75
385.337	106.75
385.562	93.75
385.787	99.75
386.013	105.75
386.238	120.75
386.463	122.75
386.688	112.75
386.913	90.75
387.138	81.75
387.363	102.75
387.588	81.75
387.813	96.75
388.038	99.75
388.263	90.75
388.488	95.75
388.713	110.75
388.938	112.75
389.163	104.75
389.387	99.75
389.612	94.75
389.837	112.75
390.062	98.75
390.287	110.75
390.512	116.75
390.736	102.75
390.961	87.75
391.186	106.75
391.411	99.75
391.636	111.75
391.86	90.75
392.085	97.75
392.31	110.75
392.534	100.75
392.759	107.75
392.984	97.75
393.208	109.75
393.433	133.75
393.658	122.75
393.882	109.75
394.107	102.75
394.331	94.75
394.556	86.75
394.78	98.75
395.005	86.75
395.229	94.75
395.454	91.75
395.678	95.75
395.903	89.75
396.127	115.75
396.352	91.75
396.576	98.75
396.801	103.75
397.025	119.75
397.249	106.75
397.474	102.75
397.698	108.75
397.922	81.75
398.147	91.75
398.371	93.75
398.595	93.75
398.82	107.75
399.044	103.75
399.268	93.75
399.492	84.75
399.717	81.75
399.941	99.75
400.165	100.75
400.389	113.75
400.613	92.75
400.837	97.75
401.062	86.75
401.286	93.75
401.51	101.75
401.734	93.75
401.958	102.75
402.182	91.75
402.406	101.75
402.63	93.75
402.854	95.75
403.078	81.75
403.302	94.75
403.526	106.75
403.75	107.75
403.974	105.75
404.198	90.75
404.422	82.75
404.645	114.75
404.869	106.75
405.093	106.75
405.317	113.75
405.541	90.75
405.765	131.75
405.988	151.75
406.212	126.75
406.436	102.75
406.66	95.75
406.883	103.75
407.107	103.75
407.331	95.75
407.555	105.75
407.778	93.75
408.002	105.75
408.226	107.75
408.449	95.75
408.673	93.75
408.896	86.75
409.12	91.75
409.344	94.75
409.567	98.75
409.791	79.75
410.014	88.75
410.238	101.75
410.461	103.75
410.685	92.75
410.908	99.75
411.132	94.75
411.355	102.75
411.578	100.75
411.802	99.75
412.025	110.75
412.249	113.75
412.472	113.75
412.695	109.75
412.919	86.75
413.142	105.75
413.365	93.75
413.589	92.75
413.812	102.75
414.035	98.75
414.258	102.75
414.482	101.75
414.705	88.75
414.928	97.75
415.151	102.75
415.374	86.75
415.597	98.75
415.821	95.75
416.044	98.75
416.267	99.75
416.49	91.75
416.713	101.75
416.936	89.75
417.159	102.75
417.382	100.75
417.605	103.75
417.828	89.75
418.051	98.75
418.274	107.75
418.497	112.75
418.72	109.75
418.943	109.75
419.166	96.75
419.389	97.75
419.611	116.75
419.834	88.75
420.057	101.75
420.28	94.75
420.503	106.75
420.726	104.75
420.948	95.75
421.171	81.75
421.394	94.75
421.617	89.75
421.839	91.75
422.062	91.75
422.285	95.75
422.507	95.75
422.73	118.75
422.953	130.75
423.175	113.75
423.398	105.75
423.621	107.75
423.843	92.75
424.066	93.75
424.288	103.75
424.511	94.75
424.733	96.75
424.956	88.75
425.178	94.75
425.401	90.75
425.623	87.75
425.846	95.75
426.068	89.75
426.291	97.75
426.513	99.75
426.735	90.75
426.958	104.75
427.18	83.75
427.402	81.75
427.625	97.75
427.847	97.75
428.069	118.75
428.292	96.75
428.514	113.75
428.736	102.75
428.958	98.75
429.181	103.75
429.403	91.75
429.625	97.75
429.847	106.75
430.069	103.75
430.292	101.75
430.514	103.75
430.736	113.75
430.958	100.75
431.18	102.75
431.402	95.75
431.624	96.75
431.846	85.75
432.068	100.75
432.29	98.75
432.512	84.75
432.734	97.75
432.956	111.75
433.178	103.75
433.4	93.75
433.622	96.75
433.844	94.75
434.066	89.75
434.287	86.75
434.509	101.75
434.731	99.75
434.953	100.75
435.175	95.75
435.397	97.75
435.618	94.75
435.84	96.75
436.062	98.75
436.284	105.75
436.505	91.75
436.727	90.75
436.949	91.75
437.17	90.75
437.392	100.75
437.614	98.75
437.835	87.75
438.057	84.75
438.278	97.75
438.5	97.75
438.721	96.75
438.943	99.75
439.165	119.75
439.386	95.75
439.608	90.75
439.829	106.75
440.05	106.75
440.272	119.75
440.493	102.75
440.715	106.75
440.936	88.75
441.158	91.75
441.379	90.75
441.6	82.75
441.822	102.75
442.043	125.75
442.264	122.75
442.486	117.75
442.707	113.75
442.928	106.75
443.149	107.75
443.371	93.75
443.592	100.75
443.813	102.75
444.034	87.75
444.255	84.75
444.476	97.75
444.698	104.75
444.919	83.75
445.14	214.75
445.361	160.75
445.582	93.75
445.803	93.75
446.024	95.75
446.245	89.75
446.466	102.75
446.687	106.75
446.908	99.75
447.129	100.75
447.35	102.75
447.571	94.75
447.792	90.75
448.013	83.75
448.234	90.75
448.455	96.75
448.675	87.75
448.896	97.75
449.117	117.75
449.338	131.75
449.559	133.75
449.779	117.75
450	111.75
450.221	109.75
450.442	94.75
450.662	105.75
450.883	90.75
451.104	113.75
451.324	111.75
451.545	100.75
451.766	125.75
451.986	145.75
452.207	219.75
452.428	548.75
452.648	1323.75
452.869	737.75
453.089	210.75
453.31	118.75
453.53	117.75
453.751	157.75
453.971	146.75
454.192	158.75
454.412	118.75
454.633	99.75
454.853	103.75
455.073	94.75
455.294	89.75
455.514	82.75
455.734	88.75
455.955	104.75
456.175	95.75
456.395	100.75
456.616	104.75
456.836	105.75
457.056	94.75
457.276	102.75
457.497	124.75
457.717	127.75
457.937	98.75
458.157	109.75
458.377	91.75
458.598	94.75
458.818	84.75
459.038	102.75
459.258	104.75
459.478	86.75
459.698	75.75
459.918	107.75
460.138	94.75
460.358	98.75
460.578	94.75
460.798	90.75
461.018	97.75
461.238	82.75
461.458	89.75
461.678	99.75
461.898	91.75
462.118	89.75
462.338	90.75
462.558	99.75
462.777	94.75
462.997	99.75
463.217	110.75
463.437	134.75
463.657	192.75
463.876	191.75
464.096	136.75
464.316	111.75
464.536	103.75
464.755	89.75
464.975	84.75
465.195	74.75
465.414	97.75
465.634	90.75
465.854	86.75
466.073	101.75
466.293	87.75
466.512	96.75
466.732	115.75
466.951	109.75
467.171	143.75
467.391	135.75
467.61	91.75
467.829	103.75
468.049	95.75
468.268	114.75
468.488	98.75
468.707	93.75
468.927	83.75
469.146	102.75
469.365	99.75
469.585	119.75
469.804	102.75
470.023	98.75
470.243	95.75
470.462	107.75
470.681	116.75
470.901	133.75
471.12	174.75
471.339	202.75
471.558	136.75
471.777	115.75
471.997	107.75
472.216	110.75
472.435	89.75
472.654	88.75
472.873	80.75
473.092	101.75
473.311	107.75
473.53	104.75
473.749	106.75
473.968	104.75
474.187	99.75
474.406	103.75
474.625	84.75
474.844	97.75
475.063	96.75
475.282	101.75
475.501	88.75
475.72	106.75
475.939	86.75
476.158	90.75
476.377	114.75
476.596	110.75
476.814	103.75
477.033	101.75
477.252	90.75
477.471	93.75
477.69	110.75
477.908	93.75
478.127	106.75
478.346	90.75
478.564	108.75
478.783	88.75
479.002	96.75
479.22	94.75
479.439	99.75
479.658	88.75
479.876	106.75
480.095	86.75
480.313	103.75
480.532	105.75
480.751	88.75
480.969	82.75
481.188	100.75
481.406	93.75
481.624	112.75
481.843	105.75
482.061	127.75
482.28	87.75
482.498	85.75
482.717	110.75
482.935	109.75
483.153	110.75
483.372	86.75
483.59	105.75
483.808	104.75
484.027	103.75
484.245	118.75
484.463	160.75
484.681	217.75
484.9	149.75
485.118	120.75
485.336	103.75
485.554	99.75
485.772	133.75
485.99	206.75
486.209	218.75
486.427	154.75
486.645	117.75
486.863	111.75
487.081	103.75
487.299	96.75
487.517	94.75
487.735	92.75
487.953	100.75
488.171	99.75
488.389	93.75
488.607	94.75
488.825	85.75
489.043	92.75
489.261	97.75
489.479	104.75
489.696	101.75
489.914	96.75
490.132	103.75
490.35	97.75
490.568	100.75
490.786	103.75
491.003	102.75
491.221	111.75
491.439	113.75
491.657	117.75
491.874	104.75
492.092	94.75
492.31	94.75
492.527	118.75
492.745	119.75
492.963	103.75
493.18	113.75
493.398	105.75
493.615	95.75
493.833	98.75
494.05	81.75
494.268	97.75
494.485	96.75
494.703	105.75
494.92	101.75
495.138	100.75
495.355	90.75
495.573	120.75
495.79	105.75
496.008	102.75
496.225	109.75
496.442	104.75
496.66	118.75
496.877	155.75
497.094	151.75
497.312	112.75
497.529	106.75
497.746	95.75
497.963	97.75
498.181	114.75
498.398	103.75
498.615	99.75
498.832	104.75
499.049	112.75
499.267	120.75
499.484	159.75
499.701	125.75
499.918	117.75
500.135	89.75
500.352	112.75
500.569	90.75
500.786	115.75
501.003	109.75
501.22	96.75
501.437	108.75
501.654	97.75
501.871	104.75
502.088	94.75
502.305	106.75
502.522	92.75
502.739	86.75
502.956	102.75
503.172	80.75
503.389	96.75
503.606	99.75
503.823	106.75
504.04	94.75
504.256	110.75
504.473	101.75
504.69	100.75
504.907	109.75
505.123	130.75
505.34	102.75
505.557	110.75
505.773	89.75
505.99	96.75
506.207	84.75
506.423	114.75
506.64	94.75
506.856	104.75
507.073	109.75
507.289	109.75
507.506	102.75
507.722	112.75
507.939	86.75
508.155	95.75
508.372	81.75
508.588	88.75
508.805	89.75
509.021	98.75
509.238	116.75
509.454	138.75
509.67	152.75
509.887	114.75
510.103	98.75
510.319	99.75
510.536	108.75
510.752	119.75
510.968	111.75
511.184	109.75
511.401	101.75
511.617	94.75
511.833	95.75
512.049	91.75
512.265	94.75
512.481	88.75
512.698	97.75
512.914	90.75
513.13	101.75
513.346	87.75
513.562	79.75
513.778	95.75
513.994	103.75
514.21	112.75
514.426	138.75
514.642	165.75
514.858	121.75
515.074	91.75
515.29	106.75
515.506	98.75
515.721	100.75
515.937	98.75
516.153	91.75
516.369	103.75
516.585	98.75
516.801	95.75
517.016	86.75
517.232	110.75
517.448	93.75
517.664	101.75
517.879	103.75
518.095	101.75
518.311	97.75
518.527	97.75
518.742	90.75
518.958	115.75
519.173	149.75
519.389	127.75
519.605	114.75
519.82	95.75
520.036	101.75
520.251	90.75
520.467	108.75
520.682	100.75
520.898	99.75
521.113	89.75
521.329	89.75
521.544	96.75
521.76	98.75
521.975	120.75
522.19	110.75
522.406	94.75
522.621	95.75
522.836	101.75
523.052	110.75
523.267	89.75
523.482	101.75
523.698	91.75
523.913	88.75
524.128	84.75
524.343	93.75
524.559	106.75
524.774	97.75
524.989	89.75
525.204	101.75
525.419	103.75
525.634	115.75
525.849	93.75
526.064	95.75
526.28	78.75
526.495	89.75
526.71	108.75
526.925	97.75
527.14	102.75
527.355	111.75
527.57	101.75
527.785	96.75
527.999	97.75
528.214	97.75
528.429	89.75
528.644	102.75
528.859	90.75
529.074	93.75
529.289	100.75
529.503	100.75
529.718	115.75
529.933	79.75
530.148	109.75
530.363	89.75
530.577	97.75
530.792	107.75
531.007	87.75
531.221	90.75
531.436	104.75
531.651	94.75
531.865	93.75
532.08	91.75
532.295	101.75
532.509	133.75
532.724	122.75
532.938	103.75
533.153	94.75
533.367	95.75
533.582	87.75
533.796	98.75
534.011	90.75
534.225	86.75
534.44	84.75
534.654	112.75
534.868	103.75
535.083	89.75
535.297	95.75
535.511	89.75
535.726	85.75
535.94	97.75
536.154	101.75
536.369	87.75
536.583	90.75
536.797	101.75
537.011	85.75
537.225	90.75
537.44	107.75
537.654	98.75
537.868	103.75
538.082	102.75
538.296	110.75
538.51	84.75
538.724	109.75
538.938	93.75
539.153	97.75
539.367	112.75
539.581	96.75
539.795	97.75
540.009	105.75
540.222	94.75
540.436	101.75
540.65	106.75
540.864	101.75
541.078	98.75
541.292	125.75
541.506	197.75
541.72	191.75
541.934	123.75
542.147	101.75
542.361	103.75
542.575	114.75
542.789	103.75
543.002	96.75
543.216	97.75
543.43	86.75
543.644	92.75
543.857	103.75
544.071	99.75
544.285	102.75
544.498	102.75
544.712	99.75
544.925	97.75
545.139	89.75
545.352	100.75
545.566	102.75
545.779	99.75
545.993	108.75
546.206	99.75
546.42	95.75
546.633	105.75
546.847	102.75
547.06	95.75
547.274	86.75
547.487	105.75
547.7	81.75
547.914	96.75
548.127	96.75
548.34	101.75
548.554	109.75
548.767	94.75
548.98	117.75
549.193	107.75
549.407	101.75
549.62	95.75
549.833	111.75
550.046	99.75
550.259	86.75
550.473	91.75
550.686	92.75
550.899	96.75
551.112	101.75
551.325	87.75
551.538	106.75
551.751	89.75
551.964	94.75
552.177	106.75
552.39	103.75
552.603	114.75
552.816	101.75
553.029	102.75
553.242	103.75
553.455	92.75
553.667	97.75
553.88	107.75
554.093	120.75
554.306	98.75
554.519	95.75
554.732	111.75
554.944	89.75
555.157	106.75
555.37	97.75
555.583	109.75
555.795	111.75
556.008	114.75
556.221	153.75
556.433	127.75
556.646	113.75
556.859	109.75
557.071	96.75
557.284	120.75
557.496	111.75
557.709	88.75
557.921	115.75
558.134	112.75
558.346	112.75
558.559	108.75
558.771	84.75
558.984	103.75
559.196	103.75
559.409	104.75
559.621	90.75
559.833	88.75
560.046	109.75
560.258	94.75
560.47	105.75
560.683	103.75
560.895	93.75
561.107	116.75
561.32	97.75
561.532	102.75
561.744	105.75
561.956	90.75
562.168	85.75
562.381	90.75
562.593	102.75
562.805	132.75
563.017	173.75
563.229	254.75
563.441	573.75
563.653	214.75
563.865	115.75
564.077	101.75
564.289	91.75
564.501	90.75
564.713	99.75
564.925	102.75
565.137	87.75
565.349	88.75
565.561	90.75
565.773	96.75
565.985	97.75
566.197	87.75
566.408	108.75
566.62	101.75
566.832	86.75
567.044	100.75
567.255	97.75
567.467	95.75
567.679	94.75
567.891	117.75
568.102	160.75
568.314	237.75
568.526	140.75
568.737	114.75
568.949	113.75
569.161	111.75
569.372	91.75
569.584	106.75
569.795	95.75
570.007	105.75
570.218	120.75
570.43	161.75
570.641	111.75
570.853	104.75
571.064	93.75
571.276	98.75
571.487	96.75
571.698	97.75
571.91	76.75
572.121	99.75
572.333	96.75
572.544	113.75
572.755	135.75
572.966	183.75
573.178	131.75
573.389	103.75
573.6	96.75
573.811	90.75
574.023	99.75
574.234	90.75
574.445	93.75
574.656	99.75
574.867	98.75
575.078	90.75
575.289	103.75
575.501	102.75
575.712	98.75
575.923	81.75
576.134	91.75
576.345	82.75
576.556	99.75
576.767	90.75
576.978	94.75
577.188	96.75
577.399	90.75
577.61	98.75
577.821	86.75
578.032	82.75
578.243	90.75
578.454	111.75
578.665	99.75
578.875	84.75
579.086	87.75
579.297	88.75
579.508	101.75
579.718	105.75
579.929	88.75
580.14	99.75
580.35	86.75
580.561	80.75
580.772	82.75
580.982	96.75
581.193	93.75
581.403	91.75
581.614	92.75
581.825	87.75
582.035	92.75
582.246	87.75
582.456	96.75
582.667	101.75
582.877	109.75
583.087	118.75
583.298	105.75
583.508	102.75
583.719	82.75
583.929	87.75
584.139	84.75
584.35	92.75
584.56	101.75
584.77	88.75
584.981	91.75
585.191	88.75
585.401	105.75
585.611	87.75
585.821	78.75
586.032	103.75
586.242	83.75
586.452	96.75
586.662	96.75
586.872	107.75
587.082	89.75
587.292	91.75
587.502	98.75
587.713	81.75
587.923	103.75
588.133	95.75
588.343	78.75
588.553	79.75
588.762	80.75
588.972	112.75
589.182	121.75
589.392	107.75
589.602	86.75
589.812	103.75
590.022	96.75
590.232	84.75
590.441	86.75
590.651	96.75
590.861	94.75
591.071	85.75
591.281	93.75
591.49	105.75
591.7	84.75
591.91	94.75
592.119	93.75
592.329	85.75
592.539	102.75
592.748	86.75
592.958	102.75
593.167	89.75
593.377	89.75
593.587	88.75
593.796	99.75
594.006	77.75
594.215	94.75
594.424	89.75
594.634	97.75
594.843	89.75
595.053	93.75
595.262	80.75
595.472	98.75
595.681	89.75
595.89	88.75
596.1	95.75
596.309	90.75
596.518	104.75
596.727	98.75
596.937	99.75
597.146	97.75
597.355	97.75
597.564	91.75
597.774	97.75
597.983	67.75
598.192	96.75
598.401	87.75
598.61	88.75
598.819	93.75
599.028	97.75
599.237	90.75
599.446	71.75
599.655	90.75
599.864	87.75
600.073	101.75
600.282	93.75
600.491	82.75
600.7	106.75
600.909	90.75
601.118	91.75
601.327	93.75
601.536	100.75
601.745	98.75
601.953	128.75
602.162	157.75
602.371	111.75
602.58	90.75
602.789	105.75
602.997	75.75
603.206	94.75
603.415	83.75
603.623	102.75
603.832	115.75
604.041	114.75
604.249	97.75
604.458	89.75
604.666	100.75
604.875	83.75
605.084	99.75
605.292	90.75
605.501	86.75
605.709	98.75
605.918	110.75
606.126	97.75
606.334	105.75
606.543	97.75
606.751	144.75
606.96	157.75
607.168	153.75
607.376	119.75
607.585	106.75
607.793	97.75
608.001	95.75
608.21	96.75
608.418	87.75
608.626	81.75
608.834	92.75
609.043	100.75
609.251	113.75
609.459	87.75
609.667	104.75
609.875	87.75
610.083	92.75
610.291	93.75
610.499	90.75
610.707	93.75
610.916	112.75
611.124	102.75
611.332	108.75
611.54	93.75
611.748	74.75
611.955	89.75
612.163	91.75
612.371	81.75
612.579	84.75
612.787	88.75
612.995	103.75
613.203	101.75
613.411	87.75
613.618	89.75
613.826	85.75
614.034	90.75
614.242	81.75
614.449	99.75
614.657	119.75
614.865	96.75
615.072	107.75
615.28	115.75
615.488	102.75
615.695	103.75
615.903	93.75
616.111	99.75
616.318	97.75
616.526	98.75
616.733	98.75
616.941	94.75
617.148	82.75
617.356	79.75
617.563	83.75
617.771	97.75
617.978	94.75
618.185	83.75
618.393	103.75
618.6	88.75
618.807	82.75
619.015	75.75
619.222	93.75
619.429	94.75
619.637	92.75
619.844	82.75
620.051	96.75
620.258	105.75
620.466	89.75
620.673	105.75
620.88	101.75
621.087	83.75
621.294	102.75
621.501	82.75
621.708	94.75
621.915	95.75
622.122	94.75
622.329	87.75
622.536	94.75
622.743	85.75
622.95	88.75
623.157	89.75
623.364	98.75
623.571	114.75
623.778	90.75
623.985	92.75
624.192	86.75
624.399	96.75
624.606	86.75
624.812	90.75
625.019	86.75
625.226	84.75
625.433	93.75
625.639	91.75
625.846	73.75
626.053	95.75
626.259	95.75
626.466	101.75
626.673	95.75
626.879	79.75
627.086	89.75
627.293	96.75
627.499	97.75
627.706	85.75
627.912	88.75
628.119	82.75
628.325	101.75
628.532	98.75
628.738	87.75
628.945	92.75
629.151	85.75
629.357	73.75
629.564	76.75
629.77	85.75
629.976	86.75
630.183	85.75
630.389	93.75
630.595	85.75
630.802	99.75
631.008	80.75
631.214	86.75
631.42	83.75
631.627	87.75
631.833	100.75
632.039	84.75
632.245	87.75
632.451	82.75
632.657	82.75
632.863	86.75
633.069	98.75
633.275	86.75
633.481	80.75
633.688	79.75
633.893	96.75
634.099	89.75
634.305	97.75
634.511	88.75
634.717	86.75
634.923	91.75
635.129	115.75
635.335	127.75
635.541	101.75
635.747	79.75
635.952	95.75
636.158	89.75
636.364	94.75
636.57	81.75
636.775	87.75
636.981	99.75
637.187	81.75
637.392	81.75
637.598	90.75
637.804	74.75
638.009	71.75
638.215	92.75
638.421	91.75
638.626	89.75
638.832	92.75
639.037	81.75
639.243	97.75
639.448	96.75
639.654	98.75
639.859	84.75
640.065	83.75
640.27	84.75
640.475	93.75
640.681	101.75
640.886	81.75
641.091	90.75
641.297	80.75
641.502	82.75
641.707	88.75
641.913	89.75
642.118	80.75
642.323	89.75
642.528	88.75
642.733	74.75
642.939	101.75
643.144	82.75
643.349	88.75
643.554	68.75
643.759	86.75
643.964	78.75
644.169	95.75
644.374	93.75
644.579	82.75
644.784	78.75
644.989	81.75
645.194	101.75
645.399	89.75
645.604	120.75
645.809	94.75
646.014	79.75
646.219	88.75
646.423	80.75
646.628	87.75
646.833	87.75
647.038	106.75
647.243	82.75
647.447	86.75
647.652	89.75
647.857	90.75
648.062	70.75
648.266	102.75
648.471	91.75
648.676	83.75
648.88	96.75
649.085	88.75
649.289	90.75
649.494	93.75
649.698	110.75
649.903	97.75
650.107	84.75
650.312	93.75
650.516	88.75
650.721	80.75
650.925	89.75
651.13	78.75
651.334	81.75
651.539	86.75
651.743	88.75
651.947	87.75
652.152	97.75
652.356	86.75
652.56	97.75
652.764	123.75
652.969	102.75
653.173	97.75
653.377	73.75
653.581	84.75
653.785	97.75
653.99	97.75
654.194	80.75
654.398	101.75
654.602	97.75
654.806	75.75
655.01	88.75
655.214	82.75
655.418	90.75
655.622	97.75
655.826	88.75
656.03	85.75
656.234	87.75
656.438	98.75
656.642	80.75
656.846	78.75
657.049	84.75
657.253	81.75
657.457	75.75
657.661	88.75
657.865	87.75
658.068	79.75
658.272	79.75
658.476	78.75
658.68	80.75
658.883	86.75
659.087	83.75
659.291	77.75
659.494	81.75
659.698	88.75
659.901	82.75
660.105	77.75
660.309	81.75
660.512	81.75
660.716	72.75
660.919	84.75
661.123	86.75
661.326	89.75
661.53	75.75
661.733	86.75
661.936	71.75
662.14	101.75
662.343	96.75
662.546	81.75
662.75	80.75
662.953	101.75
663.156	81.75
663.36	76.75
663.563	79.75
663.766	81.75
663.969	91.75
664.173	86.75
664.376	80.75
664.579	90.75
664.782	88.75
664.985	86.75
665.188	84.75
665.391	78.75
665.594	79.75
665.797	79.75
666	80.75
666.203	66.75
666.406	78.75
666.609	91.75
666.812	81.75
667.015	83.75
667.218	82.75
667.421	75.75
667.624	80.75
667.827	81.75
668.03	72.75
668.232	81.75
668.435	73.75
668.638	75.75
668.841	79.75
669.043	86.75
669.246	86.75
669.449	81.75
669.651	83.75
669.854	93.75
670.057	88.75
670.259	84.75
670.462	96.75
670.665	88.75
670.867	74.75
671.07	80.75
671.272	72.75
671.475	75.75
671.677	81.75
671.88	89.75
672.082	74.75
672.284	80.75
672.487	73.75
672.689	89.75
672.892	74.75
