Data from SnStandardFlinnAPT0064_LampEnergy10_LIBS07252019.E.O._I.C._HRD10591_15-20-38-494.txt Node
Date: Thu Jul 25 15:20:38 EDT 2019
User: cochatt
Spectrometer: HR+D1059
Trigger mode: 1
Integration Time (sec): 1.000000E-1
Scans to average: 1
Electric dark correction enabled: true
Nonlinearity correction enabled: false
Boxcar width: 0
XAxis mode: Wavelengths
Number of Pixels in Spectrum: 2048
>>>>>Begin Spectral Data<<<<<
223.165	-21.5
223.4	-21.5
223.635	-21.5
223.869	-18.5
224.104	-16.5
224.338	-7.5
224.573	-9.5
224.808	-10.5
225.042	-4.5
225.277	0.5
225.511	-1.5
225.746	0.5
225.98	-4.5
226.215	1.5
226.449	8.5
226.683	26.5
226.918	25.5
227.152	31.5
227.387	49.5
227.621	44.5
227.856	46.5
228.09	55.5
228.324	62.5
228.559	65.5
228.793	120.5
229.027	315.5
229.262	320.5
229.496	290.5
229.73	294.5
229.964	309.5
230.199	298.5
230.433	304.5
230.667	324.5
230.901	316.5
231.136	308.5
231.37	355.5
231.604	377.5
231.838	450.5
232.072	525.5
232.306	572.5
232.541	466.5
232.775	425.5
233.009	424.5
233.243	415.5
233.477	448.5
233.711	532.5
233.945	596.5
234.179	519.5
234.413	432.5
234.647	440.5
234.881	473.5
235.115	519.5
235.349	604.5
235.583	774.5
235.817	985.5
236.051	974.5
236.285	668.5
236.519	533.5
236.753	496.5
236.987	517.5
237.221	541.5
237.455	523.5
237.689	451.5
237.922	437.5
238.156	461.5
238.39	499.5
238.624	489.5
238.858	468.5
239.091	488.5
239.325	480.5
239.559	480.5
239.793	523.5
240.027	510.5
240.26	558.5
240.494	551.5
240.728	586.5
240.961	606.5
241.195	634.5
241.429	704.5
241.662	689.5
241.896	804.5
242.13	933.5
242.363	1277.5
242.597	1594.5
242.83	1570.5
243.064	1555.5
243.298	1799.5
243.531	1478.5
243.765	960.5
243.998	769.5
244.232	704.5
244.465	648.5
244.699	623.5
244.932	660.5
245.166	663.5
245.399	669.5
245.633	676.5
245.866	687.5
246.099	666.5
246.333	651.5
246.566	635.5
246.8	633.5
247.033	624.5
247.266	662.5
247.5	678.5
247.733	665.5
247.966	700.5
248.2	751.5
248.433	871.5
248.666	1006.5
248.899	952.5
249.133	831.5
249.366	892.5
249.599	970.5
249.832	1070.5
250.066	1075.5
250.299	855.5
250.532	776.5
250.765	756.5
250.998	731.5
251.231	722.5
251.465	740.5
251.698	739.5
251.931	741.5
252.164	756.5
252.397	757.5
252.63	770.5
252.863	820.5
253.096	774.5
253.329	741.5
253.562	746.5
253.795	775.5
254.028	798.5
254.261	809.5
254.494	886.5
254.727	1026.5
254.96	1224.5
255.193	1207.5
255.426	950.5
255.659	881.5
255.892	876.5
256.124	849.5
256.357	857.5
256.59	922.5
256.823	970.5
257.056	1108.5
257.289	1326.5
257.521	1504.5
257.754	1200.5
257.987	991.5
258.22	906.5
258.452	892.5
258.685	922.5
258.918	964.5
259.151	996.5
259.383	1097.5
259.616	1196.5
259.849	1284.5
260.081	1090.5
260.314	1001.5
260.547	968.5
260.779	958.5
261.012	969.5
261.244	946.5
261.477	967.5
261.71	982.5
261.942	1032.5
262.175	978.5
262.407	1043.5
262.64	1031.5
262.872	1072.5
263.105	1140.5
263.337	1169.5
263.57	1259.5
263.802	1290.5
264.035	1287.5
264.267	1340.5
264.499	1381.5
264.732	1400.5
264.964	1428.5
265.197	1421.5
265.429	1408.5
265.661	1446.5
265.894	1558.5
266.126	1751.5
266.358	1927.5
266.591	1905.5
266.823	1600.5
267.055	1456.5
267.287	1378.5
267.52	1307.5
267.752	1292.5
267.984	1288.5
268.216	1253.5
268.448	1256.5
268.681	1232.5
268.913	1240.5
269.145	1217.5
269.377	1237.5
269.609	1250.5
269.841	1286.5
270.073	1367.5
270.306	1564.5
270.538	2142.5
270.77	3202.5
271.002	3966.5
271.234	2777.5
271.466	1859.5
271.698	1518.5
271.93	1398.5
272.162	1319.5
272.394	1303.5
272.626	1215.5
272.858	1218.5
273.09	1189.5
273.322	1195.5
273.553	1219.5
273.785	1218.5
274.017	1212.5
274.249	1179.5
274.481	1189.5
274.713	1174.5
274.945	1208.5
275.176	1207.5
275.408	1215.5
275.64	1205.5
275.872	1230.5
276.104	1228.5
276.335	1255.5
276.567	1273.5
276.799	1239.5
277.031	1290.5
277.262	1287.5
277.494	1384.5
277.726	1537.5
277.957	1817.5
278.189	2103.5
278.421	1982.5
278.652	1751.5
278.884	1655.5
279.115	1465.5
279.347	1379.5
279.579	1377.5
279.81	1388.5
280.042	1368.5
280.273	1405.5
280.505	1440.5
280.736	1502.5
280.968	1611.5
281.199	1761.5
281.431	2008.5
281.662	2119.5
281.894	1786.5
282.125	1638.5
282.356	1609.5
282.588	1630.5
282.819	1710.5
283.051	1785.5
283.282	1979.5
283.513	2448.5
283.745	3539.5
283.976	5648.5
284.207	7999.5
284.439	7248.5
284.67	4530.5
284.901	3684.5
285.132	3769.5
285.364	3575.5
285.595	2691.5
285.826	2452.5
286.057	2818.5
286.288	3882.5
286.52	5183.5
286.751	4884.5
286.982	3027.5
287.213	2280.5
287.444	1994.5
287.675	1863.5
287.906	1769.5
288.138	1739.5
288.369	1690.5
288.6	1631.5
288.831	1659.5
289.062	1684.5
289.293	1674.5
289.524	1714.5
289.755	1700.5
289.986	1683.5
290.217	1704.5
290.448	1670.5
290.679	1703.5
290.91	1767.5
291.141	1847.5
291.371	1991.5
291.602	2150.5
291.833	1897.5
292.064	1736.5
292.295	1712.5
292.526	1626.5
292.757	1583.5
292.987	1597.5
293.218	1566.5
293.449	1555.5
293.68	1624.5
293.91	1575.5
294.141	1567.5
294.372	1543.5
294.603	1557.5
294.833	1554.5
295.064	1584.5
295.295	1518.5
295.525	1549.5
295.756	1544.5
295.987	1533.5
296.217	1529.5
296.448	1511.5
296.679	1544.5
296.909	1594.5
297.14	1625.5
297.37	1617.5
297.601	1598.5
297.831	1624.5
298.062	1579.5
298.292	1649.5
298.523	1674.5
298.753	1710.5
298.984	1672.5
299.214	1759.5
299.445	1715.5
299.675	1780.5
299.905	1804.5
300.136	1900.5
300.366	2135.5
300.597	2677.5
300.827	3768.5
301.057	5177.5
301.288	5192.5
301.518	3400.5
301.748	2580.5
301.979	2360.5
302.209	2294.5
302.439	2321.5
302.669	2401.5
302.9	2948.5
303.13	4136.5
303.36	6142.5
303.59	8270.5
303.82	7046.5
304.051	4216.5
304.281	3038.5
304.511	2476.5
304.741	2351.5
304.971	2182.5
305.201	2059.5
305.431	1978.5
305.661	1952.5
305.891	1873.5
306.121	1864.5
306.352	1891.5
306.582	1845.5
306.812	1827.5
307.042	1840.5
307.272	1827.5
307.502	1809.5
307.731	1821.5
307.961	1792.5
308.191	1780.5
308.421	1787.5
308.651	1765.5
308.881	1801.5
309.111	1830.5
309.341	1836.5
309.571	1817.5
309.8	1834.5
310.03	1854.5
310.26	1850.5
310.49	1818.5
310.72	1909.5
310.949	1872.5
311.179	1908.5
311.409	1899.5
311.639	1904.5
311.868	1961.5
312.098	1955.5
312.328	1932.5
312.557	1931.5
312.787	1968.5
313.017	1979.5
313.246	1972.5
313.476	1996.5
313.706	2029.5
313.935	2204.5
314.165	2344.5
314.394	2424.5
314.624	2329.5
314.853	2162.5
315.083	2131.5
315.312	2135.5
315.542	2176.5
315.771	2203.5
316.001	2248.5
316.23	2315.5
316.46	2416.5
316.689	2650.5
316.919	3192.5
317.148	4587.5
317.377	7090.5
317.607	10286.5
317.836	10752.5
318.065	6623.5
318.295	4245.5
318.524	3452.5
318.753	2977.5
318.983	2755.5
319.212	2544.5
319.441	2529.5
319.67	2435.5
319.9	2389.5
320.129	2386.5
320.358	2339.5
320.587	2322.5
320.816	2380.5
321.046	2331.5
321.275	2316.5
321.504	2343.5
321.733	2416.5
321.962	2508.5
322.191	2517.5
322.42	2505.5
322.649	2510.5
322.878	2469.5
323.108	2463.5
323.337	2518.5
323.566	2518.5
323.795	2570.5
324.024	2655.5
324.253	2719.5
324.482	2774.5
324.71	3040.5
324.939	3214.5
325.168	3261.5
325.397	3347.5
325.626	3998.5
325.855	5581.5
326.084	8758.5
326.313	12574.5
326.542	13346.5
326.77	8990.5
326.999	5994.5
327.228	4927.5
327.457	4742.5
327.686	4810.5
327.914	5170.5
328.143	6006.5
328.372	7108.5
328.6	7882.5
328.829	6971.5
329.058	5812.5
329.287	5080.5
329.515	4668.5
329.744	4279.5
329.972	4004.5
330.201	3892.5
330.43	3715.5
330.658	3637.5
330.887	3542.5
331.115	3446.5
331.344	3495.5
331.572	3459.5
331.801	3479.5
332.03	3476.5
332.258	3539.5
332.486	3696.5
332.715	4266.5
332.943	5217.5
333.172	6466.5
333.4	6600.5
333.629	4920.5
333.857	4447.5
334.085	4474.5
334.314	4690.5
334.542	5068.5
334.771	6019.5
334.999	7361.5
335.227	9284.5
335.455	10452.5
335.684	9329.5
335.912	7640.5
336.14	6482.5
336.369	5747.5
336.597	5261.5
336.825	4832.5
337.053	4458.5
337.281	4206.5
337.51	4001.5
337.738	3861.5
337.966	3686.5
338.194	3563.5
338.422	3431.5
338.65	3392.5
338.878	3306.5
339.106	3176.5
339.334	3174.5
339.562	3064.5
339.79	3041.5
340.018	3033.5
340.246	2993.5
340.474	2987.5
340.702	2964.5
340.93	3026.5
341.158	3014.5
341.386	2987.5
341.614	2926.5
341.842	2852.5
342.07	2840.5
342.298	2806.5
342.526	2774.5
342.754	2741.5
342.981	2714.5
343.209	2686.5
343.437	2734.5
343.665	2717.5
343.893	2795.5
344.12	2731.5
344.348	2759.5
344.576	2726.5
344.804	2670.5
345.031	2566.5
345.259	2578.5
345.487	2567.5
345.714	2554.5
345.942	2490.5
346.17	2556.5
346.397	2489.5
346.625	2558.5
346.853	2519.5
347.08	2511.5
347.308	2515.5
347.535	2549.5
347.763	2480.5
347.99	2479.5
348.218	2457.5
348.445	2462.5
348.673	2446.5
348.9	2473.5
349.128	2454.5
349.355	2440.5
349.583	2438.5
349.81	2401.5
350.037	2399.5
350.265	2410.5
350.492	2387.5
350.72	2380.5
350.947	2388.5
351.174	2390.5
351.402	2364.5
351.629	2347.5
351.856	2305.5
352.083	2358.5
352.311	2338.5
352.538	2339.5
352.765	2334.5
352.992	2338.5
353.22	2366.5
353.447	2336.5
353.674	2326.5
353.901	2387.5
354.128	2360.5
354.355	2366.5
354.583	2368.5
354.81	2373.5
355.037	2411.5
355.264	2428.5
355.491	2394.5
355.718	2424.5
355.945	2401.5
356.172	2405.5
356.399	2494.5
356.626	2480.5
356.853	2515.5
357.08	2474.5
357.307	2511.5
357.534	2536.5
357.761	2559.5
357.988	2545.5
358.215	2507.5
358.441	2519.5
358.668	2517.5
358.895	2503.5
359.122	2505.5
359.349	2500.5
359.576	2535.5
359.802	2506.5
360.029	2497.5
360.256	2533.5
360.483	2551.5
360.709	2528.5
360.936	2586.5
361.163	2520.5
361.39	2592.5
361.616	2550.5
361.843	2520.5
362.07	2551.5
362.296	2538.5
362.523	2538.5
362.749	2556.5
362.976	2562.5
363.203	2517.5
363.429	2529.5
363.656	2530.5
363.882	2531.5
364.109	2508.5
364.335	2491.5
364.562	2489.5
364.788	2485.5
365.015	2562.5
365.241	2608.5
365.468	2783.5
365.694	2903.5
365.92	2821.5
366.147	2587.5
366.373	2558.5
366.599	2590.5
366.826	2564.5
367.052	2632.5
367.278	2612.5
367.505	2609.5
367.731	2598.5
367.957	2578.5
368.184	2643.5
368.41	2677.5
368.636	2658.5
368.862	2632.5
369.089	2601.5
369.315	2600.5
369.541	2576.5
369.767	2595.5
369.993	2590.5
370.219	2608.5
370.445	2659.5
370.672	2660.5
370.898	2670.5
371.124	2649.5
371.35	2674.5
371.576	2696.5
371.802	2742.5
372.028	2672.5
372.254	2723.5
372.48	2754.5
372.706	2775.5
372.932	2783.5
373.158	2795.5
373.384	2756.5
373.61	2753.5
373.835	2759.5
374.061	2724.5
374.287	2767.5
374.513	2812.5
374.739	2825.5
374.965	2855.5
375.191	2900.5
375.416	2844.5
375.642	2864.5
375.868	2867.5
376.094	2757.5
376.319	2753.5
376.545	2753.5
376.771	2692.5
376.997	2707.5
377.222	2718.5
377.448	2662.5
377.674	2704.5
377.899	2706.5
378.125	2737.5
378.35	2664.5
378.576	2662.5
378.802	2725.5
379.027	2752.5
379.253	2879.5
379.478	2967.5
379.704	3555.5
379.929	5092.5
380.155	7816.5
380.38	8600.5
380.606	5213.5
380.831	3720.5
381.057	3256.5
381.282	2966.5
381.507	2864.5
381.733	2825.5
381.958	2740.5
382.184	2756.5
382.409	2694.5
382.634	2671.5
382.86	2636.5
383.085	2666.5
383.31	2718.5
383.535	2681.5
383.761	2655.5
383.986	2698.5
384.211	2707.5
384.436	2741.5
384.662	2710.5
384.887	2759.5
385.112	2729.5
385.337	2781.5
385.562	2788.5
385.787	2700.5
386.013	2742.5
386.238	2762.5
386.463	2726.5
386.688	2758.5
386.913	2720.5
387.138	2686.5
387.363	2773.5
387.588	2733.5
387.813	2704.5
388.038	2738.5
388.263	2710.5
388.488	2732.5
388.713	2729.5
388.938	2740.5
389.163	2714.5
389.387	2742.5
389.612	2718.5
389.837	2762.5
390.062	2718.5
390.287	2788.5
390.512	2768.5
390.736	2843.5
390.961	2883.5
391.186	2878.5
391.411	2889.5
391.636	2882.5
391.86	2952.5
392.085	2893.5
392.31	2814.5
392.534	2870.5
392.759	2853.5
392.984	2823.5
393.208	2807.5
393.433	2796.5
393.658	2757.5
393.882	2768.5
394.107	2760.5
394.331	2775.5
394.556	2800.5
394.78	2792.5
395.005	2790.5
395.229	2774.5
395.454	2873.5
395.678	2822.5
395.903	2848.5
396.127	2888.5
396.352	2832.5
396.576	2832.5
396.801	2834.5
397.025	2827.5
397.249	2860.5
397.474	2875.5
397.698	2883.5
397.922	2960.5
398.147	2903.5
398.371	2940.5
398.595	2995.5
398.82	3009.5
399.044	3140.5
399.268	3291.5
399.492	3464.5
399.717	3618.5
399.941	3625.5
400.165	3471.5
400.389	3334.5
400.613	3234.5
400.837	3148.5
401.062	3131.5
401.286	3025.5
401.51	3029.5
401.734	3010.5
401.958	3027.5
402.182	3066.5
402.406	3041.5
402.63	3056.5
402.854	3084.5
403.078	3054.5
403.302	3103.5
403.526	3135.5
403.75	3093.5
403.974	3136.5
404.198	3112.5
404.422	3125.5
404.645	3145.5
404.869	3118.5
405.093	3183.5
405.317	3115.5
405.541	3195.5
405.765	3224.5
405.988	3248.5
406.212	3231.5
406.436	3210.5
406.66	3266.5
406.883	3244.5
407.107	3351.5
407.331	3374.5
407.555	3460.5
407.778	3368.5
408.002	3428.5
408.226	3390.5
408.449	3355.5
408.673	3275.5
408.896	3239.5
409.12	3178.5
409.344	3234.5
409.567	3133.5
409.791	3192.5
410.014	3159.5
410.238	3122.5
410.461	3158.5
410.685	3055.5
410.908	3049.5
411.132	3085.5
411.355	2998.5
411.578	3057.5
411.802	3033.5
412.025	3033.5
412.249	3070.5
412.472	3010.5
412.695	2971.5
412.919	2943.5
413.142	2988.5
413.365	3002.5
413.589	2968.5
413.812	3005.5
414.035	2964.5
414.258	2990.5
414.482	2961.5
414.705	2994.5
414.928	2982.5
415.151	2948.5
415.374	2941.5
415.597	2874.5
415.821	2878.5
416.044	2836.5
416.267	2840.5
416.49	2836.5
416.713	2883.5
416.936	2859.5
417.159	2842.5
417.382	2827.5
417.605	2818.5
417.828	2812.5
418.051	2893.5
418.274	2890.5
418.497	2871.5
418.72	2942.5
418.943	2880.5
419.166	3064.5
419.389	3152.5
419.611	3117.5
419.834	3055.5
420.057	3001.5
420.28	2940.5
420.503	2891.5
420.726	2818.5
420.948	2793.5
421.171	2880.5
421.394	2833.5
421.617	2857.5
421.839	2849.5
422.062	2864.5
422.285	2783.5
422.507	2898.5
422.73	2872.5
422.953	2934.5
423.175	2971.5
423.398	2914.5
423.621	2838.5
423.843	2875.5
424.066	2919.5
424.288	2868.5
424.511	2843.5
424.733	2838.5
424.956	2787.5
425.178	2851.5
425.401	2771.5
425.623	2793.5
425.846	2732.5
426.068	2765.5
426.291	2757.5
426.513	2722.5
426.735	2713.5
426.958	2714.5
427.18	2690.5
427.402	2705.5
427.625	2707.5
427.847	2628.5
428.069	2629.5
428.292	2675.5
428.514	2593.5
428.736	2656.5
428.958	2640.5
429.181	2610.5
429.403	2561.5
429.625	2627.5
429.847	2599.5
430.069	2697.5
430.292	2715.5
430.514	2809.5
430.736	2856.5
430.958	2715.5
431.18	2626.5
431.402	2650.5
431.624	2613.5
431.846	2614.5
432.068	2588.5
432.29	2611.5
432.512	2560.5
432.734	2595.5
432.956	2560.5
433.178	2625.5
433.4	2641.5
433.622	2595.5
433.844	2657.5
434.066	2662.5
434.287	2663.5
434.509	2688.5
434.731	2703.5
434.953	2711.5
435.175	2808.5
435.397	2767.5
435.618	2632.5
435.84	2646.5
436.062	2660.5
436.284	2630.5
436.505	2547.5
436.727	2601.5
436.949	2597.5
437.17	2579.5
437.392	2555.5
437.614	2519.5
437.835	2521.5
438.057	2549.5
438.278	2534.5
438.5	2522.5
438.721	2547.5
438.943	2652.5
439.165	2672.5
439.386	2712.5
439.608	2677.5
439.829	2736.5
440.05	2822.5
440.272	2888.5
440.493	2715.5
440.715	2681.5
440.936	2674.5
441.158	2728.5
441.379	2760.5
441.6	2827.5
441.822	2940.5
442.043	3096.5
442.264	3202.5
442.486	2942.5
442.707	2856.5
442.928	2778.5
443.149	2793.5
443.371	2708.5
443.592	2758.5
443.813	2832.5
444.034	2801.5
444.255	2876.5
444.476	2953.5
444.698	3015.5
444.919	3015.5
445.14	2998.5
445.361	2908.5
445.582	2881.5
445.803	2799.5
446.024	2792.5
446.245	2763.5
446.466	2744.5
446.687	2692.5
446.908	2683.5
447.129	2642.5
447.35	2607.5
447.571	2597.5
447.792	2602.5
448.013	2556.5
448.234	2568.5
448.455	2590.5
448.675	2654.5
448.896	2691.5
449.117	2743.5
449.338	2979.5
449.559	3111.5
449.779	2831.5
450	2635.5
450.221	2555.5
450.442	2525.5
450.662	2503.5
450.883	2479.5
451.104	2546.5
451.324	2470.5
451.545	2531.5
451.766	2523.5
451.986	2610.5
452.207	2817.5
452.428	3596.5
452.648	5370.5
452.869	4475.5
453.089	3148.5
453.31	2915.5
453.53	2946.5
453.751	3018.5
453.971	3139.5
454.192	3138.5
454.412	2681.5
454.633	2528.5
454.853	2462.5
455.073	2483.5
455.294	2468.5
455.514	2383.5
455.734	2451.5
455.955	2410.5
456.175	2390.5
456.395	2399.5
456.616	2434.5
456.836	2438.5
457.056	2437.5
457.276	2458.5
457.497	2620.5
457.717	2657.5
457.937	2537.5
458.157	2528.5
458.377	2543.5
458.598	2603.5
458.818	2539.5
459.038	2574.5
459.258	2580.5
459.478	2627.5
459.698	2652.5
459.918	2662.5
460.138	2739.5
460.358	2764.5
460.578	2780.5
460.798	2861.5
461.018	2839.5
461.238	2846.5
461.458	2885.5
461.678	2899.5
461.898	2975.5
462.118	2963.5
462.338	3068.5
462.558	3088.5
462.777	3136.5
462.997	3208.5
463.217	3327.5
463.437	3479.5
463.657	3538.5
463.876	3521.5
464.096	3313.5
464.316	3195.5
464.536	3143.5
464.755	3095.5
464.975	2979.5
465.195	2863.5
465.414	2789.5
465.634	2758.5
465.854	2691.5
466.073	2659.5
466.293	2704.5
466.512	2642.5
466.732	2706.5
466.951	2806.5
467.171	2962.5
467.391	2920.5
467.61	2639.5
467.829	2606.5
468.049	2583.5
468.268	2526.5
468.488	2588.5
468.707	2568.5
468.927	2553.5
469.146	2592.5
469.365	2581.5
469.585	2628.5
469.804	2648.5
470.023	2693.5
470.243	2748.5
470.462	2836.5
470.681	3028.5
470.901	3287.5
471.12	3736.5
471.339	3748.5
471.558	3177.5
471.777	2874.5
471.997	2755.5
472.216	2724.5
472.435	2639.5
472.654	2606.5
472.873	2578.5
473.092	2578.5
473.311	2585.5
473.53	2594.5
473.749	2690.5
473.968	2761.5
474.187	2613.5
474.406	2587.5
474.625	2623.5
474.844	2584.5
475.063	2579.5
475.282	2603.5
475.501	2619.5
475.72	2636.5
475.939	2644.5
476.158	2671.5
476.377	2742.5
476.596	2726.5
476.814	2728.5
477.033	2691.5
477.252	2751.5
477.471	2836.5
477.69	2827.5
477.908	2896.5
478.127	2908.5
478.346	2916.5
478.564	3002.5
478.783	2943.5
479.002	3048.5
479.22	3047.5
479.439	3044.5
479.658	3043.5
479.876	3091.5
480.095	3088.5
480.313	3195.5
480.532	3216.5
480.751	3200.5
480.969	3139.5
481.188	3165.5
481.406	3096.5
481.624	3141.5
481.843	3120.5
482.061	3162.5
482.28	3177.5
482.498	3110.5
482.717	3102.5
482.935	3180.5
483.153	3195.5
483.372	3203.5
483.59	3252.5
483.808	3307.5
484.027	3401.5
484.245	3602.5
484.463	4083.5
484.681	4501.5
484.9	4089.5
485.118	3767.5
485.336	3659.5
485.554	3757.5
485.772	3976.5
485.99	4540.5
486.209	4856.5
486.427	4119.5
486.645	3701.5
486.863	3514.5
487.081	3394.5
487.299	3374.5
487.517	3335.5
487.735	3348.5
487.953	3351.5
488.171	3364.5
488.389	3349.5
488.607	3230.5
488.825	3262.5
489.043	3199.5
489.261	3222.5
489.479	3195.5
489.696	3176.5
489.914	3246.5
490.132	3275.5
490.35	3248.5
490.568	3334.5
490.786	3314.5
491.003	3305.5
491.221	3311.5
491.439	3310.5
491.657	3360.5
491.874	3374.5
492.092	3385.5
492.31	3406.5
492.527	3408.5
492.745	3361.5
492.963	3348.5
493.18	3403.5
493.398	3379.5
493.615	3390.5
493.833	3378.5
494.05	3367.5
494.268	3376.5
494.485	3376.5
494.703	3433.5
494.92	3417.5
495.138	3353.5
495.355	3405.5
495.573	3404.5
495.79	3471.5
496.008	3475.5
496.225	3483.5
496.442	3552.5
496.66	3665.5
496.877	3845.5
497.094	3785.5
497.312	3659.5
497.529	3671.5
497.746	3693.5
497.963	3745.5
498.181	3863.5
498.398	3984.5
498.615	4017.5
498.832	4221.5
499.049	4451.5
499.267	4755.5
499.484	5024.5
499.701	5028.5
499.918	5155.5
500.135	5442.5
500.352	5688.5
500.569	5715.5
500.786	5669.5
501.003	5501.5
501.22	5210.5
501.437	5070.5
501.654	4728.5
501.871	4569.5
502.088	4398.5
502.305	4193.5
502.522	4120.5
502.739	3986.5
502.956	3852.5
503.172	3803.5
503.389	3734.5
503.606	3616.5
503.823	3581.5
504.04	3550.5
504.256	3513.5
504.473	3497.5
504.69	3483.5
504.907	3529.5
505.123	3462.5
505.34	3279.5
505.557	3278.5
505.773	3188.5
505.99	3182.5
506.207	3140.5
506.423	3104.5
506.64	3099.5
506.856	3037.5
507.073	2993.5
507.289	2983.5
507.506	2999.5
507.722	3006.5
507.939	2998.5
508.155	2931.5
508.372	2934.5
508.588	2933.5
508.805	2903.5
509.021	2958.5
509.238	2979.5
509.454	3138.5
509.67	3372.5
509.887	3060.5
510.103	2980.5
510.319	2967.5
510.536	2939.5
510.752	2929.5
510.968	2856.5
511.184	2830.5
511.401	2840.5
511.617	2857.5
511.833	2856.5
512.049	2805.5
512.265	2824.5
512.481	2781.5
512.698	2799.5
512.914	2798.5
513.13	2798.5
513.346	2764.5
513.562	2826.5
513.778	2819.5
513.994	2843.5
514.21	2955.5
514.426	3129.5
514.642	3266.5
514.858	2966.5
515.074	2926.5
515.29	2909.5
515.506	2827.5
515.721	2880.5
515.937	2929.5
516.153	2922.5
516.369	2855.5
516.585	2971.5
516.801	2977.5
517.016	3056.5
517.232	3086.5
517.448	3155.5
517.664	3196.5
517.879	3190.5
518.095	3195.5
518.311	3180.5
518.527	3112.5
518.742	3161.5
518.958	3137.5
519.173	3247.5
519.389	3081.5
519.605	2974.5
519.82	2911.5
520.036	2907.5
520.251	2840.5
520.467	2775.5
520.682	2828.5
520.898	2786.5
521.113	2761.5
521.329	2754.5
521.544	2737.5
521.76	2737.5
521.975	2778.5
522.19	2760.5
522.406	2721.5
522.621	2705.5
522.836	2725.5
523.052	2764.5
523.267	2697.5
523.482	2684.5
523.698	2685.5
523.913	2675.5
524.128	2658.5
524.343	2636.5
524.559	2676.5
524.774	2698.5
524.989	2706.5
525.204	2682.5
525.419	2686.5
525.634	2644.5
525.849	2714.5
526.064	2658.5
526.28	2655.5
526.495	2680.5
526.71	2698.5
526.925	2714.5
527.14	2710.5
527.355	2725.5
527.57	2730.5
527.785	2714.5
527.999	2708.5
528.214	2741.5
528.429	2751.5
528.644	2819.5
528.859	2829.5
529.074	2886.5
529.289	2897.5
529.503	2921.5
529.718	2854.5
529.933	2821.5
530.148	2887.5
530.363	2913.5
530.577	2870.5
530.792	2856.5
531.007	2870.5
531.221	2926.5
531.436	2966.5
531.651	2944.5
531.865	2994.5
532.08	3038.5
532.295	3193.5
532.509	3360.5
532.724	3346.5
532.938	3459.5
533.153	3526.5
533.367	3815.5
533.582	4021.5
533.796	3959.5
534.011	3737.5
534.225	3656.5
534.44	3496.5
534.654	3393.5
534.868	3298.5
535.083	3232.5
535.297	3236.5
535.511	3127.5
535.726	3113.5
535.94	3056.5
536.154	2992.5
536.369	3006.5
536.583	2946.5
536.797	2895.5
537.011	2928.5
537.225	2835.5
537.44	2826.5
537.654	2800.5
537.868	2795.5
538.082	2715.5
538.296	2692.5
538.51	2662.5
538.724	2731.5
538.938	2642.5
539.153	2644.5
539.367	2678.5
539.581	2620.5
539.795	2587.5
540.009	2534.5
540.222	2583.5
540.436	2567.5
540.65	2561.5
540.864	2631.5
541.078	2643.5
541.292	2834.5
541.506	3354.5
541.72	3472.5
541.934	3047.5
542.147	2894.5
542.361	2754.5
542.575	2670.5
542.789	2598.5
543.002	2558.5
543.216	2503.5
543.43	2504.5
543.644	2487.5
543.857	2524.5
544.071	2511.5
544.285	2529.5
544.498	2488.5
544.712	2533.5
544.925	2530.5
545.139	2500.5
545.352	2520.5
545.566	2566.5
545.779	2524.5
545.993	2528.5
546.206	2546.5
546.42	2536.5
546.633	2593.5
546.847	2486.5
547.06	2488.5
547.274	2500.5
547.487	2515.5
547.7	2543.5
547.914	2587.5
548.127	2570.5
548.34	2576.5
548.554	2560.5
548.767	2516.5
548.98	2558.5
549.193	2556.5
549.407	2473.5
549.62	2546.5
549.833	2594.5
550.046	2520.5
550.259	2544.5
550.473	2473.5
550.686	2546.5
550.899	2529.5
551.112	2522.5
551.325	2571.5
551.538	2555.5
551.751	2524.5
551.964	2563.5
552.177	2598.5
552.39	2596.5
552.603	2659.5
552.816	2713.5
553.029	2770.5
553.242	2725.5
553.455	2816.5
553.667	2803.5
553.88	2820.5
554.093	2835.5
554.306	2871.5
554.519	2921.5
554.732	2940.5
554.944	2963.5
555.157	2999.5
555.37	3114.5
555.583	3266.5
555.795	3475.5
556.008	3746.5
556.221	4138.5
556.433	4535.5
556.646	4470.5
556.859	4262.5
557.071	4061.5
557.284	4000.5
557.496	3788.5
557.709	3740.5
557.921	3710.5
558.134	3674.5
558.346	3816.5
558.559	3826.5
558.771	4178.5
558.984	4570.5
559.196	4916.5
559.409	4626.5
559.621	4258.5
559.833	4038.5
560.046	3747.5
560.258	3516.5
560.47	3383.5
560.683	3248.5
560.895	3118.5
561.107	3041.5
561.32	2942.5
561.532	2840.5
561.744	2804.5
561.956	2771.5
562.168	2686.5
562.381	2702.5
562.593	2667.5
562.805	2662.5
563.017	2672.5
563.229	2750.5
563.441	3174.5
563.653	2679.5
563.865	2454.5
564.077	2395.5
564.289	2370.5
564.501	2347.5
564.713	2336.5
564.925	2327.5
565.137	2339.5
565.349	2356.5
565.561	2361.5
565.773	2380.5
565.985	2380.5
566.197	2411.5
566.408	2471.5
566.62	2498.5
566.832	2594.5
567.044	2606.5
567.255	2598.5
567.467	2615.5
567.679	2659.5
567.891	2796.5
568.102	3104.5
568.314	3562.5
568.526	3102.5
568.737	2694.5
568.949	2489.5
569.161	2350.5
569.372	2228.5
569.584	2182.5
569.795	2136.5
570.007	2123.5
570.218	2144.5
570.43	2219.5
570.641	2061.5
570.853	1984.5
571.064	1930.5
571.276	1897.5
571.487	1946.5
571.698	1870.5
571.91	1858.5
572.121	1856.5
572.333	1821.5
572.544	1880.5
572.755	1994.5
572.966	2306.5
573.178	2113.5
573.389	1860.5
573.6	1817.5
573.811	1763.5
574.023	1776.5
574.234	1754.5
574.445	1731.5
574.656	1686.5
574.867	1722.5
575.078	1702.5
575.289	1694.5
575.501	1713.5
575.712	1702.5
575.923	1666.5
576.134	1689.5
576.345	1695.5
576.556	1687.5
576.767	1695.5
576.978	1705.5
577.188	1721.5
577.399	1703.5
577.61	1743.5
577.821	1762.5
578.032	1817.5
578.243	1783.5
578.454	1850.5
578.665	1873.5
578.875	1910.5
579.086	1995.5
579.297	2092.5
579.508	2225.5
579.718	2420.5
579.929	2798.5
580.14	3288.5
580.35	3384.5
580.561	2986.5
580.772	2718.5
580.982	2496.5
581.193	2286.5
581.403	2232.5
581.614	2126.5
581.825	2024.5
582.035	1923.5
582.246	1892.5
582.456	1853.5
582.667	1814.5
582.877	1812.5
583.087	1707.5
583.298	1620.5
583.508	1636.5
583.719	1587.5
583.929	1574.5
584.139	1484.5
584.35	1499.5
584.56	1486.5
584.77	1426.5
584.981	1436.5
585.191	1427.5
585.401	1401.5
585.611	1409.5
585.821	1340.5
586.032	1352.5
586.242	1328.5
586.452	1313.5
586.662	1311.5
586.872	1322.5
587.082	1287.5
587.292	1280.5
587.502	1265.5
587.713	1274.5
587.923	1257.5
588.133	1238.5
588.343	1241.5
588.553	1204.5
588.762	1207.5
588.972	1224.5
589.182	1252.5
589.392	1213.5
589.602	1203.5
589.812	1183.5
590.022	1166.5
590.232	1192.5
590.441	1188.5
590.651	1176.5
590.861	1135.5
591.071	1154.5
591.281	1194.5
591.49	1158.5
591.7	1190.5
591.91	1176.5
592.119	1153.5
592.329	1190.5
592.539	1184.5
592.748	1182.5
592.958	1233.5
593.167	1176.5
593.377	1208.5
593.587	1202.5
593.796	1229.5
594.006	1208.5
594.215	1224.5
594.424	1202.5
594.634	1157.5
594.843	1176.5
595.053	1182.5
595.262	1149.5
595.472	1145.5
595.681	1134.5
595.89	1109.5
596.1	1076.5
596.309	1061.5
596.518	1065.5
596.727	1050.5
596.937	1029.5
597.146	1035.5
597.355	1023.5
597.564	1006.5
597.774	995.5
597.983	980.5
598.192	999.5
598.401	970.5
598.61	964.5
598.819	959.5
599.028	950.5
599.237	933.5
599.446	973.5
599.655	947.5
599.864	950.5
600.073	944.5
600.282	928.5
600.491	926.5
600.7	924.5
600.909	929.5
601.118	936.5
601.327	938.5
601.536	935.5
601.745	976.5
601.953	1074.5
602.162	1206.5
602.371	1032.5
602.58	980.5
602.789	963.5
602.997	938.5
603.206	916.5
603.415	937.5
603.623	923.5
603.832	917.5
604.041	916.5
604.249	872.5
604.458	893.5
604.666	884.5
604.875	874.5
605.084	875.5
605.292	858.5
605.501	898.5
605.709	890.5
605.918	905.5
606.126	879.5
606.334	922.5
606.543	931.5
606.751	988.5
606.96	1134.5
607.168	1220.5
607.376	1074.5
607.585	961.5
607.793	915.5
608.001	890.5
608.21	873.5
608.418	903.5
608.626	854.5
608.834	846.5
609.043	858.5
609.251	847.5
609.459	814.5
609.667	853.5
609.875	844.5
610.083	825.5
610.291	827.5
610.499	820.5
610.707	817.5
610.916	842.5
611.124	813.5
611.332	809.5
611.54	803.5
611.748	813.5
611.955	827.5
612.163	813.5
612.371	789.5
612.579	790.5
612.787	798.5
612.995	800.5
613.203	819.5
613.411	771.5
613.618	772.5
613.826	756.5
614.034	776.5
614.242	790.5
614.449	771.5
614.657	798.5
614.865	773.5
615.072	781.5
615.28	833.5
615.488	794.5
615.695	789.5
615.903	772.5
616.111	777.5
616.318	791.5
616.526	764.5
616.733	791.5
616.941	759.5
617.148	787.5
617.356	754.5
617.563	770.5
617.771	746.5
617.978	750.5
618.185	734.5
618.393	734.5
618.6	743.5
618.807	744.5
619.015	729.5
619.222	763.5
619.429	715.5
619.637	734.5
619.844	716.5
620.051	703.5
620.258	711.5
620.466	692.5
620.673	669.5
620.88	682.5
621.087	681.5
621.294	693.5
621.501	711.5
621.708	676.5
621.915	712.5
622.122	694.5
622.329	707.5
622.536	704.5
622.743	692.5
622.95	690.5
623.157	688.5
623.364	697.5
623.571	658.5
623.778	657.5
623.985	707.5
624.192	664.5
624.399	663.5
624.606	668.5
624.812	668.5
625.019	677.5
625.226	658.5
625.433	648.5
625.639	660.5
625.846	623.5
626.053	650.5
626.259	630.5
626.466	628.5
626.673	630.5
626.879	625.5
627.086	625.5
627.293	612.5
627.499	629.5
627.706	609.5
627.912	617.5
628.119	652.5
628.325	618.5
628.532	634.5
628.738	636.5
628.945	619.5
629.151	609.5
629.357	622.5
629.564	610.5
629.77	618.5
629.976	605.5
630.183	602.5
630.389	626.5
630.595	586.5
630.802	594.5
631.008	593.5
631.214	607.5
631.42	591.5
631.627	604.5
631.833	586.5
632.039	602.5
632.245	571.5
632.451	614.5
632.657	611.5
632.863	585.5
633.069	586.5
633.275	590.5
633.481	584.5
633.688	561.5
633.893	577.5
634.099	565.5
634.305	595.5
634.511	574.5
634.717	573.5
634.923	605.5
635.129	662.5
635.335	755.5
635.541	678.5
635.747	616.5
635.952	575.5
636.158	576.5
636.364	616.5
636.57	578.5
636.775	593.5
636.981	555.5
637.187	575.5
637.392	602.5
637.598	587.5
637.804	593.5
638.009	568.5
638.215	576.5
638.421	556.5
638.626	571.5
638.832	612.5
639.037	578.5
639.243	594.5
639.448	602.5
639.654	581.5
639.859	607.5
640.065	599.5
640.27	614.5
640.475	640.5
640.681	611.5
640.886	609.5
641.091	627.5
641.297	606.5
641.502	614.5
641.707	624.5
641.913	624.5
642.118	662.5
642.323	681.5
642.528	660.5
642.733	690.5
642.939	705.5
643.144	715.5
643.349	752.5
643.554	780.5
643.759	835.5
643.964	822.5
644.169	916.5
644.374	957.5
644.579	1073.5
644.784	1158.5
644.989	1337.5
645.194	1591.5
645.399	1936.5
645.604	2119.5
645.809	1526.5
646.014	1160.5
646.219	958.5
646.423	840.5
646.628	773.5
646.833	710.5
647.038	676.5
647.243	642.5
647.447	602.5
647.652	619.5
647.857	593.5
648.062	579.5
648.266	569.5
648.471	563.5
648.676	547.5
648.88	544.5
649.085	511.5
649.289	515.5
649.494	529.5
649.698	514.5
649.903	480.5
650.107	469.5
650.312	496.5
650.516	466.5
650.721	466.5
650.925	449.5
651.13	443.5
651.334	450.5
651.539	421.5
651.743	422.5
651.947	432.5
652.152	394.5
652.356	404.5
652.56	452.5
652.764	474.5
652.969	460.5
653.173	412.5
653.377	385.5
653.581	389.5
653.785	383.5
653.99	351.5
654.194	346.5
654.398	363.5
654.602	352.5
654.806	347.5
655.01	345.5
655.214	336.5
655.418	330.5
655.622	345.5
655.826	377.5
656.03	360.5
656.234	359.5
656.438	383.5
656.642	361.5
656.846	352.5
657.049	331.5
657.253	333.5
657.457	297.5
657.661	285.5
657.865	284.5
658.068	259.5
658.272	250.5
658.476	231.5
658.68	232.5
658.883	212.5
659.087	221.5
659.291	204.5
659.494	181.5
659.698	185.5
659.901	177.5
660.105	168.5
660.309	167.5
660.512	165.5
660.716	155.5
660.919	147.5
661.123	159.5
661.326	129.5
661.53	131.5
661.733	126.5
661.936	126.5
662.14	101.5
662.343	112.5
662.546	108.5
662.75	113.5
662.953	110.5
663.156	91.5
663.36	106.5
663.563	100.5
663.766	80.5
663.969	91.5
664.173	96.5
664.376	91.5
664.579	95.5
664.782	97.5
664.985	98.5
665.188	89.5
665.391	86.5
665.594	81.5
665.797	83.5
666	90.5
666.203	95.5
666.406	95.5
666.609	73.5
666.812	79.5
667.015	73.5
667.218	83.5
667.421	89.5
667.624	94.5
667.827	69.5
668.03	84.5
668.232	76.5
668.435	91.5
668.638	88.5
668.841	87.5
669.043	86.5
669.246	86.5
669.449	98.5
669.651	85.5
669.854	97.5
670.057	88.5
670.259	97.5
670.462	84.5
670.665	82.5
670.867	74.5
671.07	86.5
671.272	81.5
671.475	87.5
671.677	75.5
671.88	73.5
672.082	79.5
672.284	75.5
672.487	86.5
672.689	87.5
672.892	82.5
