Data from SnStandardFlinnAPT0064_LampEnergy10_LIBS07252019.E.O._I.C._HRD10591_15-21-19-493.txt Node
Date: Thu Jul 25 15:21:19 EDT 2019
User: cochatt
Spectrometer: HR+D1059
Trigger mode: 1
Integration Time (sec): 1.000000E-1
Scans to average: 1
Electric dark correction enabled: true
Nonlinearity correction enabled: false
Boxcar width: 0
XAxis mode: Wavelengths
Number of Pixels in Spectrum: 2048
>>>>>Begin Spectral Data<<<<<
223.165	0.88
223.4	0.88
223.635	0.88
223.869	-8.12
224.104	-4.12
224.338	-15.12
224.573	-28.12
224.808	-12.12
225.042	-0.12
225.277	-16.12
225.511	-10.12
225.746	-2.12
225.98	9.88
226.215	20.88
226.449	12.88
226.683	7.88
226.918	15.88
227.152	27.88
227.387	35.88
227.621	17.88
227.856	44.88
228.09	45.88
228.324	52.88
228.559	37.88
228.793	126.88
229.027	306.88
229.262	326.88
229.496	306.88
229.73	294.88
229.964	286.88
230.199	301.88
230.433	301.88
230.667	288.88
230.901	323.88
231.136	317.88
231.37	332.88
231.604	393.88
231.838	417.88
232.072	527.88
232.306	559.88
232.541	457.88
232.775	428.88
233.009	400.88
233.243	417.88
233.477	436.88
233.711	513.88
233.945	596.88
234.179	499.88
234.413	420.88
234.647	424.88
234.881	487.88
235.115	514.88
235.349	589.88
235.583	736.88
235.817	1006.88
236.051	949.88
236.285	646.88
236.519	528.88
236.753	487.88
236.987	514.88
237.221	532.88
237.455	508.88
237.689	451.88
237.922	456.88
238.156	477.88
238.39	500.88
238.624	494.88
238.858	507.88
239.091	487.88
239.325	476.88
239.559	499.88
239.793	500.88
240.027	535.88
240.26	550.88
240.494	550.88
240.728	563.88
240.961	587.88
241.195	630.88
241.429	657.88
241.662	707.88
241.896	773.88
242.13	918.88
242.363	1236.88
242.597	1602.88
242.83	1513.88
243.064	1537.88
243.298	1816.88
243.531	1475.88
243.765	956.88
243.998	748.88
244.232	689.88
244.465	659.88
244.699	652.88
244.932	630.88
245.166	658.88
245.399	681.88
245.633	664.88
245.866	672.88
246.099	667.88
246.333	649.88
246.566	619.88
246.8	644.88
247.033	628.88
247.266	632.88
247.5	672.88
247.733	659.88
247.966	670.88
248.2	783.88
248.433	851.88
248.666	999.88
248.899	932.88
249.133	866.88
249.366	846.88
249.599	968.88
249.832	1082.88
250.066	1095.88
250.299	863.88
250.532	791.88
250.765	778.88
250.998	752.88
251.231	723.88
251.465	731.88
251.698	739.88
251.931	743.88
252.164	732.88
252.397	766.88
252.63	784.88
252.863	777.88
253.096	782.88
253.329	762.88
253.562	741.88
253.795	779.88
254.028	795.88
254.261	807.88
254.494	891.88
254.727	979.88
254.96	1236.88
255.193	1201.88
255.426	945.88
255.659	873.88
255.892	914.88
256.124	862.88
256.357	867.88
256.59	906.88
256.823	964.88
257.056	1142.88
257.289	1336.88
257.521	1483.88
257.754	1156.88
257.987	976.88
258.22	900.88
258.452	938.88
258.685	929.88
258.918	942.88
259.151	1017.88
259.383	1080.88
259.616	1195.88
259.849	1256.88
260.081	1083.88
260.314	972.88
260.547	939.88
260.779	946.88
261.012	974.88
261.244	970.88
261.477	992.88
261.71	962.88
261.942	998.88
262.175	1044.88
262.407	1044.88
262.64	1071.88
262.872	1098.88
263.105	1129.88
263.337	1194.88
263.57	1268.88
263.802	1305.88
264.035	1315.88
264.267	1370.88
264.499	1374.88
264.732	1426.88
264.964	1458.88
265.197	1467.88
265.429	1442.88
265.661	1461.88
265.894	1578.88
266.126	1778.88
266.358	1922.88
266.591	1887.88
266.823	1621.88
267.055	1462.88
267.287	1403.88
267.52	1313.88
267.752	1311.88
267.984	1283.88
268.216	1283.88
268.448	1255.88
268.681	1243.88
268.913	1240.88
269.145	1241.88
269.377	1238.88
269.609	1244.88
269.841	1274.88
270.073	1352.88
270.306	1572.88
270.538	2161.88
270.77	3136.88
271.002	3860.88
271.234	2712.88
271.466	1857.88
271.698	1536.88
271.93	1380.88
272.162	1322.88
272.394	1286.88
272.626	1273.88
272.858	1196.88
273.09	1237.88
273.322	1206.88
273.553	1195.88
273.785	1174.88
274.017	1194.88
274.249	1225.88
274.481	1193.88
274.713	1226.88
274.945	1233.88
275.176	1205.88
275.408	1210.88
275.64	1225.88
275.872	1218.88
276.104	1262.88
276.335	1274.88
276.567	1296.88
276.799	1230.88
277.031	1318.88
277.262	1332.88
277.494	1364.88
277.726	1538.88
277.957	1812.88
278.189	2098.88
278.421	1961.88
278.652	1751.88
278.884	1667.88
279.115	1499.88
279.347	1412.88
279.579	1384.88
279.81	1403.88
280.042	1400.88
280.273	1390.88
280.505	1441.88
280.736	1470.88
280.968	1569.88
281.199	1769.88
281.431	2064.88
281.662	2112.88
281.894	1765.88
282.125	1628.88
282.356	1638.88
282.588	1668.88
282.819	1682.88
283.051	1827.88
283.282	1998.88
283.513	2430.88
283.745	3544.88
283.976	5570.88
284.207	7908.88
284.439	7124.88
284.67	4474.88
284.901	3665.88
285.132	3671.88
285.364	3455.88
285.595	2665.88
285.826	2416.88
286.057	2832.88
286.288	3816.88
286.52	5174.88
286.751	4752.88
286.982	2984.88
287.213	2294.88
287.444	1983.88
287.675	1868.88
287.906	1745.88
288.138	1707.88
288.369	1647.88
288.6	1672.88
288.831	1680.88
289.062	1660.88
289.293	1675.88
289.524	1687.88
289.755	1701.88
289.986	1712.88
290.217	1714.88
290.448	1712.88
290.679	1765.88
290.91	1759.88
291.141	1839.88
291.371	2039.88
291.602	2161.88
291.833	1946.88
292.064	1796.88
292.295	1696.88
292.526	1643.88
292.757	1650.88
292.987	1602.88
293.218	1574.88
293.449	1585.88
293.68	1577.88
293.91	1571.88
294.141	1564.88
294.372	1569.88
294.603	1546.88
294.833	1566.88
295.064	1577.88
295.295	1556.88
295.525	1528.88
295.756	1539.88
295.987	1548.88
296.217	1556.88
296.448	1574.88
296.679	1572.88
296.909	1571.88
297.14	1619.88
297.37	1628.88
297.601	1633.88
297.831	1623.88
298.062	1621.88
298.292	1619.88
298.523	1658.88
298.753	1724.88
298.984	1703.88
299.214	1721.88
299.445	1774.88
299.675	1761.88
299.905	1826.88
300.136	1947.88
300.366	2165.88
300.597	2710.88
300.827	3809.88
301.057	5101.88
301.288	5170.88
301.518	3281.88
301.748	2594.88
301.979	2311.88
302.209	2274.88
302.439	2311.88
302.669	2445.88
302.9	2917.88
303.13	4102.88
303.36	6092.88
303.59	8098.88
303.82	6994.88
304.051	4140.88
304.281	3010.88
304.511	2519.88
304.741	2336.88
304.971	2185.88
305.201	2093.88
305.431	2019.88
305.661	1960.88
305.891	1898.88
306.121	1877.88
306.352	1868.88
306.582	1824.88
306.812	1790.88
307.042	1822.88
307.272	1820.88
307.502	1814.88
307.731	1838.88
307.961	1805.88
308.191	1804.88
308.421	1815.88
308.651	1779.88
308.881	1771.88
309.111	1804.88
309.341	1793.88
309.571	1858.88
309.8	1857.88
310.03	1882.88
310.26	1874.88
310.49	1848.88
310.72	1866.88
310.949	1857.88
311.179	1899.88
311.409	1924.88
311.639	1930.88
311.868	1949.88
312.098	1913.88
312.328	1916.88
312.557	1987.88
312.787	1920.88
313.017	2003.88
313.246	1980.88
313.476	1984.88
313.706	2096.88
313.935	2185.88
314.165	2362.88
314.394	2444.88
314.624	2344.88
314.853	2156.88
315.083	2107.88
315.312	2178.88
315.542	2160.88
315.771	2206.88
316.001	2256.88
316.23	2306.88
316.46	2384.88
316.689	2674.88
316.919	3169.88
317.148	4518.88
317.377	6901.88
317.607	10331.88
317.836	10651.88
318.065	6473.88
318.295	4225.88
318.524	3379.88
318.753	2933.88
318.983	2734.88
319.212	2565.88
319.441	2478.88
319.67	2395.88
319.9	2383.88
320.129	2378.88
320.358	2362.88
320.587	2330.88
320.816	2334.88
321.046	2302.88
321.275	2321.88
321.504	2358.88
321.733	2409.88
321.962	2472.88
322.191	2578.88
322.42	2494.88
322.649	2475.88
322.878	2464.88
323.108	2488.88
323.337	2529.88
323.566	2519.88
323.795	2609.88
324.024	2674.88
324.253	2715.88
324.482	2827.88
324.71	2958.88
324.939	3137.88
325.168	3251.88
325.397	3334.88
325.626	3964.88
325.855	5513.88
326.084	8680.88
326.313	12506.88
326.542	13289.88
326.77	8995.88
326.999	5882.88
327.228	4982.88
327.457	4663.88
327.686	4844.88
327.914	5056.88
328.143	5877.88
328.372	7069.88
328.6	7759.88
328.829	6856.88
329.058	5717.88
329.287	5048.88
329.515	4538.88
329.744	4257.88
329.972	4098.88
330.201	3862.88
330.43	3723.88
330.658	3602.88
330.887	3529.88
331.115	3467.88
331.344	3491.88
331.572	3481.88
331.801	3510.88
332.03	3532.88
332.258	3545.88
332.486	3758.88
332.715	4241.88
332.943	5264.88
333.172	6535.88
333.4	6435.88
333.629	4960.88
333.857	4542.88
334.085	4448.88
334.314	4605.88
334.542	5125.88
334.771	6012.88
334.999	7344.88
335.227	9204.88
335.455	10346.88
335.684	9352.88
335.912	7640.88
336.14	6496.88
336.369	5691.88
336.597	5166.88
336.825	4786.88
337.053	4490.88
337.281	4215.88
337.51	4014.88
337.738	3878.88
337.966	3665.88
338.194	3568.88
338.422	3470.88
338.65	3411.88
338.878	3336.88
339.106	3234.88
339.334	3198.88
339.562	3145.88
339.79	3110.88
340.018	3082.88
340.246	3034.88
340.474	3039.88
340.702	2994.88
340.93	3040.88
341.158	2996.88
341.386	2992.88
341.614	2996.88
341.842	2910.88
342.07	2887.88
342.298	2783.88
342.526	2817.88
342.754	2752.88
342.981	2728.88
343.209	2681.88
343.437	2788.88
343.665	2826.88
343.893	2811.88
344.12	2825.88
344.348	2838.88
344.576	2746.88
344.804	2721.88
345.031	2632.88
345.259	2616.88
345.487	2561.88
345.714	2553.88
345.942	2579.88
346.17	2530.88
346.397	2524.88
346.625	2545.88
346.853	2535.88
347.08	2556.88
347.308	2538.88
347.535	2564.88
347.763	2504.88
347.99	2505.88
348.218	2504.88
348.445	2431.88
348.673	2419.88
348.9	2474.88
349.128	2454.88
349.355	2452.88
349.583	2475.88
349.81	2403.88
350.037	2368.88
350.265	2391.88
350.492	2423.88
350.72	2382.88
350.947	2386.88
351.174	2433.88
351.402	2387.88
351.629	2375.88
351.856	2407.88
352.083	2378.88
352.311	2361.88
352.538	2409.88
352.765	2377.88
352.992	2374.88
353.22	2363.88
353.447	2306.88
353.674	2388.88
353.901	2347.88
354.128	2458.88
354.355	2411.88
354.583	2399.88
354.81	2410.88
355.037	2384.88
355.264	2407.88
355.491	2436.88
355.718	2420.88
355.945	2463.88
356.172	2471.88
356.399	2500.88
356.626	2470.88
356.853	2523.88
357.08	2522.88
357.307	2531.88
357.534	2582.88
357.761	2570.88
357.988	2608.88
358.215	2586.88
358.441	2542.88
358.668	2546.88
358.895	2555.88
359.122	2547.88
359.349	2543.88
359.576	2546.88
359.802	2517.88
360.029	2525.88
360.256	2534.88
360.483	2524.88
360.709	2495.88
360.936	2560.88
361.163	2566.88
361.39	2537.88
361.616	2517.88
361.843	2583.88
362.07	2561.88
362.296	2566.88
362.523	2523.88
362.749	2588.88
362.976	2534.88
363.203	2549.88
363.429	2563.88
363.656	2588.88
363.882	2562.88
364.109	2561.88
364.335	2534.88
364.562	2523.88
364.788	2546.88
365.015	2568.88
365.241	2712.88
365.468	2815.88
365.694	2952.88
365.92	2828.88
366.147	2675.88
366.373	2597.88
366.599	2592.88
366.826	2575.88
367.052	2603.88
367.278	2647.88
367.505	2623.88
367.731	2636.88
367.957	2655.88
368.184	2619.88
368.41	2614.88
368.636	2641.88
368.862	2667.88
369.089	2658.88
369.315	2670.88
369.541	2625.88
369.767	2653.88
369.993	2635.88
370.219	2590.88
370.445	2616.88
370.672	2652.88
370.898	2708.88
371.124	2697.88
371.35	2752.88
371.576	2722.88
371.802	2732.88
372.028	2736.88
372.254	2732.88
372.48	2752.88
372.706	2818.88
372.932	2815.88
373.158	2788.88
373.384	2792.88
373.61	2779.88
373.835	2804.88
374.061	2818.88
374.287	2809.88
374.513	2864.88
374.739	2894.88
374.965	2882.88
375.191	2950.88
375.416	2869.88
375.642	2876.88
375.868	2832.88
376.094	2810.88
376.319	2831.88
376.545	2836.88
376.771	2790.88
376.997	2763.88
377.222	2733.88
377.448	2719.88
377.674	2737.88
377.899	2719.88
378.125	2719.88
378.35	2726.88
378.576	2782.88
378.802	2732.88
379.027	2778.88
379.253	2880.88
379.478	3046.88
379.704	3555.88
379.929	5111.88
380.155	7794.88
380.38	8463.88
380.606	5143.88
380.831	3665.88
381.057	3213.88
381.282	2966.88
381.507	2844.88
381.733	2790.88
381.958	2736.88
382.184	2746.88
382.409	2739.88
382.634	2694.88
382.86	2718.88
383.085	2653.88
383.31	2718.88
383.535	2662.88
383.761	2680.88
383.986	2727.88
384.211	2752.88
384.436	2795.88
384.662	2739.88
384.887	2802.88
385.112	2770.88
385.337	2780.88
385.562	2782.88
385.787	2751.88
386.013	2770.88
386.238	2787.88
386.463	2763.88
386.688	2762.88
386.913	2748.88
387.138	2722.88
387.363	2758.88
387.588	2748.88
387.813	2745.88
388.038	2721.88
388.263	2715.88
388.488	2740.88
388.713	2782.88
388.938	2787.88
389.163	2713.88
389.387	2798.88
389.612	2771.88
389.837	2729.88
390.062	2766.88
390.287	2820.88
390.512	2831.88
390.736	2798.88
390.961	2840.88
391.186	2865.88
391.411	2879.88
391.636	2908.88
391.86	2876.88
392.085	2928.88
392.31	2906.88
392.534	2899.88
392.759	2853.88
392.984	2805.88
393.208	2831.88
393.433	2795.88
393.658	2834.88
393.882	2805.88
394.107	2830.88
394.331	2822.88
394.556	2832.88
394.78	2808.88
395.005	2831.88
395.229	2787.88
395.454	2886.88
395.678	2905.88
395.903	2879.88
396.127	2874.88
396.352	2872.88
396.576	2822.88
396.801	2855.88
397.025	2939.88
397.249	2880.88
397.474	2894.88
397.698	2921.88
397.922	2908.88
398.147	2915.88
398.371	2971.88
398.595	3029.88
398.82	3055.88
399.044	3242.88
399.268	3334.88
399.492	3541.88
399.717	3627.88
399.941	3624.88
400.165	3544.88
400.389	3368.88
400.613	3236.88
400.837	3194.88
401.062	3111.88
401.286	3118.88
401.51	3072.88
401.734	3030.88
401.958	3090.88
402.182	3052.88
402.406	3087.88
402.63	3069.88
402.854	3092.88
403.078	3154.88
403.302	3142.88
403.526	3180.88
403.75	3194.88
403.974	3192.88
404.198	3128.88
404.422	3194.88
404.645	3227.88
404.869	3162.88
405.093	3166.88
405.317	3173.88
405.541	3173.88
405.765	3252.88
405.988	3266.88
406.212	3243.88
406.436	3220.88
406.66	3284.88
406.883	3303.88
407.107	3369.88
407.331	3391.88
407.555	3462.88
407.778	3476.88
408.002	3401.88
408.226	3411.88
408.449	3405.88
408.673	3335.88
408.896	3247.88
409.12	3216.88
409.344	3229.88
409.567	3199.88
409.791	3219.88
410.014	3142.88
410.238	3152.88
410.461	3158.88
410.685	3148.88
410.908	3146.88
411.132	3133.88
411.355	3050.88
411.578	3108.88
411.802	3042.88
412.025	3062.88
412.249	3076.88
412.472	3114.88
412.695	3045.88
412.919	2987.88
413.142	3024.88
413.365	2950.88
413.589	2962.88
413.812	2962.88
414.035	2994.88
414.258	2940.88
414.482	2988.88
414.705	3008.88
414.928	2974.88
415.151	2954.88
415.374	2999.88
415.597	2957.88
415.821	2887.88
416.044	2850.88
416.267	2848.88
416.49	2870.88
416.713	2828.88
416.936	2869.88
417.159	2885.88
417.382	2852.88
417.605	2798.88
417.828	2839.88
418.051	2910.88
418.274	2868.88
418.497	2859.88
418.72	2982.88
418.943	2877.88
419.166	3060.88
419.389	3233.88
419.611	3147.88
419.834	3080.88
420.057	2990.88
420.28	2913.88
420.503	2902.88
420.726	2834.88
420.948	2835.88
421.171	2847.88
421.394	2879.88
421.617	2860.88
421.839	2870.88
422.062	2885.88
422.285	2794.88
422.507	2951.88
422.73	2896.88
422.953	2940.88
423.175	2939.88
423.398	2934.88
423.621	2899.88
423.843	2909.88
424.066	2894.88
424.288	2867.88
424.511	2849.88
424.733	2844.88
424.956	2841.88
425.178	2813.88
425.401	2821.88
425.623	2834.88
425.846	2823.88
426.068	2779.88
426.291	2761.88
426.513	2776.88
426.735	2727.88
426.958	2714.88
427.18	2729.88
427.402	2734.88
427.625	2738.88
427.847	2686.88
428.069	2619.88
428.292	2655.88
428.514	2649.88
428.736	2718.88
428.958	2689.88
429.181	2619.88
429.403	2614.88
429.625	2640.88
429.847	2647.88
430.069	2726.88
430.292	2790.88
430.514	2862.88
430.736	2849.88
430.958	2739.88
431.18	2663.88
431.402	2635.88
431.624	2600.88
431.846	2588.88
432.068	2633.88
432.29	2605.88
432.512	2606.88
432.734	2653.88
432.956	2614.88
433.178	2624.88
433.4	2634.88
433.622	2626.88
433.844	2680.88
434.066	2657.88
434.287	2640.88
434.509	2724.88
434.731	2710.88
434.953	2769.88
435.175	2753.88
435.397	2776.88
435.618	2702.88
435.84	2635.88
436.062	2560.88
436.284	2666.88
436.505	2601.88
436.727	2603.88
436.949	2595.88
437.17	2628.88
437.392	2584.88
437.614	2548.88
437.835	2481.88
438.057	2502.88
438.278	2526.88
438.5	2546.88
438.721	2566.88
438.943	2693.88
439.165	2699.88
439.386	2713.88
439.608	2713.88
439.829	2716.88
440.05	2800.88
440.272	2849.88
440.493	2726.88
440.715	2722.88
440.936	2704.88
441.158	2760.88
441.379	2742.88
441.6	2890.88
441.822	2946.88
442.043	3081.88
442.264	3122.88
442.486	3013.88
442.707	2904.88
442.928	2862.88
443.149	2847.88
443.371	2818.88
443.592	2810.88
443.813	2844.88
444.034	2806.88
444.255	2878.88
444.476	2941.88
444.698	2993.88
444.919	3029.88
445.14	3055.88
445.361	2992.88
445.582	2880.88
445.803	2796.88
446.024	2873.88
446.245	2777.88
446.466	2775.88
446.687	2743.88
446.908	2753.88
447.129	2654.88
447.35	2674.88
447.571	2601.88
447.792	2577.88
448.013	2641.88
448.234	2572.88
448.455	2576.88
448.675	2613.88
448.896	2661.88
449.117	2773.88
449.338	2909.88
449.559	3098.88
449.779	2826.88
450	2600.88
450.221	2578.88
450.442	2523.88
450.662	2489.88
450.883	2516.88
451.104	2545.88
451.324	2525.88
451.545	2509.88
451.766	2547.88
451.986	2572.88
452.207	2850.88
452.428	3593.88
452.648	5388.88
452.869	4483.88
453.089	3138.88
453.31	2960.88
453.53	2953.88
453.751	3037.88
453.971	3158.88
454.192	3080.88
454.412	2731.88
454.633	2548.88
454.853	2523.88
455.073	2450.88
455.294	2426.88
455.514	2435.88
455.734	2418.88
455.955	2354.88
456.175	2396.88
456.395	2420.88
456.616	2422.88
456.836	2475.88
457.056	2508.88
457.276	2456.88
457.497	2552.88
457.717	2651.88
457.937	2602.88
458.157	2536.88
458.377	2524.88
458.598	2569.88
458.818	2621.88
459.038	2656.88
459.258	2593.88
459.478	2649.88
459.698	2657.88
459.918	2707.88
460.138	2699.88
460.358	2827.88
460.578	2873.88
460.798	2857.88
461.018	2854.88
461.238	2846.88
461.458	2922.88
461.678	2922.88
461.898	2967.88
462.118	2964.88
462.338	2994.88
462.558	3067.88
462.777	3112.88
462.997	3218.88
463.217	3346.88
463.437	3492.88
463.657	3604.88
463.876	3539.88
464.096	3347.88
464.316	3176.88
464.536	3135.88
464.755	3071.88
464.975	2999.88
465.195	2903.88
465.414	2853.88
465.634	2734.88
465.854	2704.88
466.073	2653.88
466.293	2678.88
466.512	2654.88
466.732	2692.88
466.951	2823.88
467.171	3039.88
467.391	2982.88
467.61	2714.88
467.829	2616.88
468.049	2596.88
468.268	2562.88
468.488	2584.88
468.707	2524.88
468.927	2593.88
469.146	2606.88
469.365	2609.88
469.585	2574.88
469.804	2664.88
470.023	2730.88
470.243	2694.88
470.462	2831.88
470.681	2989.88
470.901	3346.88
471.12	3775.88
471.339	3712.88
471.558	3136.88
471.777	2887.88
471.997	2772.88
472.216	2725.88
472.435	2638.88
472.654	2567.88
472.873	2570.88
473.092	2588.88
473.311	2584.88
473.53	2642.88
473.749	2697.88
473.968	2787.88
474.187	2615.88
474.406	2590.88
474.625	2598.88
474.844	2586.88
475.063	2555.88
475.282	2623.88
475.501	2584.88
475.72	2642.88
475.939	2644.88
476.158	2701.88
476.377	2742.88
476.596	2775.88
476.814	2716.88
477.033	2765.88
477.252	2759.88
477.471	2804.88
477.69	2866.88
477.908	2930.88
478.127	2995.88
478.346	2973.88
478.564	3000.88
478.783	2964.88
479.002	3028.88
479.22	3089.88
479.439	3107.88
479.658	3059.88
479.876	3096.88
480.095	3130.88
480.313	3212.88
480.532	3218.88
480.751	3232.88
480.969	3205.88
481.188	3155.88
481.406	3141.88
481.624	3155.88
481.843	3178.88
482.061	3187.88
482.28	3174.88
482.498	3147.88
482.717	3101.88
482.935	3150.88
483.153	3204.88
483.372	3256.88
483.59	3254.88
483.808	3334.88
484.027	3414.88
484.245	3551.88
484.463	4054.88
484.681	4472.88
484.9	4060.88
485.118	3814.88
485.336	3704.88
485.554	3865.88
485.772	3991.88
485.99	4562.88
486.209	4869.88
486.427	4114.88
486.645	3632.88
486.863	3518.88
487.081	3454.88
487.299	3404.88
487.517	3371.88
487.735	3409.88
487.953	3379.88
488.171	3334.88
488.389	3257.88
488.607	3324.88
488.825	3259.88
489.043	3228.88
489.261	3233.88
489.479	3238.88
489.696	3242.88
489.914	3281.88
490.132	3271.88
490.35	3290.88
490.568	3334.88
490.786	3326.88
491.003	3310.88
491.221	3401.88
491.439	3428.88
491.657	3331.88
491.874	3369.88
492.092	3439.88
492.31	3431.88
492.527	3404.88
492.745	3410.88
492.963	3388.88
493.18	3389.88
493.398	3409.88
493.615	3395.88
493.833	3400.88
494.05	3371.88
494.268	3418.88
494.485	3417.88
494.703	3420.88
494.92	3423.88
495.138	3477.88
495.355	3466.88
495.573	3478.88
495.79	3433.88
496.008	3434.88
496.225	3490.88
496.442	3568.88
496.66	3648.88
496.877	3866.88
497.094	3832.88
497.312	3696.88
497.529	3638.88
497.746	3744.88
497.963	3781.88
498.181	3841.88
498.398	3902.88
498.615	4060.88
498.832	4217.88
499.049	4421.88
499.267	4758.88
499.484	5088.88
499.701	5086.88
499.918	5169.88
500.135	5448.88
500.352	5736.88
500.569	5717.88
500.786	5670.88
501.003	5566.88
501.22	5269.88
501.437	4956.88
501.654	4741.88
501.871	4640.88
502.088	4428.88
502.305	4252.88
502.522	4062.88
502.739	4035.88
502.956	3859.88
503.172	3789.88
503.389	3680.88
503.606	3619.88
503.823	3608.88
504.04	3552.88
504.256	3568.88
504.473	3570.88
504.69	3556.88
504.907	3553.88
505.123	3385.88
505.34	3346.88
505.557	3327.88
505.773	3240.88
505.99	3184.88
506.207	3148.88
506.423	3101.88
506.64	3085.88
506.856	3055.88
507.073	3032.88
507.289	2987.88
507.506	2974.88
507.722	2983.88
507.939	3026.88
508.155	2967.88
508.372	2927.88
508.588	2931.88
508.805	2969.88
509.021	2974.88
509.238	2969.88
509.454	3129.88
509.67	3310.88
509.887	3137.88
510.103	3075.88
510.319	2952.88
510.536	2967.88
510.752	2915.88
510.968	2855.88
511.184	2881.88
511.401	2890.88
511.617	2863.88
511.833	2825.88
512.049	2820.88
512.265	2827.88
512.481	2892.88
512.698	2844.88
512.914	2892.88
513.13	2801.88
513.346	2791.88
513.562	2802.88
513.778	2821.88
513.994	2873.88
514.21	2975.88
514.426	3148.88
514.642	3232.88
514.858	3012.88
515.074	2912.88
515.29	2936.88
515.506	2880.88
515.721	2906.88
515.937	2917.88
516.153	2934.88
516.369	2952.88
516.585	2977.88
516.801	3088.88
517.016	3095.88
517.232	3158.88
517.448	3217.88
517.664	3264.88
517.879	3250.88
518.095	3244.88
518.311	3204.88
518.527	3155.88
518.742	3163.88
518.958	3158.88
519.173	3249.88
519.389	3096.88
519.605	2968.88
519.82	2931.88
520.036	2939.88
520.251	2837.88
520.467	2868.88
520.682	2820.88
520.898	2771.88
521.113	2780.88
521.329	2758.88
521.544	2730.88
521.76	2791.88
521.975	2815.88
522.19	2772.88
522.406	2764.88
522.621	2779.88
522.836	2734.88
523.052	2748.88
523.267	2690.88
523.482	2720.88
523.698	2708.88
523.913	2686.88
524.128	2690.88
524.343	2685.88
524.559	2684.88
524.774	2770.88
524.989	2711.88
525.204	2698.88
525.419	2708.88
525.634	2717.88
525.849	2726.88
526.064	2668.88
526.28	2731.88
526.495	2733.88
526.71	2720.88
526.925	2718.88
527.14	2662.88
527.355	2716.88
527.57	2730.88
527.785	2725.88
527.999	2720.88
528.214	2758.88
528.429	2791.88
528.644	2848.88
528.859	2846.88
529.074	2870.88
529.289	2918.88
529.503	2931.88
529.718	2891.88
529.933	2873.88
530.148	2893.88
530.363	2889.88
530.577	2876.88
530.792	2881.88
531.007	2903.88
531.221	2946.88
531.436	2916.88
531.651	2982.88
531.865	3007.88
532.08	3091.88
532.295	3166.88
532.509	3412.88
532.724	3412.88
532.938	3430.88
533.153	3512.88
533.367	3809.88
533.582	3968.88
533.796	3895.88
534.011	3775.88
534.225	3632.88
534.44	3484.88
534.654	3384.88
534.868	3315.88
535.083	3299.88
535.297	3233.88
535.511	3119.88
535.726	3142.88
535.94	3099.88
536.154	2994.88
536.369	2948.88
536.583	2945.88
536.797	2915.88
537.011	2869.88
537.225	2858.88
537.44	2804.88
537.654	2824.88
537.868	2772.88
538.082	2752.88
538.296	2650.88
538.51	2708.88
538.724	2718.88
538.938	2678.88
539.153	2662.88
539.367	2681.88
539.581	2596.88
539.795	2583.88
540.009	2576.88
540.222	2629.88
540.436	2656.88
540.65	2622.88
540.864	2617.88
541.078	2678.88
541.292	2846.88
541.506	3302.88
541.72	3448.88
541.934	2994.88
542.147	2844.88
542.361	2680.88
542.575	2647.88
542.789	2607.88
543.002	2573.88
543.216	2508.88
543.43	2478.88
543.644	2510.88
543.857	2479.88
544.071	2516.88
544.285	2514.88
544.498	2518.88
544.712	2533.88
544.925	2570.88
545.139	2568.88
545.352	2497.88
545.566	2536.88
545.779	2545.88
545.993	2544.88
546.206	2576.88
546.42	2565.88
546.633	2530.88
546.847	2527.88
547.06	2543.88
547.274	2526.88
547.487	2549.88
547.7	2543.88
547.914	2529.88
548.127	2542.88
548.34	2560.88
548.554	2532.88
548.767	2545.88
548.98	2558.88
549.193	2536.88
549.407	2537.88
549.62	2563.88
549.833	2581.88
550.046	2542.88
550.259	2494.88
550.473	2520.88
550.686	2529.88
550.899	2572.88
551.112	2531.88
551.325	2563.88
551.538	2574.88
551.751	2490.88
551.964	2570.88
552.177	2628.88
552.39	2652.88
552.603	2643.88
552.816	2703.88
553.029	2690.88
553.242	2760.88
553.455	2771.88
553.667	2809.88
553.88	2804.88
554.093	2808.88
554.306	2837.88
554.519	2888.88
554.732	2893.88
554.944	2990.88
555.157	3026.88
555.37	3134.88
555.583	3196.88
555.795	3424.88
556.008	3685.88
556.221	4090.88
556.433	4434.88
556.646	4418.88
556.859	4212.88
557.071	4014.88
557.284	3927.88
557.496	3791.88
557.709	3710.88
557.921	3658.88
558.134	3648.88
558.346	3708.88
558.559	3892.88
558.771	4046.88
558.984	4488.88
559.196	4850.88
559.409	4585.88
559.621	4198.88
559.833	3918.88
560.046	3710.88
560.258	3498.88
560.47	3314.88
560.683	3252.88
560.895	3102.88
561.107	3024.88
561.32	2942.88
561.532	2804.88
561.744	2762.88
561.956	2764.88
562.168	2707.88
562.381	2626.88
562.593	2680.88
562.805	2698.88
563.017	2674.88
563.229	2746.88
563.441	3177.88
563.653	2634.88
563.865	2516.88
564.077	2467.88
564.289	2414.88
564.501	2387.88
564.713	2393.88
564.925	2311.88
565.137	2373.88
565.349	2353.88
565.561	2351.88
565.773	2354.88
565.985	2409.88
566.197	2407.88
566.408	2417.88
566.62	2514.88
566.832	2641.88
567.044	2607.88
567.255	2592.88
567.467	2622.88
567.679	2676.88
567.891	2798.88
568.102	3058.88
568.314	3584.88
568.526	3117.88
568.737	2700.88
568.949	2485.88
569.161	2335.88
569.372	2254.88
569.584	2211.88
569.795	2107.88
570.007	2116.88
570.218	2179.88
570.43	2245.88
570.641	2073.88
570.853	2005.88
571.064	2016.88
571.276	1945.88
571.487	1911.88
571.698	1876.88
571.91	1840.88
572.121	1840.88
572.333	1871.88
572.544	1892.88
572.755	1963.88
572.966	2293.88
573.178	2128.88
573.389	1879.88
573.6	1799.88
573.811	1792.88
574.023	1726.88
574.234	1745.88
574.445	1744.88
574.656	1695.88
574.867	1670.88
575.078	1720.88
575.289	1722.88
575.501	1713.88
575.712	1657.88
575.923	1710.88
576.134	1688.88
576.345	1703.88
576.556	1724.88
576.767	1712.88
576.978	1687.88
577.188	1706.88
577.399	1740.88
577.61	1754.88
577.821	1735.88
578.032	1776.88
578.243	1815.88
578.454	1850.88
578.665	1875.88
578.875	1929.88
579.086	1972.88
579.297	2071.88
579.508	2142.88
579.718	2426.88
579.929	2756.88
580.14	3266.88
580.35	3333.88
580.561	2980.88
580.772	2708.88
580.982	2513.88
581.193	2361.88
581.403	2206.88
581.614	2103.88
581.825	2028.88
582.035	1962.88
582.246	1904.88
582.456	1801.88
582.667	1771.88
582.877	1774.88
583.087	1730.88
583.298	1626.88
583.508	1611.88
583.719	1567.88
583.929	1556.88
584.139	1484.88
584.35	1475.88
584.56	1507.88
584.77	1447.88
584.981	1433.88
585.191	1418.88
585.401	1385.88
585.611	1369.88
585.821	1340.88
586.032	1344.88
586.242	1355.88
586.452	1342.88
586.662	1291.88
586.872	1290.88
587.082	1308.88
587.292	1288.88
587.502	1280.88
587.713	1273.88
587.923	1227.88
588.133	1231.88
588.343	1205.88
588.553	1252.88
588.762	1220.88
588.972	1191.88
589.182	1228.88
589.392	1221.88
589.602	1174.88
589.812	1207.88
590.022	1165.88
590.232	1142.88
590.441	1182.88
590.651	1210.88
590.861	1176.88
591.071	1155.88
591.281	1196.88
591.49	1188.88
591.7	1159.88
591.91	1176.88
592.119	1202.88
592.329	1154.88
592.539	1187.88
592.748	1201.88
592.958	1219.88
593.167	1223.88
593.377	1225.88
593.587	1232.88
593.796	1227.88
594.006	1246.88
594.215	1226.88
594.424	1225.88
594.634	1204.88
594.843	1155.88
595.053	1178.88
595.262	1152.88
595.472	1152.88
595.681	1105.88
595.89	1059.88
596.1	1081.88
596.309	1095.88
596.518	1066.88
596.727	1040.88
596.937	1026.88
597.146	1047.88
597.355	1033.88
597.564	1000.88
597.774	1006.88
597.983	987.88
598.192	972.88
598.401	1000.88
598.61	980.88
598.819	997.88
599.028	977.88
599.237	975.88
599.446	965.88
599.655	935.88
599.864	945.88
600.073	932.88
600.282	942.88
600.491	942.88
600.7	974.88
600.909	938.88
601.118	924.88
601.327	930.88
601.536	948.88
601.745	965.88
601.953	1058.88
602.162	1163.88
602.371	1057.88
602.58	966.88
602.789	966.88
602.997	958.88
603.206	934.88
603.415	953.88
603.623	917.88
603.832	916.88
604.041	916.88
604.249	926.88
604.458	920.88
604.666	912.88
604.875	892.88
605.084	892.88
605.292	904.88
605.501	890.88
605.709	909.88
605.918	874.88
606.126	862.88
606.334	926.88
606.543	920.88
606.751	999.88
606.96	1104.88
607.168	1210.88
607.376	1040.88
607.585	998.88
607.793	935.88
608.001	922.88
608.21	895.88
608.418	898.88
608.626	891.88
608.834	870.88
609.043	838.88
609.251	856.88
609.459	845.88
609.667	872.88
609.875	856.88
610.083	830.88
610.291	836.88
610.499	829.88
610.707	810.88
610.916	846.88
611.124	810.88
611.332	834.88
611.54	809.88
611.748	809.88
611.955	808.88
612.163	812.88
612.371	814.88
612.579	800.88
612.787	792.88
612.995	804.88
613.203	774.88
613.411	765.88
613.618	789.88
613.826	792.88
614.034	809.88
614.242	806.88
614.449	787.88
614.657	793.88
614.865	768.88
615.072	826.88
615.28	809.88
615.488	792.88
615.695	778.88
615.903	805.88
616.111	802.88
616.318	793.88
616.526	777.88
616.733	761.88
616.941	775.88
617.148	780.88
617.356	769.88
617.563	755.88
617.771	763.88
617.978	765.88
618.185	767.88
618.393	738.88
618.6	747.88
618.807	737.88
619.015	757.88
619.222	738.88
619.429	727.88
619.637	739.88
619.844	719.88
620.051	727.88
620.258	719.88
620.466	731.88
620.673	709.88
620.88	710.88
621.087	671.88
621.294	688.88
621.501	683.88
621.708	694.88
621.915	699.88
622.122	682.88
622.329	715.88
622.536	703.88
622.743	678.88
622.95	685.88
623.157	664.88
623.364	727.88
623.571	699.88
623.778	689.88
623.985	666.88
624.192	681.88
624.399	661.88
624.606	698.88
624.812	668.88
625.019	649.88
625.226	649.88
625.433	646.88
625.639	642.88
625.846	644.88
626.053	651.88
626.259	642.88
626.466	624.88
626.673	632.88
626.879	623.88
627.086	630.88
627.293	649.88
627.499	643.88
627.706	654.88
627.912	641.88
628.119	626.88
628.325	642.88
628.532	623.88
628.738	630.88
628.945	634.88
629.151	618.88
629.357	628.88
629.564	604.88
629.77	616.88
629.976	611.88
630.183	611.88
630.389	604.88
630.595	617.88
630.802	589.88
631.008	576.88
631.214	590.88
631.42	594.88
631.627	593.88
631.833	575.88
632.039	579.88
632.245	588.88
632.451	585.88
632.657	595.88
632.863	574.88
633.069	579.88
633.275	591.88
633.481	581.88
633.688	550.88
633.893	594.88
634.099	594.88
634.305	590.88
634.511	611.88
634.717	607.88
634.923	624.88
635.129	703.88
635.335	758.88
635.541	690.88
635.747	624.88
635.952	609.88
636.158	582.88
636.364	594.88
636.57	573.88
636.775	569.88
636.981	602.88
637.187	587.88
637.392	575.88
637.598	606.88
637.804	587.88
638.009	577.88
638.215	583.88
638.421	579.88
638.626	580.88
638.832	591.88
639.037	591.88
639.243	582.88
639.448	593.88
639.654	600.88
639.859	578.88
640.065	582.88
640.27	603.88
640.475	620.88
640.681	614.88
640.886	600.88
641.091	627.88
641.297	647.88
641.502	650.88
641.707	619.88
641.913	640.88
642.118	667.88
642.323	660.88
642.528	680.88
642.733	698.88
642.939	718.88
643.144	715.88
643.349	759.88
643.554	761.88
643.759	785.88
643.964	823.88
644.169	896.88
644.374	939.88
644.579	1041.88
644.784	1127.88
644.989	1292.88
645.194	1536.88
645.399	1923.88
645.604	2040.88
645.809	1511.88
646.014	1129.88
646.219	934.88
646.423	824.88
646.628	791.88
646.833	700.88
647.038	694.88
647.243	626.88
647.447	607.88
647.652	616.88
647.857	595.88
648.062	583.88
648.266	559.88
648.471	563.88
648.676	547.88
648.88	551.88
649.085	538.88
649.289	530.88
649.494	501.88
649.698	482.88
649.903	502.88
650.107	485.88
650.312	468.88
650.516	464.88
650.721	468.88
650.925	444.88
651.13	439.88
651.334	443.88
651.539	432.88
651.743	424.88
651.947	415.88
652.152	415.88
652.356	434.88
652.56	450.88
652.764	506.88
652.969	456.88
653.173	415.88
653.377	384.88
653.581	387.88
653.785	378.88
653.99	363.88
654.194	352.88
654.398	353.88
654.602	348.88
654.806	356.88
655.01	359.88
655.214	345.88
655.418	354.88
655.622	355.88
655.826	357.88
656.03	362.88
656.234	358.88
656.438	373.88
656.642	374.88
656.846	356.88
657.049	344.88
657.253	333.88
657.457	314.88
657.661	289.88
657.865	271.88
658.068	264.88
658.272	272.88
658.476	232.88
658.68	235.88
658.883	199.88
659.087	224.88
659.291	198.88
659.494	187.88
659.698	184.88
659.901	166.88
660.105	178.88
660.309	154.88
660.512	154.88
660.716	156.88
660.919	143.88
661.123	149.88
661.326	138.88
661.53	138.88
661.733	131.88
661.936	128.88
662.14	125.88
662.343	124.88
662.546	120.88
662.75	104.88
662.953	107.88
663.156	100.88
663.36	97.88
663.563	101.88
663.766	94.88
663.969	85.88
664.173	100.88
664.376	104.88
664.579	87.88
664.782	90.88
664.985	88.88
665.188	77.88
665.391	91.88
665.594	90.88
665.797	85.88
666	78.88
666.203	84.88
666.406	90.88
666.609	91.88
666.812	103.88
667.015	89.88
667.218	87.88
667.421	97.88
667.624	89.88
667.827	90.88
668.03	94.88
668.232	92.88
668.435	97.88
668.638	90.88
668.841	84.88
669.043	96.88
669.246	80.88
669.449	67.88
669.651	70.88
669.854	74.88
670.057	84.88
670.259	87.88
670.462	84.88
670.665	90.88
670.867	88.88
671.07	82.88
671.272	87.88
671.475	92.88
671.677	83.88
671.88	80.88
672.082	92.88
672.284	83.88
672.487	69.88
672.689	90.88
672.892	82.88
