Data from SnStandardFlinnAPT0064_LampEnergy10_LIBS07252019.E.O._I.C._HRD10591_15-20-31-494.txt Node
Date: Thu Jul 25 15:20:31 EDT 2019
User: cochatt
Spectrometer: HR+D1059
Trigger mode: 1
Integration Time (sec): 1.000000E-1
Scans to average: 1
Electric dark correction enabled: true
Nonlinearity correction enabled: false
Boxcar width: 0
XAxis mode: Wavelengths
Number of Pixels in Spectrum: 2048
>>>>>Begin Spectral Data<<<<<
223.165	-5.5
223.4	-5.5
223.635	-5.5
223.869	-21.5
224.104	-25.5
224.338	-8.5
224.573	-22.5
224.808	-19.5
225.042	-20.5
225.277	-8.5
225.511	-9.5
225.746	4.5
225.98	13.5
226.215	11.5
226.449	25.5
226.683	23.5
226.918	25.5
227.152	37.5
227.387	33.5
227.621	42.5
227.856	44.5
228.09	36.5
228.324	62.5
228.559	62.5
228.793	127.5
229.027	319.5
229.262	348.5
229.496	297.5
229.73	304.5
229.964	313.5
230.199	303.5
230.433	313.5
230.667	328.5
230.901	333.5
231.136	327.5
231.37	352.5
231.604	402.5
231.838	454.5
232.072	571.5
232.306	568.5
232.541	497.5
232.775	418.5
233.009	431.5
233.243	425.5
233.477	466.5
233.711	530.5
233.945	592.5
234.179	533.5
234.413	458.5
234.647	453.5
234.881	457.5
235.115	530.5
235.349	641.5
235.583	777.5
235.817	1038.5
236.051	1030.5
236.285	668.5
236.519	534.5
236.753	518.5
236.987	514.5
237.221	537.5
237.455	515.5
237.689	475.5
237.922	482.5
238.156	483.5
238.39	497.5
238.624	482.5
238.858	491.5
239.091	497.5
239.325	504.5
239.559	520.5
239.793	556.5
240.027	525.5
240.26	556.5
240.494	553.5
240.728	583.5
240.961	621.5
241.195	675.5
241.429	690.5
241.662	705.5
241.896	788.5
242.13	984.5
242.363	1291.5
242.597	1693.5
242.83	1630.5
243.064	1572.5
243.298	1877.5
243.531	1579.5
243.765	959.5
243.998	790.5
244.232	713.5
244.465	689.5
244.699	665.5
244.932	674.5
245.166	681.5
245.399	674.5
245.633	683.5
245.866	697.5
246.099	694.5
246.333	660.5
246.566	671.5
246.8	635.5
247.033	656.5
247.266	639.5
247.5	649.5
247.733	687.5
247.966	726.5
248.2	802.5
248.433	919.5
248.666	1025.5
248.899	951.5
249.133	867.5
249.366	879.5
249.599	1007.5
249.832	1133.5
250.066	1109.5
250.299	890.5
250.532	778.5
250.765	748.5
250.998	762.5
251.231	739.5
251.465	733.5
251.698	741.5
251.931	768.5
252.164	756.5
252.397	788.5
252.63	797.5
252.863	807.5
253.096	795.5
253.329	780.5
253.562	785.5
253.795	783.5
254.028	837.5
254.261	825.5
254.494	900.5
254.727	1041.5
254.96	1254.5
255.193	1242.5
255.426	969.5
255.659	883.5
255.892	853.5
256.124	887.5
256.357	894.5
256.59	935.5
256.823	1007.5
257.056	1137.5
257.289	1385.5
257.521	1537.5
257.754	1227.5
257.987	1005.5
258.22	924.5
258.452	933.5
258.685	950.5
258.918	936.5
259.151	1014.5
259.383	1123.5
259.616	1230.5
259.849	1289.5
260.081	1136.5
260.314	1013.5
260.547	959.5
260.779	957.5
261.012	949.5
261.244	961.5
261.477	993.5
261.71	977.5
261.942	1003.5
262.175	1049.5
262.407	1047.5
262.64	1065.5
262.872	1107.5
263.105	1169.5
263.337	1209.5
263.57	1280.5
263.802	1319.5
264.035	1349.5
264.267	1348.5
264.499	1383.5
264.732	1436.5
264.964	1427.5
265.197	1455.5
265.429	1442.5
265.661	1481.5
265.894	1606.5
266.126	1777.5
266.358	2023.5
266.591	1943.5
266.823	1647.5
267.055	1416.5
267.287	1384.5
267.52	1351.5
267.752	1306.5
267.984	1288.5
268.216	1281.5
268.448	1266.5
268.681	1267.5
268.913	1234.5
269.145	1243.5
269.377	1253.5
269.609	1244.5
269.841	1305.5
270.073	1384.5
270.306	1640.5
270.538	2225.5
270.77	3301.5
271.002	4135.5
271.234	2874.5
271.466	1886.5
271.698	1537.5
271.93	1436.5
272.162	1405.5
272.394	1294.5
272.626	1266.5
272.858	1252.5
273.09	1209.5
273.322	1199.5
273.553	1220.5
273.785	1213.5
274.017	1216.5
274.249	1217.5
274.481	1193.5
274.713	1205.5
274.945	1203.5
275.176	1217.5
275.408	1213.5
275.64	1239.5
275.872	1232.5
276.104	1279.5
276.335	1298.5
276.567	1303.5
276.799	1282.5
277.031	1323.5
277.262	1353.5
277.494	1401.5
277.726	1583.5
277.957	1881.5
278.189	2187.5
278.421	2057.5
278.652	1763.5
278.884	1717.5
279.115	1512.5
279.347	1469.5
279.579	1372.5
279.81	1399.5
280.042	1441.5
280.273	1424.5
280.505	1459.5
280.736	1491.5
280.968	1622.5
281.199	1840.5
281.431	2063.5
281.662	2132.5
281.894	1804.5
282.125	1658.5
282.356	1652.5
282.588	1682.5
282.819	1739.5
283.051	1779.5
283.282	2057.5
283.513	2550.5
283.745	3719.5
283.976	5872.5
284.207	8276.5
284.439	7569.5
284.67	4633.5
284.901	3852.5
285.132	3882.5
285.364	3737.5
285.595	2788.5
285.826	2476.5
286.057	2911.5
286.288	4029.5
286.52	5497.5
286.751	5094.5
286.982	3143.5
287.213	2337.5
287.444	2045.5
287.675	1873.5
287.906	1780.5
288.138	1729.5
288.369	1718.5
288.6	1706.5
288.831	1687.5
289.062	1700.5
289.293	1687.5
289.524	1700.5
289.755	1709.5
289.986	1759.5
290.217	1704.5
290.448	1734.5
290.679	1740.5
290.91	1797.5
291.141	1917.5
291.371	2079.5
291.602	2171.5
291.833	1962.5
292.064	1780.5
292.295	1657.5
292.526	1675.5
292.757	1652.5
292.987	1606.5
293.218	1592.5
293.449	1635.5
293.68	1592.5
293.91	1564.5
294.141	1600.5
294.372	1549.5
294.603	1591.5
294.833	1569.5
295.064	1572.5
295.295	1605.5
295.525	1548.5
295.756	1539.5
295.987	1594.5
296.217	1618.5
296.448	1581.5
296.679	1583.5
296.909	1577.5
297.14	1602.5
297.37	1636.5
297.601	1643.5
297.831	1667.5
298.062	1635.5
298.292	1652.5
298.523	1676.5
298.753	1745.5
298.984	1698.5
299.214	1751.5
299.445	1745.5
299.675	1790.5
299.905	1864.5
300.136	1965.5
300.366	2236.5
300.597	2826.5
300.827	3935.5
301.057	5405.5
301.288	5463.5
301.518	3428.5
301.748	2676.5
301.979	2412.5
302.209	2347.5
302.439	2333.5
302.669	2522.5
302.9	3074.5
303.13	4332.5
303.36	6451.5
303.59	8537.5
303.82	7368.5
304.051	4390.5
304.281	3142.5
304.511	2607.5
304.741	2360.5
304.971	2230.5
305.201	2125.5
305.431	2018.5
305.661	1965.5
305.891	1942.5
306.121	1885.5
306.352	1876.5
306.582	1836.5
306.812	1816.5
307.042	1881.5
307.272	1826.5
307.502	1830.5
307.731	1883.5
307.961	1809.5
308.191	1825.5
308.421	1832.5
308.651	1816.5
308.881	1794.5
309.111	1794.5
309.341	1860.5
309.571	1830.5
309.8	1859.5
310.03	1904.5
310.26	1858.5
310.49	1831.5
310.72	1885.5
310.949	1903.5
311.179	1894.5
311.409	1932.5
311.639	1963.5
311.868	1931.5
312.098	1936.5
312.328	1964.5
312.557	1988.5
312.787	1949.5
313.017	1961.5
313.246	2011.5
313.476	2045.5
313.706	2109.5
313.935	2207.5
314.165	2410.5
314.394	2495.5
314.624	2361.5
314.853	2167.5
315.083	2117.5
315.312	2153.5
315.542	2189.5
315.771	2181.5
316.001	2286.5
316.23	2378.5
316.46	2440.5
316.689	2709.5
316.919	3273.5
317.148	4773.5
317.377	7295.5
317.607	10777.5
317.836	11208.5
318.065	6789.5
318.295	4330.5
318.524	3523.5
318.753	2977.5
318.983	2835.5
319.212	2627.5
319.441	2523.5
319.67	2461.5
319.9	2426.5
320.129	2410.5
320.358	2390.5
320.587	2337.5
320.816	2349.5
321.046	2355.5
321.275	2377.5
321.504	2399.5
321.733	2445.5
321.962	2532.5
322.191	2566.5
322.42	2532.5
322.649	2481.5
322.878	2507.5
323.108	2511.5
323.337	2562.5
323.566	2585.5
323.795	2643.5
324.024	2677.5
324.253	2743.5
324.482	2883.5
324.71	3032.5
324.939	3267.5
325.168	3327.5
325.397	3480.5
325.626	4134.5
325.855	5783.5
326.084	9008.5
326.313	13077.5
326.542	13817.5
326.77	9375.5
326.999	6147.5
327.228	5151.5
327.457	4871.5
327.686	4913.5
327.914	5250.5
328.143	6092.5
328.372	7371.5
328.6	8015.5
328.829	7131.5
329.058	6035.5
329.287	5177.5
329.515	4704.5
329.744	4416.5
329.972	4087.5
330.201	3942.5
330.43	3806.5
330.658	3734.5
330.887	3618.5
331.115	3553.5
331.344	3535.5
331.572	3532.5
331.801	3547.5
332.03	3507.5
332.258	3575.5
332.486	3846.5
332.715	4383.5
332.943	5466.5
333.172	6771.5
333.4	6771.5
333.629	5077.5
333.857	4540.5
334.085	4566.5
334.314	4789.5
334.542	5263.5
334.771	6220.5
334.999	7675.5
335.227	9609.5
335.455	10776.5
335.684	9592.5
335.912	7839.5
336.14	6568.5
336.369	5824.5
336.597	5320.5
336.825	4938.5
337.053	4570.5
337.281	4371.5
337.51	4055.5
337.738	3887.5
337.966	3747.5
338.194	3655.5
338.422	3517.5
338.65	3383.5
338.878	3364.5
339.106	3304.5
339.334	3185.5
339.562	3191.5
339.79	3113.5
340.018	3058.5
340.246	3061.5
340.474	3101.5
340.702	2988.5
340.93	3027.5
341.158	3057.5
341.386	3005.5
341.614	2970.5
341.842	2919.5
342.07	2860.5
342.298	2852.5
342.526	2767.5
342.754	2745.5
342.981	2788.5
343.209	2740.5
343.437	2762.5
343.665	2828.5
343.893	2809.5
344.12	2829.5
344.348	2788.5
344.576	2732.5
344.804	2737.5
345.031	2643.5
345.259	2618.5
345.487	2594.5
345.714	2588.5
345.942	2592.5
346.17	2571.5
346.397	2609.5
346.625	2503.5
346.853	2512.5
347.08	2535.5
347.308	2524.5
347.535	2534.5
347.763	2536.5
347.99	2495.5
348.218	2448.5
348.445	2490.5
348.673	2474.5
348.9	2479.5
349.128	2447.5
349.355	2438.5
349.583	2433.5
349.81	2457.5
350.037	2439.5
350.265	2425.5
350.492	2436.5
350.72	2432.5
350.947	2420.5
351.174	2375.5
351.402	2415.5
351.629	2373.5
351.856	2341.5
352.083	2376.5
352.311	2385.5
352.538	2367.5
352.765	2399.5
352.992	2429.5
353.22	2363.5
353.447	2365.5
353.674	2440.5
353.901	2387.5
354.128	2399.5
354.355	2386.5
354.583	2408.5
354.81	2410.5
355.037	2440.5
355.264	2443.5
355.491	2459.5
355.718	2459.5
355.945	2517.5
356.172	2507.5
356.399	2487.5
356.626	2501.5
356.853	2526.5
357.08	2546.5
357.307	2539.5
357.534	2590.5
357.761	2591.5
357.988	2618.5
358.215	2562.5
358.441	2585.5
358.668	2595.5
358.895	2608.5
359.122	2508.5
359.349	2516.5
359.576	2541.5
359.802	2543.5
360.029	2509.5
360.256	2600.5
360.483	2587.5
360.709	2568.5
360.936	2569.5
361.163	2535.5
361.39	2566.5
361.616	2607.5
361.843	2574.5
362.07	2555.5
362.296	2571.5
362.523	2563.5
362.749	2600.5
362.976	2554.5
363.203	2579.5
363.429	2520.5
363.656	2499.5
363.882	2559.5
364.109	2552.5
364.335	2544.5
364.562	2582.5
364.788	2550.5
365.015	2589.5
365.241	2645.5
365.468	2773.5
365.694	2934.5
365.92	2871.5
366.147	2657.5
366.373	2658.5
366.599	2613.5
366.826	2609.5
367.052	2604.5
367.278	2637.5
367.505	2635.5
367.731	2630.5
367.957	2608.5
368.184	2612.5
368.41	2719.5
368.636	2691.5
368.862	2707.5
369.089	2626.5
369.315	2641.5
369.541	2640.5
369.767	2658.5
369.993	2701.5
370.219	2664.5
370.445	2685.5
370.672	2645.5
370.898	2644.5
371.124	2679.5
371.35	2692.5
371.576	2741.5
371.802	2735.5
372.028	2752.5
372.254	2756.5
372.48	2756.5
372.706	2796.5
372.932	2817.5
373.158	2796.5
373.384	2815.5
373.61	2805.5
373.835	2852.5
374.061	2863.5
374.287	2840.5
374.513	2847.5
374.739	2883.5
374.965	2915.5
375.191	2916.5
375.416	2932.5
375.642	2831.5
375.868	2860.5
376.094	2854.5
376.319	2796.5
376.545	2777.5
376.771	2772.5
376.997	2771.5
377.222	2733.5
377.448	2675.5
377.674	2702.5
377.899	2775.5
378.125	2745.5
378.35	2788.5
378.576	2799.5
378.802	2801.5
379.027	2865.5
379.253	2910.5
379.478	3121.5
379.704	3620.5
379.929	5324.5
380.155	8202.5
380.38	8944.5
380.606	5479.5
380.831	3787.5
381.057	3275.5
381.282	3020.5
381.507	2891.5
381.733	2857.5
381.958	2800.5
382.184	2719.5
382.409	2739.5
382.634	2702.5
382.86	2739.5
383.085	2680.5
383.31	2700.5
383.535	2733.5
383.761	2682.5
383.986	2683.5
384.211	2801.5
384.436	2769.5
384.662	2747.5
384.887	2821.5
385.112	2746.5
385.337	2837.5
385.562	2808.5
385.787	2749.5
386.013	2805.5
386.238	2762.5
386.463	2743.5
386.688	2809.5
386.913	2746.5
387.138	2789.5
387.363	2731.5
387.588	2787.5
387.813	2759.5
388.038	2815.5
388.263	2755.5
388.488	2829.5
388.713	2721.5
388.938	2813.5
389.163	2756.5
389.387	2787.5
389.612	2827.5
389.837	2772.5
390.062	2790.5
390.287	2803.5
390.512	2781.5
390.736	2843.5
390.961	2867.5
391.186	2876.5
391.411	2920.5
391.636	2959.5
391.86	2935.5
392.085	2892.5
392.31	2908.5
392.534	2862.5
392.759	2831.5
392.984	2858.5
393.208	2879.5
393.433	2836.5
393.658	2833.5
393.882	2760.5
394.107	2753.5
394.331	2809.5
394.556	2795.5
394.78	2832.5
395.005	2849.5
395.229	2830.5
395.454	2877.5
395.678	2917.5
395.903	2893.5
396.127	2908.5
396.352	2858.5
396.576	2844.5
396.801	2807.5
397.025	2892.5
397.249	2965.5
397.474	2885.5
397.698	2914.5
397.922	2978.5
398.147	2984.5
398.371	3021.5
398.595	3043.5
398.82	3100.5
399.044	3220.5
399.268	3308.5
399.492	3546.5
399.717	3683.5
399.941	3690.5
400.165	3515.5
400.389	3397.5
400.613	3268.5
400.837	3153.5
401.062	3124.5
401.286	3023.5
401.51	3055.5
401.734	3043.5
401.958	3047.5
402.182	3055.5
402.406	3007.5
402.63	3027.5
402.854	3080.5
403.078	3121.5
403.302	3125.5
403.526	3133.5
403.75	3139.5
403.974	3157.5
404.198	3155.5
404.422	3196.5
404.645	3205.5
404.869	3149.5
405.093	3192.5
405.317	3223.5
405.541	3211.5
405.765	3227.5
405.988	3305.5
406.212	3274.5
406.436	3328.5
406.66	3295.5
406.883	3265.5
407.107	3394.5
407.331	3452.5
407.555	3483.5
407.778	3415.5
408.002	3408.5
408.226	3379.5
408.449	3425.5
408.673	3325.5
408.896	3275.5
409.12	3192.5
409.344	3175.5
409.567	3104.5
409.791	3178.5
410.014	3131.5
410.238	3147.5
410.461	3176.5
410.685	3126.5
410.908	3140.5
411.132	3128.5
411.355	3060.5
411.578	3100.5
411.802	3031.5
412.025	3007.5
412.249	3066.5
412.472	3021.5
412.695	3053.5
412.919	2998.5
413.142	3041.5
413.365	3007.5
413.589	3025.5
413.812	2979.5
414.035	3044.5
414.258	2978.5
414.482	2994.5
414.705	2997.5
414.928	2994.5
415.151	2943.5
415.374	2948.5
415.597	2934.5
415.821	2878.5
416.044	2847.5
416.267	2862.5
416.49	2910.5
416.713	2850.5
416.936	2885.5
417.159	2836.5
417.382	2832.5
417.605	2856.5
417.828	2807.5
418.051	2911.5
418.274	2936.5
418.497	2939.5
418.72	2970.5
418.943	2975.5
419.166	3061.5
419.389	3181.5
419.611	3199.5
419.834	3091.5
420.057	3015.5
420.28	2888.5
420.503	2885.5
420.726	2858.5
420.948	2879.5
421.171	2887.5
421.394	2872.5
421.617	2878.5
421.839	2913.5
422.062	2905.5
422.285	2827.5
422.507	2932.5
422.73	2923.5
422.953	2995.5
423.175	3015.5
423.398	2968.5
423.621	2887.5
423.843	2889.5
424.066	2938.5
424.288	2886.5
424.511	2892.5
424.733	2851.5
424.956	2869.5
425.178	2866.5
425.401	2790.5
425.623	2829.5
425.846	2784.5
426.068	2799.5
426.291	2785.5
426.513	2772.5
426.735	2786.5
426.958	2749.5
427.18	2659.5
427.402	2732.5
427.625	2715.5
427.847	2689.5
428.069	2672.5
428.292	2640.5
428.514	2657.5
428.736	2642.5
428.958	2706.5
429.181	2627.5
429.403	2611.5
429.625	2647.5
429.847	2647.5
430.069	2720.5
430.292	2788.5
430.514	2893.5
430.736	2915.5
430.958	2724.5
431.18	2627.5
431.402	2629.5
431.624	2647.5
431.846	2612.5
432.068	2625.5
432.29	2662.5
432.512	2559.5
432.734	2695.5
432.956	2640.5
433.178	2687.5
433.4	2681.5
433.622	2643.5
433.844	2683.5
434.066	2681.5
434.287	2672.5
434.509	2696.5
434.731	2761.5
434.953	2711.5
435.175	2721.5
435.397	2772.5
435.618	2710.5
435.84	2686.5
436.062	2595.5
436.284	2604.5
436.505	2608.5
436.727	2602.5
436.949	2633.5
437.17	2652.5
437.392	2625.5
437.614	2540.5
437.835	2518.5
438.057	2519.5
438.278	2551.5
438.5	2562.5
438.721	2604.5
438.943	2739.5
439.165	2771.5
439.386	2718.5
439.608	2782.5
439.829	2765.5
440.05	2873.5
440.272	2867.5
440.493	2771.5
440.715	2711.5
440.936	2772.5
441.158	2771.5
441.379	2773.5
441.6	2875.5
441.822	2948.5
442.043	3089.5
442.264	3223.5
442.486	2945.5
442.707	2900.5
442.928	2817.5
443.149	2847.5
443.371	2853.5
443.592	2859.5
443.813	2879.5
444.034	2877.5
444.255	2939.5
444.476	2941.5
444.698	2962.5
444.919	3044.5
445.14	3070.5
445.361	2953.5
445.582	2904.5
445.803	2819.5
446.024	2776.5
446.245	2789.5
446.466	2827.5
446.687	2747.5
446.908	2746.5
447.129	2716.5
447.35	2680.5
447.571	2623.5
447.792	2593.5
448.013	2603.5
448.234	2621.5
448.455	2629.5
448.675	2682.5
448.896	2735.5
449.117	2794.5
449.338	3014.5
449.559	3175.5
449.779	2780.5
450	2655.5
450.221	2529.5
450.442	2578.5
450.662	2585.5
450.883	2572.5
451.104	2536.5
451.324	2564.5
451.545	2551.5
451.766	2580.5
451.986	2615.5
452.207	2851.5
452.428	3652.5
452.648	5604.5
452.869	4687.5
453.089	3193.5
453.31	2988.5
453.53	2994.5
453.751	3084.5
453.971	3277.5
454.192	3155.5
454.412	2739.5
454.633	2586.5
454.853	2530.5
455.073	2541.5
455.294	2541.5
455.514	2424.5
455.734	2477.5
455.955	2424.5
456.175	2439.5
456.395	2436.5
456.616	2441.5
456.836	2452.5
457.056	2525.5
457.276	2477.5
457.497	2645.5
457.717	2653.5
457.937	2619.5
458.157	2584.5
458.377	2595.5
458.598	2623.5
458.818	2642.5
459.038	2619.5
459.258	2584.5
459.478	2636.5
459.698	2649.5
459.918	2669.5
460.138	2746.5
460.358	2843.5
460.578	2866.5
460.798	2891.5
461.018	2910.5
461.238	2896.5
461.458	2887.5
461.678	2853.5
461.898	3020.5
462.118	2991.5
462.338	3071.5
462.558	3071.5
462.777	3133.5
462.997	3307.5
463.217	3402.5
463.437	3555.5
463.657	3601.5
463.876	3599.5
464.096	3378.5
464.316	3163.5
464.536	3195.5
464.755	3061.5
464.975	3010.5
465.195	2957.5
465.414	2859.5
465.634	2804.5
465.854	2740.5
466.073	2702.5
466.293	2659.5
466.512	2660.5
466.732	2776.5
466.951	2870.5
467.171	3029.5
467.391	2977.5
467.61	2675.5
467.829	2641.5
468.049	2661.5
468.268	2585.5
468.488	2559.5
468.707	2537.5
468.927	2572.5
469.146	2538.5
469.365	2619.5
469.585	2645.5
469.804	2652.5
470.023	2783.5
470.243	2781.5
470.462	2886.5
470.681	2997.5
470.901	3355.5
471.12	3795.5
471.339	3854.5
471.558	3224.5
471.777	2905.5
471.997	2799.5
472.216	2685.5
472.435	2671.5
472.654	2624.5
472.873	2627.5
473.092	2595.5
473.311	2591.5
473.53	2628.5
473.749	2683.5
473.968	2859.5
474.187	2661.5
474.406	2585.5
474.625	2630.5
474.844	2615.5
475.063	2632.5
475.282	2647.5
475.501	2655.5
475.72	2642.5
475.939	2685.5
476.158	2719.5
476.377	2804.5
476.596	2777.5
476.814	2767.5
477.033	2765.5
477.252	2772.5
477.471	2804.5
477.69	2883.5
477.908	2909.5
478.127	2977.5
478.346	2987.5
478.564	2982.5
478.783	3049.5
479.002	3146.5
479.22	3087.5
479.439	3127.5
479.658	3078.5
479.876	3163.5
480.095	3132.5
480.313	3248.5
480.532	3308.5
480.751	3204.5
480.969	3171.5
481.188	3190.5
481.406	3174.5
481.624	3173.5
481.843	3203.5
482.061	3232.5
482.28	3117.5
482.498	3198.5
482.717	3146.5
482.935	3221.5
483.153	3262.5
483.372	3306.5
483.59	3329.5
483.808	3351.5
484.027	3452.5
484.245	3635.5
484.463	4197.5
484.681	4625.5
484.9	4201.5
485.118	3778.5
485.336	3781.5
485.554	3803.5
485.772	4064.5
485.99	4630.5
486.209	4911.5
486.427	4190.5
486.645	3707.5
486.863	3579.5
487.081	3504.5
487.299	3375.5
487.517	3412.5
487.735	3377.5
487.953	3402.5
488.171	3320.5
488.389	3336.5
488.607	3298.5
488.825	3242.5
489.043	3213.5
489.261	3251.5
489.479	3217.5
489.696	3258.5
489.914	3252.5
490.132	3296.5
490.35	3339.5
490.568	3290.5
490.786	3395.5
491.003	3372.5
491.221	3455.5
491.439	3433.5
491.657	3459.5
491.874	3398.5
492.092	3462.5
492.31	3498.5
492.527	3441.5
492.745	3471.5
492.963	3397.5
493.18	3406.5
493.398	3399.5
493.615	3393.5
493.833	3409.5
494.05	3392.5
494.268	3517.5
494.485	3442.5
494.703	3496.5
494.92	3467.5
495.138	3496.5
495.355	3464.5
495.573	3470.5
495.79	3492.5
496.008	3551.5
496.225	3571.5
496.442	3612.5
496.66	3713.5
496.877	3880.5
497.094	3849.5
497.312	3740.5
497.529	3708.5
497.746	3729.5
497.963	3803.5
498.181	3923.5
498.398	3971.5
498.615	4109.5
498.832	4236.5
499.049	4492.5
499.267	4819.5
499.484	5082.5
499.701	5111.5
499.918	5180.5
500.135	5479.5
500.352	5721.5
500.569	5795.5
500.786	5771.5
501.003	5528.5
501.22	5303.5
501.437	5003.5
501.654	4741.5
501.871	4565.5
502.088	4415.5
502.305	4209.5
502.522	4143.5
502.739	4034.5
502.956	3909.5
503.172	3848.5
503.389	3732.5
503.606	3690.5
503.823	3608.5
504.04	3594.5
504.256	3576.5
504.473	3573.5
504.69	3582.5
504.907	3493.5
505.123	3505.5
505.34	3338.5
505.557	3255.5
505.773	3221.5
505.99	3287.5
506.207	3151.5
506.423	3136.5
506.64	3150.5
506.856	3116.5
507.073	3091.5
507.289	3043.5
507.506	3026.5
507.722	3027.5
507.939	2989.5
508.155	2956.5
508.372	2947.5
508.588	2949.5
508.805	2955.5
509.021	3003.5
509.238	3042.5
509.454	3192.5
509.67	3407.5
509.887	3127.5
510.103	3023.5
510.319	3016.5
510.536	2907.5
510.752	2988.5
510.968	2957.5
511.184	2882.5
511.401	2854.5
511.617	2820.5
511.833	2853.5
512.049	2803.5
512.265	2827.5
512.481	2870.5
512.698	2825.5
512.914	2813.5
513.13	2791.5
513.346	2822.5
513.562	2863.5
513.778	2857.5
513.994	2931.5
514.21	2972.5
514.426	3200.5
514.642	3345.5
514.858	3024.5
515.074	2923.5
515.29	2973.5
515.506	2911.5
515.721	2949.5
515.937	2895.5
516.153	2956.5
516.369	2991.5
516.585	3008.5
516.801	3028.5
517.016	3058.5
517.232	3148.5
517.448	3159.5
517.664	3254.5
517.879	3193.5
518.095	3219.5
518.311	3245.5
518.527	3209.5
518.742	3169.5
518.958	3164.5
519.173	3253.5
519.389	3169.5
519.605	3039.5
519.82	2950.5
520.036	3000.5
520.251	2852.5
520.467	2853.5
520.682	2823.5
520.898	2755.5
521.113	2825.5
521.329	2786.5
521.544	2825.5
521.76	2771.5
521.975	2743.5
522.19	2722.5
522.406	2738.5
522.621	2747.5
522.836	2722.5
523.052	2685.5
523.267	2752.5
523.482	2746.5
523.698	2683.5
523.913	2753.5
524.128	2704.5
524.343	2719.5
524.559	2728.5
524.774	2707.5
524.989	2719.5
525.204	2738.5
525.419	2713.5
525.634	2735.5
525.849	2661.5
526.064	2687.5
526.28	2647.5
526.495	2697.5
526.71	2734.5
526.925	2735.5
527.14	2738.5
527.355	2715.5
527.57	2751.5
527.785	2767.5
527.999	2804.5
528.214	2775.5
528.429	2805.5
528.644	2867.5
528.859	2833.5
529.074	2880.5
529.289	2922.5
529.503	2945.5
529.718	2906.5
529.933	2927.5
530.148	2909.5
530.363	2896.5
530.577	2917.5
530.792	2922.5
531.007	2922.5
531.221	2961.5
531.436	3026.5
531.651	3027.5
531.865	3091.5
532.08	3180.5
532.295	3235.5
532.509	3405.5
532.724	3445.5
532.938	3493.5
533.153	3656.5
533.367	3864.5
533.582	4184.5
533.796	3988.5
534.011	3791.5
534.225	3733.5
534.44	3509.5
534.654	3486.5
534.868	3355.5
535.083	3347.5
535.297	3234.5
535.511	3155.5
535.726	3162.5
535.94	3123.5
536.154	3032.5
536.369	2999.5
536.583	2934.5
536.797	2915.5
537.011	2881.5
537.225	2893.5
537.44	2843.5
537.654	2844.5
537.868	2827.5
538.082	2759.5
538.296	2744.5
538.51	2760.5
538.724	2746.5
538.938	2768.5
539.153	2707.5
539.367	2739.5
539.581	2685.5
539.795	2648.5
540.009	2629.5
540.222	2612.5
540.436	2602.5
540.65	2635.5
540.864	2714.5
541.078	2733.5
541.292	2903.5
541.506	3364.5
541.72	3505.5
541.934	3032.5
542.147	2914.5
542.361	2785.5
542.575	2689.5
542.789	2637.5
543.002	2598.5
543.216	2585.5
543.43	2594.5
543.644	2579.5
543.857	2523.5
544.071	2577.5
544.285	2578.5
544.498	2592.5
544.712	2559.5
544.925	2567.5
545.139	2559.5
545.352	2539.5
545.566	2506.5
545.779	2543.5
545.993	2579.5
546.206	2565.5
546.42	2550.5
546.633	2581.5
546.847	2567.5
547.06	2563.5
547.274	2559.5
547.487	2498.5
547.7	2570.5
547.914	2584.5
548.127	2563.5
548.34	2600.5
548.554	2578.5
548.767	2576.5
548.98	2566.5
549.193	2540.5
549.407	2591.5
549.62	2568.5
549.833	2599.5
550.046	2574.5
550.259	2545.5
550.473	2574.5
550.686	2547.5
550.899	2533.5
551.112	2545.5
551.325	2533.5
551.538	2596.5
551.751	2548.5
551.964	2565.5
552.177	2545.5
552.39	2659.5
552.603	2694.5
552.816	2753.5
553.029	2754.5
553.242	2796.5
553.455	2873.5
553.667	2867.5
553.88	2869.5
554.093	2823.5
554.306	2899.5
554.519	2903.5
554.732	2996.5
554.944	2993.5
555.157	3104.5
555.37	3235.5
555.583	3329.5
555.795	3580.5
556.008	3799.5
556.221	4251.5
556.433	4567.5
556.646	4605.5
556.859	4401.5
557.071	4139.5
557.284	4063.5
557.496	3904.5
557.709	3907.5
557.921	3809.5
558.134	3769.5
558.346	3842.5
558.559	4028.5
558.771	4301.5
558.984	4635.5
559.196	5047.5
559.409	4790.5
559.621	4408.5
559.833	4068.5
560.046	3852.5
560.258	3623.5
560.47	3460.5
560.683	3317.5
560.895	3159.5
561.107	3064.5
561.32	2951.5
561.532	2877.5
561.744	2825.5
561.956	2815.5
562.168	2748.5
562.381	2700.5
562.593	2705.5
562.805	2678.5
563.017	2702.5
563.229	2823.5
563.441	3256.5
563.653	2702.5
563.865	2489.5
564.077	2508.5
564.289	2410.5
564.501	2360.5
564.713	2411.5
564.925	2400.5
565.137	2363.5
565.349	2334.5
565.561	2345.5
565.773	2409.5
565.985	2392.5
566.197	2432.5
566.408	2459.5
566.62	2563.5
566.832	2582.5
567.044	2624.5
567.255	2619.5
567.467	2656.5
567.679	2726.5
567.891	2877.5
568.102	3168.5
568.314	3597.5
568.526	3172.5
568.737	2740.5
568.949	2536.5
569.161	2364.5
569.372	2295.5
569.584	2227.5
569.795	2155.5
570.007	2192.5
570.218	2205.5
570.43	2272.5
570.641	2101.5
570.853	2035.5
571.064	2018.5
571.276	1982.5
571.487	1941.5
571.698	1933.5
571.91	1880.5
572.121	1872.5
572.333	1833.5
572.544	1908.5
572.755	1988.5
572.966	2386.5
573.178	2121.5
573.389	1924.5
573.6	1827.5
573.811	1789.5
574.023	1743.5
574.234	1763.5
574.445	1775.5
574.656	1731.5
574.867	1720.5
575.078	1729.5
575.289	1727.5
575.501	1717.5
575.712	1663.5
575.923	1741.5
576.134	1753.5
576.345	1725.5
576.556	1729.5
576.767	1692.5
576.978	1746.5
577.188	1756.5
577.399	1739.5
577.61	1737.5
577.821	1787.5
578.032	1799.5
578.243	1833.5
578.454	1873.5
578.665	1884.5
578.875	1932.5
579.086	2040.5
579.297	2157.5
579.508	2233.5
579.718	2521.5
579.929	2870.5
580.14	3379.5
580.35	3482.5
580.561	3160.5
580.772	2821.5
580.982	2591.5
581.193	2380.5
581.403	2251.5
581.614	2180.5
581.825	2058.5
582.035	1994.5
582.246	1888.5
582.456	1809.5
582.667	1797.5
582.877	1779.5
583.087	1720.5
583.298	1699.5
583.508	1611.5
583.719	1584.5
583.929	1603.5
584.139	1556.5
584.35	1533.5
584.56	1489.5
584.77	1473.5
584.981	1424.5
585.191	1441.5
585.401	1428.5
585.611	1378.5
585.821	1379.5
586.032	1354.5
586.242	1355.5
586.452	1352.5
586.662	1329.5
586.872	1338.5
587.082	1313.5
587.292	1329.5
587.502	1280.5
587.713	1267.5
587.923	1248.5
588.133	1255.5
588.343	1255.5
588.553	1238.5
588.762	1212.5
588.972	1217.5
589.182	1248.5
589.392	1235.5
589.602	1185.5
589.812	1210.5
590.022	1167.5
590.232	1184.5
590.441	1163.5
590.651	1189.5
590.861	1155.5
591.071	1210.5
591.281	1174.5
591.49	1196.5
591.7	1202.5
591.91	1218.5
592.119	1181.5
592.329	1197.5
592.539	1227.5
592.748	1173.5
592.958	1217.5
593.167	1209.5
593.377	1219.5
593.587	1236.5
593.796	1229.5
594.006	1248.5
594.215	1205.5
594.424	1218.5
594.634	1183.5
594.843	1183.5
595.053	1160.5
595.262	1143.5
595.472	1144.5
595.681	1089.5
595.89	1106.5
596.1	1085.5
596.309	1086.5
596.518	1078.5
596.727	1036.5
596.937	1051.5
597.146	1043.5
597.355	1053.5
597.564	1000.5
597.774	981.5
597.983	991.5
598.192	985.5
598.401	985.5
598.61	990.5
598.819	978.5
599.028	969.5
599.237	957.5
599.446	949.5
599.655	935.5
599.864	945.5
600.073	984.5
600.282	969.5
600.491	940.5
600.7	947.5
600.909	957.5
601.118	933.5
601.327	938.5
601.536	915.5
601.745	964.5
601.953	1071.5
602.162	1229.5
602.371	1075.5
602.58	1009.5
602.789	944.5
602.997	940.5
603.206	943.5
603.415	951.5
603.623	920.5
603.832	929.5
604.041	923.5
604.249	912.5
604.458	915.5
604.666	875.5
604.875	898.5
605.084	889.5
605.292	894.5
605.501	888.5
605.709	914.5
605.918	889.5
606.126	910.5
606.334	913.5
606.543	931.5
606.751	1024.5
606.96	1127.5
607.168	1258.5
607.376	1067.5
607.585	948.5
607.793	957.5
608.001	937.5
608.21	880.5
608.418	879.5
608.626	877.5
608.834	890.5
609.043	887.5
609.251	871.5
609.459	865.5
609.667	863.5
609.875	859.5
610.083	850.5
610.291	831.5
610.499	836.5
610.707	815.5
610.916	836.5
611.124	828.5
611.332	849.5
611.54	821.5
611.748	813.5
611.955	799.5
612.163	801.5
612.371	833.5
612.579	800.5
612.787	785.5
612.995	822.5
613.203	802.5
613.411	791.5
613.618	818.5
613.826	819.5
614.034	808.5
614.242	799.5
614.449	793.5
614.657	810.5
614.865	804.5
615.072	839.5
615.28	822.5
615.488	789.5
615.695	791.5
615.903	794.5
616.111	800.5
616.318	773.5
616.526	794.5
616.733	777.5
616.941	775.5
617.148	794.5
617.356	771.5
617.563	783.5
617.771	795.5
617.978	746.5
618.185	776.5
618.393	747.5
618.6	752.5
618.807	771.5
619.015	761.5
619.222	748.5
619.429	736.5
619.637	740.5
619.844	736.5
620.051	715.5
620.258	727.5
620.466	693.5
620.673	694.5
620.88	691.5
621.087	704.5
621.294	700.5
621.501	681.5
621.708	679.5
621.915	699.5
622.122	713.5
622.329	707.5
622.536	719.5
622.743	689.5
622.95	697.5
623.157	700.5
623.364	721.5
623.571	661.5
623.778	697.5
623.985	724.5
624.192	706.5
624.399	671.5
624.606	646.5
624.812	671.5
625.019	671.5
625.226	657.5
625.433	646.5
625.639	635.5
625.846	636.5
626.053	635.5
626.259	653.5
626.466	655.5
626.673	633.5
626.879	621.5
627.086	622.5
627.293	630.5
627.499	637.5
627.706	641.5
627.912	630.5
628.119	601.5
628.325	628.5
628.532	633.5
628.738	655.5
628.945	611.5
629.151	616.5
629.357	600.5
629.564	624.5
629.77	633.5
629.976	599.5
630.183	585.5
630.389	610.5
630.595	599.5
630.802	577.5
631.008	596.5
631.214	594.5
631.42	596.5
631.627	615.5
631.833	595.5
632.039	593.5
632.245	594.5
632.451	591.5
632.657	586.5
632.863	603.5
633.069	606.5
633.275	583.5
633.481	559.5
633.688	584.5
633.893	593.5
634.099	591.5
634.305	607.5
634.511	611.5
634.717	581.5
634.923	608.5
635.129	681.5
635.335	768.5
635.541	689.5
635.747	647.5
635.952	610.5
636.158	615.5
636.364	567.5
636.57	597.5
636.775	587.5
636.981	611.5
637.187	579.5
637.392	600.5
637.598	610.5
637.804	569.5
638.009	613.5
638.215	607.5
638.421	607.5
638.626	588.5
638.832	595.5
639.037	595.5
639.243	585.5
639.448	597.5
639.654	611.5
639.859	614.5
640.065	607.5
640.27	629.5
640.475	614.5
640.681	635.5
640.886	629.5
641.091	616.5
641.297	637.5
641.502	645.5
641.707	654.5
641.913	657.5
642.118	673.5
642.323	688.5
642.528	717.5
642.733	682.5
642.939	716.5
643.144	732.5
643.349	740.5
643.554	783.5
643.759	786.5
643.964	860.5
644.169	926.5
644.374	947.5
644.579	1089.5
644.784	1178.5
644.989	1335.5
645.194	1617.5
645.399	2039.5
645.604	2081.5
645.809	1546.5
646.014	1216.5
646.219	986.5
646.423	862.5
646.628	815.5
646.833	711.5
647.038	681.5
647.243	645.5
647.447	637.5
647.652	614.5
647.857	611.5
648.062	584.5
648.266	587.5
648.471	568.5
648.676	569.5
648.88	534.5
649.085	552.5
649.289	529.5
649.494	499.5
649.698	498.5
649.903	505.5
650.107	467.5
650.312	496.5
650.516	491.5
650.721	488.5
650.925	459.5
651.13	446.5
651.334	438.5
651.539	446.5
651.743	436.5
651.947	418.5
652.152	428.5
652.356	441.5
652.56	453.5
652.764	517.5
652.969	495.5
653.173	413.5
653.377	405.5
653.581	396.5
653.785	381.5
653.99	368.5
654.194	364.5
654.398	379.5
654.602	353.5
654.806	352.5
655.01	346.5
655.214	359.5
655.418	310.5
655.622	349.5
655.826	353.5
656.03	367.5
656.234	376.5
656.438	383.5
656.642	387.5
656.846	370.5
657.049	356.5
657.253	333.5
657.457	323.5
657.661	311.5
657.865	266.5
658.068	253.5
658.272	267.5
658.476	241.5
658.68	218.5
658.883	212.5
659.087	210.5
659.291	195.5
659.494	184.5
659.698	198.5
659.901	196.5
660.105	184.5
660.309	172.5
660.512	153.5
660.716	154.5
660.919	154.5
661.123	159.5
661.326	147.5
661.53	132.5
661.733	138.5
661.936	118.5
662.14	107.5
662.343	101.5
662.546	117.5
662.75	110.5
662.953	101.5
663.156	83.5
663.36	83.5
663.563	110.5
663.766	85.5
663.969	95.5
664.173	100.5
664.376	89.5
664.579	103.5
664.782	105.5
664.985	99.5
665.188	84.5
665.391	96.5
665.594	94.5
665.797	93.5
666	100.5
666.203	76.5
666.406	76.5
666.609	84.5
666.812	74.5
667.015	90.5
667.218	69.5
667.421	84.5
667.624	90.5
667.827	84.5
668.03	89.5
668.232	68.5
668.435	88.5
668.638	91.5
668.841	73.5
669.043	78.5
669.246	95.5
669.449	83.5
669.651	94.5
669.854	86.5
670.057	89.5
670.259	66.5
670.462	73.5
670.665	89.5
670.867	76.5
671.07	84.5
671.272	88.5
671.475	89.5
671.677	81.5
671.88	78.5
672.082	75.5
672.284	87.5
672.487	84.5
672.689	76.5
672.892	74.5
