Data from SnStandardFlinnAPT0064_LampEnergy10_LIBS07252019.E.O._I.C._HRD10591_15-19-45-493.txt Node
Date: Thu Jul 25 15:19:45 EDT 2019
User: cochatt
Spectrometer: HR+D1059
Trigger mode: 1
Integration Time (sec): 1.000000E-1
Scans to average: 1
Electric dark correction enabled: true
Nonlinearity correction enabled: false
Boxcar width: 0
XAxis mode: Wavelengths
Number of Pixels in Spectrum: 2048
>>>>>Begin Spectral Data<<<<<
223.165	-25.25
223.4	-25.25
223.635	-25.25
223.869	-21.25
224.104	-11.25
224.338	-6.25
224.573	-2.25
224.808	-15.25
225.042	-8.25
225.277	-4.25
225.511	9.75
225.746	5.75
225.98	7.75
226.215	0.75
226.449	0.75
226.683	19.75
226.918	25.75
227.152	23.75
227.387	27.75
227.621	38.75
227.856	41.75
228.09	50.75
228.324	58.75
228.559	51.75
228.793	130.75
229.027	353.75
229.262	354.75
229.496	306.75
229.73	306.75
229.964	296.75
230.199	309.75
230.433	306.75
230.667	320.75
230.901	315.75
231.136	327.75
231.37	354.75
231.604	376.75
231.838	442.75
232.072	546.75
232.306	586.75
232.541	472.75
232.775	420.75
233.009	436.75
233.243	423.75
233.477	463.75
233.711	539.75
233.945	608.75
234.179	530.75
234.413	456.75
234.647	472.75
234.881	505.75
235.115	524.75
235.349	634.75
235.583	798.75
235.817	1076.75
236.051	1041.75
236.285	678.75
236.519	566.75
236.753	533.75
236.987	526.75
237.221	547.75
237.455	514.75
237.689	470.75
237.922	471.75
238.156	487.75
238.39	501.75
238.624	535.75
238.858	516.75
239.091	510.75
239.325	519.75
239.559	522.75
239.793	520.75
240.027	537.75
240.26	586.75
240.494	583.75
240.728	580.75
240.961	649.75
241.195	690.75
241.429	712.75
241.662	743.75
241.896	804.75
242.13	988.75
242.363	1300.75
242.597	1710.75
242.83	1655.75
243.064	1640.75
243.298	1934.75
243.531	1595.75
243.765	1000.75
243.998	808.75
244.232	706.75
244.465	698.75
244.699	688.75
244.932	665.75
245.166	676.75
245.399	704.75
245.633	702.75
245.866	714.75
246.099	686.75
246.333	671.75
246.566	670.75
246.8	649.75
247.033	665.75
247.266	654.75
247.5	670.75
247.733	689.75
247.966	730.75
248.2	778.75
248.433	920.75
248.666	1040.75
248.899	1017.75
249.133	881.75
249.366	877.75
249.599	991.75
249.832	1130.75
250.066	1119.75
250.299	881.75
250.532	800.75
250.765	757.75
250.998	741.75
251.231	756.75
251.465	737.75
251.698	736.75
251.931	758.75
252.164	762.75
252.397	762.75
252.63	811.75
252.863	809.75
253.096	815.75
253.329	800.75
253.562	793.75
253.795	796.75
254.028	793.75
254.261	830.75
254.494	908.75
254.727	1052.75
254.96	1275.75
255.193	1270.75
255.426	1012.75
255.659	924.75
255.892	919.75
256.124	878.75
256.357	908.75
256.59	950.75
256.823	1032.75
257.056	1160.75
257.289	1371.75
257.521	1553.75
257.754	1223.75
257.987	986.75
258.22	959.75
258.452	923.75
258.685	955.75
258.918	1003.75
259.151	1035.75
259.383	1112.75
259.616	1295.75
259.849	1313.75
260.081	1147.75
260.314	1020.75
260.547	958.75
260.779	972.75
261.012	1002.75
261.244	995.75
261.477	994.75
261.71	959.75
261.942	999.75
262.175	1022.75
262.407	1030.75
262.64	1037.75
262.872	1102.75
263.105	1159.75
263.337	1239.75
263.57	1227.75
263.802	1304.75
264.035	1314.75
264.267	1341.75
264.499	1357.75
264.732	1414.75
264.964	1410.75
265.197	1423.75
265.429	1429.75
265.661	1443.75
265.894	1540.75
266.126	1758.75
266.358	1982.75
266.591	1946.75
266.823	1612.75
267.055	1486.75
267.287	1402.75
267.52	1351.75
267.752	1306.75
267.984	1261.75
268.216	1252.75
268.448	1255.75
268.681	1243.75
268.913	1226.75
269.145	1248.75
269.377	1246.75
269.609	1239.75
269.841	1330.75
270.073	1402.75
270.306	1635.75
270.538	2224.75
270.77	3342.75
271.002	4231.75
271.234	2970.75
271.466	1976.75
271.698	1618.75
271.93	1434.75
272.162	1380.75
272.394	1332.75
272.626	1300.75
272.858	1250.75
273.09	1208.75
273.322	1210.75
273.553	1225.75
273.785	1206.75
274.017	1202.75
274.249	1195.75
274.481	1217.75
274.713	1223.75
274.945	1231.75
275.176	1234.75
275.408	1232.75
275.64	1220.75
275.872	1250.75
276.104	1254.75
276.335	1257.75
276.567	1318.75
276.799	1304.75
277.031	1308.75
277.262	1339.75
277.494	1413.75
277.726	1603.75
277.957	1918.75
278.189	2194.75
278.421	2037.75
278.652	1820.75
278.884	1724.75
279.115	1520.75
279.347	1443.75
279.579	1425.75
279.81	1424.75
280.042	1421.75
280.273	1458.75
280.505	1482.75
280.736	1507.75
280.968	1617.75
281.199	1846.75
281.431	2132.75
281.662	2140.75
281.894	1819.75
282.125	1658.75
282.356	1645.75
282.588	1694.75
282.819	1716.75
283.051	1871.75
283.282	2091.75
283.513	2596.75
283.745	3718.75
283.976	5944.75
284.207	8438.75
284.439	7830.75
284.67	4870.75
284.901	3980.75
285.132	4053.75
285.364	3794.75
285.595	2902.75
285.826	2557.75
286.057	2950.75
286.288	4075.75
286.52	5562.75
286.751	5189.75
286.982	3240.75
287.213	2412.75
287.444	2075.75
287.675	1885.75
287.906	1810.75
288.138	1782.75
288.369	1723.75
288.6	1721.75
288.831	1741.75
289.062	1723.75
289.293	1736.75
289.524	1680.75
289.755	1704.75
289.986	1719.75
290.217	1754.75
290.448	1732.75
290.679	1781.75
290.91	1769.75
291.141	1938.75
291.371	2081.75
291.602	2177.75
291.833	1984.75
292.064	1763.75
292.295	1691.75
292.526	1699.75
292.757	1671.75
292.987	1623.75
293.218	1631.75
293.449	1570.75
293.68	1583.75
293.91	1600.75
294.141	1620.75
294.372	1576.75
294.603	1605.75
294.833	1581.75
295.064	1590.75
295.295	1585.75
295.525	1572.75
295.756	1583.75
295.987	1552.75
296.217	1605.75
296.448	1588.75
296.679	1599.75
296.909	1578.75
297.14	1620.75
297.37	1638.75
297.601	1637.75
297.831	1664.75
298.062	1635.75
298.292	1667.75
298.523	1704.75
298.753	1727.75
298.984	1734.75
299.214	1783.75
299.445	1745.75
299.675	1858.75
299.905	1859.75
300.136	1959.75
300.366	2223.75
300.597	2864.75
300.827	4000.75
301.057	5570.75
301.288	5614.75
301.518	3546.75
301.748	2666.75
301.979	2451.75
302.209	2390.75
302.439	2379.75
302.669	2521.75
302.9	3122.75
303.13	4406.75
303.36	6512.75
303.59	8654.75
303.82	7624.75
304.051	4550.75
304.281	3201.75
304.511	2604.75
304.741	2424.75
304.971	2272.75
305.201	2121.75
305.431	2034.75
305.661	1993.75
305.891	1926.75
306.121	1911.75
306.352	1902.75
306.582	1869.75
306.812	1861.75
307.042	1885.75
307.272	1839.75
307.502	1802.75
307.731	1815.75
307.961	1824.75
308.191	1829.75
308.421	1835.75
308.651	1795.75
308.881	1819.75
309.111	1852.75
309.341	1838.75
309.571	1855.75
309.8	1879.75
310.03	1853.75
310.26	1884.75
310.49	1854.75
310.72	1879.75
310.949	1854.75
311.179	1923.75
311.409	1914.75
311.639	1929.75
311.868	1932.75
312.098	1987.75
312.328	1987.75
312.557	1944.75
312.787	1981.75
313.017	1971.75
313.246	2017.75
313.476	2067.75
313.706	2140.75
313.935	2219.75
314.165	2410.75
314.394	2517.75
314.624	2451.75
314.853	2208.75
315.083	2196.75
315.312	2183.75
315.542	2243.75
315.771	2212.75
316.001	2250.75
316.23	2372.75
316.46	2511.75
316.689	2720.75
316.919	3307.75
317.148	4786.75
317.377	7444.75
317.607	10978.75
317.836	11446.75
318.065	7071.75
318.295	4554.75
318.524	3590.75
318.753	3077.75
318.983	2856.75
319.212	2637.75
319.441	2581.75
319.67	2523.75
319.9	2460.75
320.129	2434.75
320.358	2413.75
320.587	2381.75
320.816	2427.75
321.046	2383.75
321.275	2407.75
321.504	2437.75
321.733	2434.75
321.962	2559.75
322.191	2567.75
322.42	2524.75
322.649	2519.75
322.878	2496.75
323.108	2508.75
323.337	2548.75
323.566	2576.75
323.795	2649.75
324.024	2711.75
324.253	2809.75
324.482	2930.75
324.71	3097.75
324.939	3283.75
325.168	3406.75
325.397	3502.75
325.626	4187.75
325.855	5813.75
326.084	9156.75
326.313	13258.75
326.542	13989.75
326.77	9784.75
326.999	6330.75
327.228	5271.75
327.457	4990.75
327.686	5016.75
327.914	5336.75
328.143	6262.75
328.372	7450.75
328.6	8166.75
328.829	7271.75
329.058	6064.75
329.287	5231.75
329.515	4804.75
329.744	4384.75
329.972	4185.75
330.201	3914.75
330.43	3827.75
330.658	3628.75
330.887	3610.75
331.115	3540.75
331.344	3526.75
331.572	3501.75
331.801	3564.75
332.03	3536.75
332.258	3601.75
332.486	3856.75
332.715	4372.75
332.943	5440.75
333.172	6854.75
333.4	6809.75
333.629	5156.75
333.857	4626.75
334.085	4630.75
334.314	4916.75
334.542	5260.75
334.771	6231.75
334.999	7696.75
335.227	9658.75
335.455	10849.75
335.684	9812.75
335.912	8062.75
336.14	6718.75
336.369	5921.75
336.597	5387.75
336.825	4965.75
337.053	4622.75
337.281	4344.75
337.51	4061.75
337.738	3886.75
337.966	3730.75
338.194	3643.75
338.422	3506.75
338.65	3413.75
338.878	3330.75
339.106	3287.75
339.334	3266.75
339.562	3143.75
339.79	3089.75
340.018	3056.75
340.246	3052.75
340.474	3011.75
340.702	3068.75
340.93	3098.75
341.158	3012.75
341.386	2998.75
341.614	3020.75
341.842	2934.75
342.07	2872.75
342.298	2820.75
342.526	2782.75
342.754	2730.75
342.981	2732.75
343.209	2702.75
343.437	2730.75
343.665	2815.75
343.893	2810.75
344.12	2822.75
344.348	2777.75
344.576	2704.75
344.804	2687.75
345.031	2651.75
345.259	2584.75
345.487	2599.75
345.714	2572.75
345.942	2573.75
346.17	2587.75
346.397	2551.75
346.625	2536.75
346.853	2526.75
347.08	2506.75
347.308	2535.75
347.535	2548.75
347.763	2536.75
347.99	2465.75
348.218	2467.75
348.445	2518.75
348.673	2454.75
348.9	2483.75
349.128	2478.75
349.355	2461.75
349.583	2453.75
349.81	2435.75
350.037	2410.75
350.265	2440.75
350.492	2420.75
350.72	2400.75
350.947	2427.75
351.174	2430.75
351.402	2415.75
351.629	2424.75
351.856	2396.75
352.083	2390.75
352.311	2401.75
352.538	2325.75
352.765	2394.75
352.992	2393.75
353.22	2395.75
353.447	2381.75
353.674	2371.75
353.901	2395.75
354.128	2459.75
354.355	2444.75
354.583	2375.75
354.81	2416.75
355.037	2409.75
355.264	2455.75
355.491	2464.75
355.718	2449.75
355.945	2468.75
356.172	2464.75
356.399	2464.75
356.626	2488.75
356.853	2515.75
357.08	2523.75
357.307	2537.75
357.534	2566.75
357.761	2595.75
357.988	2639.75
358.215	2554.75
358.441	2613.75
358.668	2582.75
358.895	2544.75
359.122	2588.75
359.349	2488.75
359.576	2545.75
359.802	2528.75
360.029	2544.75
360.256	2559.75
360.483	2558.75
360.709	2573.75
360.936	2552.75
361.163	2584.75
361.39	2538.75
361.616	2551.75
361.843	2588.75
362.07	2582.75
362.296	2546.75
362.523	2555.75
362.749	2558.75
362.976	2519.75
363.203	2580.75
363.429	2507.75
363.656	2561.75
363.882	2519.75
364.109	2566.75
364.335	2544.75
364.562	2548.75
364.788	2568.75
365.015	2610.75
365.241	2626.75
365.468	2823.75
365.694	3002.75
365.92	2852.75
366.147	2635.75
366.373	2630.75
366.599	2622.75
366.826	2592.75
367.052	2632.75
367.278	2651.75
367.505	2630.75
367.731	2632.75
367.957	2635.75
368.184	2651.75
368.41	2702.75
368.636	2688.75
368.862	2701.75
369.089	2639.75
369.315	2663.75
369.541	2640.75
369.767	2621.75
369.993	2639.75
370.219	2584.75
370.445	2618.75
370.672	2651.75
370.898	2662.75
371.124	2660.75
371.35	2705.75
371.576	2729.75
371.802	2768.75
372.028	2786.75
372.254	2746.75
372.48	2801.75
372.706	2745.75
372.932	2722.75
373.158	2765.75
373.384	2764.75
373.61	2750.75
373.835	2832.75
374.061	2790.75
374.287	2761.75
374.513	2857.75
374.739	2873.75
374.965	2894.75
375.191	2938.75
375.416	2933.75
375.642	2820.75
375.868	2836.75
376.094	2752.75
376.319	2777.75
376.545	2765.75
376.771	2705.75
376.997	2759.75
377.222	2720.75
377.448	2688.75
377.674	2732.75
377.899	2690.75
378.125	2734.75
378.35	2716.75
378.576	2755.75
378.802	2726.75
379.027	2805.75
379.253	2859.75
379.478	3056.75
379.704	3586.75
379.929	5272.75
380.155	8250.75
380.38	8978.75
380.606	5515.75
380.831	3854.75
381.057	3316.75
381.282	3078.75
381.507	2926.75
381.733	2843.75
381.958	2771.75
382.184	2707.75
382.409	2718.75
382.634	2704.75
382.86	2696.75
383.085	2655.75
383.31	2698.75
383.535	2702.75
383.761	2682.75
383.986	2725.75
384.211	2786.75
384.436	2770.75
384.662	2738.75
384.887	2837.75
385.112	2742.75
385.337	2768.75
385.562	2744.75
385.787	2742.75
386.013	2803.75
386.238	2765.75
386.463	2794.75
386.688	2800.75
386.913	2720.75
387.138	2784.75
387.363	2754.75
387.588	2726.75
387.813	2813.75
388.038	2766.75
388.263	2722.75
388.488	2718.75
388.713	2748.75
388.938	2724.75
389.163	2740.75
389.387	2772.75
389.612	2758.75
389.837	2773.75
390.062	2724.75
390.287	2836.75
390.512	2774.75
390.736	2825.75
390.961	2858.75
391.186	2854.75
391.411	2895.75
391.636	2890.75
391.86	2938.75
392.085	2851.75
392.31	2864.75
392.534	2865.75
392.759	2831.75
392.984	2825.75
393.208	2814.75
393.433	2822.75
393.658	2839.75
393.882	2800.75
394.107	2760.75
394.331	2770.75
394.556	2830.75
394.78	2826.75
395.005	2809.75
395.229	2841.75
395.454	2860.75
395.678	2904.75
395.903	2857.75
396.127	2838.75
396.352	2870.75
396.576	2849.75
396.801	2857.75
397.025	2891.75
397.249	2883.75
397.474	2903.75
397.698	2872.75
397.922	2916.75
398.147	2967.75
398.371	2963.75
398.595	3016.75
398.82	3007.75
399.044	3170.75
399.268	3417.75
399.492	3467.75
399.717	3607.75
399.941	3614.75
400.165	3493.75
400.389	3330.75
400.613	3256.75
400.837	3122.75
401.062	3088.75
401.286	3074.75
401.51	3024.75
401.734	2990.75
401.958	3052.75
402.182	3048.75
402.406	3041.75
402.63	3057.75
402.854	3064.75
403.078	3100.75
403.302	3139.75
403.526	3102.75
403.75	3115.75
403.974	3148.75
404.198	3147.75
404.422	3137.75
404.645	3159.75
404.869	3124.75
405.093	3152.75
405.317	3118.75
405.541	3191.75
405.765	3241.75
405.988	3289.75
406.212	3268.75
406.436	3206.75
406.66	3286.75
406.883	3255.75
407.107	3414.75
407.331	3448.75
407.555	3444.75
407.778	3404.75
408.002	3366.75
408.226	3355.75
408.449	3422.75
408.673	3296.75
408.896	3203.75
409.12	3194.75
409.344	3233.75
409.567	3155.75
409.791	3159.75
410.014	3151.75
410.238	3120.75
410.461	3147.75
410.685	3174.75
410.908	3042.75
411.132	3134.75
411.355	3033.75
411.578	3062.75
411.802	3016.75
412.025	3064.75
412.249	3033.75
412.472	2960.75
412.695	2982.75
412.919	2948.75
413.142	2998.75
413.365	2962.75
413.589	2951.75
413.812	3020.75
414.035	3009.75
414.258	3017.75
414.482	2996.75
414.705	2959.75
414.928	2983.75
415.151	2988.75
415.374	2902.75
415.597	2938.75
415.821	2897.75
416.044	2891.75
416.267	2845.75
416.49	2922.75
416.713	2846.75
416.936	2916.75
417.159	2812.75
417.382	2835.75
417.605	2788.75
417.828	2864.75
418.051	2881.75
418.274	2883.75
418.497	2887.75
418.72	2959.75
418.943	2920.75
419.166	3019.75
419.389	3180.75
419.611	3158.75
419.834	3048.75
420.057	2998.75
420.28	2883.75
420.503	2873.75
420.726	2841.75
420.948	2817.75
421.171	2858.75
421.394	2869.75
421.617	2885.75
421.839	2891.75
422.062	2932.75
422.285	2850.75
422.507	2954.75
422.73	2908.75
422.953	2975.75
423.175	2980.75
423.398	2941.75
423.621	2837.75
423.843	2866.75
424.066	2894.75
424.288	2807.75
424.511	2841.75
424.733	2846.75
424.956	2886.75
425.178	2842.75
425.401	2795.75
425.623	2837.75
425.846	2771.75
426.068	2773.75
426.291	2734.75
426.513	2725.75
426.735	2750.75
426.958	2741.75
427.18	2693.75
427.402	2736.75
427.625	2715.75
427.847	2649.75
428.069	2643.75
428.292	2704.75
428.514	2635.75
428.736	2675.75
428.958	2678.75
429.181	2642.75
429.403	2644.75
429.625	2654.75
429.847	2655.75
430.069	2722.75
430.292	2752.75
430.514	2866.75
430.736	2867.75
430.958	2708.75
431.18	2640.75
431.402	2645.75
431.624	2618.75
431.846	2588.75
432.068	2628.75
432.29	2646.75
432.512	2572.75
432.734	2608.75
432.956	2619.75
433.178	2716.75
433.4	2633.75
433.622	2652.75
433.844	2647.75
434.066	2634.75
434.287	2664.75
434.509	2716.75
434.731	2701.75
434.953	2724.75
435.175	2736.75
435.397	2749.75
435.618	2694.75
435.84	2696.75
436.062	2625.75
436.284	2646.75
436.505	2600.75
436.727	2656.75
436.949	2602.75
437.17	2585.75
437.392	2566.75
437.614	2540.75
437.835	2463.75
438.057	2541.75
438.278	2522.75
438.5	2564.75
438.721	2610.75
438.943	2710.75
439.165	2759.75
439.386	2768.75
439.608	2726.75
439.829	2756.75
440.05	2852.75
440.272	2871.75
440.493	2754.75
440.715	2678.75
440.936	2686.75
441.158	2743.75
441.379	2784.75
441.6	2904.75
441.822	2917.75
442.043	3113.75
442.264	3249.75
442.486	2959.75
442.707	2856.75
442.928	2891.75
443.149	2836.75
443.371	2756.75
443.592	2822.75
443.813	2840.75
444.034	2824.75
444.255	2864.75
444.476	2940.75
444.698	2980.75
444.919	3012.75
445.14	3046.75
445.361	2971.75
445.582	2890.75
445.803	2836.75
446.024	2783.75
446.245	2790.75
446.466	2798.75
446.687	2737.75
446.908	2789.75
447.129	2670.75
447.35	2689.75
447.571	2644.75
447.792	2588.75
448.013	2632.75
448.234	2591.75
448.455	2577.75
448.675	2640.75
448.896	2704.75
449.117	2783.75
449.338	3012.75
449.559	3092.75
449.779	2831.75
450	2629.75
450.221	2586.75
450.442	2582.75
450.662	2568.75
450.883	2512.75
451.104	2559.75
451.324	2520.75
451.545	2532.75
451.766	2633.75
451.986	2657.75
452.207	2847.75
452.428	3715.75
452.648	5664.75
452.869	4771.75
453.089	3301.75
453.31	2987.75
453.53	3039.75
453.751	3055.75
453.971	3232.75
454.192	3182.75
454.412	2754.75
454.633	2645.75
454.853	2540.75
455.073	2473.75
455.294	2435.75
455.514	2442.75
455.734	2429.75
455.955	2397.75
456.175	2404.75
456.395	2443.75
456.616	2452.75
456.836	2463.75
457.056	2477.75
457.276	2519.75
457.497	2645.75
457.717	2637.75
457.937	2562.75
458.157	2527.75
458.377	2584.75
458.598	2598.75
458.818	2595.75
459.038	2595.75
459.258	2591.75
459.478	2698.75
459.698	2652.75
459.918	2708.75
460.138	2726.75
460.358	2826.75
460.578	2812.75
460.798	2884.75
461.018	2893.75
461.238	2838.75
461.458	2835.75
461.678	2886.75
461.898	2995.75
462.118	2976.75
462.338	3086.75
462.558	3070.75
462.777	3118.75
462.997	3236.75
463.217	3352.75
463.437	3442.75
463.657	3575.75
463.876	3515.75
464.096	3356.75
464.316	3202.75
464.536	3179.75
464.755	3070.75
464.975	3012.75
465.195	2939.75
465.414	2828.75
465.634	2781.75
465.854	2714.75
466.073	2692.75
466.293	2658.75
466.512	2678.75
466.732	2717.75
466.951	2839.75
467.171	3044.75
467.391	2964.75
467.61	2732.75
467.829	2657.75
468.049	2656.75
468.268	2595.75
468.488	2619.75
468.707	2590.75
468.927	2601.75
469.146	2576.75
469.365	2671.75
469.585	2592.75
469.804	2721.75
470.023	2729.75
470.243	2739.75
470.462	2901.75
470.681	3045.75
470.901	3312.75
471.12	3874.75
471.339	3847.75
471.558	3221.75
471.777	2958.75
471.997	2807.75
472.216	2736.75
472.435	2694.75
472.654	2651.75
472.873	2590.75
473.092	2586.75
473.311	2652.75
473.53	2659.75
473.749	2681.75
473.968	2838.75
474.187	2663.75
474.406	2602.75
474.625	2630.75
474.844	2640.75
475.063	2652.75
475.282	2612.75
475.501	2677.75
475.72	2682.75
475.939	2657.75
476.158	2718.75
476.377	2793.75
476.596	2746.75
476.814	2745.75
477.033	2731.75
477.252	2776.75
477.471	2794.75
477.69	2866.75
477.908	2940.75
478.127	2949.75
478.346	2999.75
478.564	3011.75
478.783	3077.75
479.002	3089.75
479.22	3123.75
479.439	3115.75
479.658	3135.75
479.876	3119.75
480.095	3120.75
480.313	3231.75
480.532	3250.75
480.751	3208.75
480.969	3239.75
481.188	3154.75
481.406	3065.75
481.624	3178.75
481.843	3183.75
482.061	3181.75
482.28	3185.75
482.498	3199.75
482.717	3125.75
482.935	3207.75
483.153	3266.75
483.372	3302.75
483.59	3337.75
483.808	3351.75
484.027	3490.75
484.245	3659.75
484.463	4148.75
484.681	4575.75
484.9	4274.75
485.118	3916.75
485.336	3826.75
485.554	3829.75
485.772	4118.75
485.99	4662.75
486.209	4964.75
486.427	4181.75
486.645	3731.75
486.863	3556.75
487.081	3514.75
487.299	3434.75
487.517	3440.75
487.735	3466.75
487.953	3344.75
488.171	3363.75
488.389	3335.75
488.607	3316.75
488.825	3257.75
489.043	3220.75
489.261	3211.75
489.479	3254.75
489.696	3276.75
489.914	3262.75
490.132	3235.75
490.35	3340.75
490.568	3297.75
490.786	3323.75
491.003	3332.75
491.221	3404.75
491.439	3386.75
491.657	3387.75
491.874	3372.75
492.092	3480.75
492.31	3508.75
492.527	3385.75
492.745	3395.75
492.963	3411.75
493.18	3420.75
493.398	3410.75
493.615	3435.75
493.833	3388.75
494.05	3442.75
494.268	3407.75
494.485	3421.75
494.703	3463.75
494.92	3494.75
495.138	3504.75
495.355	3396.75
495.573	3502.75
495.79	3410.75
496.008	3480.75
496.225	3553.75
496.442	3568.75
496.66	3659.75
496.877	3899.75
497.094	3867.75
497.312	3756.75
497.529	3698.75
497.746	3729.75
497.963	3813.75
498.181	3841.75
498.398	3939.75
498.615	4075.75
498.832	4214.75
499.049	4406.75
499.267	4806.75
499.484	5066.75
499.701	5102.75
499.918	5159.75
500.135	5459.75
500.352	5684.75
500.569	5794.75
500.786	5708.75
501.003	5516.75
501.22	5279.75
501.437	5009.75
501.654	4745.75
501.871	4512.75
502.088	4365.75
502.305	4197.75
502.522	4165.75
502.739	4028.75
502.956	3873.75
503.172	3794.75
503.389	3765.75
503.606	3595.75
503.823	3570.75
504.04	3587.75
504.256	3532.75
504.473	3611.75
504.69	3573.75
504.907	3561.75
505.123	3466.75
505.34	3333.75
505.557	3275.75
505.773	3235.75
505.99	3267.75
506.207	3164.75
506.423	3165.75
506.64	3074.75
506.856	3078.75
507.073	3079.75
507.289	3049.75
507.506	3041.75
507.722	2984.75
507.939	2964.75
508.155	2954.75
508.372	2957.75
508.588	2958.75
508.805	2957.75
509.021	2940.75
509.238	3006.75
509.454	3172.75
509.67	3416.75
509.887	3176.75
510.103	3041.75
510.319	2977.75
510.536	2914.75
510.752	2916.75
510.968	2900.75
511.184	2887.75
511.401	2900.75
511.617	2837.75
511.833	2868.75
512.049	2835.75
512.265	2817.75
512.481	2846.75
512.698	2796.75
512.914	2834.75
513.13	2846.75
513.346	2852.75
513.562	2855.75
513.778	2881.75
513.994	2897.75
514.21	3008.75
514.426	3181.75
514.642	3279.75
514.858	3056.75
515.074	2929.75
515.29	2944.75
515.506	2905.75
515.721	2967.75
515.937	2936.75
516.153	2928.75
516.369	2940.75
516.585	2961.75
516.801	3028.75
517.016	3042.75
517.232	3138.75
517.448	3148.75
517.664	3236.75
517.879	3250.75
518.095	3196.75
518.311	3130.75
518.527	3169.75
518.742	3165.75
518.958	3268.75
519.173	3254.75
519.389	3114.75
519.605	2997.75
519.82	2927.75
520.036	2895.75
520.251	2866.75
520.467	2867.75
520.682	2843.75
520.898	2802.75
521.113	2760.75
521.329	2818.75
521.544	2755.75
521.76	2830.75
521.975	2854.75
522.19	2789.75
522.406	2761.75
522.621	2747.75
522.836	2752.75
523.052	2709.75
523.267	2769.75
523.482	2734.75
523.698	2664.75
523.913	2675.75
524.128	2752.75
524.343	2708.75
524.559	2694.75
524.774	2714.75
524.989	2711.75
525.204	2747.75
525.419	2640.75
525.634	2704.75
525.849	2715.75
526.064	2728.75
526.28	2755.75
526.495	2694.75
526.71	2753.75
526.925	2695.75
527.14	2760.75
527.355	2716.75
527.57	2738.75
527.785	2757.75
527.999	2734.75
528.214	2793.75
528.429	2840.75
528.644	2795.75
528.859	2873.75
529.074	2887.75
529.289	2952.75
529.503	2944.75
529.718	2969.75
529.933	2919.75
530.148	2862.75
530.363	2915.75
530.577	2889.75
530.792	2899.75
531.007	2946.75
531.221	2955.75
531.436	3001.75
531.651	3006.75
531.865	3021.75
532.08	3127.75
532.295	3237.75
532.509	3456.75
532.724	3465.75
532.938	3441.75
533.153	3567.75
533.367	3886.75
533.582	4125.75
533.796	3972.75
534.011	3883.75
534.225	3707.75
534.44	3589.75
534.654	3416.75
534.868	3393.75
535.083	3338.75
535.297	3282.75
535.511	3200.75
535.726	3224.75
535.94	3170.75
536.154	3052.75
536.369	2964.75
536.583	3035.75
536.797	2931.75
537.011	2917.75
537.225	2910.75
537.44	2902.75
537.654	2834.75
537.868	2819.75
538.082	2775.75
538.296	2787.75
538.51	2735.75
538.724	2742.75
538.938	2734.75
539.153	2700.75
539.367	2674.75
539.581	2657.75
539.795	2635.75
540.009	2631.75
540.222	2676.75
540.436	2663.75
540.65	2636.75
540.864	2683.75
541.078	2720.75
541.292	2905.75
541.506	3338.75
541.72	3592.75
541.934	3134.75
542.147	2874.75
542.361	2814.75
542.575	2702.75
542.789	2675.75
543.002	2567.75
543.216	2584.75
543.43	2514.75
543.644	2548.75
543.857	2533.75
544.071	2566.75
544.285	2560.75
544.498	2534.75
544.712	2504.75
544.925	2583.75
545.139	2540.75
545.352	2556.75
545.566	2534.75
545.779	2568.75
545.993	2583.75
546.206	2586.75
546.42	2578.75
546.633	2558.75
546.847	2534.75
547.06	2574.75
547.274	2581.75
547.487	2548.75
547.7	2546.75
547.914	2552.75
548.127	2585.75
548.34	2504.75
548.554	2537.75
548.767	2546.75
548.98	2617.75
549.193	2564.75
549.407	2583.75
549.62	2600.75
549.833	2588.75
550.046	2573.75
550.259	2576.75
550.473	2584.75
550.686	2552.75
550.899	2585.75
551.112	2560.75
551.325	2601.75
551.538	2592.75
551.751	2547.75
551.964	2613.75
552.177	2641.75
552.39	2690.75
552.603	2694.75
552.816	2710.75
553.029	2730.75
553.242	2819.75
553.455	2823.75
553.667	2891.75
553.88	2882.75
554.093	2871.75
554.306	2914.75
554.519	2980.75
554.732	3008.75
554.944	3068.75
555.157	3120.75
555.37	3225.75
555.583	3368.75
555.795	3594.75
556.008	3837.75
556.221	4321.75
556.433	4603.75
556.646	4620.75
556.859	4412.75
557.071	4249.75
557.284	4114.75
557.496	4028.75
557.709	3888.75
557.921	3867.75
558.134	3875.75
558.346	3892.75
558.559	4088.75
558.771	4236.75
558.984	4705.75
559.196	5123.75
559.409	4814.75
559.621	4403.75
559.833	4134.75
560.046	3928.75
560.258	3666.75
560.47	3516.75
560.683	3359.75
560.895	3242.75
561.107	3042.75
561.32	3053.75
561.532	2929.75
561.744	2892.75
561.956	2843.75
562.168	2763.75
562.381	2756.75
562.593	2683.75
562.805	2771.75
563.017	2717.75
563.229	2813.75
563.441	3370.75
563.653	2744.75
563.865	2550.75
564.077	2474.75
564.289	2437.75
564.501	2429.75
564.713	2398.75
564.925	2391.75
565.137	2384.75
565.349	2376.75
565.561	2418.75
565.773	2408.75
565.985	2387.75
566.197	2465.75
566.408	2502.75
566.62	2547.75
566.832	2600.75
567.044	2603.75
567.255	2647.75
567.467	2665.75
567.679	2752.75
567.891	2888.75
568.102	3144.75
568.314	3672.75
568.526	3227.75
568.737	2754.75
568.949	2514.75
569.161	2406.75
569.372	2274.75
569.584	2226.75
569.795	2209.75
570.007	2186.75
570.218	2244.75
570.43	2273.75
570.641	2116.75
570.853	1989.75
571.064	2030.75
571.276	1948.75
571.487	1938.75
571.698	1943.75
571.91	1877.75
572.121	1912.75
572.333	1910.75
572.544	1916.75
572.755	2057.75
572.966	2386.75
573.178	2172.75
573.389	1964.75
573.6	1867.75
573.811	1802.75
574.023	1800.75
574.234	1800.75
574.445	1765.75
574.656	1750.75
574.867	1734.75
575.078	1710.75
575.289	1735.75
575.501	1766.75
575.712	1695.75
575.923	1723.75
576.134	1728.75
576.345	1724.75
576.556	1726.75
576.767	1737.75
576.978	1763.75
577.188	1739.75
577.399	1762.75
577.61	1800.75
577.821	1802.75
578.032	1794.75
578.243	1841.75
578.454	1890.75
578.665	1920.75
578.875	1942.75
579.086	2030.75
579.297	2178.75
579.508	2311.75
579.718	2533.75
579.929	2838.75
580.14	3378.75
580.35	3466.75
580.561	3157.75
580.772	2823.75
580.982	2673.75
581.193	2428.75
581.403	2295.75
581.614	2198.75
581.825	2090.75
582.035	1987.75
582.246	1899.75
582.456	1868.75
582.667	1798.75
582.877	1765.75
583.087	1751.75
583.298	1697.75
583.508	1646.75
583.719	1600.75
583.929	1590.75
584.139	1542.75
584.35	1507.75
584.56	1498.75
584.77	1490.75
584.981	1428.75
585.191	1419.75
585.401	1402.75
585.611	1381.75
585.821	1369.75
586.032	1365.75
586.242	1364.75
586.452	1355.75
586.662	1339.75
586.872	1304.75
587.082	1345.75
587.292	1295.75
587.502	1329.75
587.713	1267.75
587.923	1258.75
588.133	1253.75
588.343	1258.75
588.553	1229.75
588.762	1229.75
588.972	1194.75
589.182	1272.75
589.392	1252.75
589.602	1225.75
589.812	1196.75
590.022	1193.75
590.232	1158.75
590.441	1152.75
590.651	1187.75
590.861	1184.75
591.071	1201.75
591.281	1184.75
591.49	1210.75
591.7	1200.75
591.91	1204.75
592.119	1195.75
592.329	1201.75
592.539	1190.75
592.748	1229.75
592.958	1203.75
593.167	1198.75
593.377	1209.75
593.587	1254.75
593.796	1258.75
594.006	1208.75
594.215	1211.75
594.424	1221.75
594.634	1214.75
594.843	1191.75
595.053	1158.75
595.262	1142.75
595.472	1147.75
595.681	1107.75
595.89	1098.75
596.1	1100.75
596.309	1075.75
596.518	1072.75
596.727	1066.75
596.937	1047.75
597.146	1029.75
597.355	1041.75
597.564	999.75
597.774	1022.75
597.983	993.75
598.192	995.75
598.401	1007.75
598.61	967.75
598.819	975.75
599.028	967.75
599.237	954.75
599.446	955.75
599.655	948.75
599.864	933.75
600.073	952.75
600.282	959.75
600.491	935.75
600.7	950.75
600.909	951.75
601.118	959.75
601.327	951.75
601.536	982.75
601.745	988.75
601.953	1101.75
602.162	1186.75
602.371	1103.75
602.58	1008.75
602.789	952.75
602.997	942.75
603.206	960.75
603.415	942.75
603.623	906.75
603.832	919.75
604.041	909.75
604.249	912.75
604.458	929.75
604.666	881.75
604.875	863.75
605.084	882.75
605.292	892.75
605.501	908.75
605.709	906.75
605.918	907.75
606.126	918.75
606.334	919.75
606.543	942.75
606.751	1019.75
606.96	1137.75
607.168	1237.75
607.376	1082.75
607.585	990.75
607.793	942.75
608.001	913.75
608.21	904.75
608.418	890.75
608.626	882.75
608.834	878.75
609.043	875.75
609.251	882.75
609.459	860.75
609.667	853.75
609.875	870.75
610.083	858.75
610.291	840.75
610.499	841.75
610.707	810.75
610.916	808.75
611.124	858.75
611.332	808.75
611.54	818.75
611.748	820.75
611.955	826.75
612.163	820.75
612.371	813.75
612.579	795.75
612.787	808.75
612.995	787.75
613.203	794.75
613.411	793.75
613.618	768.75
613.826	769.75
614.034	765.75
614.242	810.75
614.449	784.75
614.657	791.75
614.865	801.75
615.072	798.75
615.28	795.75
615.488	806.75
615.695	819.75
615.903	814.75
616.111	804.75
616.318	794.75
616.526	799.75
616.733	824.75
616.941	784.75
617.148	770.75
617.356	775.75
617.563	798.75
617.771	774.75
617.978	773.75
618.185	767.75
618.393	752.75
618.6	752.75
618.807	743.75
619.015	743.75
619.222	786.75
619.429	743.75
619.637	737.75
619.844	755.75
620.051	731.75
620.258	712.75
620.466	690.75
620.673	695.75
620.88	699.75
621.087	688.75
621.294	686.75
621.501	692.75
621.708	709.75
621.915	718.75
622.122	729.75
622.329	692.75
622.536	704.75
622.743	698.75
622.95	712.75
623.157	710.75
623.364	712.75
623.571	704.75
623.778	687.75
623.985	671.75
624.192	675.75
624.399	661.75
624.606	694.75
624.812	656.75
625.019	659.75
625.226	671.75
625.433	661.75
625.639	659.75
625.846	646.75
626.053	652.75
626.259	628.75
626.466	634.75
626.673	632.75
626.879	628.75
627.086	646.75
627.293	652.75
627.499	638.75
627.706	633.75
627.912	657.75
628.119	652.75
628.325	645.75
628.532	648.75
628.738	614.75
628.945	624.75
629.151	609.75
629.357	603.75
629.564	616.75
629.77	605.75
629.976	602.75
630.183	627.75
630.389	630.75
630.595	605.75
630.802	616.75
631.008	589.75
631.214	596.75
631.42	598.75
631.627	593.75
631.833	588.75
632.039	602.75
632.245	602.75
632.451	588.75
632.657	588.75
632.863	612.75
633.069	612.75
633.275	582.75
633.481	592.75
633.688	582.75
633.893	580.75
634.099	586.75
634.305	604.75
634.511	610.75
634.717	601.75
634.923	630.75
635.129	686.75
635.335	797.75
635.541	688.75
635.747	636.75
635.952	625.75
636.158	588.75
636.364	592.75
636.57	575.75
636.775	592.75
636.981	603.75
637.187	608.75
637.392	589.75
637.598	589.75
637.804	571.75
638.009	581.75
638.215	598.75
638.421	596.75
638.626	605.75
638.832	588.75
639.037	582.75
639.243	596.75
639.448	588.75
639.654	618.75
639.859	614.75
640.065	618.75
640.27	616.75
640.475	618.75
640.681	645.75
640.886	633.75
641.091	631.75
641.297	629.75
641.502	633.75
641.707	660.75
641.913	651.75
642.118	688.75
642.323	702.75
642.528	694.75
642.733	714.75
642.939	737.75
643.144	731.75
643.349	759.75
643.554	792.75
643.759	861.75
643.964	863.75
644.169	958.75
644.374	1008.75
644.579	1093.75
644.784	1213.75
644.989	1374.75
645.194	1607.75
645.399	2004.75
645.604	2125.75
645.809	1617.75
646.014	1179.75
646.219	998.75
646.423	867.75
646.628	810.75
646.833	745.75
647.038	721.75
647.243	668.75
647.447	633.75
647.652	633.75
647.857	616.75
648.062	604.75
648.266	581.75
648.471	566.75
648.676	585.75
648.88	542.75
649.085	538.75
649.289	525.75
649.494	521.75
649.698	525.75
649.903	506.75
650.107	489.75
650.312	491.75
650.516	488.75
650.721	488.75
650.925	467.75
651.13	447.75
651.334	448.75
651.539	440.75
651.743	424.75
651.947	437.75
652.152	445.75
652.356	428.75
652.56	461.75
652.764	516.75
652.969	468.75
653.173	434.75
653.377	426.75
653.581	407.75
653.785	384.75
653.99	380.75
654.194	384.75
654.398	386.75
654.602	374.75
654.806	358.75
655.01	371.75
655.214	331.75
655.418	362.75
655.622	345.75
655.826	355.75
656.03	361.75
656.234	377.75
656.438	375.75
656.642	377.75
656.846	382.75
657.049	371.75
657.253	324.75
657.457	301.75
657.661	287.75
657.865	290.75
658.068	265.75
658.272	262.75
658.476	254.75
658.68	230.75
658.883	208.75
659.087	204.75
659.291	194.75
659.494	208.75
659.698	198.75
659.901	196.75
660.105	182.75
660.309	164.75
660.512	157.75
660.716	174.75
660.919	144.75
661.123	152.75
661.326	132.75
661.53	138.75
661.733	133.75
661.936	132.75
662.14	116.75
662.343	118.75
662.546	91.75
662.75	108.75
662.953	106.75
663.156	96.75
663.36	100.75
663.563	81.75
663.766	90.75
663.969	102.75
664.173	93.75
664.376	95.75
664.579	87.75
664.782	72.75
664.985	86.75
665.188	88.75
665.391	97.75
665.594	78.75
665.797	83.75
666	93.75
666.203	97.75
666.406	87.75
666.609	90.75
666.812	82.75
667.015	91.75
667.218	82.75
667.421	84.75
667.624	90.75
667.827	87.75
668.03	94.75
668.232	86.75
668.435	81.75
668.638	94.75
668.841	71.75
669.043	83.75
669.246	84.75
669.449	83.75
669.651	85.75
669.854	85.75
670.057	89.75
670.259	94.75
670.462	89.75
670.665	81.75
670.867	92.75
671.07	85.75
671.272	66.75
671.475	85.75
671.677	88.75
671.88	92.75
672.082	88.75
672.284	98.75
672.487	91.75
672.689	89.75
672.892	88.75
