Data from SnStandardFlinnAPT0064_LampEnergy5.5_LIBS07252019.E.O._I.C._HRD10591_15-17-39-493.txt Node
Date: Thu Jul 25 15:17:39 EDT 2019
User: cochatt
Spectrometer: HR+D1059
Trigger mode: 1
Integration Time (sec): 1.000000E-1
Scans to average: 1
Electric dark correction enabled: true
Nonlinearity correction enabled: false
Boxcar width: 0
XAxis mode: Wavelengths
Number of Pixels in Spectrum: 2048
>>>>>Begin Spectral Data<<<<<
223.165	-14.62
223.4	-14.62
223.635	-14.62
223.869	-11.62
224.104	-15.62
224.338	-1.62
224.573	0.38
224.808	-21.62
225.042	-15.62
225.277	-3.62
225.511	1.38
225.746	2.38
225.98	1.38
226.215	8.38
226.449	0.38
226.683	13.38
226.918	26.38
227.152	30.38
227.387	31.38
227.621	39.38
227.856	38.38
228.09	29.38
228.324	35.38
228.559	58.38
228.793	93.38
229.027	172.38
229.262	183.38
229.496	150.38
229.73	150.38
229.964	165.38
230.199	156.38
230.433	161.38
230.667	181.38
230.901	184.38
231.136	160.38
231.37	181.38
231.604	202.38
231.838	229.38
232.072	256.38
232.306	270.38
232.541	237.38
232.775	206.38
233.009	193.38
233.243	221.38
233.477	241.38
233.711	250.38
233.945	273.38
234.179	252.38
234.413	216.38
234.647	223.38
234.881	232.38
235.115	239.38
235.349	284.38
235.583	354.38
235.817	451.38
236.051	449.38
236.285	316.38
236.519	246.38
236.753	241.38
236.987	227.38
237.221	252.38
237.455	240.38
237.689	216.38
237.922	236.38
238.156	233.38
238.39	263.38
238.624	232.38
238.858	230.38
239.091	239.38
239.325	233.38
239.559	221.38
239.793	238.38
240.027	255.38
240.26	245.38
240.494	256.38
240.728	254.38
240.961	290.38
241.195	296.38
241.429	288.38
241.662	313.38
241.896	350.38
242.13	423.38
242.363	543.38
242.597	679.38
242.83	678.38
243.064	681.38
243.298	776.38
243.531	672.38
243.765	417.38
243.998	336.38
244.232	319.38
244.465	324.38
244.699	306.38
244.932	306.38
245.166	278.38
245.399	310.38
245.633	304.38
245.866	324.38
246.099	285.38
246.333	321.38
246.566	310.38
246.8	291.38
247.033	290.38
247.266	291.38
247.5	302.38
247.733	289.38
247.966	308.38
248.2	327.38
248.433	376.38
248.666	457.38
248.899	418.38
249.133	373.38
249.366	386.38
249.599	424.38
249.832	485.38
250.066	446.38
250.299	375.38
250.532	344.38
250.765	356.38
250.998	331.38
251.231	357.38
251.465	328.38
251.698	325.38
251.931	343.38
252.164	332.38
252.397	337.38
252.63	378.38
252.863	366.38
253.096	372.38
253.329	359.38
253.562	330.38
253.795	354.38
254.028	371.38
254.261	374.38
254.494	392.38
254.727	447.38
254.96	543.38
255.193	546.38
255.426	414.38
255.659	364.38
255.892	385.38
256.124	405.38
256.357	404.38
256.59	401.38
256.823	414.38
257.056	481.38
257.289	579.38
257.521	609.38
257.754	496.38
257.987	432.38
258.22	419.38
258.452	392.38
258.685	403.38
258.918	424.38
259.151	447.38
259.383	460.38
259.616	528.38
259.849	523.38
260.081	457.38
260.314	437.38
260.547	425.38
260.779	414.38
261.012	441.38
261.244	438.38
261.477	426.38
261.71	437.38
261.942	446.38
262.175	456.38
262.407	458.38
262.64	468.38
262.872	508.38
263.105	517.38
263.337	526.38
263.57	568.38
263.802	562.38
264.035	581.38
264.267	589.38
264.499	591.38
264.732	638.38
264.964	654.38
265.197	640.38
265.429	627.38
265.661	648.38
265.894	698.38
266.126	777.38
266.358	860.38
266.591	803.38
266.823	687.38
267.055	646.38
267.287	626.38
267.52	588.38
267.752	585.38
267.984	578.38
268.216	585.38
268.448	564.38
268.681	543.38
268.913	563.38
269.145	564.38
269.377	552.38
269.609	544.38
269.841	573.38
270.073	613.38
270.306	678.38
270.538	954.38
270.77	1392.38
271.002	1673.38
271.234	1152.38
271.466	786.38
271.698	632.38
271.93	565.38
272.162	580.38
272.394	563.38
272.626	535.38
272.858	527.38
273.09	535.38
273.322	529.38
273.553	528.38
273.785	538.38
274.017	522.38
274.249	539.38
274.481	543.38
274.713	531.38
274.945	532.38
275.176	545.38
275.408	559.38
275.64	535.38
275.872	538.38
276.104	557.38
276.335	546.38
276.567	551.38
276.799	541.38
277.031	572.38
277.262	570.38
277.494	626.38
277.726	648.38
277.957	748.38
278.189	860.38
278.421	836.38
278.652	720.38
278.884	681.38
279.115	636.38
279.347	629.38
279.579	608.38
279.81	612.38
280.042	624.38
280.273	625.38
280.505	616.38
280.736	632.38
280.968	667.38
281.199	745.38
281.431	823.38
281.662	853.38
281.894	734.38
282.125	677.38
282.356	682.38
282.588	714.38
282.819	730.38
283.051	759.38
283.282	818.38
283.513	1042.38
283.745	1494.38
283.976	2461.38
284.207	3537.38
284.439	3101.38
284.67	1776.38
284.901	1472.38
285.132	1438.38
285.364	1405.38
285.595	1079.38
285.826	985.38
286.057	1216.38
286.288	1652.38
286.52	2214.38
286.751	2018.38
286.982	1241.38
287.213	931.38
287.444	806.38
287.675	750.38
287.906	753.38
288.138	734.38
288.369	703.38
288.6	718.38
288.831	704.38
289.062	727.38
289.293	714.38
289.524	717.38
289.755	722.38
289.986	710.38
290.217	761.38
290.448	714.38
290.679	718.38
290.91	756.38
291.141	794.38
291.371	816.38
291.602	868.38
291.833	768.38
292.064	748.38
292.295	720.38
292.526	710.38
292.757	674.38
292.987	703.38
293.218	679.38
293.449	682.38
293.68	661.38
293.91	682.38
294.141	672.38
294.372	672.38
294.603	639.38
294.833	677.38
295.064	665.38
295.295	660.38
295.525	652.38
295.756	669.38
295.987	664.38
296.217	674.38
296.448	665.38
296.679	676.38
296.909	692.38
297.14	693.38
297.37	724.38
297.601	713.38
297.831	685.38
298.062	706.38
298.292	710.38
298.523	694.38
298.753	717.38
298.984	715.38
299.214	737.38
299.445	750.38
299.675	754.38
299.905	751.38
300.136	819.38
300.366	896.38
300.597	1156.38
300.827	1665.38
301.057	2120.38
301.288	2176.38
301.518	1361.38
301.748	1036.38
301.979	963.38
302.209	921.38
302.439	924.38
302.669	992.38
302.9	1205.38
303.13	1745.38
303.36	2554.38
303.59	3468.38
303.82	2939.38
304.051	1657.38
304.281	1220.38
304.511	992.38
304.741	940.38
304.971	889.38
305.201	842.38
305.431	810.38
305.661	784.38
305.891	787.38
306.121	800.38
306.352	791.38
306.582	782.38
306.812	788.38
307.042	781.38
307.272	794.38
307.502	789.38
307.731	778.38
307.961	772.38
308.191	756.38
308.421	771.38
308.651	791.38
308.881	783.38
309.111	770.38
309.341	788.38
309.571	804.38
309.8	786.38
310.03	801.38
310.26	786.38
310.49	802.38
310.72	797.38
310.949	801.38
311.179	800.38
311.409	791.38
311.639	826.38
311.868	816.38
312.098	831.38
312.328	828.38
312.557	847.38
312.787	838.38
313.017	848.38
313.246	856.38
313.476	830.38
313.706	869.38
313.935	893.38
314.165	969.38
314.394	989.38
314.624	972.38
314.853	913.38
315.083	904.38
315.312	903.38
315.542	930.38
315.771	921.38
316.001	945.38
316.23	978.38
316.46	1004.38
316.689	1129.38
316.919	1351.38
317.148	1953.38
317.377	3007.38
317.607	4555.38
317.836	4696.38
318.065	2634.38
318.295	1670.38
318.524	1331.38
318.753	1190.38
318.983	1098.38
319.212	1040.38
319.441	1026.38
319.67	993.38
319.9	999.38
320.129	1006.38
320.358	954.38
320.587	983.38
320.816	973.38
321.046	969.38
321.275	983.38
321.504	1015.38
321.733	1044.38
321.962	1021.38
322.191	1043.38
322.42	1071.38
322.649	1057.38
322.878	1027.38
323.108	1031.38
323.337	1066.38
323.566	1070.38
323.795	1076.38
324.024	1112.38
324.253	1144.38
324.482	1160.38
324.71	1222.38
324.939	1276.38
325.168	1290.38
325.397	1344.38
325.626	1620.38
325.855	2326.38
326.084	3647.38
326.313	5596.38
326.542	5944.38
326.77	3580.38
326.999	2268.38
327.228	1949.38
327.457	1872.38
327.686	1859.38
327.914	1957.38
328.143	2242.38
328.372	2617.38
328.6	2788.38
328.829	2543.38
329.058	2269.38
329.287	1982.38
329.515	1841.38
329.744	1700.38
329.972	1641.38
330.201	1570.38
330.43	1480.38
330.658	1454.38
330.887	1400.38
331.115	1413.38
331.344	1416.38
331.572	1421.38
331.801	1421.38
332.03	1434.38
332.258	1441.38
332.486	1542.38
332.715	1751.38
332.943	2150.38
333.172	2644.38
333.4	2599.38
333.629	1960.38
333.857	1766.38
334.085	1801.38
334.314	1882.38
334.542	1995.38
334.771	2321.38
334.999	2814.38
335.227	3356.38
335.455	3834.38
335.684	3490.38
335.912	2940.38
336.14	2520.38
336.369	2273.38
336.597	2068.38
336.825	1924.38
337.053	1813.38
337.281	1709.38
337.51	1619.38
337.738	1563.38
337.966	1488.38
338.194	1438.38
338.422	1440.38
338.65	1394.38
338.878	1373.38
339.106	1346.38
339.334	1333.38
339.562	1325.38
339.79	1251.38
340.018	1255.38
340.246	1257.38
340.474	1275.38
340.702	1264.38
340.93	1308.38
341.158	1246.38
341.386	1249.38
341.614	1266.38
341.842	1241.38
342.07	1214.38
342.298	1186.38
342.526	1180.38
342.754	1127.38
342.981	1183.38
343.209	1141.38
343.437	1184.38
343.665	1173.38
343.893	1172.38
344.12	1188.38
344.348	1185.38
344.576	1132.38
344.804	1181.38
345.031	1116.38
345.259	1103.38
345.487	1097.38
345.714	1092.38
345.942	1079.38
346.17	1139.38
346.397	1077.38
346.625	1085.38
346.853	1060.38
347.08	1072.38
347.308	1090.38
347.535	1052.38
347.763	1059.38
347.99	1047.38
348.218	1047.38
348.445	1056.38
348.673	1019.38
348.9	1061.38
349.128	1084.38
349.355	1032.38
349.583	1039.38
349.81	1041.38
350.037	1009.38
350.265	1045.38
350.492	1019.38
350.72	1050.38
350.947	1029.38
351.174	1032.38
351.402	1038.38
351.629	1016.38
351.856	1038.38
352.083	1001.38
352.311	1010.38
352.538	1018.38
352.765	1026.38
352.992	1029.38
353.22	1034.38
353.447	1050.38
353.674	1029.38
353.901	1045.38
354.128	1022.38
354.355	1029.38
354.583	1030.38
354.81	1002.38
355.037	1049.38
355.264	998.38
355.491	1032.38
355.718	1035.38
355.945	1063.38
356.172	1043.38
356.399	1089.38
356.626	1040.38
356.853	1070.38
357.08	1047.38
357.307	1082.38
357.534	1084.38
357.761	1060.38
357.988	1073.38
358.215	1064.38
358.441	1085.38
358.668	1110.38
358.895	1094.38
359.122	1068.38
359.349	1087.38
359.576	1091.38
359.802	1075.38
360.029	1074.38
360.256	1106.38
360.483	1080.38
360.709	1098.38
360.936	1104.38
361.163	1089.38
361.39	1096.38
361.616	1092.38
361.843	1123.38
362.07	1103.38
362.296	1090.38
362.523	1072.38
362.749	1082.38
362.976	1080.38
363.203	1068.38
363.429	1065.38
363.656	1078.38
363.882	1081.38
364.109	1066.38
364.335	1060.38
364.562	1086.38
364.788	1119.38
365.015	1104.38
365.241	1130.38
365.468	1141.38
365.694	1218.38
365.92	1181.38
366.147	1128.38
366.373	1095.38
366.599	1077.38
366.826	1091.38
367.052	1097.38
367.278	1086.38
367.505	1104.38
367.731	1091.38
367.957	1125.38
368.184	1122.38
368.41	1159.38
368.636	1121.38
368.862	1151.38
369.089	1117.38
369.315	1141.38
369.541	1137.38
369.767	1143.38
369.993	1105.38
370.219	1143.38
370.445	1127.38
370.672	1136.38
370.898	1106.38
371.124	1148.38
371.35	1142.38
371.576	1144.38
371.802	1156.38
372.028	1152.38
372.254	1192.38
372.48	1168.38
372.706	1184.38
372.932	1179.38
373.158	1173.38
373.384	1212.38
373.61	1191.38
373.835	1192.38
374.061	1218.38
374.287	1198.38
374.513	1168.38
374.739	1246.38
374.965	1238.38
375.191	1222.38
375.416	1235.38
375.642	1220.38
375.868	1199.38
376.094	1191.38
376.319	1169.38
376.545	1179.38
376.771	1181.38
376.997	1151.38
377.222	1174.38
377.448	1192.38
377.674	1170.38
377.899	1175.38
378.125	1168.38
378.35	1177.38
378.576	1163.38
378.802	1172.38
379.027	1189.38
379.253	1246.38
379.478	1294.38
379.704	1502.38
379.929	2184.38
380.155	3337.38
380.38	3614.38
380.606	2169.38
380.831	1494.38
381.057	1301.38
381.282	1249.38
381.507	1204.38
381.733	1150.38
381.958	1176.38
382.184	1144.38
382.409	1144.38
382.634	1159.38
382.86	1161.38
383.085	1132.38
383.31	1166.38
383.535	1168.38
383.761	1143.38
383.986	1163.38
384.211	1166.38
384.436	1176.38
384.662	1168.38
384.887	1201.38
385.112	1182.38
385.337	1164.38
385.562	1191.38
385.787	1168.38
386.013	1204.38
386.238	1212.38
386.463	1213.38
386.688	1178.38
386.913	1188.38
387.138	1198.38
387.363	1175.38
387.588	1191.38
387.813	1190.38
388.038	1154.38
388.263	1207.38
388.488	1230.38
388.713	1199.38
388.938	1166.38
389.163	1169.38
389.387	1205.38
389.612	1200.38
389.837	1186.38
390.062	1185.38
390.287	1193.38
390.512	1174.38
390.736	1198.38
390.961	1242.38
391.186	1223.38
391.411	1231.38
391.636	1286.38
391.86	1262.38
392.085	1252.38
392.31	1252.38
392.534	1204.38
392.759	1251.38
392.984	1210.38
393.208	1228.38
393.433	1264.38
393.658	1226.38
393.882	1252.38
394.107	1205.38
394.331	1200.38
394.556	1182.38
394.78	1234.38
395.005	1237.38
395.229	1210.38
395.454	1248.38
395.678	1254.38
395.903	1247.38
396.127	1248.38
396.352	1225.38
396.576	1238.38
396.801	1263.38
397.025	1240.38
397.249	1269.38
397.474	1272.38
397.698	1262.38
397.922	1261.38
398.147	1279.38
398.371	1305.38
398.595	1316.38
398.82	1324.38
399.044	1399.38
399.268	1444.38
399.492	1485.38
399.717	1552.38
399.941	1542.38
400.165	1498.38
400.389	1473.38
400.613	1415.38
400.837	1352.38
401.062	1344.38
401.286	1318.38
401.51	1336.38
401.734	1308.38
401.958	1350.38
402.182	1328.38
402.406	1319.38
402.63	1306.38
402.854	1353.38
403.078	1325.38
403.302	1309.38
403.526	1330.38
403.75	1348.38
403.974	1392.38
404.198	1351.38
404.422	1374.38
404.645	1388.38
404.869	1358.38
405.093	1378.38
405.317	1349.38
405.541	1366.38
405.765	1391.38
405.988	1414.38
406.212	1401.38
406.436	1378.38
406.66	1408.38
406.883	1388.38
407.107	1428.38
407.331	1460.38
407.555	1476.38
407.778	1462.38
408.002	1472.38
408.226	1447.38
408.449	1422.38
408.673	1410.38
408.896	1402.38
409.12	1349.38
409.344	1366.38
409.567	1377.38
409.791	1385.38
410.014	1391.38
410.238	1362.38
410.461	1380.38
410.685	1320.38
410.908	1324.38
411.132	1338.38
411.355	1334.38
411.578	1328.38
411.802	1324.38
412.025	1324.38
412.249	1317.38
412.472	1284.38
412.695	1326.38
412.919	1310.38
413.142	1310.38
413.365	1281.38
413.589	1300.38
413.812	1296.38
414.035	1297.38
414.258	1282.38
414.482	1307.38
414.705	1307.38
414.928	1300.38
415.151	1310.38
415.374	1288.38
415.597	1247.38
415.821	1249.38
416.044	1253.38
416.267	1263.38
416.49	1255.38
416.713	1238.38
416.936	1276.38
417.159	1218.38
417.382	1228.38
417.605	1210.38
417.828	1249.38
418.051	1253.38
418.274	1244.38
418.497	1280.38
418.72	1290.38
418.943	1284.38
419.166	1305.38
419.389	1356.38
419.611	1363.38
419.834	1351.38
420.057	1282.38
420.28	1227.38
420.503	1214.38
420.726	1220.38
420.948	1216.38
421.171	1246.38
421.394	1240.38
421.617	1267.38
421.839	1290.38
422.062	1286.38
422.285	1242.38
422.507	1277.38
422.73	1282.38
422.953	1263.38
423.175	1301.38
423.398	1305.38
423.621	1220.38
423.843	1291.38
424.066	1257.38
424.288	1264.38
424.511	1237.38
424.733	1232.38
424.956	1254.38
425.178	1265.38
425.401	1244.38
425.623	1249.38
425.846	1231.38
426.068	1210.38
426.291	1231.38
426.513	1214.38
426.735	1219.38
426.958	1244.38
427.18	1164.38
427.402	1172.38
427.625	1182.38
427.847	1158.38
428.069	1202.38
428.292	1167.38
428.514	1189.38
428.736	1176.38
428.958	1149.38
429.181	1170.38
429.403	1126.38
429.625	1148.38
429.847	1183.38
430.069	1170.38
430.292	1216.38
430.514	1245.38
430.736	1233.38
430.958	1165.38
431.18	1154.38
431.402	1152.38
431.624	1123.38
431.846	1126.38
432.068	1159.38
432.29	1168.38
432.512	1109.38
432.734	1153.38
432.956	1139.38
433.178	1162.38
433.4	1183.38
433.622	1170.38
433.844	1157.38
434.066	1177.38
434.287	1133.38
434.509	1154.38
434.731	1182.38
434.953	1207.38
435.175	1210.38
435.397	1228.38
435.618	1137.38
435.84	1144.38
436.062	1106.38
436.284	1143.38
436.505	1119.38
436.727	1126.38
436.949	1164.38
437.17	1140.38
437.392	1133.38
437.614	1119.38
437.835	1100.38
438.057	1121.38
438.278	1089.38
438.5	1095.38
438.721	1141.38
438.943	1146.38
439.165	1219.38
439.386	1199.38
439.608	1172.38
439.829	1186.38
440.05	1272.38
440.272	1255.38
440.493	1202.38
440.715	1197.38
440.936	1198.38
441.158	1194.38
441.379	1222.38
441.6	1258.38
441.822	1289.38
442.043	1344.38
442.264	1360.38
442.486	1264.38
442.707	1256.38
442.928	1233.38
443.149	1245.38
443.371	1204.38
443.592	1233.38
443.813	1219.38
444.034	1252.38
444.255	1295.38
444.476	1290.38
444.698	1325.38
444.919	1317.38
445.14	1383.38
445.361	1300.38
445.582	1285.38
445.803	1253.38
446.024	1241.38
446.245	1230.38
446.466	1247.38
446.687	1206.38
446.908	1223.38
447.129	1206.38
447.35	1179.38
447.571	1169.38
447.792	1145.38
448.013	1147.38
448.234	1125.38
448.455	1134.38
448.675	1158.38
448.896	1188.38
449.117	1186.38
449.338	1321.38
449.559	1353.38
449.779	1227.38
450	1156.38
450.221	1120.38
450.442	1110.38
450.662	1104.38
450.883	1092.38
451.104	1124.38
451.324	1108.38
451.545	1085.38
451.766	1092.38
451.986	1147.38
452.207	1189.38
452.428	1496.38
452.648	2147.38
452.869	1856.38
453.089	1329.38
453.31	1232.38
453.53	1208.38
453.751	1279.38
453.971	1361.38
454.192	1332.38
454.412	1168.38
454.633	1090.38
454.853	1090.38
455.073	1076.38
455.294	1040.38
455.514	1043.38
455.734	1048.38
455.955	1035.38
456.175	1073.38
456.395	1061.38
456.616	1058.38
456.836	1050.38
457.056	1080.38
457.276	1073.38
457.497	1169.38
457.717	1139.38
457.937	1106.38
458.157	1113.38
458.377	1137.38
458.598	1129.38
458.818	1122.38
459.038	1106.38
459.258	1129.38
459.478	1137.38
459.698	1147.38
459.918	1167.38
460.138	1174.38
460.358	1207.38
460.578	1230.38
460.798	1270.38
461.018	1224.38
461.238	1239.38
461.458	1269.38
461.678	1258.38
461.898	1288.38
462.118	1326.38
462.338	1288.38
462.558	1303.38
462.777	1361.38
462.997	1394.38
463.217	1455.38
463.437	1512.38
463.657	1522.38
463.876	1504.38
464.096	1447.38
464.316	1363.38
464.536	1333.38
464.755	1354.38
464.975	1308.38
465.195	1264.38
465.414	1231.38
465.634	1173.38
465.854	1152.38
466.073	1160.38
466.293	1170.38
466.512	1165.38
466.732	1158.38
466.951	1217.38
467.171	1301.38
467.391	1260.38
467.61	1189.38
467.829	1172.38
468.049	1155.38
468.268	1119.38
468.488	1130.38
468.707	1133.38
468.927	1128.38
469.146	1124.38
469.365	1153.38
469.585	1138.38
469.804	1181.38
470.023	1208.38
470.243	1178.38
470.462	1271.38
470.681	1344.38
470.901	1408.38
471.12	1612.38
471.339	1665.38
471.558	1360.38
471.777	1263.38
471.997	1209.38
472.216	1193.38
472.435	1122.38
472.654	1117.38
472.873	1144.38
473.092	1138.38
473.311	1141.38
473.53	1137.38
473.749	1173.38
473.968	1190.38
474.187	1152.38
474.406	1134.38
474.625	1144.38
474.844	1131.38
475.063	1141.38
475.282	1160.38
475.501	1157.38
475.72	1161.38
475.939	1162.38
476.158	1183.38
476.377	1216.38
476.596	1171.38
476.814	1176.38
477.033	1168.38
477.252	1201.38
477.471	1209.38
477.69	1288.38
477.908	1253.38
478.127	1328.38
478.346	1281.38
478.564	1337.38
478.783	1317.38
479.002	1342.38
479.22	1329.38
479.439	1369.38
479.658	1341.38
479.876	1347.38
480.095	1356.38
480.313	1365.38
480.532	1372.38
480.751	1366.38
480.969	1319.38
481.188	1316.38
481.406	1373.38
481.624	1349.38
481.843	1344.38
482.061	1330.38
482.28	1341.38
482.498	1369.38
482.717	1378.38
482.935	1340.38
483.153	1407.38
483.372	1439.38
483.59	1436.38
483.808	1439.38
484.027	1469.38
484.245	1543.38
484.463	1715.38
484.681	1920.38
484.9	1768.38
485.118	1607.38
485.336	1554.38
485.554	1569.38
485.772	1678.38
485.99	1915.38
486.209	2108.38
486.427	1711.38
486.645	1541.38
486.863	1507.38
487.081	1489.38
487.299	1463.38
487.517	1478.38
487.735	1460.38
487.953	1511.38
488.171	1442.38
488.389	1433.38
488.607	1473.38
488.825	1422.38
489.043	1416.38
489.261	1391.38
489.479	1399.38
489.696	1421.38
489.914	1416.38
490.132	1404.38
490.35	1418.38
490.568	1419.38
490.786	1444.38
491.003	1458.38
491.221	1509.38
491.439	1485.38
491.657	1540.38
491.874	1505.38
492.092	1552.38
492.31	1518.38
492.527	1531.38
492.745	1530.38
492.963	1508.38
493.18	1540.38
493.398	1507.38
493.615	1496.38
493.833	1509.38
494.05	1458.38
494.268	1499.38
494.485	1484.38
494.703	1524.38
494.92	1504.38
495.138	1500.38
495.355	1477.38
495.573	1489.38
495.79	1480.38
496.008	1518.38
496.225	1521.38
496.442	1524.38
496.66	1593.38
496.877	1672.38
497.094	1655.38
497.312	1614.38
497.529	1625.38
497.746	1612.38
497.963	1632.38
498.181	1708.38
498.398	1717.38
498.615	1743.38
498.832	1811.38
499.049	1913.38
499.267	2024.38
499.484	2161.38
499.701	2186.38
499.918	2227.38
500.135	2376.38
500.352	2472.38
500.569	2509.38
500.786	2492.38
501.003	2401.38
501.22	2277.38
501.437	2109.38
501.654	2047.38
501.871	1976.38
502.088	1874.38
502.305	1837.38
502.522	1770.38
502.739	1742.38
502.956	1656.38
503.172	1629.38
503.389	1590.38
503.606	1584.38
503.823	1539.38
504.04	1532.38
504.256	1550.38
504.473	1537.38
504.69	1503.38
504.907	1504.38
505.123	1486.38
505.34	1420.38
505.557	1400.38
505.773	1410.38
505.99	1383.38
506.207	1353.38
506.423	1345.38
506.64	1353.38
506.856	1320.38
507.073	1306.38
507.289	1305.38
507.506	1307.38
507.722	1313.38
507.939	1298.38
508.155	1276.38
508.372	1285.38
508.588	1261.38
508.805	1245.38
509.021	1282.38
509.238	1294.38
509.454	1362.38
509.67	1465.38
509.887	1328.38
510.103	1305.38
510.319	1296.38
510.536	1250.38
510.752	1256.38
510.968	1226.38
511.184	1221.38
511.401	1252.38
511.617	1215.38
511.833	1221.38
512.049	1175.38
512.265	1231.38
512.481	1207.38
512.698	1212.38
512.914	1217.38
513.13	1266.38
513.346	1246.38
513.562	1203.38
513.778	1233.38
513.994	1258.38
514.21	1261.38
514.426	1340.38
514.642	1358.38
514.858	1269.38
515.074	1251.38
515.29	1265.38
515.506	1238.38
515.721	1235.38
515.937	1275.38
516.153	1254.38
516.369	1279.38
516.585	1282.38
516.801	1324.38
517.016	1305.38
517.232	1348.38
517.448	1389.38
517.664	1400.38
517.879	1382.38
518.095	1389.38
518.311	1372.38
518.527	1321.38
518.742	1352.38
518.958	1341.38
519.173	1372.38
519.389	1356.38
519.605	1292.38
519.82	1258.38
520.036	1256.38
520.251	1218.38
520.467	1226.38
520.682	1217.38
520.898	1231.38
521.113	1193.38
521.329	1176.38
521.544	1191.38
521.76	1181.38
521.975	1187.38
522.19	1233.38
522.406	1169.38
522.621	1169.38
522.836	1194.38
523.052	1197.38
523.267	1168.38
523.482	1179.38
523.698	1169.38
523.913	1167.38
524.128	1178.38
524.343	1192.38
524.559	1182.38
524.774	1180.38
524.989	1188.38
525.204	1166.38
525.419	1126.38
525.634	1189.38
525.849	1188.38
526.064	1146.38
526.28	1174.38
526.495	1135.38
526.71	1168.38
526.925	1179.38
527.14	1174.38
527.355	1188.38
527.57	1167.38
527.785	1169.38
527.999	1172.38
528.214	1160.38
528.429	1171.38
528.644	1198.38
528.859	1267.38
529.074	1238.38
529.289	1283.38
529.503	1289.38
529.718	1256.38
529.933	1244.38
530.148	1255.38
530.363	1257.38
530.577	1215.38
530.792	1248.38
531.007	1253.38
531.221	1248.38
531.436	1268.38
531.651	1240.38
531.865	1282.38
532.08	1297.38
532.295	1326.38
532.509	1363.38
532.724	1429.38
532.938	1422.38
533.153	1436.38
533.367	1553.38
533.582	1572.38
533.796	1590.38
534.011	1522.38
534.225	1474.38
534.44	1438.38
534.654	1403.38
534.868	1398.38
535.083	1350.38
535.297	1368.38
535.511	1322.38
535.726	1308.38
535.94	1302.38
536.154	1273.38
536.369	1237.38
536.583	1260.38
536.797	1240.38
537.011	1212.38
537.225	1198.38
537.44	1218.38
537.654	1210.38
537.868	1175.38
538.082	1143.38
538.296	1165.38
538.51	1161.38
538.724	1161.38
538.938	1181.38
539.153	1157.38
539.367	1170.38
539.581	1127.38
539.795	1145.38
540.009	1148.38
540.222	1081.38
540.436	1143.38
540.65	1140.38
540.864	1145.38
541.078	1195.38
541.292	1212.38
541.506	1470.38
541.72	1552.38
541.934	1349.38
542.147	1256.38
542.361	1217.38
542.575	1160.38
542.789	1136.38
543.002	1127.38
543.216	1111.38
543.43	1100.38
543.644	1094.38
543.857	1136.38
544.071	1136.38
544.285	1124.38
544.498	1146.38
544.712	1148.38
544.925	1162.38
545.139	1122.38
545.352	1162.38
545.566	1148.38
545.779	1156.38
545.993	1156.38
546.206	1190.38
546.42	1140.38
546.633	1096.38
546.847	1133.38
547.06	1161.38
547.274	1152.38
547.487	1166.38
547.7	1153.38
547.914	1129.38
548.127	1156.38
548.34	1178.38
548.554	1151.38
548.767	1152.38
548.98	1159.38
549.193	1140.38
549.407	1155.38
549.62	1159.38
549.833	1140.38
550.046	1142.38
550.259	1149.38
550.473	1120.38
550.686	1125.38
550.899	1141.38
551.112	1134.38
551.325	1142.38
551.538	1113.38
551.751	1118.38
551.964	1103.38
552.177	1099.38
552.39	1180.38
552.603	1190.38
552.816	1223.38
553.029	1205.38
553.242	1245.38
553.455	1244.38
553.667	1245.38
553.88	1236.38
554.093	1262.38
554.306	1253.38
554.519	1241.38
554.732	1296.38
554.944	1309.38
555.157	1297.38
555.37	1351.38
555.583	1372.38
555.795	1423.38
556.008	1509.38
556.221	1624.38
556.433	1713.38
556.646	1765.38
556.859	1709.38
557.071	1637.38
557.284	1614.38
557.496	1558.38
557.709	1565.38
557.921	1579.38
558.134	1497.38
558.346	1535.38
558.559	1590.38
558.771	1672.38
558.984	1770.38
559.196	1935.38
559.409	1826.38
559.621	1741.38
559.833	1641.38
560.046	1549.38
560.258	1468.38
560.47	1424.38
560.683	1359.38
560.895	1301.38
561.107	1329.38
561.32	1254.38
561.532	1223.38
561.744	1214.38
561.956	1208.38
562.168	1183.38
562.381	1123.38
562.593	1154.38
562.805	1162.38
563.017	1178.38
563.229	1216.38
563.441	1318.38
563.653	1119.38
563.865	1102.38
564.077	1073.38
564.289	1036.38
564.501	1065.38
564.713	1061.38
564.925	1044.38
565.137	1045.38
565.349	1047.38
565.561	1042.38
565.773	1064.38
565.985	1068.38
566.197	1084.38
566.408	1105.38
566.62	1121.38
566.832	1144.38
567.044	1164.38
567.255	1207.38
567.467	1157.38
567.679	1177.38
567.891	1230.38
568.102	1381.38
568.314	1641.38
568.526	1383.38
568.737	1178.38
568.949	1092.38
569.161	1018.38
569.372	971.38
569.584	934.38
569.795	967.38
570.007	918.38
570.218	962.38
570.43	971.38
570.641	920.38
570.853	885.38
571.064	888.38
571.276	885.38
571.487	878.38
571.698	853.38
571.91	835.38
572.121	848.38
572.333	827.38
572.544	822.38
572.755	904.38
572.966	1060.38
573.178	910.38
573.389	820.38
573.6	823.38
573.811	788.38
574.023	800.38
574.234	786.38
574.445	783.38
574.656	770.38
574.867	744.38
575.078	780.38
575.289	743.38
575.501	753.38
575.712	748.38
575.923	733.38
576.134	766.38
576.345	784.38
576.556	768.38
576.767	784.38
576.978	783.38
577.188	771.38
577.399	786.38
577.61	763.38
577.821	777.38
578.032	801.38
578.243	793.38
578.454	806.38
578.665	835.38
578.875	809.38
579.086	845.38
579.297	861.38
579.508	917.38
579.718	1009.38
579.929	1111.38
580.14	1234.38
580.35	1297.38
580.561	1221.38
580.772	1116.38
580.982	1027.38
581.193	984.38
581.403	950.38
581.614	913.38
581.825	869.38
582.035	855.38
582.246	805.38
582.456	833.38
582.667	807.38
582.877	778.38
583.087	765.38
583.298	706.38
583.508	704.38
583.719	670.38
583.929	668.38
584.139	662.38
584.35	636.38
584.56	644.38
584.77	675.38
584.981	642.38
585.191	636.38
585.401	601.38
585.611	628.38
585.821	624.38
586.032	627.38
586.242	605.38
586.452	621.38
586.662	609.38
586.872	589.38
587.082	586.38
587.292	570.38
587.502	584.38
587.713	581.38
587.923	562.38
588.133	572.38
588.343	585.38
588.553	565.38
588.762	586.38
588.972	538.38
589.182	573.38
589.392	568.38
589.602	549.38
589.812	575.38
590.022	562.38
590.232	548.38
590.441	540.38
590.651	563.38
590.861	526.38
591.071	559.38
591.281	560.38
591.49	558.38
591.7	528.38
591.91	538.38
592.119	562.38
592.329	542.38
592.539	564.38
592.748	561.38
592.958	566.38
593.167	567.38
593.377	581.38
593.587	561.38
593.796	573.38
594.006	547.38
594.215	553.38
594.424	562.38
594.634	585.38
594.843	562.38
595.053	558.38
595.262	544.38
595.472	532.38
595.681	512.38
595.89	526.38
596.1	512.38
596.309	541.38
596.518	508.38
596.727	489.38
596.937	475.38
597.146	470.38
597.355	472.38
597.564	481.38
597.774	483.38
597.983	485.38
598.192	476.38
598.401	456.38
598.61	447.38
598.819	461.38
599.028	441.38
599.237	459.38
599.446	454.38
599.655	472.38
599.864	454.38
600.073	452.38
600.282	449.38
600.491	442.38
600.7	421.38
600.909	448.38
601.118	473.38
601.327	458.38
601.536	458.38
601.745	473.38
601.953	533.38
602.162	593.38
602.371	510.38
602.58	453.38
602.789	468.38
602.997	440.38
603.206	445.38
603.415	438.38
603.623	436.38
603.832	426.38
604.041	439.38
604.249	403.38
604.458	441.38
604.666	439.38
604.875	439.38
605.084	426.38
605.292	431.38
605.501	418.38
605.709	445.38
605.918	448.38
606.126	445.38
606.334	456.38
606.543	468.38
606.751	502.38
606.96	550.38
607.168	605.38
607.376	503.38
607.585	455.38
607.793	444.38
608.001	454.38
608.21	436.38
608.418	423.38
608.626	436.38
608.834	420.38
609.043	420.38
609.251	426.38
609.459	437.38
609.667	409.38
609.875	430.38
610.083	413.38
610.291	437.38
610.499	412.38
610.707	406.38
610.916	415.38
611.124	407.38
611.332	407.38
611.54	412.38
611.748	413.38
611.955	398.38
612.163	402.38
612.371	409.38
612.579	405.38
612.787	390.38
612.995	399.38
613.203	401.38
613.411	398.38
613.618	418.38
613.826	393.38
614.034	399.38
614.242	412.38
614.449	399.38
614.657	393.38
614.865	376.38
615.072	415.38
615.28	418.38
615.488	399.38
615.695	393.38
615.903	409.38
616.111	400.38
616.318	408.38
616.526	392.38
616.733	371.38
616.941	391.38
617.148	398.38
617.356	400.38
617.563	385.38
617.771	393.38
617.978	369.38
618.185	390.38
618.393	368.38
618.6	369.38
618.807	376.38
619.015	385.38
619.222	374.38
619.429	362.38
619.637	361.38
619.844	356.38
620.051	366.38
620.258	377.38
620.466	358.38
620.673	360.38
620.88	371.38
621.087	358.38
621.294	335.38
621.501	359.38
621.708	358.38
621.915	358.38
622.122	337.38
622.329	347.38
622.536	365.38
622.743	370.38
622.95	359.38
623.157	344.38
623.364	343.38
623.571	350.38
623.778	333.38
623.985	344.38
624.192	335.38
624.399	341.38
624.606	334.38
624.812	343.38
625.019	349.38
625.226	341.38
625.433	342.38
625.639	324.38
625.846	310.38
626.053	334.38
626.259	333.38
626.466	314.38
626.673	322.38
626.879	317.38
627.086	311.38
627.293	319.38
627.499	326.38
627.706	330.38
627.912	336.38
628.119	321.38
628.325	348.38
628.532	319.38
628.738	329.38
628.945	303.38
629.151	309.38
629.357	309.38
629.564	308.38
629.77	305.38
629.976	322.38
630.183	305.38
630.389	301.38
630.595	317.38
630.802	304.38
631.008	318.38
631.214	306.38
631.42	321.38
631.627	322.38
631.833	304.38
632.039	290.38
632.245	301.38
632.451	318.38
632.657	326.38
632.863	299.38
633.069	281.38
633.275	319.38
633.481	286.38
633.688	294.38
633.893	303.38
634.099	307.38
634.305	285.38
634.511	296.38
634.717	306.38
634.923	332.38
635.129	359.38
635.335	407.38
635.541	334.38
635.747	334.38
635.952	328.38
636.158	318.38
636.364	298.38
636.57	308.38
636.775	310.38
636.981	294.38
637.187	309.38
637.392	307.38
637.598	308.38
637.804	298.38
638.009	297.38
638.215	303.38
638.421	306.38
638.626	301.38
638.832	314.38
639.037	321.38
639.243	307.38
639.448	305.38
639.654	313.38
639.859	318.38
640.065	320.38
640.27	305.38
640.475	312.38
640.681	324.38
640.886	314.38
641.091	322.38
641.297	339.38
641.502	306.38
641.707	309.38
641.913	353.38
642.118	317.38
642.323	332.38
642.528	349.38
642.733	361.38
642.939	317.38
643.144	365.38
643.349	380.38
643.554	373.38
643.759	392.38
643.964	412.38
644.169	411.38
644.374	466.38
644.579	494.38
644.784	533.38
644.989	577.38
645.194	644.38
645.399	776.38
645.604	778.38
645.809	610.38
646.014	521.38
646.219	454.38
646.423	412.38
646.628	370.38
646.833	353.38
647.038	348.38
647.243	333.38
647.447	327.38
647.652	312.38
647.857	305.38
648.062	298.38
648.266	304.38
648.471	288.38
648.676	294.38
648.88	274.38
649.085	277.38
649.289	297.38
649.494	286.38
649.698	270.38
649.903	262.38
650.107	263.38
650.312	254.38
650.516	261.38
650.721	276.38
650.925	248.38
651.13	248.38
651.334	231.38
651.539	240.38
651.743	217.38
651.947	236.38
652.152	236.38
652.356	232.38
652.56	254.38
652.764	287.38
652.969	246.38
653.173	223.38
653.377	229.38
653.581	238.38
653.785	224.38
653.99	223.38
654.194	211.38
654.398	221.38
654.602	218.38
654.806	201.38
655.01	207.38
655.214	202.38
655.418	206.38
655.622	193.38
655.826	211.38
656.03	208.38
656.234	231.38
656.438	222.38
656.642	234.38
656.846	219.38
657.049	201.38
657.253	202.38
657.457	180.38
657.661	174.38
657.865	167.38
658.068	162.38
658.272	165.38
658.476	147.38
658.68	137.38
658.883	140.38
659.087	136.38
659.291	148.38
659.494	138.38
659.698	128.38
659.901	121.38
660.105	120.38
660.309	119.38
660.512	104.38
660.716	125.38
660.919	116.38
661.123	120.38
661.326	106.38
661.53	105.38
661.733	108.38
661.936	103.38
662.14	108.38
662.343	114.38
662.546	93.38
662.75	97.38
662.953	106.38
663.156	89.38
663.36	95.38
663.563	94.38
663.766	81.38
663.969	64.38
664.173	84.38
664.376	89.38
664.579	90.38
664.782	88.38
664.985	85.38
665.188	91.38
665.391	91.38
665.594	78.38
665.797	77.38
666	81.38
666.203	87.38
666.406	88.38
666.609	76.38
666.812	94.38
667.015	101.38
667.218	89.38
667.421	77.38
667.624	64.38
667.827	78.38
668.03	79.38
668.232	78.38
668.435	82.38
668.638	84.38
668.841	72.38
669.043	81.38
669.246	90.38
669.449	94.38
669.651	86.38
669.854	95.38
670.057	91.38
670.259	78.38
670.462	84.38
670.665	89.38
670.867	86.38
671.07	81.38
671.272	70.38
671.475	77.38
671.677	74.38
671.88	92.38
672.082	84.38
672.284	83.38
672.487	81.38
672.689	84.38
672.892	84.38
