Data from SnStandardFlinnAPT0064_LampEnergy5.5_LIBS07252019.E.O._I.C._HRD10591_15-16-50-492.txt Node
Date: Thu Jul 25 15:16:50 EDT 2019
User: cochatt
Spectrometer: HR+D1059
Trigger mode: 1
Integration Time (sec): 1.000000E-1
Scans to average: 1
Electric dark correction enabled: true
Nonlinearity correction enabled: false
Boxcar width: 0
XAxis mode: Wavelengths
Number of Pixels in Spectrum: 2048
>>>>>Begin Spectral Data<<<<<
223.165	-21.25
223.4	-21.25
223.635	-21.25
223.869	-19.25
224.104	-16.25
224.338	-13.25
224.573	-7.25
224.808	-12.25
225.042	-6.25
225.277	-0.25
225.511	-9.25
225.746	5.75
225.98	19.75
226.215	-0.25
226.449	14.75
226.683	24.75
226.918	20.75
227.152	19.75
227.387	32.75
227.621	21.75
227.856	35.75
228.09	45.75
228.324	49.75
228.559	57.75
228.793	97.75
229.027	148.75
229.262	179.75
229.496	167.75
229.73	160.75
229.964	160.75
230.199	170.75
230.433	156.75
230.667	162.75
230.901	152.75
231.136	185.75
231.37	179.75
231.604	208.75
231.838	215.75
232.072	240.75
232.306	263.75
232.541	217.75
232.775	200.75
233.009	201.75
233.243	212.75
233.477	215.75
233.711	256.75
233.945	255.75
234.179	234.75
234.413	235.75
234.647	210.75
234.881	239.75
235.115	261.75
235.349	292.75
235.583	356.75
235.817	448.75
236.051	432.75
236.285	277.75
236.519	259.75
236.753	240.75
236.987	236.75
237.221	251.75
237.455	242.75
237.689	234.75
237.922	234.75
238.156	226.75
238.39	233.75
238.624	239.75
238.858	205.75
239.091	242.75
239.325	236.75
239.559	248.75
239.793	243.75
240.027	253.75
240.26	262.75
240.494	245.75
240.728	277.75
240.961	265.75
241.195	306.75
241.429	301.75
241.662	323.75
241.896	363.75
242.13	436.75
242.363	525.75
242.597	654.75
242.83	631.75
243.064	650.75
243.298	780.75
243.531	652.75
243.765	414.75
243.998	343.75
244.232	311.75
244.465	320.75
244.699	302.75
244.932	308.75
245.166	299.75
245.399	289.75
245.633	317.75
245.866	304.75
246.099	299.75
246.333	299.75
246.566	293.75
246.8	287.75
247.033	288.75
247.266	278.75
247.5	303.75
247.733	323.75
247.966	311.75
248.2	323.75
248.433	387.75
248.666	427.75
248.899	406.75
249.133	376.75
249.366	372.75
249.599	418.75
249.832	457.75
250.066	460.75
250.299	375.75
250.532	354.75
250.765	331.75
250.998	350.75
251.231	320.75
251.465	326.75
251.698	340.75
251.931	343.75
252.164	337.75
252.397	332.75
252.63	363.75
252.863	360.75
253.096	363.75
253.329	355.75
253.562	353.75
253.795	328.75
254.028	369.75
254.261	365.75
254.494	403.75
254.727	453.75
254.96	549.75
255.193	521.75
255.426	427.75
255.659	374.75
255.892	384.75
256.124	372.75
256.357	405.75
256.59	394.75
256.823	413.75
257.056	456.75
257.289	565.75
257.521	607.75
257.754	469.75
257.987	437.75
258.22	417.75
258.452	406.75
258.685	411.75
258.918	424.75
259.151	420.75
259.383	465.75
259.616	504.75
259.849	544.75
260.081	485.75
260.314	443.75
260.547	427.75
260.779	406.75
261.012	439.75
261.244	429.75
261.477	471.75
261.71	436.75
261.942	435.75
262.175	451.75
262.407	459.75
262.64	466.75
262.872	515.75
263.105	520.75
263.337	545.75
263.57	529.75
263.802	577.75
264.035	581.75
264.267	579.75
264.499	607.75
264.732	636.75
264.964	631.75
265.197	616.75
265.429	652.75
265.661	634.75
265.894	666.75
266.126	742.75
266.358	818.75
266.591	803.75
266.823	689.75
267.055	637.75
267.287	630.75
267.52	601.75
267.752	584.75
267.984	571.75
268.216	541.75
268.448	556.75
268.681	552.75
268.913	561.75
269.145	559.75
269.377	539.75
269.609	561.75
269.841	579.75
270.073	596.75
270.306	687.75
270.538	921.75
270.77	1331.75
271.002	1605.75
271.234	1112.75
271.466	766.75
271.698	626.75
271.93	597.75
272.162	556.75
272.394	561.75
272.626	561.75
272.858	545.75
273.09	532.75
273.322	532.75
273.553	518.75
273.785	536.75
274.017	530.75
274.249	539.75
274.481	539.75
274.713	525.75
274.945	537.75
275.176	535.75
275.408	554.75
275.64	548.75
275.872	552.75
276.104	570.75
276.335	563.75
276.567	561.75
276.799	552.75
277.031	577.75
277.262	581.75
277.494	602.75
277.726	653.75
277.957	753.75
278.189	830.75
278.421	793.75
278.652	678.75
278.884	673.75
279.115	650.75
279.347	633.75
279.579	622.75
279.81	624.75
280.042	626.75
280.273	635.75
280.505	632.75
280.736	658.75
280.968	663.75
281.199	728.75
281.431	799.75
281.662	835.75
281.894	750.75
282.125	680.75
282.356	682.75
282.588	697.75
282.819	728.75
283.051	784.75
283.282	819.75
283.513	1015.75
283.745	1504.75
283.976	2340.75
284.207	3385.75
284.439	2988.75
284.67	1769.75
284.901	1402.75
285.132	1384.75
285.364	1345.75
285.595	1050.75
285.826	990.75
286.057	1145.75
286.288	1582.75
286.52	2131.75
286.751	1923.75
286.982	1202.75
287.213	903.75
287.444	832.75
287.675	778.75
287.906	722.75
288.138	738.75
288.369	755.75
288.6	701.75
288.831	699.75
289.062	711.75
289.293	719.75
289.524	733.75
289.755	734.75
289.986	717.75
290.217	715.75
290.448	737.75
290.679	755.75
290.91	743.75
291.141	743.75
291.371	821.75
291.602	823.75
291.833	775.75
292.064	741.75
292.295	717.75
292.526	721.75
292.757	721.75
292.987	674.75
293.218	681.75
293.449	692.75
293.68	692.75
293.91	689.75
294.141	691.75
294.372	660.75
294.603	666.75
294.833	675.75
295.064	710.75
295.295	668.75
295.525	678.75
295.756	662.75
295.987	681.75
296.217	678.75
296.448	663.75
296.679	692.75
296.909	663.75
297.14	682.75
297.37	701.75
297.601	730.75
297.831	709.75
298.062	730.75
298.292	699.75
298.523	702.75
298.753	746.75
298.984	728.75
299.214	739.75
299.445	739.75
299.675	768.75
299.905	769.75
300.136	812.75
300.366	861.75
300.597	1134.75
300.827	1550.75
301.057	2074.75
301.288	2067.75
301.518	1319.75
301.748	1025.75
301.979	956.75
302.209	908.75
302.439	908.75
302.669	980.75
302.9	1164.75
303.13	1623.75
303.36	2412.75
303.59	3297.75
303.82	2813.75
304.051	1618.75
304.281	1187.75
304.511	991.75
304.741	928.75
304.971	869.75
305.201	860.75
305.431	836.75
305.661	833.75
305.891	797.75
306.121	781.75
306.352	813.75
306.582	802.75
306.812	791.75
307.042	794.75
307.272	772.75
307.502	781.75
307.731	789.75
307.961	772.75
308.191	789.75
308.421	777.75
308.651	763.75
308.881	785.75
309.111	786.75
309.341	775.75
309.571	782.75
309.8	786.75
310.03	771.75
310.26	798.75
310.49	799.75
310.72	805.75
310.949	780.75
311.179	799.75
311.409	831.75
311.639	819.75
311.868	818.75
312.098	803.75
312.328	833.75
312.557	863.75
312.787	827.75
313.017	841.75
313.246	873.75
313.476	872.75
313.706	898.75
313.935	917.75
314.165	973.75
314.394	999.75
314.624	968.75
314.853	936.75
315.083	913.75
315.312	920.75
315.542	913.75
315.771	925.75
316.001	928.75
316.23	970.75
316.46	1031.75
316.689	1093.75
316.919	1305.75
317.148	1857.75
317.377	2908.75
317.607	4321.75
317.836	4375.75
318.065	2517.75
318.295	1639.75
318.524	1344.75
318.753	1159.75
318.983	1115.75
319.212	1015.75
319.441	1027.75
319.67	1005.75
319.9	983.75
320.129	982.75
320.358	986.75
320.587	975.75
320.816	958.75
321.046	971.75
321.275	977.75
321.504	986.75
321.733	1027.75
321.962	1033.75
322.191	1038.75
322.42	1030.75
322.649	1029.75
322.878	1045.75
323.108	1013.75
323.337	1059.75
323.566	1096.75
323.795	1068.75
324.024	1076.75
324.253	1114.75
324.482	1157.75
324.71	1215.75
324.939	1297.75
325.168	1290.75
325.397	1349.75
325.626	1595.75
325.855	2269.75
326.084	3463.75
326.313	5222.75
326.542	5557.75
326.77	3460.75
326.999	2225.75
327.228	1883.75
327.457	1787.75
327.686	1794.75
327.914	1938.75
328.143	2209.75
328.372	2545.75
328.6	2767.75
328.829	2562.75
329.058	2259.75
329.287	1993.75
329.515	1837.75
329.744	1701.75
329.972	1587.75
330.201	1565.75
330.43	1512.75
330.658	1464.75
330.887	1452.75
331.115	1431.75
331.344	1424.75
331.572	1404.75
331.801	1440.75
332.03	1420.75
332.258	1428.75
332.486	1537.75
332.715	1725.75
332.943	2105.75
333.172	2536.75
333.4	2511.75
333.629	1952.75
333.857	1780.75
334.085	1778.75
334.314	1873.75
334.542	2029.75
334.771	2288.75
334.999	2740.75
335.227	3304.75
335.455	3659.75
335.684	3451.75
335.912	2927.75
336.14	2569.75
336.369	2276.75
336.597	2058.75
336.825	1905.75
337.053	1772.75
337.281	1744.75
337.51	1599.75
337.738	1578.75
337.966	1521.75
338.194	1471.75
338.422	1419.75
338.65	1390.75
338.878	1378.75
339.106	1361.75
339.334	1337.75
339.562	1311.75
339.79	1283.75
340.018	1271.75
340.246	1242.75
340.474	1263.75
340.702	1275.75
340.93	1260.75
341.158	1255.75
341.386	1220.75
341.614	1223.75
341.842	1236.75
342.07	1229.75
342.298	1195.75
342.526	1189.75
342.754	1135.75
342.981	1147.75
343.209	1147.75
343.437	1189.75
343.665	1176.75
343.893	1176.75
344.12	1218.75
344.348	1157.75
344.576	1180.75
344.804	1147.75
345.031	1097.75
345.259	1127.75
345.487	1076.75
345.714	1095.75
345.942	1094.75
346.17	1117.75
346.397	1071.75
346.625	1048.75
346.853	1056.75
347.08	1061.75
347.308	1068.75
347.535	1069.75
347.763	1049.75
347.99	1037.75
348.218	1069.75
348.445	1045.75
348.673	1033.75
348.9	1051.75
349.128	1048.75
349.355	1076.75
349.583	1037.75
349.81	1004.75
350.037	1034.75
350.265	1041.75
350.492	1031.75
350.72	1021.75
350.947	1032.75
351.174	1056.75
351.402	1015.75
351.629	1009.75
351.856	1019.75
352.083	1033.75
352.311	1047.75
352.538	1016.75
352.765	1047.75
352.992	1042.75
353.22	1008.75
353.447	1005.75
353.674	1019.75
353.901	1048.75
354.128	1038.75
354.355	1034.75
354.583	1020.75
354.81	1040.75
355.037	1031.75
355.264	1049.75
355.491	1060.75
355.718	1034.75
355.945	1050.75
356.172	1068.75
356.399	1069.75
356.626	1049.75
356.853	1067.75
357.08	1089.75
357.307	1065.75
357.534	1076.75
357.761	1110.75
357.988	1069.75
358.215	1110.75
358.441	1103.75
358.668	1093.75
358.895	1113.75
359.122	1083.75
359.349	1098.75
359.576	1097.75
359.802	1086.75
360.029	1097.75
360.256	1080.75
360.483	1076.75
360.709	1080.75
360.936	1079.75
361.163	1083.75
361.39	1099.75
361.616	1105.75
361.843	1107.75
362.07	1077.75
362.296	1104.75
362.523	1102.75
362.749	1055.75
362.976	1088.75
363.203	1063.75
363.429	1072.75
363.656	1107.75
363.882	1087.75
364.109	1076.75
364.335	1105.75
364.562	1083.75
364.788	1074.75
365.015	1092.75
365.241	1099.75
365.468	1147.75
365.694	1175.75
365.92	1173.75
366.147	1122.75
366.373	1132.75
366.599	1092.75
366.826	1076.75
367.052	1084.75
367.278	1124.75
367.505	1116.75
367.731	1107.75
367.957	1100.75
368.184	1124.75
368.41	1158.75
368.636	1132.75
368.862	1129.75
369.089	1143.75
369.315	1131.75
369.541	1113.75
369.767	1148.75
369.993	1142.75
370.219	1146.75
370.445	1156.75
370.672	1173.75
370.898	1146.75
371.124	1143.75
371.35	1173.75
371.576	1143.75
371.802	1153.75
372.028	1191.75
372.254	1203.75
372.48	1187.75
372.706	1168.75
372.932	1237.75
373.158	1178.75
373.384	1185.75
373.61	1161.75
373.835	1172.75
374.061	1210.75
374.287	1223.75
374.513	1203.75
374.739	1244.75
374.965	1260.75
375.191	1257.75
375.416	1244.75
375.642	1187.75
375.868	1218.75
376.094	1204.75
376.319	1195.75
376.545	1181.75
376.771	1186.75
376.997	1163.75
377.222	1178.75
377.448	1187.75
377.674	1160.75
377.899	1157.75
378.125	1156.75
378.35	1174.75
378.576	1175.75
378.802	1175.75
379.027	1208.75
379.253	1218.75
379.478	1287.75
379.704	1477.75
379.929	2096.75
380.155	3187.75
380.38	3363.75
380.606	2056.75
380.831	1475.75
381.057	1335.75
381.282	1234.75
381.507	1215.75
381.733	1187.75
381.958	1185.75
382.184	1171.75
382.409	1194.75
382.634	1163.75
382.86	1151.75
383.085	1154.75
383.31	1173.75
383.535	1163.75
383.761	1174.75
383.986	1165.75
384.211	1189.75
384.436	1181.75
384.662	1188.75
384.887	1182.75
385.112	1191.75
385.337	1180.75
385.562	1190.75
385.787	1215.75
386.013	1225.75
386.238	1203.75
386.463	1197.75
386.688	1224.75
386.913	1173.75
387.138	1181.75
387.363	1196.75
387.588	1196.75
387.813	1225.75
388.038	1216.75
388.263	1187.75
388.488	1203.75
388.713	1215.75
388.938	1201.75
389.163	1197.75
389.387	1227.75
389.612	1207.75
389.837	1221.75
390.062	1196.75
390.287	1205.75
390.512	1197.75
390.736	1222.75
390.961	1226.75
391.186	1226.75
391.411	1216.75
391.636	1260.75
391.86	1287.75
392.085	1287.75
392.31	1260.75
392.534	1253.75
392.759	1253.75
392.984	1249.75
393.208	1249.75
393.433	1261.75
393.658	1258.75
393.882	1215.75
394.107	1203.75
394.331	1213.75
394.556	1203.75
394.78	1209.75
395.005	1238.75
395.229	1246.75
395.454	1241.75
395.678	1219.75
395.903	1248.75
396.127	1242.75
396.352	1237.75
396.576	1239.75
396.801	1266.75
397.025	1249.75
397.249	1272.75
397.474	1263.75
397.698	1281.75
397.922	1290.75
398.147	1310.75
398.371	1292.75
398.595	1316.75
398.82	1322.75
399.044	1400.75
399.268	1439.75
399.492	1549.75
399.717	1614.75
399.941	1547.75
400.165	1524.75
400.389	1454.75
400.613	1407.75
400.837	1362.75
401.062	1391.75
401.286	1349.75
401.51	1350.75
401.734	1332.75
401.958	1356.75
402.182	1361.75
402.406	1336.75
402.63	1323.75
402.854	1344.75
403.078	1343.75
403.302	1355.75
403.526	1381.75
403.75	1381.75
403.974	1399.75
404.198	1383.75
404.422	1415.75
404.645	1356.75
404.869	1402.75
405.093	1361.75
405.317	1363.75
405.541	1375.75
405.765	1376.75
405.988	1413.75
406.212	1385.75
406.436	1404.75
406.66	1441.75
406.883	1397.75
407.107	1440.75
407.331	1486.75
407.555	1483.75
407.778	1496.75
408.002	1496.75
408.226	1482.75
408.449	1467.75
408.673	1435.75
408.896	1400.75
409.12	1395.75
409.344	1427.75
409.567	1352.75
409.791	1389.75
410.014	1372.75
410.238	1336.75
410.461	1388.75
410.685	1371.75
410.908	1340.75
411.132	1322.75
411.355	1302.75
411.578	1353.75
411.802	1303.75
412.025	1339.75
412.249	1337.75
412.472	1357.75
412.695	1319.75
412.919	1299.75
413.142	1300.75
413.365	1311.75
413.589	1335.75
413.812	1335.75
414.035	1318.75
414.258	1306.75
414.482	1306.75
414.705	1317.75
414.928	1319.75
415.151	1287.75
415.374	1308.75
415.597	1251.75
415.821	1270.75
416.044	1256.75
416.267	1251.75
416.49	1248.75
416.713	1263.75
416.936	1240.75
417.159	1222.75
417.382	1261.75
417.605	1235.75
417.828	1235.75
418.051	1304.75
418.274	1277.75
418.497	1267.75
418.72	1298.75
418.943	1242.75
419.166	1289.75
419.389	1416.75
419.611	1361.75
419.834	1315.75
420.057	1286.75
420.28	1292.75
420.503	1238.75
420.726	1269.75
420.948	1246.75
421.171	1263.75
421.394	1292.75
421.617	1305.75
421.839	1307.75
422.062	1301.75
422.285	1274.75
422.507	1292.75
422.73	1290.75
422.953	1273.75
423.175	1323.75
423.398	1298.75
423.621	1253.75
423.843	1311.75
424.066	1302.75
424.288	1311.75
424.511	1252.75
424.733	1262.75
424.956	1252.75
425.178	1259.75
425.401	1256.75
425.623	1265.75
425.846	1235.75
426.068	1215.75
426.291	1219.75
426.513	1200.75
426.735	1195.75
426.958	1222.75
427.18	1181.75
427.402	1182.75
427.625	1172.75
427.847	1156.75
428.069	1171.75
428.292	1211.75
428.514	1163.75
428.736	1203.75
428.958	1183.75
429.181	1154.75
429.403	1168.75
429.625	1145.75
429.847	1155.75
430.069	1145.75
430.292	1201.75
430.514	1234.75
430.736	1256.75
430.958	1211.75
431.18	1144.75
431.402	1161.75
431.624	1161.75
431.846	1147.75
432.068	1135.75
432.29	1140.75
432.512	1132.75
432.734	1155.75
432.956	1144.75
433.178	1209.75
433.4	1139.75
433.622	1192.75
433.844	1195.75
434.066	1160.75
434.287	1133.75
434.509	1159.75
434.731	1178.75
434.953	1207.75
435.175	1225.75
435.397	1211.75
435.618	1174.75
435.84	1189.75
436.062	1168.75
436.284	1155.75
436.505	1155.75
436.727	1152.75
436.949	1183.75
437.17	1141.75
437.392	1136.75
437.614	1148.75
437.835	1103.75
438.057	1116.75
438.278	1127.75
438.5	1128.75
438.721	1139.75
438.943	1167.75
439.165	1197.75
439.386	1221.75
439.608	1195.75
439.829	1224.75
440.05	1227.75
440.272	1273.75
440.493	1219.75
440.715	1199.75
440.936	1218.75
441.158	1191.75
441.379	1249.75
441.6	1263.75
441.822	1262.75
442.043	1333.75
442.264	1396.75
442.486	1303.75
442.707	1241.75
442.928	1237.75
443.149	1248.75
443.371	1226.75
443.592	1270.75
443.813	1247.75
444.034	1261.75
444.255	1295.75
444.476	1304.75
444.698	1327.75
444.919	1378.75
445.14	1437.75
445.361	1317.75
445.582	1270.75
445.803	1243.75
446.024	1252.75
446.245	1267.75
446.466	1253.75
446.687	1216.75
446.908	1232.75
447.129	1205.75
447.35	1174.75
447.571	1188.75
447.792	1171.75
448.013	1152.75
448.234	1139.75
448.455	1176.75
448.675	1129.75
448.896	1226.75
449.117	1205.75
449.338	1330.75
449.559	1375.75
449.779	1219.75
450	1144.75
450.221	1137.75
450.442	1108.75
450.662	1129.75
450.883	1132.75
451.104	1116.75
451.324	1130.75
451.545	1133.75
451.766	1123.75
451.986	1106.75
452.207	1189.75
452.428	1442.75
452.648	2069.75
452.869	1729.75
453.089	1312.75
453.31	1221.75
453.53	1218.75
453.751	1238.75
453.971	1314.75
454.192	1317.75
454.412	1171.75
454.633	1107.75
454.853	1097.75
455.073	1070.75
455.294	1039.75
455.514	1063.75
455.734	1099.75
455.955	1075.75
456.175	1082.75
456.395	1031.75
456.616	1030.75
456.836	1030.75
457.056	1089.75
457.276	1080.75
457.497	1135.75
457.717	1132.75
457.937	1132.75
458.157	1148.75
458.377	1108.75
458.598	1142.75
458.818	1132.75
459.038	1148.75
459.258	1124.75
459.478	1140.75
459.698	1159.75
459.918	1155.75
460.138	1243.75
460.358	1246.75
460.578	1235.75
460.798	1258.75
461.018	1271.75
461.238	1270.75
461.458	1245.75
461.678	1273.75
461.898	1274.75
462.118	1293.75
462.338	1316.75
462.558	1333.75
462.777	1347.75
462.997	1386.75
463.217	1453.75
463.437	1493.75
463.657	1537.75
463.876	1475.75
464.096	1446.75
464.316	1376.75
464.536	1355.75
464.755	1360.75
464.975	1306.75
465.195	1286.75
465.414	1249.75
465.634	1201.75
465.854	1193.75
466.073	1186.75
466.293	1153.75
466.512	1176.75
466.732	1204.75
466.951	1215.75
467.171	1305.75
467.391	1297.75
467.61	1183.75
467.829	1161.75
468.049	1142.75
468.268	1133.75
468.488	1134.75
468.707	1149.75
468.927	1127.75
469.146	1110.75
469.365	1198.75
469.585	1143.75
469.804	1166.75
470.023	1185.75
470.243	1212.75
470.462	1235.75
470.681	1297.75
470.901	1431.75
471.12	1609.75
471.339	1637.75
471.558	1381.75
471.777	1266.75
471.997	1228.75
472.216	1178.75
472.435	1174.75
472.654	1140.75
472.873	1105.75
473.092	1131.75
473.311	1133.75
473.53	1171.75
473.749	1209.75
473.968	1192.75
474.187	1157.75
474.406	1158.75
474.625	1155.75
474.844	1137.75
475.063	1147.75
475.282	1154.75
475.501	1141.75
475.72	1124.75
475.939	1157.75
476.158	1196.75
476.377	1202.75
476.596	1208.75
476.814	1215.75
477.033	1246.75
477.252	1224.75
477.471	1217.75
477.69	1244.75
477.908	1303.75
478.127	1310.75
478.346	1291.75
478.564	1343.75
478.783	1319.75
479.002	1362.75
479.22	1375.75
479.439	1345.75
479.658	1324.75
479.876	1354.75
480.095	1364.75
480.313	1368.75
480.532	1393.75
480.751	1391.75
480.969	1353.75
481.188	1365.75
481.406	1366.75
481.624	1363.75
481.843	1329.75
482.061	1359.75
482.28	1335.75
482.498	1327.75
482.717	1341.75
482.935	1379.75
483.153	1392.75
483.372	1407.75
483.59	1411.75
483.808	1457.75
484.027	1473.75
484.245	1525.75
484.463	1718.75
484.681	1915.75
484.9	1725.75
485.118	1644.75
485.336	1566.75
485.554	1603.75
485.772	1671.75
485.99	1879.75
486.209	2107.75
486.427	1736.75
486.645	1569.75
486.863	1511.75
487.081	1486.75
487.299	1475.75
487.517	1468.75
487.735	1457.75
487.953	1510.75
488.171	1489.75
488.389	1445.75
488.607	1435.75
488.825	1425.75
489.043	1354.75
489.261	1395.75
489.479	1395.75
489.696	1401.75
489.914	1383.75
490.132	1407.75
490.35	1423.75
490.568	1450.75
490.786	1464.75
491.003	1459.75
491.221	1507.75
491.439	1493.75
491.657	1486.75
491.874	1504.75
492.092	1540.75
492.31	1591.75
492.527	1564.75
492.745	1514.75
492.963	1498.75
493.18	1547.75
493.398	1465.75
493.615	1526.75
493.833	1504.75
494.05	1513.75
494.268	1501.75
494.485	1496.75
494.703	1551.75
494.92	1487.75
495.138	1503.75
495.355	1513.75
495.573	1523.75
495.79	1515.75
496.008	1513.75
496.225	1514.75
496.442	1556.75
496.66	1584.75
496.877	1669.75
497.094	1661.75
497.312	1632.75
497.529	1612.75
497.746	1619.75
497.963	1664.75
498.181	1667.75
498.398	1723.75
498.615	1731.75
498.832	1846.75
499.049	1911.75
499.267	2017.75
499.484	2160.75
499.701	2182.75
499.918	2249.75
500.135	2401.75
500.352	2538.75
500.569	2539.75
500.786	2519.75
501.003	2457.75
501.22	2347.75
501.437	2159.75
501.654	2079.75
501.871	1977.75
502.088	1880.75
502.305	1819.75
502.522	1762.75
502.739	1763.75
502.956	1675.75
503.172	1635.75
503.389	1585.75
503.606	1555.75
503.823	1564.75
504.04	1560.75
504.256	1555.75
504.473	1524.75
504.69	1526.75
504.907	1530.75
505.123	1501.75
505.34	1452.75
505.557	1423.75
505.773	1433.75
505.99	1390.75
506.207	1342.75
506.423	1375.75
506.64	1390.75
506.856	1349.75
507.073	1319.75
507.289	1308.75
507.506	1297.75
507.722	1323.75
507.939	1305.75
508.155	1324.75
508.372	1325.75
508.588	1281.75
508.805	1253.75
509.021	1289.75
509.238	1290.75
509.454	1361.75
509.67	1433.75
509.887	1349.75
510.103	1313.75
510.319	1312.75
510.536	1260.75
510.752	1245.75
510.968	1266.75
511.184	1241.75
511.401	1223.75
511.617	1239.75
511.833	1230.75
512.049	1210.75
512.265	1210.75
512.481	1205.75
512.698	1211.75
512.914	1226.75
513.13	1215.75
513.346	1208.75
513.562	1214.75
513.778	1237.75
513.994	1229.75
514.21	1280.75
514.426	1354.75
514.642	1371.75
514.858	1281.75
515.074	1240.75
515.29	1237.75
515.506	1282.75
515.721	1261.75
515.937	1259.75
516.153	1250.75
516.369	1329.75
516.585	1263.75
516.801	1301.75
517.016	1331.75
517.232	1329.75
517.448	1377.75
517.664	1432.75
517.879	1367.75
518.095	1395.75
518.311	1393.75
518.527	1339.75
518.742	1354.75
518.958	1368.75
519.173	1396.75
519.389	1357.75
519.605	1278.75
519.82	1256.75
520.036	1267.75
520.251	1260.75
520.467	1235.75
520.682	1242.75
520.898	1210.75
521.113	1196.75
521.329	1244.75
521.544	1193.75
521.76	1186.75
521.975	1206.75
522.19	1190.75
522.406	1227.75
522.621	1209.75
522.836	1214.75
523.052	1189.75
523.267	1173.75
523.482	1184.75
523.698	1185.75
523.913	1192.75
524.128	1197.75
524.343	1198.75
524.559	1204.75
524.774	1180.75
524.989	1210.75
525.204	1207.75
525.419	1169.75
525.634	1203.75
525.849	1180.75
526.064	1181.75
526.28	1185.75
526.495	1153.75
526.71	1183.75
526.925	1165.75
527.14	1187.75
527.355	1168.75
527.57	1203.75
527.785	1174.75
527.999	1194.75
528.214	1180.75
528.429	1213.75
528.644	1188.75
528.859	1247.75
529.074	1275.75
529.289	1316.75
529.503	1305.75
529.718	1263.75
529.933	1254.75
530.148	1270.75
530.363	1256.75
530.577	1214.75
530.792	1212.75
531.007	1251.75
531.221	1263.75
531.436	1265.75
531.651	1271.75
531.865	1274.75
532.08	1288.75
532.295	1323.75
532.509	1402.75
532.724	1383.75
532.938	1381.75
533.153	1445.75
533.367	1504.75
533.582	1577.75
533.796	1521.75
534.011	1492.75
534.225	1471.75
534.44	1442.75
534.654	1445.75
534.868	1393.75
535.083	1371.75
535.297	1352.75
535.511	1337.75
535.726	1307.75
535.94	1327.75
536.154	1309.75
536.369	1286.75
536.583	1249.75
536.797	1228.75
537.011	1200.75
537.225	1226.75
537.44	1234.75
537.654	1190.75
537.868	1179.75
538.082	1180.75
538.296	1197.75
538.51	1155.75
538.724	1176.75
538.938	1189.75
539.153	1187.75
539.367	1189.75
539.581	1179.75
539.795	1114.75
540.009	1130.75
540.222	1118.75
540.436	1159.75
540.65	1138.75
540.864	1145.75
541.078	1173.75
541.292	1256.75
541.506	1477.75
541.72	1521.75
541.934	1365.75
542.147	1295.75
542.361	1237.75
542.575	1166.75
542.789	1158.75
543.002	1145.75
543.216	1126.75
543.43	1091.75
543.644	1112.75
543.857	1113.75
544.071	1128.75
544.285	1147.75
544.498	1155.75
544.712	1125.75
544.925	1122.75
545.139	1137.75
545.352	1147.75
545.566	1149.75
545.779	1151.75
545.993	1159.75
546.206	1174.75
546.42	1175.75
546.633	1166.75
546.847	1168.75
547.06	1147.75
547.274	1160.75
547.487	1150.75
547.7	1168.75
547.914	1131.75
548.127	1165.75
548.34	1149.75
548.554	1159.75
548.767	1162.75
548.98	1127.75
549.193	1147.75
549.407	1153.75
549.62	1165.75
549.833	1171.75
550.046	1158.75
550.259	1149.75
550.473	1172.75
550.686	1158.75
550.899	1138.75
551.112	1131.75
551.325	1175.75
551.538	1132.75
551.751	1123.75
551.964	1137.75
552.177	1135.75
552.39	1173.75
552.603	1196.75
552.816	1208.75
553.029	1217.75
553.242	1234.75
553.455	1251.75
553.667	1283.75
553.88	1268.75
554.093	1273.75
554.306	1272.75
554.519	1291.75
554.732	1297.75
554.944	1315.75
555.157	1290.75
555.37	1325.75
555.583	1341.75
555.795	1430.75
556.008	1521.75
556.221	1619.75
556.433	1721.75
556.646	1667.75
556.859	1640.75
557.071	1596.75
557.284	1641.75
557.496	1534.75
557.709	1541.75
557.921	1517.75
558.134	1540.75
558.346	1547.75
558.559	1587.75
558.771	1635.75
558.984	1764.75
559.196	1873.75
559.409	1863.75
559.621	1697.75
559.833	1612.75
560.046	1515.75
560.258	1459.75
560.47	1403.75
560.683	1384.75
560.895	1327.75
561.107	1273.75
561.32	1250.75
561.532	1256.75
561.744	1221.75
561.956	1151.75
562.168	1156.75
562.381	1147.75
562.593	1147.75
562.805	1147.75
563.017	1215.75
563.229	1155.75
563.441	1317.75
563.653	1157.75
563.865	1080.75
564.077	1089.75
564.289	1060.75
564.501	1062.75
564.713	1092.75
564.925	1065.75
565.137	1071.75
565.349	1058.75
565.561	1050.75
565.773	1064.75
565.985	1076.75
566.197	1101.75
566.408	1097.75
566.62	1104.75
566.832	1185.75
567.044	1161.75
567.255	1177.75
567.467	1182.75
567.679	1213.75
567.891	1258.75
568.102	1411.75
568.314	1603.75
568.526	1356.75
568.737	1185.75
568.949	1095.75
569.161	1030.75
569.372	978.75
569.584	944.75
569.795	951.75
570.007	908.75
570.218	965.75
570.43	993.75
570.641	915.75
570.853	859.75
571.064	905.75
571.276	886.75
571.487	845.75
571.698	829.75
571.91	813.75
572.121	833.75
572.333	817.75
572.544	851.75
572.755	894.75
572.966	1044.75
573.178	915.75
573.389	836.75
573.6	797.75
573.811	792.75
574.023	775.75
574.234	791.75
574.445	756.75
574.656	767.75
574.867	767.75
575.078	756.75
575.289	771.75
575.501	781.75
575.712	762.75
575.923	737.75
576.134	751.75
576.345	770.75
576.556	787.75
576.767	782.75
576.978	779.75
577.188	766.75
577.399	759.75
577.61	778.75
577.821	782.75
578.032	784.75
578.243	809.75
578.454	829.75
578.665	837.75
578.875	858.75
579.086	848.75
579.297	900.75
579.508	913.75
579.718	962.75
579.929	1079.75
580.14	1217.75
580.35	1248.75
580.561	1190.75
580.772	1121.75
580.982	1036.75
581.193	998.75
581.403	953.75
581.614	907.75
581.825	894.75
582.035	872.75
582.246	835.75
582.456	811.75
582.667	816.75
582.877	806.75
583.087	751.75
583.298	725.75
583.508	710.75
583.719	705.75
583.929	690.75
584.139	668.75
584.35	671.75
584.56	671.75
584.77	666.75
584.981	654.75
585.191	643.75
585.401	614.75
585.611	620.75
585.821	636.75
586.032	640.75
586.242	608.75
586.452	599.75
586.662	585.75
586.872	580.75
587.082	604.75
587.292	592.75
587.502	582.75
587.713	590.75
587.923	586.75
588.133	583.75
588.343	587.75
588.553	572.75
588.762	564.75
588.972	568.75
589.182	570.75
589.392	575.75
589.602	575.75
589.812	559.75
590.022	564.75
590.232	544.75
590.441	548.75
590.651	538.75
590.861	553.75
591.071	552.75
591.281	546.75
591.49	554.75
591.7	567.75
591.91	553.75
592.119	545.75
592.329	547.75
592.539	580.75
592.748	563.75
592.958	592.75
593.167	582.75
593.377	591.75
593.587	572.75
593.796	572.75
594.006	594.75
594.215	580.75
594.424	589.75
594.634	575.75
594.843	530.75
595.053	576.75
595.262	546.75
595.472	535.75
595.681	518.75
595.89	526.75
596.1	530.75
596.309	493.75
596.518	511.75
596.727	504.75
596.937	508.75
597.146	505.75
597.355	480.75
597.564	481.75
597.774	485.75
597.983	463.75
598.192	455.75
598.401	449.75
598.61	466.75
598.819	470.75
599.028	486.75
599.237	440.75
599.446	462.75
599.655	443.75
599.864	467.75
600.073	437.75
600.282	467.75
600.491	436.75
600.7	452.75
600.909	439.75
601.118	459.75
601.327	452.75
601.536	463.75
601.745	473.75
601.953	507.75
602.162	554.75
602.371	517.75
602.58	471.75
602.789	473.75
602.997	432.75
603.206	437.75
603.415	453.75
603.623	447.75
603.832	440.75
604.041	452.75
604.249	443.75
604.458	418.75
604.666	430.75
604.875	426.75
605.084	435.75
605.292	407.75
605.501	449.75
605.709	447.75
605.918	448.75
606.126	445.75
606.334	453.75
606.543	453.75
606.751	506.75
606.96	525.75
607.168	608.75
607.376	502.75
607.585	459.75
607.793	451.75
608.001	432.75
608.21	450.75
608.418	435.75
608.626	437.75
608.834	435.75
609.043	442.75
609.251	429.75
609.459	427.75
609.667	412.75
609.875	423.75
610.083	418.75
610.291	420.75
610.499	405.75
610.707	403.75
610.916	408.75
611.124	411.75
611.332	388.75
611.54	405.75
611.748	403.75
611.955	389.75
612.163	405.75
612.371	400.75
612.579	391.75
612.787	403.75
612.995	410.75
613.203	423.75
613.411	401.75
613.618	395.75
613.826	399.75
614.034	408.75
614.242	404.75
614.449	406.75
614.657	387.75
614.865	405.75
615.072	397.75
615.28	412.75
615.488	421.75
615.695	405.75
615.903	399.75
616.111	382.75
616.318	414.75
616.526	385.75
616.733	400.75
616.941	404.75
617.148	393.75
617.356	404.75
617.563	384.75
617.771	387.75
617.978	375.75
618.185	399.75
618.393	381.75
618.6	383.75
618.807	370.75
619.015	374.75
619.222	379.75
619.429	367.75
619.637	391.75
619.844	346.75
620.051	366.75
620.258	376.75
620.466	368.75
620.673	349.75
620.88	332.75
621.087	354.75
621.294	357.75
621.501	362.75
621.708	356.75
621.915	345.75
622.122	351.75
622.329	347.75
622.536	370.75
622.743	355.75
622.95	357.75
623.157	369.75
623.364	368.75
623.571	338.75
623.778	341.75
623.985	347.75
624.192	358.75
624.399	342.75
624.606	368.75
624.812	346.75
625.019	344.75
625.226	349.75
625.433	338.75
625.639	342.75
625.846	326.75
626.053	326.75
626.259	315.75
626.466	317.75
626.673	328.75
626.879	330.75
627.086	317.75
627.293	311.75
627.499	322.75
627.706	352.75
627.912	343.75
628.119	331.75
628.325	323.75
628.532	343.75
628.738	339.75
628.945	320.75
629.151	337.75
629.357	307.75
629.564	328.75
629.77	320.75
629.976	323.75
630.183	312.75
630.389	305.75
630.595	300.75
630.802	314.75
631.008	296.75
631.214	303.75
631.42	319.75
631.627	326.75
631.833	316.75
632.039	296.75
632.245	315.75
632.451	315.75
632.657	312.75
632.863	326.75
633.069	303.75
633.275	303.75
633.481	325.75
633.688	300.75
633.893	300.75
634.099	301.75
634.305	297.75
634.511	295.75
634.717	322.75
634.923	315.75
635.129	356.75
635.335	396.75
635.541	346.75
635.747	332.75
635.952	323.75
636.158	307.75
636.364	297.75
636.57	307.75
636.775	311.75
636.981	299.75
637.187	308.75
637.392	319.75
637.598	299.75
637.804	299.75
638.009	299.75
638.215	297.75
638.421	315.75
638.626	307.75
638.832	299.75
639.037	327.75
639.243	313.75
639.448	295.75
639.654	319.75
639.859	310.75
640.065	307.75
640.27	314.75
640.475	311.75
640.681	311.75
640.886	311.75
641.091	329.75
641.297	323.75
641.502	330.75
641.707	331.75
641.913	332.75
642.118	340.75
642.323	345.75
642.528	359.75
642.733	368.75
642.939	355.75
643.144	349.75
643.349	363.75
643.554	376.75
643.759	375.75
643.964	397.75
644.169	425.75
644.374	455.75
644.579	460.75
644.784	531.75
644.989	569.75
645.194	644.75
645.399	754.75
645.604	775.75
645.809	613.75
646.014	500.75
646.219	434.75
646.423	412.75
646.628	385.75
646.833	355.75
647.038	343.75
647.243	328.75
647.447	317.75
647.652	317.75
647.857	291.75
648.062	318.75
648.266	283.75
648.471	293.75
648.676	308.75
648.88	279.75
649.085	273.75
649.289	274.75
649.494	275.75
649.698	265.75
649.903	277.75
650.107	285.75
650.312	260.75
650.516	247.75
650.721	261.75
650.925	244.75
651.13	245.75
651.334	233.75
651.539	239.75
651.743	241.75
651.947	224.75
652.152	230.75
652.356	235.75
652.56	235.75
652.764	273.75
652.969	232.75
653.173	230.75
653.377	220.75
653.581	211.75
653.785	200.75
653.99	229.75
654.194	218.75
654.398	220.75
654.602	223.75
654.806	206.75
655.01	220.75
655.214	198.75
655.418	203.75
655.622	195.75
655.826	199.75
656.03	207.75
656.234	231.75
656.438	225.75
656.642	224.75
656.846	221.75
657.049	214.75
657.253	184.75
657.457	193.75
657.661	185.75
657.865	182.75
658.068	157.75
658.272	163.75
658.476	143.75
658.68	145.75
658.883	146.75
659.087	128.75
659.291	133.75
659.494	131.75
659.698	123.75
659.901	120.75
660.105	108.75
660.309	106.75
660.512	119.75
660.716	118.75
660.919	112.75
661.123	118.75
661.326	109.75
661.53	104.75
661.733	90.75
661.936	94.75
662.14	81.75
662.343	96.75
662.546	92.75
662.75	95.75
662.953	99.75
663.156	90.75
663.36	85.75
663.563	92.75
663.766	88.75
663.969	82.75
664.173	87.75
664.376	98.75
664.579	76.75
664.782	95.75
664.985	82.75
665.188	86.75
665.391	86.75
665.594	85.75
665.797	71.75
666	96.75
666.203	98.75
666.406	84.75
666.609	75.75
666.812	94.75
667.015	90.75
667.218	95.75
667.421	80.75
667.624	85.75
667.827	89.75
668.03	88.75
668.232	94.75
668.435	89.75
668.638	80.75
668.841	81.75
669.043	67.75
669.246	85.75
669.449	91.75
669.651	90.75
669.854	83.75
670.057	92.75
670.259	91.75
670.462	89.75
670.665	77.75
670.867	87.75
671.07	73.75
671.272	83.75
671.475	86.75
671.677	78.75
671.88	85.75
672.082	93.75
672.284	103.75
672.487	83.75
672.689	76.75
672.892	69.75
