Data from SnStandardFlinnAPT0064_LampEnergy5.5_LIBS07252019.E.O._I.C._HRD10591_15-16-46-491.txt Node
Date: Thu Jul 25 15:16:46 EDT 2019
User: cochatt
Spectrometer: HR+D1059
Trigger mode: 1
Integration Time (sec): 1.000000E-1
Scans to average: 1
Electric dark correction enabled: true
Nonlinearity correction enabled: false
Boxcar width: 0
XAxis mode: Wavelengths
Number of Pixels in Spectrum: 2048
>>>>>Begin Spectral Data<<<<<
223.165	-10.5
223.4	-10.5
223.635	-10.5
223.869	-19.5
224.104	-27.5
224.338	-28.5
224.573	-11.5
224.808	-24.5
225.042	-5.5
225.277	-6.5
225.511	-8.5
225.746	8.5
225.98	14.5
226.215	14.5
226.449	34.5
226.683	24.5
226.918	23.5
227.152	22.5
227.387	25.5
227.621	43.5
227.856	40.5
228.09	62.5
228.324	42.5
228.559	59.5
228.793	84.5
229.027	154.5
229.262	166.5
229.496	158.5
229.73	150.5
229.964	159.5
230.199	167.5
230.433	155.5
230.667	170.5
230.901	182.5
231.136	173.5
231.37	172.5
231.604	193.5
231.838	214.5
232.072	244.5
232.306	252.5
232.541	224.5
232.775	192.5
233.009	215.5
233.243	202.5
233.477	228.5
233.711	236.5
233.945	280.5
234.179	249.5
234.413	225.5
234.647	236.5
234.881	233.5
235.115	250.5
235.349	283.5
235.583	338.5
235.817	435.5
236.051	431.5
236.285	284.5
236.519	269.5
236.753	233.5
236.987	250.5
237.221	263.5
237.455	249.5
237.689	226.5
237.922	246.5
238.156	239.5
238.39	212.5
238.624	237.5
238.858	224.5
239.091	243.5
239.325	222.5
239.559	229.5
239.793	224.5
240.027	234.5
240.26	260.5
240.494	245.5
240.728	257.5
240.961	304.5
241.195	296.5
241.429	316.5
241.662	301.5
241.896	346.5
242.13	394.5
242.363	505.5
242.597	680.5
242.83	613.5
243.064	649.5
243.298	764.5
243.531	644.5
243.765	411.5
243.998	336.5
244.232	298.5
244.465	287.5
244.699	284.5
244.932	276.5
245.166	281.5
245.399	301.5
245.633	296.5
245.866	302.5
246.099	301.5
246.333	309.5
246.566	308.5
246.8	288.5
247.033	278.5
247.266	286.5
247.5	307.5
247.733	297.5
247.966	324.5
248.2	322.5
248.433	359.5
248.666	413.5
248.899	402.5
249.133	353.5
249.366	376.5
249.599	388.5
249.832	449.5
250.066	456.5
250.299	361.5
250.532	343.5
250.765	342.5
250.998	325.5
251.231	340.5
251.465	349.5
251.698	340.5
251.931	324.5
252.164	347.5
252.397	342.5
252.63	367.5
252.863	347.5
253.096	362.5
253.329	356.5
253.562	358.5
253.795	354.5
254.028	351.5
254.261	364.5
254.494	395.5
254.727	424.5
254.96	522.5
255.193	523.5
255.426	408.5
255.659	380.5
255.892	373.5
256.124	386.5
256.357	381.5
256.59	396.5
256.823	422.5
257.056	476.5
257.289	547.5
257.521	598.5
257.754	516.5
257.987	426.5
258.22	383.5
258.452	386.5
258.685	403.5
258.918	442.5
259.151	432.5
259.383	451.5
259.616	506.5
259.849	523.5
260.081	472.5
260.314	435.5
260.547	435.5
260.779	401.5
261.012	419.5
261.244	441.5
261.477	421.5
261.71	439.5
261.942	441.5
262.175	439.5
262.407	475.5
262.64	466.5
262.872	477.5
263.105	504.5
263.337	527.5
263.57	541.5
263.802	570.5
264.035	574.5
264.267	579.5
264.499	589.5
264.732	619.5
264.964	622.5
265.197	619.5
265.429	625.5
265.661	642.5
265.894	664.5
266.126	735.5
266.358	812.5
266.591	793.5
266.823	692.5
267.055	636.5
267.287	604.5
267.52	576.5
267.752	567.5
267.984	567.5
268.216	558.5
268.448	562.5
268.681	552.5
268.913	559.5
269.145	551.5
269.377	536.5
269.609	555.5
269.841	548.5
270.073	591.5
270.306	668.5
270.538	900.5
270.77	1303.5
271.002	1586.5
271.234	1131.5
271.466	760.5
271.698	622.5
271.93	587.5
272.162	563.5
272.394	569.5
272.626	544.5
272.858	540.5
273.09	556.5
273.322	534.5
273.553	545.5
273.785	536.5
274.017	522.5
274.249	535.5
274.481	508.5
274.713	509.5
274.945	541.5
275.176	520.5
275.408	540.5
275.64	536.5
275.872	533.5
276.104	532.5
276.335	545.5
276.567	565.5
276.799	566.5
277.031	564.5
277.262	581.5
277.494	582.5
277.726	651.5
277.957	738.5
278.189	837.5
278.421	765.5
278.652	683.5
278.884	695.5
279.115	615.5
279.347	619.5
279.579	597.5
279.81	600.5
280.042	595.5
280.273	596.5
280.505	608.5
280.736	628.5
280.968	691.5
281.199	721.5
281.431	810.5
281.662	822.5
281.894	740.5
282.125	661.5
282.356	688.5
282.588	684.5
282.819	716.5
283.051	715.5
283.282	814.5
283.513	1020.5
283.745	1468.5
283.976	2320.5
284.207	3250.5
284.439	2915.5
284.67	1737.5
284.901	1405.5
285.132	1375.5
285.364	1360.5
285.595	1035.5
285.826	951.5
286.057	1117.5
286.288	1560.5
286.52	2104.5
286.751	1940.5
286.982	1162.5
287.213	900.5
287.444	809.5
287.675	753.5
287.906	725.5
288.138	729.5
288.369	715.5
288.6	687.5
288.831	675.5
289.062	706.5
289.293	729.5
289.524	692.5
289.755	683.5
289.986	728.5
290.217	726.5
290.448	705.5
290.679	726.5
290.91	746.5
291.141	778.5
291.371	804.5
291.602	818.5
291.833	788.5
292.064	709.5
292.295	725.5
292.526	689.5
292.757	714.5
292.987	677.5
293.218	670.5
293.449	682.5
293.68	678.5
293.91	660.5
294.141	679.5
294.372	692.5
294.603	672.5
294.833	690.5
295.064	683.5
295.295	672.5
295.525	698.5
295.756	661.5
295.987	631.5
296.217	688.5
296.448	690.5
296.679	652.5
296.909	651.5
297.14	696.5
297.37	683.5
297.601	699.5
297.831	713.5
298.062	719.5
298.292	714.5
298.523	716.5
298.753	728.5
298.984	702.5
299.214	725.5
299.445	742.5
299.675	760.5
299.905	754.5
300.136	818.5
300.366	880.5
300.597	1134.5
300.827	1528.5
301.057	2087.5
301.288	2044.5
301.518	1315.5
301.748	993.5
301.979	923.5
302.209	920.5
302.439	930.5
302.669	969.5
302.9	1185.5
303.13	1630.5
303.36	2375.5
303.59	3200.5
303.82	2751.5
304.051	1605.5
304.281	1174.5
304.511	1010.5
304.741	934.5
304.971	900.5
305.201	855.5
305.431	807.5
305.661	818.5
305.891	811.5
306.121	786.5
306.352	795.5
306.582	757.5
306.812	782.5
307.042	798.5
307.272	795.5
307.502	785.5
307.731	783.5
307.961	772.5
308.191	778.5
308.421	787.5
308.651	768.5
308.881	749.5
309.111	746.5
309.341	772.5
309.571	780.5
309.8	817.5
310.03	795.5
310.26	784.5
310.49	800.5
310.72	794.5
310.949	804.5
311.179	819.5
311.409	794.5
311.639	799.5
311.868	805.5
312.098	826.5
312.328	834.5
312.557	854.5
312.787	841.5
313.017	860.5
313.246	859.5
313.476	832.5
313.706	882.5
313.935	882.5
314.165	938.5
314.394	1003.5
314.624	932.5
314.853	886.5
315.083	911.5
315.312	914.5
315.542	929.5
315.771	914.5
316.001	931.5
316.23	964.5
316.46	986.5
316.689	1055.5
316.919	1289.5
317.148	1863.5
317.377	2852.5
317.607	4264.5
317.836	4405.5
318.065	2491.5
318.295	1606.5
318.524	1308.5
318.753	1151.5
318.983	1082.5
319.212	1055.5
319.441	993.5
319.67	979.5
319.9	997.5
320.129	974.5
320.358	956.5
320.587	958.5
320.816	987.5
321.046	970.5
321.275	997.5
321.504	1015.5
321.733	990.5
321.962	1026.5
322.191	1052.5
322.42	1010.5
322.649	1011.5
322.878	1026.5
323.108	1001.5
323.337	1051.5
323.566	1057.5
323.795	1057.5
324.024	1072.5
324.253	1097.5
324.482	1139.5
324.71	1223.5
324.939	1261.5
325.168	1301.5
325.397	1312.5
325.626	1576.5
325.855	2216.5
326.084	3437.5
326.313	5071.5
326.542	5443.5
326.77	3392.5
326.999	2212.5
327.228	1829.5
327.457	1776.5
327.686	1780.5
327.914	1900.5
328.143	2188.5
328.372	2510.5
328.6	2668.5
328.829	2492.5
329.058	2211.5
329.287	1989.5
329.515	1799.5
329.744	1731.5
329.972	1620.5
330.201	1523.5
330.43	1471.5
330.658	1440.5
330.887	1431.5
331.115	1404.5
331.344	1385.5
331.572	1397.5
331.801	1432.5
332.03	1428.5
332.258	1442.5
332.486	1496.5
332.715	1731.5
332.943	2097.5
333.172	2521.5
333.4	2489.5
333.629	1915.5
333.857	1764.5
334.085	1765.5
334.314	1848.5
334.542	1983.5
334.771	2248.5
334.999	2719.5
335.227	3271.5
335.455	3574.5
335.684	3368.5
335.912	2832.5
336.14	2487.5
336.369	2196.5
336.597	2013.5
336.825	1861.5
337.053	1754.5
337.281	1669.5
337.51	1611.5
337.738	1556.5
337.966	1501.5
338.194	1436.5
338.422	1425.5
338.65	1381.5
338.878	1364.5
339.106	1307.5
339.334	1355.5
339.562	1309.5
339.79	1256.5
340.018	1250.5
340.246	1248.5
340.474	1243.5
340.702	1249.5
340.93	1248.5
341.158	1211.5
341.386	1234.5
341.614	1206.5
341.842	1209.5
342.07	1189.5
342.298	1153.5
342.526	1147.5
342.754	1132.5
342.981	1152.5
343.209	1138.5
343.437	1192.5
343.665	1161.5
343.893	1169.5
344.12	1197.5
344.348	1190.5
344.576	1158.5
344.804	1134.5
345.031	1069.5
345.259	1092.5
345.487	1078.5
345.714	1073.5
345.942	1069.5
346.17	1049.5
346.397	1069.5
346.625	1057.5
346.853	1034.5
347.08	1028.5
347.308	1073.5
347.535	1034.5
347.763	1033.5
347.99	1034.5
348.218	1034.5
348.445	1026.5
348.673	1036.5
348.9	1042.5
349.128	1044.5
349.355	1045.5
349.583	1038.5
349.81	995.5
350.037	1024.5
350.265	1012.5
350.492	1044.5
350.72	1011.5
350.947	1004.5
351.174	997.5
351.402	1009.5
351.629	989.5
351.856	1012.5
352.083	1001.5
352.311	986.5
352.538	991.5
352.765	1017.5
352.992	1014.5
353.22	1009.5
353.447	999.5
353.674	1006.5
353.901	1011.5
354.128	1007.5
354.355	1023.5
354.583	1043.5
354.81	1028.5
355.037	1040.5
355.264	1029.5
355.491	1028.5
355.718	1041.5
355.945	1038.5
356.172	1046.5
356.399	1061.5
356.626	1041.5
356.853	1044.5
357.08	1070.5
357.307	1052.5
357.534	1070.5
357.761	1071.5
357.988	1096.5
358.215	1080.5
358.441	1108.5
358.668	1100.5
358.895	1079.5
359.122	1065.5
359.349	1060.5
359.576	1082.5
359.802	1047.5
360.029	1080.5
360.256	1090.5
360.483	1098.5
360.709	1080.5
360.936	1073.5
361.163	1085.5
361.39	1089.5
361.616	1077.5
361.843	1081.5
362.07	1072.5
362.296	1102.5
362.523	1083.5
362.749	1072.5
362.976	1089.5
363.203	1120.5
363.429	1090.5
363.656	1075.5
363.882	1079.5
364.109	1088.5
364.335	1065.5
364.562	1086.5
364.788	1084.5
365.015	1072.5
365.241	1114.5
365.468	1171.5
365.694	1210.5
365.92	1170.5
366.147	1090.5
366.373	1106.5
366.599	1104.5
366.826	1096.5
367.052	1089.5
367.278	1107.5
367.505	1122.5
367.731	1112.5
367.957	1091.5
368.184	1097.5
368.41	1118.5
368.636	1127.5
368.862	1124.5
369.089	1109.5
369.315	1134.5
369.541	1132.5
369.767	1125.5
369.993	1110.5
370.219	1117.5
370.445	1118.5
370.672	1125.5
370.898	1161.5
371.124	1156.5
371.35	1151.5
371.576	1142.5
371.802	1142.5
372.028	1159.5
372.254	1141.5
372.48	1180.5
372.706	1222.5
372.932	1218.5
373.158	1176.5
373.384	1191.5
373.61	1188.5
373.835	1192.5
374.061	1177.5
374.287	1192.5
374.513	1194.5
374.739	1224.5
374.965	1217.5
375.191	1234.5
375.416	1217.5
375.642	1225.5
375.868	1201.5
376.094	1185.5
376.319	1163.5
376.545	1202.5
376.771	1176.5
376.997	1188.5
377.222	1182.5
377.448	1149.5
377.674	1148.5
377.899	1160.5
378.125	1184.5
378.35	1143.5
378.576	1169.5
378.802	1158.5
379.027	1200.5
379.253	1217.5
379.478	1281.5
379.704	1464.5
379.929	2068.5
380.155	3118.5
380.38	3329.5
380.606	2057.5
380.831	1485.5
381.057	1318.5
381.282	1203.5
381.507	1176.5
381.733	1218.5
381.958	1178.5
382.184	1145.5
382.409	1138.5
382.634	1148.5
382.86	1180.5
383.085	1161.5
383.31	1180.5
383.535	1197.5
383.761	1174.5
383.986	1163.5
384.211	1176.5
384.436	1152.5
384.662	1178.5
384.887	1208.5
385.112	1200.5
385.337	1164.5
385.562	1173.5
385.787	1190.5
386.013	1220.5
386.238	1190.5
386.463	1196.5
386.688	1165.5
386.913	1145.5
387.138	1189.5
387.363	1195.5
387.588	1177.5
387.813	1204.5
388.038	1215.5
388.263	1192.5
388.488	1181.5
388.713	1206.5
388.938	1200.5
389.163	1166.5
389.387	1179.5
389.612	1152.5
389.837	1180.5
390.062	1160.5
390.287	1205.5
390.512	1209.5
390.736	1204.5
390.961	1210.5
391.186	1238.5
391.411	1244.5
391.636	1248.5
391.86	1254.5
392.085	1221.5
392.31	1271.5
392.534	1229.5
392.759	1206.5
392.984	1195.5
393.208	1242.5
393.433	1245.5
393.658	1275.5
393.882	1218.5
394.107	1212.5
394.331	1198.5
394.556	1185.5
394.78	1217.5
395.005	1228.5
395.229	1206.5
395.454	1253.5
395.678	1247.5
395.903	1243.5
396.127	1229.5
396.352	1229.5
396.576	1213.5
396.801	1253.5
397.025	1315.5
397.249	1272.5
397.474	1258.5
397.698	1233.5
397.922	1279.5
398.147	1242.5
398.371	1280.5
398.595	1312.5
398.82	1335.5
399.044	1377.5
399.268	1426.5
399.492	1500.5
399.717	1568.5
399.941	1585.5
400.165	1554.5
400.389	1463.5
400.613	1421.5
400.837	1360.5
401.062	1374.5
401.286	1333.5
401.51	1312.5
401.734	1299.5
401.958	1306.5
402.182	1330.5
402.406	1310.5
402.63	1325.5
402.854	1370.5
403.078	1338.5
403.302	1339.5
403.526	1367.5
403.75	1338.5
403.974	1380.5
404.198	1328.5
404.422	1365.5
404.645	1360.5
404.869	1353.5
405.093	1369.5
405.317	1364.5
405.541	1406.5
405.765	1363.5
405.988	1404.5
406.212	1404.5
406.436	1415.5
406.66	1444.5
406.883	1408.5
407.107	1431.5
407.331	1482.5
407.555	1491.5
407.778	1470.5
408.002	1462.5
408.226	1447.5
408.449	1430.5
408.673	1421.5
408.896	1373.5
409.12	1376.5
409.344	1381.5
409.567	1414.5
409.791	1384.5
410.014	1365.5
410.238	1342.5
410.461	1360.5
410.685	1352.5
410.908	1379.5
411.132	1316.5
411.355	1323.5
411.578	1334.5
411.802	1323.5
412.025	1312.5
412.249	1323.5
412.472	1339.5
412.695	1297.5
412.919	1274.5
413.142	1307.5
413.365	1325.5
413.589	1294.5
413.812	1270.5
414.035	1290.5
414.258	1300.5
414.482	1308.5
414.705	1284.5
414.928	1293.5
415.151	1297.5
415.374	1308.5
415.597	1298.5
415.821	1236.5
416.044	1235.5
416.267	1244.5
416.49	1250.5
416.713	1241.5
416.936	1261.5
417.159	1231.5
417.382	1217.5
417.605	1210.5
417.828	1216.5
418.051	1250.5
418.274	1246.5
418.497	1258.5
418.72	1277.5
418.943	1283.5
419.166	1302.5
419.389	1391.5
419.611	1373.5
419.834	1318.5
420.057	1305.5
420.28	1268.5
420.503	1288.5
420.726	1222.5
420.948	1270.5
421.171	1238.5
421.394	1266.5
421.617	1259.5
421.839	1234.5
422.062	1259.5
422.285	1249.5
422.507	1285.5
422.73	1280.5
422.953	1295.5
423.175	1289.5
423.398	1311.5
423.621	1221.5
423.843	1275.5
424.066	1276.5
424.288	1275.5
424.511	1250.5
424.733	1295.5
424.956	1266.5
425.178	1236.5
425.401	1264.5
425.623	1219.5
425.846	1202.5
426.068	1234.5
426.291	1224.5
426.513	1208.5
426.735	1195.5
426.958	1214.5
427.18	1152.5
427.402	1197.5
427.625	1203.5
427.847	1192.5
428.069	1184.5
428.292	1193.5
428.514	1140.5
428.736	1174.5
428.958	1204.5
429.181	1122.5
429.403	1138.5
429.625	1149.5
429.847	1146.5
430.069	1138.5
430.292	1209.5
430.514	1212.5
430.736	1220.5
430.958	1201.5
431.18	1138.5
431.402	1145.5
431.624	1148.5
431.846	1156.5
432.068	1144.5
432.29	1124.5
432.512	1100.5
432.734	1162.5
432.956	1150.5
433.178	1157.5
433.4	1139.5
433.622	1179.5
433.844	1172.5
434.066	1164.5
434.287	1144.5
434.509	1149.5
434.731	1172.5
434.953	1167.5
435.175	1209.5
435.397	1217.5
435.618	1160.5
435.84	1133.5
436.062	1130.5
436.284	1140.5
436.505	1140.5
436.727	1176.5
436.949	1180.5
437.17	1129.5
437.392	1114.5
437.614	1148.5
437.835	1102.5
438.057	1105.5
438.278	1111.5
438.5	1095.5
438.721	1154.5
438.943	1164.5
439.165	1186.5
439.386	1191.5
439.608	1222.5
439.829	1198.5
440.05	1214.5
440.272	1286.5
440.493	1217.5
440.715	1185.5
440.936	1217.5
441.158	1201.5
441.379	1230.5
441.6	1252.5
441.822	1311.5
442.043	1304.5
442.264	1400.5
442.486	1294.5
442.707	1251.5
442.928	1228.5
443.149	1266.5
443.371	1226.5
443.592	1208.5
443.813	1226.5
444.034	1216.5
444.255	1267.5
444.476	1266.5
444.698	1319.5
444.919	1335.5
445.14	1425.5
445.361	1318.5
445.582	1244.5
445.803	1236.5
446.024	1253.5
446.245	1251.5
446.466	1249.5
446.687	1225.5
446.908	1204.5
447.129	1191.5
447.35	1174.5
447.571	1185.5
447.792	1133.5
448.013	1136.5
448.234	1156.5
448.455	1122.5
448.675	1156.5
448.896	1184.5
449.117	1214.5
449.338	1286.5
449.559	1358.5
449.779	1215.5
450	1148.5
450.221	1117.5
450.442	1101.5
450.662	1089.5
450.883	1087.5
451.104	1106.5
451.324	1115.5
451.545	1084.5
451.766	1076.5
451.986	1130.5
452.207	1206.5
452.428	1475.5
452.648	2021.5
452.869	1742.5
453.089	1286.5
453.31	1230.5
453.53	1193.5
453.751	1228.5
453.971	1308.5
454.192	1300.5
454.412	1139.5
454.633	1108.5
454.853	1070.5
455.073	1071.5
455.294	1062.5
455.514	1046.5
455.734	1079.5
455.955	1037.5
456.175	1043.5
456.395	1042.5
456.616	1061.5
456.836	1065.5
457.056	1088.5
457.276	1044.5
457.497	1119.5
457.717	1114.5
457.937	1077.5
458.157	1120.5
458.377	1097.5
458.598	1144.5
458.818	1168.5
459.038	1133.5
459.258	1120.5
459.478	1124.5
459.698	1181.5
459.918	1176.5
460.138	1181.5
460.358	1180.5
460.578	1212.5
460.798	1200.5
461.018	1240.5
461.238	1260.5
461.458	1253.5
461.678	1249.5
461.898	1241.5
462.118	1265.5
462.338	1323.5
462.558	1334.5
462.777	1372.5
462.997	1389.5
463.217	1467.5
463.437	1477.5
463.657	1509.5
463.876	1475.5
464.096	1436.5
464.316	1369.5
464.536	1369.5
464.755	1357.5
464.975	1301.5
465.195	1232.5
465.414	1223.5
465.634	1218.5
465.854	1158.5
466.073	1166.5
466.293	1179.5
466.512	1144.5
466.732	1214.5
466.951	1229.5
467.171	1283.5
467.391	1250.5
467.61	1187.5
467.829	1138.5
468.049	1148.5
468.268	1105.5
468.488	1117.5
468.707	1134.5
468.927	1111.5
469.146	1103.5
469.365	1154.5
469.585	1142.5
469.804	1164.5
470.023	1191.5
470.243	1213.5
470.462	1261.5
470.681	1320.5
470.901	1392.5
471.12	1602.5
471.339	1645.5
471.558	1317.5
471.777	1265.5
471.997	1188.5
472.216	1164.5
472.435	1127.5
472.654	1130.5
472.873	1114.5
473.092	1152.5
473.311	1160.5
473.53	1129.5
473.749	1143.5
473.968	1193.5
474.187	1133.5
474.406	1131.5
474.625	1146.5
474.844	1138.5
475.063	1159.5
475.282	1122.5
475.501	1147.5
475.72	1147.5
475.939	1164.5
476.158	1184.5
476.377	1170.5
476.596	1189.5
476.814	1200.5
477.033	1195.5
477.252	1197.5
477.471	1259.5
477.69	1242.5
477.908	1257.5
478.127	1312.5
478.346	1323.5
478.564	1308.5
478.783	1316.5
479.002	1353.5
479.22	1292.5
479.439	1358.5
479.658	1318.5
479.876	1333.5
480.095	1338.5
480.313	1404.5
480.532	1406.5
480.751	1362.5
480.969	1332.5
481.188	1329.5
481.406	1318.5
481.624	1331.5
481.843	1341.5
482.061	1378.5
482.28	1338.5
482.498	1341.5
482.717	1356.5
482.935	1342.5
483.153	1366.5
483.372	1374.5
483.59	1405.5
483.808	1414.5
484.027	1443.5
484.245	1528.5
484.463	1692.5
484.681	1899.5
484.9	1705.5
485.118	1607.5
485.336	1562.5
485.554	1611.5
485.772	1650.5
485.99	1889.5
486.209	2102.5
486.427	1698.5
486.645	1520.5
486.863	1524.5
487.081	1491.5
487.299	1448.5
487.517	1454.5
487.735	1438.5
487.953	1471.5
488.171	1446.5
488.389	1466.5
488.607	1417.5
488.825	1395.5
489.043	1381.5
489.261	1382.5
489.479	1383.5
489.696	1415.5
489.914	1416.5
490.132	1419.5
490.35	1438.5
490.568	1425.5
490.786	1498.5
491.003	1461.5
491.221	1475.5
491.439	1462.5
491.657	1481.5
491.874	1494.5
492.092	1525.5
492.31	1571.5
492.527	1571.5
492.745	1506.5
492.963	1464.5
493.18	1492.5
493.398	1476.5
493.615	1502.5
493.833	1467.5
494.05	1520.5
494.268	1504.5
494.485	1490.5
494.703	1529.5
494.92	1520.5
495.138	1491.5
495.355	1481.5
495.573	1504.5
495.79	1472.5
496.008	1508.5
496.225	1550.5
496.442	1559.5
496.66	1594.5
496.877	1685.5
497.094	1627.5
497.312	1576.5
497.529	1602.5
497.746	1620.5
497.963	1638.5
498.181	1663.5
498.398	1706.5
498.615	1738.5
498.832	1816.5
499.049	1895.5
499.267	2024.5
499.484	2160.5
499.701	2186.5
499.918	2236.5
500.135	2363.5
500.352	2497.5
500.569	2492.5
500.786	2435.5
501.003	2412.5
501.22	2308.5
501.437	2171.5
501.654	2070.5
501.871	1951.5
502.088	1906.5
502.305	1819.5
502.522	1755.5
502.739	1764.5
502.956	1658.5
503.172	1631.5
503.389	1593.5
503.606	1574.5
503.823	1548.5
504.04	1564.5
504.256	1544.5
504.473	1527.5
504.69	1504.5
504.907	1510.5
505.123	1480.5
505.34	1472.5
505.557	1412.5
505.773	1415.5
505.99	1396.5
506.207	1361.5
506.423	1368.5
506.64	1353.5
506.856	1299.5
507.073	1330.5
507.289	1334.5
507.506	1294.5
507.722	1294.5
507.939	1268.5
508.155	1288.5
508.372	1301.5
508.588	1262.5
508.805	1249.5
509.021	1259.5
509.238	1282.5
509.454	1328.5
509.67	1419.5
509.887	1324.5
510.103	1271.5
510.319	1258.5
510.536	1245.5
510.752	1229.5
510.968	1259.5
511.184	1196.5
511.401	1214.5
511.617	1236.5
511.833	1193.5
512.049	1222.5
512.265	1209.5
512.481	1217.5
512.698	1207.5
512.914	1204.5
513.13	1236.5
513.346	1207.5
513.562	1205.5
513.778	1230.5
513.994	1164.5
514.21	1261.5
514.426	1321.5
514.642	1353.5
514.858	1269.5
515.074	1249.5
515.29	1243.5
515.506	1236.5
515.721	1239.5
515.937	1247.5
516.153	1254.5
516.369	1268.5
516.585	1279.5
516.801	1315.5
517.016	1328.5
517.232	1346.5
517.448	1350.5
517.664	1358.5
517.879	1401.5
518.095	1398.5
518.311	1373.5
518.527	1385.5
518.742	1356.5
518.958	1333.5
519.173	1374.5
519.389	1359.5
519.605	1284.5
519.82	1272.5
520.036	1225.5
520.251	1227.5
520.467	1220.5
520.682	1231.5
520.898	1200.5
521.113	1191.5
521.329	1210.5
521.544	1190.5
521.76	1176.5
521.975	1164.5
522.19	1184.5
522.406	1182.5
522.621	1177.5
522.836	1176.5
523.052	1174.5
523.267	1156.5
523.482	1176.5
523.698	1152.5
523.913	1171.5
524.128	1157.5
524.343	1204.5
524.559	1184.5
524.774	1206.5
524.989	1201.5
525.204	1200.5
525.419	1185.5
525.634	1165.5
525.849	1165.5
526.064	1130.5
526.28	1159.5
526.495	1149.5
526.71	1170.5
526.925	1189.5
527.14	1162.5
527.355	1153.5
527.57	1149.5
527.785	1170.5
527.999	1166.5
528.214	1200.5
528.429	1213.5
528.644	1212.5
528.859	1246.5
529.074	1277.5
529.289	1242.5
529.503	1275.5
529.718	1276.5
529.933	1225.5
530.148	1243.5
530.363	1215.5
530.577	1256.5
530.792	1212.5
531.007	1234.5
531.221	1239.5
531.436	1250.5
531.651	1247.5
531.865	1266.5
532.08	1296.5
532.295	1337.5
532.509	1398.5
532.724	1382.5
532.938	1370.5
533.153	1403.5
533.367	1448.5
533.582	1517.5
533.796	1532.5
534.011	1524.5
534.225	1463.5
534.44	1405.5
534.654	1403.5
534.868	1393.5
535.083	1374.5
535.297	1367.5
535.511	1312.5
535.726	1278.5
535.94	1278.5
536.154	1261.5
536.369	1243.5
536.583	1232.5
536.797	1222.5
537.011	1216.5
537.225	1212.5
537.44	1191.5
537.654	1158.5
537.868	1164.5
538.082	1166.5
538.296	1177.5
538.51	1174.5
538.724	1158.5
538.938	1176.5
539.153	1168.5
539.367	1189.5
539.581	1148.5
539.795	1123.5
540.009	1140.5
540.222	1112.5
540.436	1106.5
540.65	1119.5
540.864	1172.5
541.078	1172.5
541.292	1236.5
541.506	1446.5
541.72	1513.5
541.934	1318.5
542.147	1290.5
542.361	1210.5
542.575	1180.5
542.789	1127.5
543.002	1132.5
543.216	1104.5
543.43	1126.5
543.644	1101.5
543.857	1132.5
544.071	1128.5
544.285	1122.5
544.498	1145.5
544.712	1146.5
544.925	1140.5
545.139	1133.5
545.352	1140.5
545.566	1146.5
545.779	1123.5
545.993	1109.5
546.206	1138.5
546.42	1156.5
546.633	1147.5
546.847	1122.5
547.06	1154.5
547.274	1158.5
547.487	1126.5
547.7	1138.5
547.914	1160.5
548.127	1138.5
548.34	1159.5
548.554	1151.5
548.767	1145.5
548.98	1142.5
549.193	1149.5
549.407	1152.5
549.62	1111.5
549.833	1138.5
550.046	1158.5
550.259	1140.5
550.473	1114.5
550.686	1130.5
550.899	1154.5
551.112	1138.5
551.325	1113.5
551.538	1106.5
551.751	1157.5
551.964	1120.5
552.177	1131.5
552.39	1161.5
552.603	1200.5
552.816	1184.5
553.029	1195.5
553.242	1256.5
553.455	1230.5
553.667	1252.5
553.88	1224.5
554.093	1255.5
554.306	1300.5
554.519	1288.5
554.732	1248.5
554.944	1281.5
555.157	1292.5
555.37	1312.5
555.583	1345.5
555.795	1405.5
556.008	1498.5
556.221	1636.5
556.433	1696.5
556.646	1662.5
556.859	1636.5
557.071	1628.5
557.284	1569.5
557.496	1548.5
557.709	1524.5
557.921	1494.5
558.134	1511.5
558.346	1541.5
558.559	1576.5
558.771	1632.5
558.984	1726.5
559.196	1807.5
559.409	1772.5
559.621	1670.5
559.833	1555.5
560.046	1527.5
560.258	1424.5
560.47	1358.5
560.683	1364.5
560.895	1330.5
561.107	1304.5
561.32	1240.5
561.532	1236.5
561.744	1179.5
561.956	1185.5
562.168	1156.5
562.381	1159.5
562.593	1137.5
562.805	1170.5
563.017	1153.5
563.229	1154.5
563.441	1287.5
563.653	1092.5
563.865	1062.5
564.077	1064.5
564.289	1062.5
564.501	1062.5
564.713	1013.5
564.925	1048.5
565.137	1016.5
565.349	1025.5
565.561	1016.5
565.773	1043.5
565.985	1068.5
566.197	1066.5
566.408	1104.5
566.62	1164.5
566.832	1152.5
567.044	1162.5
567.255	1128.5
567.467	1169.5
567.679	1191.5
567.891	1229.5
568.102	1385.5
568.314	1619.5
568.526	1396.5
568.737	1164.5
568.949	1064.5
569.161	1014.5
569.372	994.5
569.584	974.5
569.795	952.5
570.007	936.5
570.218	923.5
570.43	948.5
570.641	926.5
570.853	915.5
571.064	880.5
571.276	868.5
571.487	888.5
571.698	825.5
571.91	827.5
572.121	828.5
572.333	835.5
572.544	842.5
572.755	878.5
572.966	1042.5
573.178	922.5
573.389	842.5
573.6	822.5
573.811	785.5
574.023	764.5
574.234	768.5
574.445	755.5
574.656	754.5
574.867	739.5
575.078	741.5
575.289	742.5
575.501	756.5
575.712	770.5
575.923	777.5
576.134	739.5
576.345	745.5
576.556	766.5
576.767	755.5
576.978	770.5
577.188	776.5
577.399	793.5
577.61	788.5
577.821	765.5
578.032	780.5
578.243	776.5
578.454	798.5
578.665	816.5
578.875	824.5
579.086	828.5
579.297	866.5
579.508	886.5
579.718	984.5
579.929	1045.5
580.14	1185.5
580.35	1225.5
580.561	1162.5
580.772	1088.5
580.982	1018.5
581.193	951.5
581.403	960.5
581.614	904.5
581.825	866.5
582.035	848.5
582.246	799.5
582.456	797.5
582.667	766.5
582.877	792.5
583.087	756.5
583.298	739.5
583.508	712.5
583.719	698.5
583.929	669.5
584.139	672.5
584.35	650.5
584.56	656.5
584.77	640.5
584.981	651.5
585.191	650.5
585.401	636.5
585.611	621.5
585.821	632.5
586.032	619.5
586.242	613.5
586.452	599.5
586.662	590.5
586.872	599.5
587.082	607.5
587.292	597.5
587.502	563.5
587.713	603.5
587.923	560.5
588.133	566.5
588.343	561.5
588.553	565.5
588.762	552.5
588.972	557.5
589.182	574.5
589.392	573.5
589.602	574.5
589.812	563.5
590.022	543.5
590.232	549.5
590.441	535.5
590.651	548.5
590.861	537.5
591.071	555.5
591.281	527.5
591.49	552.5
591.7	525.5
591.91	546.5
592.119	545.5
592.329	543.5
592.539	577.5
592.748	563.5
592.958	561.5
593.167	545.5
593.377	531.5
593.587	569.5
593.796	569.5
594.006	571.5
594.215	569.5
594.424	546.5
594.634	547.5
594.843	555.5
595.053	545.5
595.262	540.5
595.472	548.5
595.681	507.5
595.89	513.5
596.1	510.5
596.309	503.5
596.518	507.5
596.727	494.5
596.937	490.5
597.146	487.5
597.355	481.5
597.564	476.5
597.774	471.5
597.983	466.5
598.192	468.5
598.401	477.5
598.61	468.5
598.819	445.5
599.028	473.5
599.237	451.5
599.446	458.5
599.655	444.5
599.864	452.5
600.073	444.5
600.282	448.5
600.491	455.5
600.7	460.5
600.909	451.5
601.118	429.5
601.327	464.5
601.536	460.5
601.745	470.5
601.953	510.5
602.162	574.5
602.371	497.5
602.58	471.5
602.789	468.5
602.997	473.5
603.206	429.5
603.415	430.5
603.623	463.5
603.832	432.5
604.041	426.5
604.249	446.5
604.458	436.5
604.666	438.5
604.875	435.5
605.084	411.5
605.292	428.5
605.501	452.5
605.709	441.5
605.918	424.5
606.126	436.5
606.334	450.5
606.543	459.5
606.751	472.5
606.96	533.5
607.168	580.5
607.376	478.5
607.585	481.5
607.793	428.5
608.001	446.5
608.21	450.5
608.418	449.5
608.626	446.5
608.834	422.5
609.043	419.5
609.251	420.5
609.459	426.5
609.667	442.5
609.875	421.5
610.083	417.5
610.291	433.5
610.499	428.5
610.707	406.5
610.916	406.5
611.124	398.5
611.332	402.5
611.54	416.5
611.748	412.5
611.955	429.5
612.163	398.5
612.371	403.5
612.579	386.5
612.787	376.5
612.995	395.5
613.203	404.5
613.411	397.5
613.618	392.5
613.826	397.5
614.034	408.5
614.242	389.5
614.449	397.5
614.657	402.5
614.865	395.5
615.072	395.5
615.28	408.5
615.488	420.5
615.695	385.5
615.903	398.5
616.111	398.5
616.318	395.5
616.526	378.5
616.733	395.5
616.941	397.5
617.148	382.5
617.356	404.5
617.563	400.5
617.771	393.5
617.978	391.5
618.185	392.5
618.393	376.5
618.6	381.5
618.807	370.5
619.015	377.5
619.222	364.5
619.429	373.5
619.637	380.5
619.844	368.5
620.051	368.5
620.258	372.5
620.466	360.5
620.673	360.5
620.88	354.5
621.087	369.5
621.294	364.5
621.501	368.5
621.708	373.5
621.915	361.5
622.122	367.5
622.329	356.5
622.536	345.5
622.743	344.5
622.95	354.5
623.157	349.5
623.364	337.5
623.571	355.5
623.778	363.5
623.985	338.5
624.192	358.5
624.399	357.5
624.606	355.5
624.812	364.5
625.019	357.5
625.226	349.5
625.433	344.5
625.639	341.5
625.846	322.5
626.053	344.5
626.259	323.5
626.466	332.5
626.673	347.5
626.879	318.5
627.086	315.5
627.293	302.5
627.499	325.5
627.706	355.5
627.912	326.5
628.119	334.5
628.325	309.5
628.532	313.5
628.738	331.5
628.945	330.5
629.151	318.5
629.357	320.5
629.564	324.5
629.77	321.5
629.976	316.5
630.183	334.5
630.389	304.5
630.595	321.5
630.802	300.5
631.008	305.5
631.214	320.5
631.42	324.5
631.627	311.5
631.833	299.5
632.039	311.5
632.245	324.5
632.451	315.5
632.657	314.5
632.863	313.5
633.069	320.5
633.275	292.5
633.481	298.5
633.688	305.5
633.893	296.5
634.099	303.5
634.305	306.5
634.511	282.5
634.717	299.5
634.923	310.5
635.129	351.5
635.335	394.5
635.541	346.5
635.747	320.5
635.952	316.5
636.158	312.5
636.364	310.5
636.57	306.5
636.775	305.5
636.981	319.5
637.187	284.5
637.392	293.5
637.598	289.5
637.804	307.5
638.009	297.5
638.215	294.5
638.421	294.5
638.626	301.5
638.832	293.5
639.037	278.5
639.243	305.5
639.448	314.5
639.654	308.5
639.859	323.5
640.065	304.5
640.27	296.5
640.475	314.5
640.681	300.5
640.886	315.5
641.091	322.5
641.297	318.5
641.502	314.5
641.707	326.5
641.913	330.5
642.118	328.5
642.323	326.5
642.528	339.5
642.733	361.5
642.939	346.5
643.144	364.5
643.349	352.5
643.554	358.5
643.759	388.5
643.964	389.5
644.169	420.5
644.374	446.5
644.579	473.5
644.784	504.5
644.989	547.5
645.194	642.5
645.399	733.5
645.604	742.5
645.809	613.5
646.014	500.5
646.219	436.5
646.423	384.5
646.628	360.5
646.833	359.5
647.038	345.5
647.243	322.5
647.447	325.5
647.652	326.5
647.857	305.5
648.062	291.5
648.266	301.5
648.471	286.5
648.676	294.5
648.88	285.5
649.085	288.5
649.289	288.5
649.494	283.5
649.698	276.5
649.903	278.5
650.107	269.5
650.312	260.5
650.516	250.5
650.721	251.5
650.925	273.5
651.13	252.5
651.334	261.5
651.539	240.5
651.743	235.5
651.947	239.5
652.152	228.5
652.356	226.5
652.56	265.5
652.764	278.5
652.969	238.5
653.173	228.5
653.377	242.5
653.581	214.5
653.785	214.5
653.99	215.5
654.194	212.5
654.398	217.5
654.602	206.5
654.806	203.5
655.01	213.5
655.214	211.5
655.418	195.5
655.622	198.5
655.826	206.5
656.03	218.5
656.234	219.5
656.438	232.5
656.642	223.5
656.846	222.5
657.049	207.5
657.253	208.5
657.457	199.5
657.661	178.5
657.865	183.5
658.068	187.5
658.272	165.5
658.476	164.5
658.68	139.5
658.883	136.5
659.087	134.5
659.291	145.5
659.494	128.5
659.698	133.5
659.901	120.5
660.105	131.5
660.309	119.5
660.512	125.5
660.716	113.5
660.919	109.5
661.123	113.5
661.326	113.5
661.53	106.5
661.733	99.5
661.936	86.5
662.14	98.5
662.343	104.5
662.546	104.5
662.75	105.5
662.953	88.5
663.156	99.5
663.36	107.5
663.563	88.5
663.766	92.5
663.969	101.5
664.173	80.5
664.376	82.5
664.579	81.5
664.782	84.5
664.985	89.5
665.188	97.5
665.391	89.5
665.594	93.5
665.797	88.5
666	90.5
666.203	94.5
666.406	89.5
666.609	84.5
666.812	82.5
667.015	99.5
667.218	85.5
667.421	70.5
667.624	89.5
667.827	93.5
668.03	75.5
668.232	85.5
668.435	96.5
668.638	94.5
668.841	102.5
669.043	83.5
669.246	73.5
669.449	76.5
669.651	98.5
669.854	75.5
670.057	93.5
670.259	78.5
670.462	73.5
670.665	79.5
670.867	92.5
671.07	85.5
671.272	96.5
671.475	89.5
671.677	86.5
671.88	90.5
672.082	87.5
672.284	90.5
672.487	101.5
672.689	81.5
672.892	81.5
