Data from SnStandardFlinnAPT0064_QswitchEnergy10_LIBS07252019.E.O._I.C._HRD10591_15-27-23-973.txt Node
Date: Thu Jul 25 15:27:23 EDT 2019
User: cochatt
Spectrometer: HR+D1059
Trigger mode: 1
Integration Time (sec): 1.000000E-1
Scans to average: 1
Electric dark correction enabled: true
Nonlinearity correction enabled: false
Boxcar width: 0
XAxis mode: Wavelengths
Number of Pixels in Spectrum: 2048
>>>>>Begin Spectral Data<<<<<
223.165	-17.62
223.4	-17.62
223.635	-17.62
223.869	-28.62
224.104	-19.62
224.338	-10.62
224.573	-15.62
224.808	-3.62
225.042	-28.62
225.277	0.38
225.511	-7.62
225.746	22.38
225.98	-3.62
226.215	8.38
226.449	12.38
226.683	25.38
226.918	31.38
227.152	35.38
227.387	31.38
227.621	37.38
227.856	29.38
228.09	41.38
228.324	47.38
228.559	54.38
228.793	65.38
229.027	73.38
229.262	72.38
229.496	72.38
229.73	50.38
229.964	71.38
230.199	66.38
230.433	67.38
230.667	74.38
230.901	64.38
231.136	74.38
231.37	92.38
231.604	94.38
231.838	95.38
232.072	110.38
232.306	126.38
232.541	95.38
232.775	80.38
233.009	85.38
233.243	86.38
233.477	88.38
233.711	97.38
233.945	101.38
234.179	90.38
234.413	102.38
234.647	85.38
234.881	87.38
235.115	72.38
235.349	102.38
235.583	109.38
235.817	119.38
236.051	112.38
236.285	86.38
236.519	89.38
236.753	82.38
236.987	77.38
237.221	80.38
237.455	78.38
237.689	77.38
237.922	86.38
238.156	86.38
238.39	74.38
238.624	82.38
238.858	84.38
239.091	77.38
239.325	72.38
239.559	79.38
239.793	62.38
240.027	86.38
240.26	81.38
240.494	78.38
240.728	99.38
240.961	94.38
241.195	93.38
241.429	89.38
241.662	91.38
241.896	78.38
242.13	108.38
242.363	103.38
242.597	142.38
242.83	130.38
243.064	128.38
243.298	169.38
243.531	138.38
243.765	93.38
243.998	83.38
244.232	81.38
244.465	79.38
244.699	69.38
244.932	71.38
245.166	89.38
245.399	90.38
245.633	87.38
245.866	85.38
246.099	87.38
246.333	83.38
246.566	77.38
246.8	72.38
247.033	83.38
247.266	76.38
247.5	76.38
247.733	78.38
247.966	73.38
248.2	91.38
248.433	112.38
248.666	117.38
248.899	114.38
249.133	86.38
249.366	80.38
249.599	100.38
249.832	111.38
250.066	124.38
250.299	108.38
250.532	85.38
250.765	74.38
250.998	90.38
251.231	84.38
251.465	72.38
251.698	73.38
251.931	84.38
252.164	74.38
252.397	70.38
252.63	92.38
252.863	97.38
253.096	87.38
253.329	79.38
253.562	101.38
253.795	83.38
254.028	87.38
254.261	93.38
254.494	88.38
254.727	114.38
254.96	154.38
255.193	120.38
255.426	88.38
255.659	78.38
255.892	93.38
256.124	78.38
256.357	98.38
256.59	88.38
256.823	94.38
257.056	109.38
257.289	136.38
257.521	156.38
257.754	112.38
257.987	82.38
258.22	90.38
258.452	89.38
258.685	85.38
258.918	80.38
259.151	88.38
259.383	104.38
259.616	118.38
259.849	152.38
260.081	83.38
260.314	64.38
260.547	86.38
260.779	72.38
261.012	86.38
261.244	84.38
261.477	87.38
261.71	95.38
261.942	95.38
262.175	74.38
262.407	70.38
262.64	77.38
262.872	78.38
263.105	100.38
263.337	93.38
263.57	90.38
263.802	96.38
264.035	100.38
264.267	91.38
264.499	82.38
264.732	97.38
264.964	82.38
265.197	98.38
265.429	84.38
265.661	95.38
265.894	98.38
266.126	135.38
266.358	164.38
266.591	154.38
266.823	97.38
267.055	72.38
267.287	79.38
267.52	85.38
267.752	93.38
267.984	89.38
268.216	93.38
268.448	81.38
268.681	95.38
268.913	86.38
269.145	96.38
269.377	91.38
269.609	86.38
269.841	105.38
270.073	96.38
270.306	125.38
270.538	188.38
270.77	297.38
271.002	338.38
271.234	180.38
271.466	97.38
271.698	91.38
271.93	84.38
272.162	74.38
272.394	89.38
272.626	74.38
272.858	69.38
273.09	78.38
273.322	101.38
273.553	82.38
273.785	88.38
274.017	89.38
274.249	78.38
274.481	89.38
274.713	93.38
274.945	80.38
275.176	76.38
275.408	89.38
275.64	91.38
275.872	92.38
276.104	77.38
276.335	113.38
276.567	98.38
276.799	80.38
277.031	85.38
277.262	84.38
277.494	99.38
277.726	138.38
277.957	167.38
278.189	224.38
278.421	215.38
278.652	184.38
278.884	167.38
279.115	116.38
279.347	119.38
279.579	96.38
279.81	92.38
280.042	101.38
280.273	91.38
280.505	108.38
280.736	101.38
280.968	116.38
281.199	150.38
281.431	208.38
281.662	221.38
281.894	142.38
282.125	108.38
282.356	112.38
282.588	100.38
282.819	97.38
283.051	107.38
283.282	128.38
283.513	172.38
283.745	295.38
283.976	514.38
284.207	751.38
284.439	582.38
284.67	258.38
284.901	220.38
285.132	317.38
285.364	379.38
285.595	230.38
285.826	144.38
286.057	230.38
286.288	375.38
286.52	589.38
286.751	462.38
286.982	173.38
287.213	112.38
287.444	109.38
287.675	100.38
287.906	99.38
288.138	95.38
288.369	85.38
288.6	91.38
288.831	94.38
289.062	85.38
289.293	96.38
289.524	91.38
289.755	88.38
289.986	88.38
290.217	97.38
290.448	82.38
290.679	100.38
290.91	114.38
291.141	137.38
291.371	205.38
291.602	247.38
291.833	159.38
292.064	112.38
292.295	102.38
292.526	108.38
292.757	87.38
292.987	93.38
293.218	79.38
293.449	85.38
293.68	76.38
293.91	83.38
294.141	88.38
294.372	97.38
294.603	80.38
294.833	93.38
295.064	95.38
295.295	88.38
295.525	96.38
295.756	70.38
295.987	97.38
296.217	87.38
296.448	88.38
296.679	95.38
296.909	98.38
297.14	106.38
297.37	97.38
297.601	101.38
297.831	96.38
298.062	93.38
298.292	108.38
298.523	101.38
298.753	94.38
298.984	93.38
299.214	103.38
299.445	102.38
299.675	120.38
299.905	105.38
300.136	124.38
300.366	155.38
300.597	261.38
300.827	417.38
301.057	640.38
301.288	586.38
301.518	225.38
301.748	142.38
301.979	124.38
302.209	115.38
302.439	139.38
302.669	145.38
302.9	243.38
303.13	470.38
303.36	818.38
303.59	1104.38
303.82	789.38
304.051	275.38
304.281	137.38
304.511	125.38
304.741	106.38
304.971	112.38
305.201	112.38
305.431	108.38
305.661	116.38
305.891	104.38
306.121	108.38
306.352	82.38
306.582	92.38
306.812	97.38
307.042	114.38
307.272	88.38
307.502	104.38
307.731	94.38
307.961	101.38
308.191	100.38
308.421	99.38
308.651	112.38
308.881	84.38
309.111	95.38
309.341	109.38
309.571	117.38
309.8	101.38
310.03	111.38
310.26	105.38
310.49	100.38
310.72	101.38
310.949	104.38
311.179	105.38
311.409	96.38
311.639	121.38
311.868	99.38
312.098	98.38
312.328	103.38
312.557	100.38
312.787	118.38
313.017	112.38
313.246	118.38
313.476	119.38
313.706	117.38
313.935	141.38
314.165	182.38
314.394	202.38
314.624	181.38
314.853	130.38
315.083	121.38
315.312	113.38
315.542	130.38
315.771	122.38
316.001	117.38
316.23	134.38
316.46	142.38
316.689	168.38
316.919	244.38
317.148	443.38
317.377	831.38
317.607	1362.38
317.836	1266.38
318.065	477.38
318.295	198.38
318.524	148.38
318.753	132.38
318.983	136.38
319.212	116.38
319.441	113.38
319.67	112.38
319.9	119.38
320.129	94.38
320.358	106.38
320.587	114.38
320.816	108.38
321.046	96.38
321.275	121.38
321.504	102.38
321.733	126.38
321.962	149.38
322.191	135.38
322.42	116.38
322.649	114.38
322.878	117.38
323.108	122.38
323.337	130.38
323.566	122.38
323.795	124.38
324.024	134.38
324.253	134.38
324.482	172.38
324.71	194.38
324.939	245.38
325.168	230.38
325.397	168.38
325.626	246.38
325.855	456.38
326.084	876.38
326.313	1498.38
326.542	1452.38
326.77	564.38
326.999	221.38
327.228	193.38
327.457	219.38
327.686	201.38
327.914	166.38
328.143	132.38
328.372	122.38
328.6	116.38
328.829	120.38
329.058	115.38
329.287	101.38
329.515	104.38
329.744	120.38
329.972	108.38
330.201	109.38
330.43	113.38
330.658	105.38
330.887	104.38
331.115	103.38
331.344	118.38
331.572	112.38
331.801	109.38
332.03	112.38
332.258	138.38
332.486	169.38
332.715	261.38
332.943	466.38
333.172	709.38
333.4	616.38
333.629	236.38
333.857	142.38
334.085	115.38
334.314	117.38
334.542	105.38
334.771	122.38
334.999	110.38
335.227	121.38
335.455	104.38
335.684	118.38
335.912	115.38
336.14	121.38
336.369	116.38
336.597	108.38
336.825	108.38
337.053	114.38
337.281	102.38
337.51	89.38
337.738	94.38
337.966	89.38
338.194	101.38
338.422	114.38
338.65	115.38
338.878	120.38
339.106	120.38
339.334	119.38
339.562	111.38
339.79	113.38
340.018	103.38
340.246	118.38
340.474	99.38
340.702	108.38
340.93	107.38
341.158	106.38
341.386	132.38
341.614	110.38
341.842	117.38
342.07	106.38
342.298	110.38
342.526	101.38
342.754	113.38
342.981	90.38
343.209	108.38
343.437	99.38
343.665	95.38
343.893	118.38
344.12	116.38
344.348	120.38
344.576	109.38
344.804	117.38
345.031	106.38
345.259	94.38
345.487	100.38
345.714	105.38
345.942	111.38
346.17	118.38
346.397	102.38
346.625	101.38
346.853	97.38
347.08	101.38
347.308	112.38
347.535	107.38
347.763	88.38
347.99	95.38
348.218	113.38
348.445	112.38
348.673	113.38
348.9	123.38
349.128	131.38
349.355	115.38
349.583	120.38
349.81	121.38
350.037	108.38
350.265	112.38
350.492	109.38
350.72	103.38
350.947	96.38
351.174	113.38
351.402	99.38
351.629	112.38
351.856	105.38
352.083	102.38
352.311	100.38
352.538	108.38
352.765	97.38
352.992	91.38
353.22	90.38
353.447	110.38
353.674	97.38
353.901	97.38
354.128	89.38
354.355	99.38
354.583	92.38
354.81	83.38
355.037	88.38
355.264	105.38
355.491	94.38
355.718	90.38
355.945	109.38
356.172	102.38
356.399	100.38
356.626	91.38
356.853	102.38
357.08	115.38
357.307	104.38
357.534	102.38
357.761	116.38
357.988	102.38
358.215	96.38
358.441	97.38
358.668	115.38
358.895	102.38
359.122	118.38
359.349	108.38
359.576	101.38
359.802	114.38
360.029	108.38
360.256	99.38
360.483	100.38
360.709	91.38
360.936	106.38
361.163	110.38
361.39	95.38
361.616	87.38
361.843	99.38
362.07	111.38
362.296	100.38
362.523	109.38
362.749	96.38
362.976	108.38
363.203	112.38
363.429	114.38
363.656	128.38
363.882	112.38
364.109	111.38
364.335	98.38
364.562	97.38
364.788	85.38
365.015	118.38
365.241	120.38
365.468	169.38
365.694	225.38
365.92	169.38
366.147	115.38
366.373	94.38
366.599	102.38
366.826	110.38
367.052	98.38
367.278	99.38
367.505	92.38
367.731	97.38
367.957	96.38
368.184	111.38
368.41	113.38
368.636	119.38
368.862	108.38
369.089	103.38
369.315	98.38
369.541	99.38
369.767	112.38
369.993	112.38
370.219	115.38
370.445	94.38
370.672	92.38
370.898	104.38
371.124	98.38
371.35	94.38
371.576	88.38
371.802	98.38
372.028	103.38
372.254	103.38
372.48	89.38
372.706	116.38
372.932	110.38
373.158	105.38
373.384	111.38
373.61	121.38
373.835	122.38
374.061	105.38
374.287	100.38
374.513	93.38
374.739	101.38
374.965	107.38
375.191	107.38
375.416	97.38
375.642	88.38
375.868	111.38
376.094	108.38
376.319	96.38
376.545	99.38
376.771	91.38
376.997	99.38
377.222	99.38
377.448	107.38
377.674	108.38
377.899	91.38
378.125	112.38
378.35	90.38
378.576	96.38
378.802	90.38
379.027	108.38
379.253	134.38
379.478	161.38
379.704	297.38
379.929	709.38
380.155	1447.38
380.38	1476.38
380.606	476.38
380.831	172.38
381.057	117.38
381.282	102.38
381.507	115.38
381.733	102.38
381.958	93.38
382.184	110.38
382.409	96.38
382.634	109.38
382.86	95.38
383.085	97.38
383.31	94.38
383.535	84.38
383.761	96.38
383.986	111.38
384.211	98.38
384.436	103.38
384.662	97.38
384.887	113.38
385.112	104.38
385.337	95.38
385.562	113.38
385.787	98.38
386.013	102.38
386.238	113.38
386.463	100.38
386.688	96.38
386.913	104.38
387.138	102.38
387.363	105.38
387.588	87.38
387.813	105.38
388.038	95.38
388.263	102.38
388.488	110.38
388.713	98.38
388.938	84.38
389.163	88.38
389.387	87.38
389.612	94.38
389.837	101.38
390.062	94.38
390.287	89.38
390.512	96.38
390.736	101.38
390.961	99.38
391.186	98.38
391.411	98.38
391.636	91.38
391.86	89.38
392.085	91.38
392.31	97.38
392.534	99.38
392.759	108.38
392.984	92.38
393.208	116.38
393.433	118.38
393.658	128.38
393.882	110.38
394.107	92.38
394.331	89.38
394.556	88.38
394.78	96.38
395.005	98.38
395.229	88.38
395.454	102.38
395.678	89.38
395.903	100.38
396.127	107.38
396.352	108.38
396.576	92.38
396.801	102.38
397.025	111.38
397.249	108.38
397.474	89.38
397.698	102.38
397.922	98.38
398.147	88.38
398.371	70.38
398.595	88.38
398.82	92.38
399.044	95.38
399.268	104.38
399.492	99.38
399.717	88.38
399.941	91.38
400.165	100.38
400.389	92.38
400.613	91.38
400.837	87.38
401.062	87.38
401.286	85.38
401.51	84.38
401.734	85.38
401.958	89.38
402.182	100.38
402.406	96.38
402.63	98.38
402.854	99.38
403.078	89.38
403.302	82.38
403.526	95.38
403.75	98.38
403.974	79.38
404.198	92.38
404.422	78.38
404.645	84.38
404.869	100.38
405.093	99.38
405.317	104.38
405.541	104.38
405.765	113.38
405.988	130.38
406.212	105.38
406.436	90.38
406.66	98.38
406.883	102.38
407.107	88.38
407.331	101.38
407.555	89.38
407.778	89.38
408.002	95.38
408.226	98.38
408.449	108.38
408.673	98.38
408.896	106.38
409.12	83.38
409.344	91.38
409.567	93.38
409.791	94.38
410.014	92.38
410.238	114.38
410.461	104.38
410.685	90.38
410.908	103.38
411.132	100.38
411.355	95.38
411.578	104.38
411.802	92.38
412.025	93.38
412.249	88.38
412.472	93.38
412.695	83.38
412.919	100.38
413.142	91.38
413.365	94.38
413.589	103.38
413.812	92.38
414.035	91.38
414.258	113.38
414.482	101.38
414.705	92.38
414.928	94.38
415.151	101.38
415.374	105.38
415.597	103.38
415.821	91.38
416.044	90.38
416.267	87.38
416.49	83.38
416.713	70.38
416.936	104.38
417.159	98.38
417.382	82.38
417.605	91.38
417.828	72.38
418.051	75.38
418.274	88.38
418.497	85.38
418.72	79.38
418.943	80.38
419.166	95.38
419.389	101.38
419.611	96.38
419.834	101.38
420.057	89.38
420.28	102.38
420.503	100.38
420.726	106.38
420.948	83.38
421.171	92.38
421.394	94.38
421.617	90.38
421.839	108.38
422.062	82.38
422.285	78.38
422.507	89.38
422.73	119.38
422.953	116.38
423.175	94.38
423.398	100.38
423.621	103.38
423.843	97.38
424.066	85.38
424.288	97.38
424.511	91.38
424.733	105.38
424.956	88.38
425.178	84.38
425.401	95.38
425.623	102.38
425.846	90.38
426.068	74.38
426.291	90.38
426.513	77.38
426.735	100.38
426.958	88.38
427.18	90.38
427.402	81.38
427.625	89.38
427.847	95.38
428.069	69.38
428.292	105.38
428.514	98.38
428.736	97.38
428.958	102.38
429.181	88.38
429.403	93.38
429.625	95.38
429.847	103.38
430.069	89.38
430.292	90.38
430.514	98.38
430.736	98.38
430.958	97.38
431.18	93.38
431.402	100.38
431.624	85.38
431.846	93.38
432.068	72.38
432.29	88.38
432.512	79.38
432.734	96.38
432.956	99.38
433.178	72.38
433.4	82.38
433.622	90.38
433.844	90.38
434.066	96.38
434.287	89.38
434.509	106.38
434.731	96.38
434.953	96.38
435.175	89.38
435.397	82.38
435.618	95.38
435.84	82.38
436.062	87.38
436.284	89.38
436.505	85.38
436.727	88.38
436.949	89.38
437.17	84.38
437.392	86.38
437.614	100.38
437.835	86.38
438.057	93.38
438.278	93.38
438.5	86.38
438.721	92.38
438.943	105.38
439.165	100.38
439.386	103.38
439.608	84.38
439.829	106.38
440.05	97.38
440.272	114.38
440.493	90.38
440.715	96.38
440.936	108.38
441.158	88.38
441.379	96.38
441.6	95.38
441.822	104.38
442.043	111.38
442.264	131.38
442.486	111.38
442.707	97.38
442.928	85.38
443.149	86.38
443.371	91.38
443.592	84.38
443.813	97.38
444.034	86.38
444.255	76.38
444.476	90.38
444.698	103.38
444.919	94.38
445.14	196.38
445.361	130.38
445.582	84.38
445.803	102.38
446.024	73.38
446.245	103.38
446.466	106.38
446.687	102.38
446.908	97.38
447.129	120.38
447.35	98.38
447.571	91.38
447.792	95.38
448.013	90.38
448.234	95.38
448.455	77.38
448.675	96.38
448.896	87.38
449.117	108.38
449.338	121.38
449.559	151.38
449.779	117.38
450	106.38
450.221	102.38
450.442	103.38
450.662	102.38
450.883	102.38
451.104	110.38
451.324	113.38
451.545	100.38
451.766	115.38
451.986	137.38
452.207	198.38
452.428	492.38
452.648	1170.38
452.869	680.38
453.089	188.38
453.31	120.38
453.53	110.38
453.751	149.38
453.971	162.38
454.192	135.38
454.412	98.38
454.633	99.38
454.853	88.38
455.073	94.38
455.294	83.38
455.514	96.38
455.734	89.38
455.955	95.38
456.175	88.38
456.395	101.38
456.616	98.38
456.836	92.38
457.056	106.38
457.276	101.38
457.497	101.38
457.717	113.38
457.937	97.38
458.157	92.38
458.377	89.38
458.598	90.38
458.818	95.38
459.038	83.38
459.258	84.38
459.478	84.38
459.698	93.38
459.918	80.38
460.138	83.38
460.358	78.38
460.578	74.38
460.798	94.38
461.018	86.38
461.238	101.38
461.458	83.38
461.678	83.38
461.898	88.38
462.118	101.38
462.338	107.38
462.558	99.38
462.777	92.38
462.997	98.38
463.217	118.38
463.437	126.38
463.657	184.38
463.876	188.38
464.096	111.38
464.316	86.38
464.536	97.38
464.755	90.38
464.975	74.38
465.195	95.38
465.414	96.38
465.634	94.38
465.854	86.38
466.073	83.38
466.293	89.38
466.512	106.38
466.732	86.38
466.951	105.38
467.171	154.38
467.391	129.38
467.61	114.38
467.829	101.38
468.049	91.38
468.268	88.38
468.488	94.38
468.707	101.38
468.927	101.38
469.146	95.38
469.365	92.38
469.585	90.38
469.804	91.38
470.023	96.38
470.243	84.38
470.462	101.38
470.681	119.38
470.901	133.38
471.12	181.38
471.339	220.38
471.558	128.38
471.777	111.38
471.997	105.38
472.216	98.38
472.435	95.38
472.654	79.38
472.873	99.38
473.092	106.38
473.311	86.38
473.53	87.38
473.749	95.38
473.968	87.38
474.187	83.38
474.406	84.38
474.625	88.38
474.844	99.38
475.063	96.38
475.282	98.38
475.501	85.38
475.72	103.38
475.939	114.38
476.158	100.38
476.377	108.38
476.596	105.38
476.814	92.38
477.033	98.38
477.252	97.38
477.471	98.38
477.69	105.38
477.908	102.38
478.127	103.38
478.346	84.38
478.564	103.38
478.783	102.38
479.002	78.38
479.22	90.38
479.439	96.38
479.658	101.38
479.876	86.38
480.095	74.38
480.313	88.38
480.532	98.38
480.751	89.38
480.969	100.38
481.188	104.38
481.406	110.38
481.624	98.38
481.843	115.38
482.061	92.38
482.28	95.38
482.498	102.38
482.717	100.38
482.935	91.38
483.153	96.38
483.372	102.38
483.59	116.38
483.808	97.38
484.027	96.38
484.245	118.38
484.463	171.38
484.681	218.38
484.9	144.38
485.118	113.38
485.336	104.38
485.554	104.38
485.772	126.38
485.99	164.38
486.209	242.38
486.427	156.38
486.645	98.38
486.863	105.38
487.081	95.38
487.299	76.38
487.517	95.38
487.735	83.38
487.953	92.38
488.171	102.38
488.389	103.38
488.607	82.38
488.825	92.38
489.043	90.38
489.261	81.38
489.479	96.38
489.696	100.38
489.914	88.38
490.132	94.38
490.35	100.38
490.568	105.38
490.786	90.38
491.003	83.38
491.221	101.38
491.439	108.38
491.657	104.38
491.874	99.38
492.092	102.38
492.31	98.38
492.527	100.38
492.745	116.38
492.963	108.38
493.18	114.38
493.398	115.38
493.615	99.38
493.833	85.38
494.05	100.38
494.268	101.38
494.485	94.38
494.703	95.38
494.92	99.38
495.138	109.38
495.355	112.38
495.573	108.38
495.79	94.38
496.008	119.38
496.225	100.38
496.442	101.38
496.66	116.38
496.877	154.38
497.094	161.38
497.312	103.38
497.529	101.38
497.746	96.38
497.963	93.38
498.181	110.38
498.398	99.38
498.615	102.38
498.832	87.38
499.049	102.38
499.267	124.38
499.484	157.38
499.701	103.38
499.918	99.38
500.135	106.38
500.352	108.38
500.569	90.38
500.786	111.38
501.003	98.38
501.22	97.38
501.437	103.38
501.654	98.38
501.871	90.38
502.088	97.38
502.305	98.38
502.522	95.38
502.739	90.38
502.956	98.38
503.172	101.38
503.389	99.38
503.606	88.38
503.823	93.38
504.04	100.38
504.256	86.38
504.473	111.38
504.69	88.38
504.907	110.38
505.123	104.38
505.34	99.38
505.557	88.38
505.773	112.38
505.99	102.38
506.207	94.38
506.423	108.38
506.64	108.38
506.856	98.38
507.073	97.38
507.289	86.38
507.506	100.38
507.722	92.38
507.939	95.38
508.155	97.38
508.372	86.38
508.588	103.38
508.805	91.38
509.021	105.38
509.238	105.38
509.454	127.38
509.67	146.38
509.887	113.38
510.103	81.38
510.319	89.38
510.536	104.38
510.752	120.38
510.968	110.38
511.184	102.38
511.401	93.38
511.617	97.38
511.833	92.38
512.049	97.38
512.265	104.38
512.481	104.38
512.698	95.38
512.914	85.38
513.13	99.38
513.346	109.38
513.562	97.38
513.778	96.38
513.994	93.38
514.21	109.38
514.426	139.38
514.642	180.38
514.858	124.38
515.074	94.38
515.29	100.38
515.506	101.38
515.721	105.38
515.937	105.38
516.153	90.38
516.369	99.38
516.585	114.38
516.801	88.38
517.016	92.38
517.232	89.38
517.448	97.38
517.664	105.38
517.879	101.38
518.095	95.38
518.311	116.38
518.527	96.38
518.742	102.38
518.958	103.38
519.173	161.38
519.389	117.38
519.605	92.38
519.82	96.38
520.036	95.38
520.251	104.38
520.467	91.38
520.682	81.38
520.898	79.38
521.113	95.38
521.329	89.38
521.544	90.38
521.76	96.38
521.975	96.38
522.19	98.38
522.406	109.38
522.621	82.38
522.836	92.38
523.052	97.38
523.267	100.38
523.482	86.38
523.698	95.38
523.913	97.38
524.128	94.38
524.343	104.38
524.559	100.38
524.774	97.38
524.989	101.38
525.204	103.38
525.419	82.38
525.634	102.38
525.849	90.38
526.064	101.38
526.28	109.38
526.495	95.38
526.71	96.38
526.925	118.38
527.14	95.38
527.355	106.38
527.57	85.38
527.785	94.38
527.999	98.38
528.214	97.38
528.429	98.38
528.644	92.38
528.859	89.38
529.074	75.38
529.289	103.38
529.503	96.38
529.718	85.38
529.933	88.38
530.148	80.38
530.363	93.38
530.577	80.38
530.792	100.38
531.007	108.38
531.221	89.38
531.436	101.38
531.651	87.38
531.865	95.38
532.08	103.38
532.295	100.38
532.509	139.38
532.724	110.38
532.938	104.38
533.153	96.38
533.367	88.38
533.582	92.38
533.796	92.38
534.011	97.38
534.225	82.38
534.44	90.38
534.654	95.38
534.868	95.38
535.083	97.38
535.297	76.38
535.511	88.38
535.726	93.38
535.94	91.38
536.154	93.38
536.369	98.38
536.583	106.38
536.797	95.38
537.011	93.38
537.225	90.38
537.44	88.38
537.654	83.38
537.868	94.38
538.082	104.38
538.296	90.38
538.51	101.38
538.724	95.38
538.938	90.38
539.153	104.38
539.367	104.38
539.581	99.38
539.795	88.38
540.009	98.38
540.222	90.38
540.436	99.38
540.65	82.38
540.864	82.38
541.078	109.38
541.292	122.38
541.506	214.38
541.72	187.38
541.934	118.38
542.147	104.38
542.361	90.38
542.575	89.38
542.789	89.38
543.002	97.38
543.216	89.38
543.43	102.38
543.644	97.38
543.857	86.38
544.071	86.38
544.285	98.38
544.498	85.38
544.712	102.38
544.925	105.38
545.139	101.38
545.352	78.38
545.566	96.38
545.779	90.38
545.993	116.38
546.206	96.38
546.42	107.38
546.633	110.38
546.847	97.38
547.06	95.38
547.274	107.38
547.487	89.38
547.7	95.38
547.914	89.38
548.127	90.38
548.34	87.38
548.554	88.38
548.767	105.38
548.98	102.38
549.193	98.38
549.407	105.38
549.62	93.38
549.833	100.38
550.046	112.38
550.259	96.38
550.473	91.38
550.686	113.38
550.899	103.38
551.112	97.38
551.325	97.38
551.538	115.38
551.751	95.38
551.964	102.38
552.177	96.38
552.39	96.38
552.603	101.38
552.816	98.38
553.029	101.38
553.242	92.38
553.455	101.38
553.667	108.38
553.88	87.38
554.093	99.38
554.306	108.38
554.519	88.38
554.732	97.38
554.944	97.38
555.157	99.38
555.37	86.38
555.583	105.38
555.795	108.38
556.008	110.38
556.221	129.38
556.433	119.38
556.646	110.38
556.859	81.38
557.071	87.38
557.284	112.38
557.496	106.38
557.709	111.38
557.921	104.38
558.134	105.38
558.346	98.38
558.559	97.38
558.771	101.38
558.984	116.38
559.196	100.38
559.409	98.38
559.621	106.38
559.833	94.38
560.046	94.38
560.258	94.38
560.47	97.38
560.683	92.38
560.895	95.38
561.107	92.38
561.32	94.38
561.532	96.38
561.744	86.38
561.956	99.38
562.168	108.38
562.381	89.38
562.593	115.38
562.805	117.38
563.017	154.38
563.229	209.38
563.441	509.38
563.653	173.38
563.865	110.38
564.077	103.38
564.289	88.38
564.501	99.38
564.713	101.38
564.925	94.38
565.137	90.38
565.349	99.38
565.561	95.38
565.773	88.38
565.985	97.38
566.197	98.38
566.408	83.38
566.62	82.38
566.832	102.38
567.044	95.38
567.255	89.38
567.467	95.38
567.679	93.38
567.891	119.38
568.102	166.38
568.314	226.38
568.526	129.38
568.737	109.38
568.949	94.38
569.161	88.38
569.372	93.38
569.584	92.38
569.795	104.38
570.007	76.38
570.218	124.38
570.43	145.38
570.641	99.38
570.853	92.38
571.064	102.38
571.276	95.38
571.487	90.38
571.698	91.38
571.91	92.38
572.121	96.38
572.333	88.38
572.544	76.38
572.755	117.38
572.966	192.38
573.178	121.38
573.389	98.38
573.6	99.38
573.811	78.38
574.023	98.38
574.234	97.38
574.445	80.38
574.656	93.38
574.867	96.38
575.078	76.38
575.289	97.38
575.501	103.38
575.712	100.38
575.923	108.38
576.134	71.38
576.345	81.38
576.556	94.38
576.767	79.38
576.978	88.38
577.188	89.38
577.399	93.38
577.61	90.38
577.821	86.38
578.032	80.38
578.243	90.38
578.454	84.38
578.665	93.38
578.875	91.38
579.086	87.38
579.297	96.38
579.508	87.38
579.718	95.38
579.929	72.38
580.14	87.38
580.35	80.38
580.561	94.38
580.772	97.38
580.982	79.38
581.193	78.38
581.403	85.38
581.614	83.38
581.825	83.38
582.035	98.38
582.246	94.38
582.456	100.38
582.667	102.38
582.877	101.38
583.087	109.38
583.298	84.38
583.508	100.38
583.719	82.38
583.929	81.38
584.139	78.38
584.35	98.38
584.56	87.38
584.77	92.38
584.981	80.38
585.191	88.38
585.401	90.38
585.611	71.38
585.821	88.38
586.032	87.38
586.242	93.38
586.452	91.38
586.662	99.38
586.872	94.38
587.082	89.38
587.292	92.38
587.502	94.38
587.713	98.38
587.923	93.38
588.133	95.38
588.343	92.38
588.553	82.38
588.762	111.38
588.972	82.38
589.182	104.38
589.392	86.38
589.602	90.38
589.812	100.38
590.022	92.38
590.232	71.38
590.441	79.38
590.651	86.38
590.861	80.38
591.071	101.38
591.281	73.38
591.49	98.38
591.7	83.38
591.91	88.38
592.119	85.38
592.329	102.38
592.539	66.38
592.748	86.38
592.958	87.38
593.167	92.38
593.377	82.38
593.587	95.38
593.796	90.38
594.006	82.38
594.215	86.38
594.424	85.38
594.634	90.38
594.843	90.38
595.053	87.38
595.262	93.38
595.472	101.38
595.681	84.38
595.89	81.38
596.1	88.38
596.309	85.38
596.518	92.38
596.727	87.38
596.937	83.38
597.146	105.38
597.355	97.38
597.564	90.38
597.774	87.38
597.983	81.38
598.192	84.38
598.401	80.38
598.61	84.38
598.819	84.38
599.028	82.38
599.237	77.38
599.446	94.38
599.655	109.38
599.864	93.38
600.073	87.38
600.282	84.38
600.491	107.38
600.7	80.38
600.909	82.38
601.118	85.38
601.327	89.38
601.536	90.38
601.745	95.38
601.953	106.38
602.162	141.38
602.371	116.38
602.58	84.38
602.789	91.38
602.997	89.38
603.206	100.38
603.415	80.38
603.623	74.38
603.832	98.38
604.041	79.38
604.249	80.38
604.458	87.38
604.666	73.38
604.875	87.38
605.084	96.38
605.292	77.38
605.501	94.38
605.709	93.38
605.918	109.38
606.126	98.38
606.334	92.38
606.543	96.38
606.751	117.38
606.96	148.38
607.168	162.38
607.376	118.38
607.585	99.38
607.793	100.38
608.001	95.38
608.21	77.38
608.418	96.38
608.626	95.38
608.834	81.38
609.043	76.38
609.251	94.38
609.459	85.38
609.667	88.38
609.875	86.38
610.083	97.38
610.291	86.38
610.499	84.38
610.707	108.38
610.916	96.38
611.124	100.38
611.332	104.38
611.54	91.38
611.748	97.38
611.955	94.38
612.163	82.38
612.371	95.38
612.579	83.38
612.787	77.38
612.995	88.38
613.203	100.38
613.411	72.38
613.618	79.38
613.826	96.38
614.034	87.38
614.242	92.38
614.449	78.38
614.657	90.38
614.865	102.38
615.072	89.38
615.28	102.38
615.488	99.38
615.695	89.38
615.903	76.38
616.111	81.38
616.318	78.38
616.526	102.38
616.733	104.38
616.941	102.38
617.148	92.38
617.356	87.38
617.563	81.38
617.771	89.38
617.978	79.38
618.185	87.38
618.393	80.38
618.6	75.38
618.807	92.38
619.015	87.38
619.222	89.38
619.429	95.38
619.637	88.38
619.844	75.38
620.051	94.38
620.258	78.38
620.466	80.38
620.673	92.38
620.88	94.38
621.087	92.38
621.294	88.38
621.501	86.38
621.708	106.38
621.915	112.38
622.122	91.38
622.329	84.38
622.536	78.38
622.743	82.38
622.95	93.38
623.157	91.38
623.364	88.38
623.571	88.38
623.778	87.38
623.985	83.38
624.192	80.38
624.399	97.38
624.606	88.38
624.812	100.38
625.019	81.38
625.226	93.38
625.433	75.38
625.639	80.38
625.846	93.38
626.053	81.38
626.259	84.38
626.466	87.38
626.673	87.38
626.879	94.38
627.086	94.38
627.293	98.38
627.499	84.38
627.706	81.38
627.912	84.38
628.119	92.38
628.325	80.38
628.532	74.38
628.738	81.38
628.945	82.38
629.151	91.38
629.357	84.38
629.564	68.38
629.77	76.38
629.976	100.38
630.183	84.38
630.389	78.38
630.595	73.38
630.802	79.38
631.008	86.38
631.214	79.38
631.42	77.38
631.627	74.38
631.833	95.38
632.039	86.38
632.245	68.38
632.451	99.38
632.657	84.38
632.863	88.38
633.069	87.38
633.275	70.38
633.481	87.38
633.688	90.38
633.893	95.38
634.099	91.38
634.305	85.38
634.511	80.38
634.717	92.38
634.923	87.38
635.129	120.38
635.335	117.38
635.541	82.38
635.747	87.38
635.952	103.38
636.158	87.38
636.364	102.38
636.57	87.38
636.775	78.38
636.981	81.38
637.187	80.38
637.392	85.38
637.598	76.38
637.804	82.38
638.009	92.38
638.215	78.38
638.421	73.38
638.626	94.38
638.832	71.38
639.037	88.38
639.243	74.38
639.448	80.38
639.654	92.38
639.859	81.38
640.065	78.38
640.27	79.38
640.475	89.38
640.681	78.38
640.886	96.38
641.091	82.38
641.297	86.38
641.502	81.38
641.707	85.38
641.913	93.38
642.118	92.38
642.323	78.38
642.528	87.38
642.733	78.38
642.939	88.38
643.144	87.38
643.349	69.38
643.554	82.38
643.759	106.38
643.964	83.38
644.169	75.38
644.374	90.38
644.579	82.38
644.784	100.38
644.989	81.38
645.194	81.38
645.399	94.38
645.604	95.38
645.809	92.38
646.014	87.38
646.219	81.38
646.423	73.38
646.628	85.38
646.833	78.38
647.038	93.38
647.243	92.38
647.447	84.38
647.652	86.38
647.857	93.38
648.062	82.38
648.266	73.38
648.471	84.38
648.676	76.38
648.88	84.38
649.085	94.38
649.289	76.38
649.494	85.38
649.698	90.38
649.903	97.38
650.107	89.38
650.312	74.38
650.516	68.38
650.721	72.38
650.925	72.38
651.13	94.38
651.334	85.38
651.539	87.38
651.743	74.38
651.947	79.38
652.152	82.38
652.356	89.38
652.56	93.38
652.764	104.38
652.969	92.38
653.173	94.38
653.377	85.38
653.581	74.38
653.785	78.38
653.99	84.38
654.194	71.38
654.398	91.38
654.602	78.38
654.806	80.38
655.01	79.38
655.214	71.38
655.418	86.38
655.622	86.38
655.826	75.38
656.03	79.38
656.234	80.38
656.438	80.38
656.642	84.38
656.846	80.38
657.049	71.38
657.253	84.38
657.457	76.38
657.661	87.38
657.865	87.38
658.068	73.38
658.272	77.38
658.476	80.38
658.68	59.38
658.883	70.38
659.087	82.38
659.291	88.38
659.494	88.38
659.698	82.38
659.901	84.38
660.105	66.38
660.309	79.38
660.512	86.38
660.716	73.38
660.919	69.38
661.123	84.38
661.326	79.38
661.53	75.38
661.733	70.38
661.936	84.38
662.14	79.38
662.343	80.38
662.546	82.38
662.75	93.38
662.953	97.38
663.156	76.38
663.36	91.38
663.563	85.38
663.766	73.38
663.969	90.38
664.173	88.38
664.376	84.38
664.579	94.38
664.782	89.38
664.985	74.38
665.188	85.38
665.391	80.38
665.594	73.38
665.797	80.38
666	77.38
666.203	72.38
666.406	79.38
666.609	64.38
666.812	87.38
667.015	81.38
667.218	86.38
667.421	84.38
667.624	72.38
667.827	71.38
668.03	63.38
668.232	78.38
668.435	77.38
668.638	83.38
668.841	91.38
669.043	76.38
669.246	84.38
669.449	82.38
669.651	94.38
669.854	85.38
670.057	68.38
670.259	76.38
670.462	75.38
670.665	74.38
670.867	88.38
671.07	82.38
671.272	80.38
671.475	77.38
671.677	66.38
671.88	79.38
672.082	74.38
672.284	84.38
672.487	74.38
672.689	83.38
672.892	86.38
