Data from SnStandardFlinnAPT0064_LampEnergy10_LIBS07252019.E.O._I.C._HRD10591_15-20-59-494.txt Node
Date: Thu Jul 25 15:20:59 EDT 2019
User: cochatt
Spectrometer: HR+D1059
Trigger mode: 1
Integration Time (sec): 1.000000E-1
Scans to average: 1
Electric dark correction enabled: true
Nonlinearity correction enabled: false
Boxcar width: 0
XAxis mode: Wavelengths
Number of Pixels in Spectrum: 2048
>>>>>Begin Spectral Data<<<<<
223.165	-9.94
223.4	-9.94
223.635	-9.94
223.869	-8.94
224.104	-18.94
224.338	-18.94
224.573	-11.94
224.808	-9.94
225.042	-11.94
225.277	-7.94
225.511	6.06
225.746	5.06
225.98	10.06
226.215	5.06
226.449	14.06
226.683	9.06
226.918	27.06
227.152	22.06
227.387	48.06
227.621	32.06
227.856	47.06
228.09	53.06
228.324	60.06
228.559	61.06
228.793	115.06
229.027	317.06
229.262	345.06
229.496	312.06
229.73	289.06
229.964	313.06
230.199	299.06
230.433	296.06
230.667	329.06
230.901	328.06
231.136	335.06
231.37	362.06
231.604	373.06
231.838	439.06
232.072	552.06
232.306	574.06
232.541	463.06
232.775	439.06
233.009	409.06
233.243	407.06
233.477	456.06
233.711	510.06
233.945	559.06
234.179	517.06
234.413	451.06
234.647	444.06
234.881	468.06
235.115	539.06
235.349	625.06
235.583	767.06
235.817	965.06
236.051	972.06
236.285	650.06
236.519	552.06
236.753	496.06
236.987	533.06
237.221	522.06
237.455	514.06
237.689	468.06
237.922	459.06
238.156	458.06
238.39	481.06
238.624	505.06
238.858	481.06
239.091	491.06
239.325	491.06
239.559	520.06
239.793	503.06
240.027	533.06
240.26	563.06
240.494	549.06
240.728	591.06
240.961	638.06
241.195	639.06
241.429	683.06
241.662	707.06
241.896	781.06
242.13	969.06
242.363	1247.06
242.597	1622.06
242.83	1515.06
243.064	1516.06
243.298	1792.06
243.531	1491.06
243.765	931.06
243.998	743.06
244.232	703.06
244.465	676.06
244.699	664.06
244.932	649.06
245.166	679.06
245.399	715.06
245.633	685.06
245.866	681.06
246.099	669.06
246.333	659.06
246.566	652.06
246.8	630.06
247.033	640.06
247.266	616.06
247.5	664.06
247.733	655.06
247.966	712.06
248.2	778.06
248.433	874.06
248.666	995.06
248.899	956.06
249.133	857.06
249.366	885.06
249.599	949.06
249.832	1103.06
250.066	1089.06
250.299	859.06
250.532	791.06
250.765	746.06
250.998	717.06
251.231	744.06
251.465	709.06
251.698	729.06
251.931	749.06
252.164	742.06
252.397	767.06
252.63	776.06
252.863	795.06
253.096	777.06
253.329	788.06
253.562	798.06
253.795	782.06
254.028	791.06
254.261	820.06
254.494	859.06
254.727	1036.06
254.96	1223.06
255.193	1221.06
255.426	963.06
255.659	868.06
255.892	858.06
256.124	863.06
256.357	852.06
256.59	917.06
256.823	994.06
257.056	1091.06
257.289	1331.06
257.521	1458.06
257.754	1211.06
257.987	960.06
258.22	933.06
258.452	914.06
258.685	899.06
258.918	961.06
259.151	1011.06
259.383	1098.06
259.616	1207.06
259.849	1245.06
260.081	1068.06
260.314	981.06
260.547	974.06
260.779	949.06
261.012	957.06
261.244	978.06
261.477	986.06
261.71	1001.06
261.942	997.06
262.175	1025.06
262.407	1054.06
262.64	1037.06
262.872	1098.06
263.105	1125.06
263.337	1185.06
263.57	1277.06
263.802	1315.06
264.035	1287.06
264.267	1351.06
264.499	1355.06
264.732	1436.06
264.964	1425.06
265.197	1445.06
265.429	1443.06
265.661	1454.06
265.894	1587.06
266.126	1727.06
266.358	1946.06
266.591	1929.06
266.823	1641.06
267.055	1457.06
267.287	1356.06
267.52	1326.06
267.752	1284.06
267.984	1246.06
268.216	1242.06
268.448	1238.06
268.681	1243.06
268.913	1195.06
269.145	1214.06
269.377	1238.06
269.609	1230.06
269.841	1268.06
270.073	1386.06
270.306	1568.06
270.538	2139.06
270.77	3163.06
271.002	3861.06
271.234	2729.06
271.466	1847.06
271.698	1521.06
271.93	1376.06
272.162	1372.06
272.394	1299.06
272.626	1273.06
272.858	1221.06
273.09	1210.06
273.322	1235.06
273.553	1224.06
273.785	1205.06
274.017	1197.06
274.249	1211.06
274.481	1173.06
274.713	1208.06
274.945	1241.06
275.176	1221.06
275.408	1201.06
275.64	1247.06
275.872	1230.06
276.104	1253.06
276.335	1258.06
276.567	1270.06
276.799	1289.06
277.031	1304.06
277.262	1335.06
277.494	1386.06
277.726	1559.06
277.957	1857.06
278.189	2145.06
278.421	1979.06
278.652	1728.06
278.884	1659.06
279.115	1470.06
279.347	1420.06
279.579	1384.06
279.81	1386.06
280.042	1381.06
280.273	1416.06
280.505	1441.06
280.736	1500.06
280.968	1564.06
281.199	1773.06
281.431	2017.06
281.662	2057.06
281.894	1802.06
282.125	1658.06
282.356	1631.06
282.588	1669.06
282.819	1697.06
283.051	1830.06
283.282	2019.06
283.513	2529.06
283.745	3601.06
283.976	5598.06
284.207	7832.06
284.439	7161.06
284.67	4539.06
284.901	3683.06
285.132	3706.06
285.364	3550.06
285.595	2684.06
285.826	2417.06
286.057	2837.06
286.288	3847.06
286.52	5149.06
286.751	4858.06
286.982	3023.06
287.213	2270.06
287.444	1973.06
287.675	1812.06
287.906	1787.06
288.138	1739.06
288.369	1669.06
288.6	1683.06
288.831	1673.06
289.062	1667.06
289.293	1690.06
289.524	1720.06
289.755	1704.06
289.986	1717.06
290.217	1697.06
290.448	1697.06
290.679	1736.06
290.91	1803.06
291.141	1875.06
291.371	2037.06
291.602	2149.06
291.833	1946.06
292.064	1781.06
292.295	1655.06
292.526	1652.06
292.757	1603.06
292.987	1597.06
293.218	1555.06
293.449	1580.06
293.68	1585.06
293.91	1554.06
294.141	1579.06
294.372	1540.06
294.603	1567.06
294.833	1577.06
295.064	1533.06
295.295	1571.06
295.525	1542.06
295.756	1568.06
295.987	1526.06
296.217	1549.06
296.448	1579.06
296.679	1567.06
296.909	1578.06
297.14	1622.06
297.37	1627.06
297.601	1651.06
297.831	1620.06
298.062	1634.06
298.292	1650.06
298.523	1695.06
298.753	1716.06
298.984	1685.06
299.214	1738.06
299.445	1741.06
299.675	1743.06
299.905	1834.06
300.136	1891.06
300.366	2172.06
300.597	2719.06
300.827	3849.06
301.057	5165.06
301.288	5172.06
301.518	3393.06
301.748	2589.06
301.979	2360.06
302.209	2269.06
302.439	2281.06
302.669	2441.06
302.9	2995.06
303.13	4123.06
303.36	6138.06
303.59	8189.06
303.82	7095.06
304.051	4226.06
304.281	3043.06
304.511	2537.06
304.741	2309.06
304.971	2199.06
305.201	2073.06
305.431	1996.06
305.661	1957.06
305.891	1894.06
306.121	1890.06
306.352	1869.06
306.582	1822.06
306.812	1798.06
307.042	1836.06
307.272	1831.06
307.502	1771.06
307.731	1801.06
307.961	1796.06
308.191	1830.06
308.421	1795.06
308.651	1811.06
308.881	1778.06
309.111	1767.06
309.341	1762.06
309.571	1805.06
309.8	1849.06
310.03	1850.06
310.26	1838.06
310.49	1841.06
310.72	1867.06
310.949	1827.06
311.179	1886.06
311.409	1854.06
311.639	1894.06
311.868	1939.06
312.098	1911.06
312.328	1906.06
312.557	1964.06
312.787	1971.06
313.017	1942.06
313.246	2018.06
313.476	2038.06
313.706	2037.06
313.935	2206.06
314.165	2338.06
314.394	2492.06
314.624	2359.06
314.853	2138.06
315.083	2152.06
315.312	2158.06
315.542	2181.06
315.771	2181.06
316.001	2226.06
316.23	2289.06
316.46	2428.06
316.689	2668.06
316.919	3137.06
317.148	4646.06
317.377	7046.06
317.607	10329.06
317.836	10665.06
318.065	6569.06
318.295	4217.06
318.524	3412.06
318.753	2923.06
318.983	2699.06
319.212	2566.06
319.441	2515.06
319.67	2461.06
319.9	2342.06
320.129	2353.06
320.358	2338.06
320.587	2313.06
320.816	2339.06
321.046	2340.06
321.275	2357.06
321.504	2401.06
321.733	2445.06
321.962	2470.06
322.191	2515.06
322.42	2459.06
322.649	2454.06
322.878	2489.06
323.108	2494.06
323.337	2532.06
323.566	2524.06
323.795	2615.06
324.024	2629.06
324.253	2699.06
324.482	2812.06
324.71	3007.06
324.939	3183.06
325.168	3308.06
325.397	3446.06
325.626	3996.06
325.855	5520.06
326.084	8649.06
326.313	12524.06
326.542	13337.06
326.77	9041.06
326.999	5876.06
327.228	4927.06
327.457	4711.06
327.686	4809.06
327.914	5090.06
328.143	5909.06
328.372	7029.06
328.6	7723.06
328.829	6837.06
329.058	5750.06
329.287	5001.06
329.515	4629.06
329.744	4230.06
329.972	4020.06
330.201	3810.06
330.43	3651.06
330.658	3620.06
330.887	3558.06
331.115	3422.06
331.344	3463.06
331.572	3443.06
331.801	3415.06
332.03	3483.06
332.258	3511.06
332.486	3733.06
332.715	4294.06
332.943	5300.06
333.172	6634.06
333.4	6506.06
333.629	4978.06
333.857	4497.06
334.085	4429.06
334.314	4659.06
334.542	5028.06
334.771	6043.06
334.999	7329.06
335.227	9187.06
335.455	10267.06
335.684	9188.06
335.912	7556.06
336.14	6505.06
336.369	5693.06
336.597	5234.06
336.825	4816.06
337.053	4454.06
337.281	4213.06
337.51	4046.06
337.738	3845.06
337.966	3686.06
338.194	3571.06
338.422	3445.06
338.65	3378.06
338.878	3282.06
339.106	3307.06
339.334	3175.06
339.562	3101.06
339.79	3018.06
340.018	3116.06
340.246	3031.06
340.474	2977.06
340.702	2998.06
340.93	3020.06
341.158	3025.06
341.386	2951.06
341.614	2994.06
341.842	2905.06
342.07	2829.06
342.298	2826.06
342.526	2730.06
342.754	2719.06
342.981	2693.06
343.209	2689.06
343.437	2703.06
343.665	2759.06
343.893	2745.06
344.12	2795.06
344.348	2707.06
344.576	2750.06
344.804	2665.06
345.031	2633.06
345.259	2618.06
345.487	2539.06
345.714	2543.06
345.942	2516.06
346.17	2518.06
346.397	2538.06
346.625	2521.06
346.853	2485.06
347.08	2490.06
347.308	2544.06
347.535	2499.06
347.763	2499.06
347.99	2448.06
348.218	2453.06
348.445	2471.06
348.673	2429.06
348.9	2451.06
349.128	2432.06
349.355	2396.06
349.583	2409.06
349.81	2438.06
350.037	2408.06
350.265	2381.06
350.492	2424.06
350.72	2382.06
350.947	2365.06
351.174	2409.06
351.402	2429.06
351.629	2386.06
351.856	2341.06
352.083	2384.06
352.311	2395.06
352.538	2342.06
352.765	2332.06
352.992	2356.06
353.22	2333.06
353.447	2357.06
353.674	2359.06
353.901	2353.06
354.128	2384.06
354.355	2380.06
354.583	2381.06
354.81	2413.06
355.037	2413.06
355.264	2459.06
355.491	2449.06
355.718	2400.06
355.945	2431.06
356.172	2393.06
356.399	2477.06
356.626	2448.06
356.853	2487.06
357.08	2475.06
357.307	2519.06
357.534	2563.06
357.761	2541.06
357.988	2581.06
358.215	2508.06
358.441	2570.06
358.668	2508.06
358.895	2540.06
359.122	2528.06
359.349	2491.06
359.576	2471.06
359.802	2463.06
360.029	2461.06
360.256	2525.06
360.483	2515.06
360.709	2547.06
360.936	2542.06
361.163	2554.06
361.39	2540.06
361.616	2547.06
361.843	2585.06
362.07	2569.06
362.296	2541.06
362.523	2572.06
362.749	2533.06
362.976	2508.06
363.203	2505.06
363.429	2536.06
363.656	2494.06
363.882	2540.06
364.109	2471.06
364.335	2526.06
364.562	2513.06
364.788	2566.06
365.015	2609.06
365.241	2583.06
365.468	2758.06
365.694	2870.06
365.92	2787.06
366.147	2639.06
366.373	2581.06
366.599	2595.06
366.826	2582.06
367.052	2577.06
367.278	2603.06
367.505	2594.06
367.731	2596.06
367.957	2607.06
368.184	2617.06
368.41	2655.06
368.636	2623.06
368.862	2637.06
369.089	2668.06
369.315	2591.06
369.541	2578.06
369.767	2604.06
369.993	2581.06
370.219	2626.06
370.445	2662.06
370.672	2625.06
370.898	2619.06
371.124	2674.06
371.35	2693.06
371.576	2699.06
371.802	2763.06
372.028	2708.06
372.254	2768.06
372.48	2759.06
372.706	2775.06
372.932	2749.06
373.158	2820.06
373.384	2794.06
373.61	2752.06
373.835	2789.06
374.061	2742.06
374.287	2795.06
374.513	2812.06
374.739	2877.06
374.965	2915.06
375.191	2877.06
375.416	2883.06
375.642	2849.06
375.868	2849.06
376.094	2785.06
376.319	2759.06
376.545	2754.06
376.771	2706.06
376.997	2734.06
377.222	2731.06
377.448	2698.06
377.674	2721.06
377.899	2649.06
378.125	2729.06
378.35	2675.06
378.576	2699.06
378.802	2723.06
379.027	2754.06
379.253	2863.06
379.478	3031.06
379.704	3585.06
379.929	5123.06
380.155	7940.06
380.38	8587.06
380.606	5273.06
380.831	3676.06
381.057	3204.06
381.282	2938.06
381.507	2814.06
381.733	2751.06
381.958	2710.06
382.184	2729.06
382.409	2711.06
382.634	2727.06
382.86	2682.06
383.085	2697.06
383.31	2655.06
383.535	2635.06
383.761	2669.06
383.986	2681.06
384.211	2703.06
384.436	2733.06
384.662	2727.06
384.887	2754.06
385.112	2704.06
385.337	2764.06
385.562	2771.06
385.787	2718.06
386.013	2743.06
386.238	2768.06
386.463	2794.06
386.688	2745.06
386.913	2718.06
387.138	2750.06
387.363	2765.06
387.588	2722.06
387.813	2773.06
388.038	2748.06
388.263	2698.06
388.488	2734.06
388.713	2778.06
388.938	2696.06
389.163	2702.06
389.387	2734.06
389.612	2694.06
389.837	2787.06
390.062	2745.06
390.287	2790.06
390.512	2746.06
390.736	2784.06
390.961	2870.06
391.186	2859.06
391.411	2908.06
391.636	2903.06
391.86	2942.06
392.085	2885.06
392.31	2871.06
392.534	2854.06
392.759	2807.06
392.984	2782.06
393.208	2791.06
393.433	2766.06
393.658	2738.06
393.882	2752.06
394.107	2739.06
394.331	2776.06
394.556	2725.06
394.78	2774.06
395.005	2771.06
395.229	2828.06
395.454	2881.06
395.678	2840.06
395.903	2872.06
396.127	2883.06
396.352	2846.06
396.576	2817.06
396.801	2873.06
397.025	2929.06
397.249	2897.06
397.474	2899.06
397.698	2911.06
397.922	2930.06
398.147	2901.06
398.371	2965.06
398.595	3016.06
398.82	3028.06
399.044	3208.06
399.268	3342.06
399.492	3504.06
399.717	3631.06
399.941	3640.06
400.165	3528.06
400.389	3338.06
400.613	3271.06
400.837	3121.06
401.062	3082.06
401.286	3083.06
401.51	3058.06
401.734	3020.06
401.958	3076.06
402.182	2990.06
402.406	3039.06
402.63	3023.06
402.854	3077.06
403.078	3087.06
403.302	3098.06
403.526	3147.06
403.75	3139.06
403.974	3138.06
404.198	3100.06
404.422	3154.06
404.645	3157.06
404.869	3164.06
405.093	3123.06
405.317	3130.06
405.541	3191.06
405.765	3236.06
405.988	3207.06
406.212	3235.06
406.436	3228.06
406.66	3263.06
406.883	3258.06
407.107	3397.06
407.331	3385.06
407.555	3454.06
407.778	3412.06
408.002	3383.06
408.226	3374.06
408.449	3358.06
408.673	3319.06
408.896	3209.06
409.12	3203.06
409.344	3278.06
409.567	3142.06
409.791	3162.06
410.014	3146.06
410.238	3161.06
410.461	3114.06
410.685	3043.06
410.908	3091.06
411.132	3140.06
411.355	2996.06
411.578	3071.06
411.802	3085.06
412.025	3023.06
412.249	3019.06
412.472	3093.06
412.695	2973.06
412.919	2963.06
413.142	2993.06
413.365	2977.06
413.589	3031.06
413.812	2944.06
414.035	2967.06
414.258	2995.06
414.482	2937.06
414.705	2947.06
414.928	2957.06
415.151	2956.06
415.374	2960.06
415.597	2876.06
415.821	2868.06
416.044	2848.06
416.267	2863.06
416.49	2841.06
416.713	2810.06
416.936	2920.06
417.159	2771.06
417.382	2805.06
417.605	2796.06
417.828	2798.06
418.051	2874.06
418.274	2848.06
418.497	2818.06
418.72	2934.06
418.943	2886.06
419.166	3039.06
419.389	3169.06
419.611	3129.06
419.834	3074.06
420.057	2909.06
420.28	2914.06
420.503	2833.06
420.726	2796.06
420.948	2782.06
421.171	2829.06
421.394	2844.06
421.617	2851.06
421.839	2884.06
422.062	2875.06
422.285	2827.06
422.507	2874.06
422.73	2951.06
422.953	2963.06
423.175	2941.06
423.398	2916.06
423.621	2862.06
423.843	2877.06
424.066	2869.06
424.288	2827.06
424.511	2811.06
424.733	2853.06
424.956	2840.06
425.178	2843.06
425.401	2753.06
425.623	2792.06
425.846	2719.06
426.068	2733.06
426.291	2734.06
426.513	2718.06
426.735	2755.06
426.958	2715.06
427.18	2669.06
427.402	2692.06
427.625	2689.06
427.847	2619.06
428.069	2595.06
428.292	2678.06
428.514	2636.06
428.736	2585.06
428.958	2635.06
429.181	2563.06
429.403	2548.06
429.625	2595.06
429.847	2635.06
430.069	2702.06
430.292	2777.06
430.514	2858.06
430.736	2786.06
430.958	2728.06
431.18	2632.06
431.402	2571.06
431.624	2598.06
431.846	2558.06
432.068	2579.06
432.29	2599.06
432.512	2527.06
432.734	2591.06
432.956	2609.06
433.178	2661.06
433.4	2591.06
433.622	2666.06
433.844	2628.06
434.066	2622.06
434.287	2593.06
434.509	2631.06
434.731	2670.06
434.953	2721.06
435.175	2693.06
435.397	2767.06
435.618	2633.06
435.84	2674.06
436.062	2604.06
436.284	2609.06
436.505	2547.06
436.727	2601.06
436.949	2646.06
437.17	2575.06
437.392	2583.06
437.614	2543.06
437.835	2464.06
438.057	2534.06
438.278	2495.06
438.5	2523.06
438.721	2598.06
438.943	2638.06
439.165	2693.06
439.386	2711.06
439.608	2694.06
439.829	2700.06
440.05	2799.06
440.272	2837.06
440.493	2753.06
440.715	2747.06
440.936	2700.06
441.158	2698.06
441.379	2760.06
441.6	2850.06
441.822	2959.06
442.043	3041.06
442.264	3198.06
442.486	2952.06
442.707	2827.06
442.928	2792.06
443.149	2775.06
443.371	2786.06
443.592	2785.06
443.813	2764.06
444.034	2875.06
444.255	2822.06
444.476	2888.06
444.698	2968.06
444.919	3024.06
445.14	3042.06
445.361	2940.06
445.582	2905.06
445.803	2790.06
446.024	2755.06
446.245	2825.06
446.466	2741.06
446.687	2708.06
446.908	2733.06
447.129	2651.06
447.35	2617.06
447.571	2622.06
447.792	2540.06
448.013	2577.06
448.234	2545.06
448.455	2628.06
448.675	2649.06
448.896	2682.06
449.117	2738.06
449.338	2984.06
449.559	3097.06
449.779	2836.06
450	2619.06
450.221	2542.06
450.442	2512.06
450.662	2472.06
450.883	2493.06
451.104	2554.06
451.324	2495.06
451.545	2555.06
451.766	2557.06
451.986	2593.06
452.207	2781.06
452.428	3626.06
452.648	5549.06
452.869	4547.06
453.089	3177.06
453.31	2961.06
453.53	2935.06
453.751	3013.06
453.971	3125.06
454.192	3047.06
454.412	2699.06
454.633	2504.06
454.853	2528.06
455.073	2418.06
455.294	2456.06
455.514	2443.06
455.734	2421.06
455.955	2402.06
456.175	2430.06
456.395	2381.06
456.616	2443.06
456.836	2411.06
457.056	2490.06
457.276	2463.06
457.497	2576.06
457.717	2674.06
457.937	2552.06
458.157	2533.06
458.377	2519.06
458.598	2579.06
458.818	2575.06
459.038	2578.06
459.258	2615.06
459.478	2600.06
459.698	2645.06
459.918	2719.06
460.138	2737.06
460.358	2835.06
460.578	2805.06
460.798	2835.06
461.018	2819.06
461.238	2805.06
461.458	2847.06
461.678	2898.06
461.898	2939.06
462.118	3020.06
462.338	3018.06
462.558	3071.06
462.777	3149.06
462.997	3227.06
463.217	3377.06
463.437	3477.06
463.657	3527.06
463.876	3471.06
464.096	3283.06
464.316	3148.06
464.536	3138.06
464.755	3044.06
464.975	2983.06
465.195	2910.06
465.414	2802.06
465.634	2761.06
465.854	2706.06
466.073	2689.06
466.293	2653.06
466.512	2619.06
466.732	2643.06
466.951	2784.06
467.171	2972.06
467.391	2893.06
467.61	2689.06
467.829	2604.06
468.049	2605.06
468.268	2550.06
468.488	2519.06
468.707	2523.06
468.927	2559.06
469.146	2575.06
469.365	2602.06
469.585	2611.06
469.804	2694.06
470.023	2699.06
470.243	2744.06
470.462	2783.06
470.681	2971.06
470.901	3313.06
471.12	3739.06
471.339	3784.06
471.558	3123.06
471.777	2829.06
471.997	2773.06
472.216	2696.06
472.435	2606.06
472.654	2594.06
472.873	2577.06
473.092	2629.06
473.311	2614.06
473.53	2574.06
473.749	2678.06
473.968	2778.06
474.187	2635.06
474.406	2528.06
474.625	2549.06
474.844	2587.06
475.063	2560.06
475.282	2602.06
475.501	2630.06
475.72	2640.06
475.939	2622.06
476.158	2716.06
476.377	2753.06
476.596	2709.06
476.814	2737.06
477.033	2721.06
477.252	2708.06
477.471	2813.06
477.69	2885.06
477.908	2869.06
478.127	2941.06
478.346	2922.06
478.564	2987.06
478.783	3049.06
479.002	3052.06
479.22	3088.06
479.439	3107.06
479.658	3074.06
479.876	3083.06
480.095	3093.06
480.313	3141.06
480.532	3233.06
480.751	3231.06
480.969	3158.06
481.188	3055.06
481.406	3109.06
481.624	3149.06
481.843	3199.06
482.061	3189.06
482.28	3147.06
482.498	3173.06
482.717	3115.06
482.935	3154.06
483.153	3228.06
483.372	3234.06
483.59	3213.06
483.808	3323.06
484.027	3385.06
484.245	3565.06
484.463	4033.06
484.681	4484.06
484.9	4105.06
485.118	3772.06
485.336	3713.06
485.554	3784.06
485.772	4005.06
485.99	4503.06
486.209	4790.06
486.427	4090.06
486.645	3642.06
486.863	3469.06
487.081	3429.06
487.299	3409.06
487.517	3317.06
487.735	3318.06
487.953	3391.06
488.171	3355.06
488.389	3332.06
488.607	3252.06
488.825	3197.06
489.043	3216.06
489.261	3193.06
489.479	3212.06
489.696	3206.06
489.914	3214.06
490.132	3277.06
490.35	3258.06
490.568	3275.06
490.786	3313.06
491.003	3273.06
491.221	3386.06
491.439	3341.06
491.657	3349.06
491.874	3355.06
492.092	3380.06
492.31	3425.06
492.527	3404.06
492.745	3388.06
492.963	3338.06
493.18	3353.06
493.398	3343.06
493.615	3335.06
493.833	3403.06
494.05	3389.06
494.268	3381.06
494.485	3426.06
494.703	3419.06
494.92	3411.06
495.138	3354.06
495.355	3373.06
495.573	3364.06
495.79	3411.06
496.008	3457.06
496.225	3485.06
496.442	3538.06
496.66	3684.06
496.877	3821.06
497.094	3829.06
497.312	3690.06
497.529	3685.06
497.746	3697.06
497.963	3740.06
498.181	3865.06
498.398	3945.06
498.615	4072.06
498.832	4162.06
499.049	4362.06
499.267	4685.06
499.484	5045.06
499.701	5010.06
499.918	5141.06
500.135	5377.06
500.352	5661.06
500.569	5787.06
500.786	5702.06
501.003	5514.06
501.22	5244.06
501.437	4960.06
501.654	4707.06
501.871	4520.06
502.088	4346.06
502.305	4189.06
502.522	4082.06
502.739	3935.06
502.956	3862.06
503.172	3769.06
503.389	3639.06
503.606	3616.06
503.823	3513.06
504.04	3542.06
504.256	3556.06
504.473	3573.06
504.69	3507.06
504.907	3457.06
505.123	3438.06
505.34	3332.06
505.557	3241.06
505.773	3169.06
505.99	3169.06
506.207	3123.06
506.423	3144.06
506.64	3083.06
506.856	3048.06
507.073	3014.06
507.289	3004.06
507.506	2989.06
507.722	2970.06
507.939	2984.06
508.155	2884.06
508.372	2922.06
508.588	2867.06
508.805	2907.06
509.021	2955.06
509.238	2956.06
509.454	3111.06
509.67	3349.06
509.887	3106.06
510.103	2967.06
510.319	2954.06
510.536	2963.06
510.752	2951.06
510.968	2899.06
511.184	2792.06
511.401	2825.06
511.617	2810.06
511.833	2805.06
512.049	2793.06
512.265	2780.06
512.481	2814.06
512.698	2802.06
512.914	2817.06
513.13	2771.06
513.346	2781.06
513.562	2766.06
513.778	2845.06
513.994	2835.06
514.21	2945.06
514.426	3130.06
514.642	3201.06
514.858	3018.06
515.074	2905.06
515.29	2835.06
515.506	2873.06
515.721	2874.06
515.937	2863.06
516.153	2880.06
516.369	2965.06
516.585	2948.06
516.801	2991.06
517.016	3042.06
517.232	3155.06
517.448	3109.06
517.664	3201.06
517.879	3195.06
518.095	3222.06
518.311	3242.06
518.527	3108.06
518.742	3089.06
518.958	3149.06
519.173	3258.06
519.389	3064.06
519.605	2978.06
519.82	2893.06
520.036	2910.06
520.251	2851.06
520.467	2825.06
520.682	2786.06
520.898	2721.06
521.113	2765.06
521.329	2774.06
521.544	2750.06
521.76	2739.06
521.975	2761.06
522.19	2805.06
522.406	2725.06
522.621	2709.06
522.836	2721.06
523.052	2682.06
523.267	2695.06
523.482	2696.06
523.698	2737.06
523.913	2691.06
524.128	2687.06
524.343	2729.06
524.559	2686.06
524.774	2740.06
524.989	2679.06
525.204	2665.06
525.419	2648.06
525.634	2641.06
525.849	2662.06
526.064	2665.06
526.28	2677.06
526.495	2667.06
526.71	2681.06
526.925	2734.06
527.14	2687.06
527.355	2717.06
527.57	2691.06
527.785	2716.06
527.999	2683.06
528.214	2759.06
528.429	2822.06
528.644	2790.06
528.859	2831.06
529.074	2877.06
529.289	2861.06
529.503	2883.06
529.718	2831.06
529.933	2884.06
530.148	2874.06
530.363	2861.06
530.577	2819.06
530.792	2872.06
531.007	2898.06
531.221	2882.06
531.436	2899.06
531.651	2947.06
531.865	2993.06
532.08	3061.06
532.295	3072.06
532.509	3349.06
532.724	3373.06
532.938	3380.06
533.153	3491.06
533.367	3821.06
533.582	3994.06
533.796	3859.06
534.011	3717.06
534.225	3577.06
534.44	3446.06
534.654	3366.06
534.868	3315.06
535.083	3249.06
535.297	3200.06
535.511	3133.06
535.726	3105.06
535.94	3106.06
536.154	2995.06
536.369	2937.06
536.583	2910.06
536.797	2844.06
537.011	2813.06
537.225	2804.06
537.44	2830.06
537.654	2818.06
537.868	2692.06
538.082	2706.06
538.296	2693.06
538.51	2629.06
538.724	2685.06
538.938	2689.06
539.153	2681.06
539.367	2656.06
539.581	2629.06
539.795	2594.06
540.009	2579.06
540.222	2538.06
540.436	2563.06
540.65	2604.06
540.864	2631.06
541.078	2679.06
541.292	2817.06
541.506	3264.06
541.72	3478.06
541.934	2999.06
542.147	2811.06
542.361	2685.06
542.575	2616.06
542.789	2590.06
543.002	2521.06
543.216	2493.06
543.43	2481.06
543.644	2519.06
543.857	2484.06
544.071	2507.06
544.285	2537.06
544.498	2503.06
544.712	2509.06
544.925	2534.06
545.139	2501.06
545.352	2490.06
545.566	2525.06
545.779	2527.06
545.993	2527.06
546.206	2530.06
546.42	2506.06
546.633	2590.06
546.847	2555.06
547.06	2513.06
547.274	2545.06
547.487	2518.06
547.7	2499.06
547.914	2542.06
548.127	2528.06
548.34	2521.06
548.554	2535.06
548.767	2527.06
548.98	2569.06
549.193	2533.06
549.407	2525.06
549.62	2515.06
549.833	2561.06
550.046	2542.06
550.259	2508.06
550.473	2489.06
550.686	2588.06
550.899	2550.06
551.112	2509.06
551.325	2557.06
551.538	2554.06
551.751	2520.06
551.964	2540.06
552.177	2568.06
552.39	2601.06
552.603	2654.06
552.816	2701.06
553.029	2707.06
553.242	2756.06
553.455	2791.06
553.667	2767.06
553.88	2819.06
554.093	2817.06
554.306	2848.06
554.519	2898.06
554.732	2920.06
554.944	2922.06
555.157	3004.06
555.37	3110.06
555.583	3220.06
555.795	3415.06
556.008	3684.06
556.221	4107.06
556.433	4421.06
556.646	4434.06
556.859	4227.06
557.071	4005.06
557.284	3906.06
557.496	3820.06
557.709	3685.06
557.921	3700.06
558.134	3685.06
558.346	3761.06
558.559	3814.06
558.771	4053.06
558.984	4550.06
559.196	4778.06
559.409	4608.06
559.621	4221.06
559.833	3930.06
560.046	3704.06
560.258	3508.06
560.47	3335.06
560.683	3223.06
560.895	3108.06
561.107	3029.06
561.32	2853.06
561.532	2865.06
561.744	2774.06
561.956	2713.06
562.168	2679.06
562.381	2620.06
562.593	2617.06
562.805	2645.06
563.017	2700.06
563.229	2731.06
563.441	3188.06
563.653	2680.06
563.865	2524.06
564.077	2417.06
564.289	2349.06
564.501	2358.06
564.713	2372.06
564.925	2349.06
565.137	2326.06
565.349	2323.06
565.561	2338.06
565.773	2350.06
565.985	2423.06
566.197	2383.06
566.408	2427.06
566.62	2530.06
566.832	2554.06
567.044	2612.06
567.255	2620.06
567.467	2607.06
567.679	2642.06
567.891	2796.06
568.102	3115.06
568.314	3562.06
568.526	3043.06
568.737	2686.06
568.949	2458.06
569.161	2350.06
569.372	2215.06
569.584	2154.06
569.795	2121.06
570.007	2113.06
570.218	2191.06
570.43	2228.06
570.641	2066.06
570.853	1995.06
571.064	1976.06
571.276	1950.06
571.487	1918.06
571.698	1887.06
571.91	1876.06
572.121	1871.06
572.333	1859.06
572.544	1843.06
572.755	1943.06
572.966	2280.06
573.178	2085.06
573.389	1908.06
573.6	1803.06
573.811	1759.06
574.023	1752.06
574.234	1702.06
574.445	1707.06
574.656	1683.06
574.867	1718.06
575.078	1685.06
575.289	1732.06
575.501	1676.06
575.712	1693.06
575.923	1665.06
576.134	1699.06
576.345	1702.06
576.556	1731.06
576.767	1692.06
576.978	1713.06
577.188	1734.06
577.399	1749.06
577.61	1759.06
577.821	1770.06
578.032	1807.06
578.243	1812.06
578.454	1842.06
578.665	1907.06
578.875	1914.06
579.086	1962.06
579.297	2041.06
579.508	2194.06
579.718	2433.06
579.929	2733.06
580.14	3209.06
580.35	3250.06
580.561	2969.06
580.772	2720.06
580.982	2458.06
581.193	2298.06
581.403	2193.06
581.614	2069.06
581.825	2047.06
582.035	1921.06
582.246	1827.06
582.456	1811.06
582.667	1775.06
582.877	1758.06
583.087	1694.06
583.298	1657.06
583.508	1580.06
583.719	1577.06
583.929	1585.06
584.139	1512.06
584.35	1470.06
584.56	1469.06
584.77	1444.06
584.981	1419.06
585.191	1449.06
585.401	1402.06
585.611	1360.06
585.821	1369.06
586.032	1306.06
586.242	1355.06
586.452	1333.06
586.662	1322.06
586.872	1311.06
587.082	1303.06
587.292	1244.06
587.502	1261.06
587.713	1239.06
587.923	1249.06
588.133	1241.06
588.343	1245.06
588.553	1244.06
588.762	1217.06
588.972	1205.06
589.182	1197.06
589.392	1182.06
589.602	1180.06
589.812	1176.06
590.022	1180.06
590.232	1207.06
590.441	1177.06
590.651	1169.06
590.861	1182.06
591.071	1170.06
591.281	1181.06
591.49	1178.06
591.7	1180.06
591.91	1166.06
592.119	1163.06
592.329	1204.06
592.539	1189.06
592.748	1162.06
592.958	1197.06
593.167	1219.06
593.377	1237.06
593.587	1243.06
593.796	1214.06
594.006	1198.06
594.215	1194.06
594.424	1178.06
594.634	1157.06
594.843	1157.06
595.053	1138.06
595.262	1146.06
595.472	1110.06
595.681	1112.06
595.89	1104.06
596.1	1084.06
596.309	1039.06
596.518	1059.06
596.727	1053.06
596.937	1030.06
597.146	1058.06
597.355	1016.06
597.564	1011.06
597.774	974.06
597.983	977.06
598.192	999.06
598.401	988.06
598.61	972.06
598.819	951.06
599.028	957.06
599.237	928.06
599.446	947.06
599.655	956.06
599.864	939.06
600.073	909.06
600.282	930.06
600.491	920.06
600.7	935.06
600.909	926.06
601.118	945.06
601.327	918.06
601.536	924.06
601.745	961.06
601.953	1067.06
602.162	1205.06
602.371	1057.06
602.58	995.06
602.789	961.06
602.997	938.06
603.206	925.06
603.415	930.06
603.623	927.06
603.832	897.06
604.041	881.06
604.249	893.06
604.458	889.06
604.666	874.06
604.875	885.06
605.084	898.06
605.292	903.06
605.501	873.06
605.709	899.06
605.918	911.06
606.126	884.06
606.334	897.06
606.543	941.06
606.751	1005.06
606.96	1120.06
607.168	1215.06
607.376	1021.06
607.585	960.06
607.793	931.06
608.001	892.06
608.21	903.06
608.418	881.06
608.626	863.06
608.834	854.06
609.043	863.06
609.251	855.06
609.459	842.06
609.667	829.06
609.875	834.06
610.083	853.06
610.291	820.06
610.499	818.06
610.707	828.06
610.916	810.06
611.124	806.06
611.332	802.06
611.54	798.06
611.748	811.06
611.955	831.06
612.163	819.06
612.371	780.06
612.579	810.06
612.787	797.06
612.995	773.06
613.203	803.06
613.411	799.06
613.618	780.06
613.826	789.06
614.034	787.06
614.242	786.06
614.449	767.06
614.657	791.06
614.865	771.06
615.072	797.06
615.28	805.06
615.488	805.06
615.695	776.06
615.903	771.06
616.111	776.06
616.318	770.06
616.526	769.06
616.733	784.06
616.941	790.06
617.148	798.06
617.356	765.06
617.563	779.06
617.771	764.06
617.978	748.06
618.185	771.06
618.393	738.06
618.6	756.06
618.807	742.06
619.015	745.06
619.222	747.06
619.429	735.06
619.637	753.06
619.844	732.06
620.051	723.06
620.258	719.06
620.466	714.06
620.673	715.06
620.88	693.06
621.087	693.06
621.294	703.06
621.501	696.06
621.708	701.06
621.915	725.06
622.122	684.06
622.329	687.06
622.536	698.06
622.743	693.06
622.95	686.06
623.157	665.06
623.364	663.06
623.571	681.06
623.778	690.06
623.985	694.06
624.192	679.06
624.399	653.06
624.606	661.06
624.812	671.06
625.019	656.06
625.226	661.06
625.433	660.06
625.639	626.06
625.846	617.06
626.053	638.06
626.259	639.06
626.466	610.06
626.673	646.06
626.879	622.06
627.086	639.06
627.293	629.06
627.499	631.06
627.706	646.06
627.912	639.06
628.119	616.06
628.325	627.06
628.532	657.06
628.738	644.06
628.945	610.06
629.151	603.06
629.357	613.06
629.564	618.06
629.77	612.06
629.976	593.06
630.183	576.06
630.389	599.06
630.595	605.06
630.802	589.06
631.008	602.06
631.214	587.06
631.42	582.06
631.627	609.06
631.833	590.06
632.039	595.06
632.245	593.06
632.451	561.06
632.657	610.06
632.863	585.06
633.069	587.06
633.275	584.06
633.481	579.06
633.688	573.06
633.893	571.06
634.099	573.06
634.305	581.06
634.511	599.06
634.717	605.06
634.923	593.06
635.129	684.06
635.335	747.06
635.541	655.06
635.747	638.06
635.952	604.06
636.158	585.06
636.364	582.06
636.57	575.06
636.775	567.06
636.981	581.06
637.187	573.06
637.392	578.06
637.598	568.06
637.804	578.06
638.009	577.06
638.215	571.06
638.421	593.06
638.626	577.06
638.832	587.06
639.037	565.06
639.243	594.06
639.448	586.06
639.654	593.06
639.859	583.06
640.065	609.06
640.27	618.06
640.475	600.06
640.681	609.06
640.886	630.06
641.091	638.06
641.297	623.06
641.502	633.06
641.707	658.06
641.913	643.06
642.118	673.06
642.323	650.06
642.528	682.06
642.733	694.06
642.939	709.06
643.144	717.06
643.349	747.06
643.554	789.06
643.759	807.06
643.964	847.06
644.169	895.06
644.374	939.06
644.579	1071.06
644.784	1125.06
644.989	1260.06
645.194	1532.06
645.399	1901.06
645.604	2027.06
645.809	1509.06
646.014	1102.06
646.219	972.06
646.423	842.06
646.628	788.06
646.833	737.06
647.038	669.06
647.243	621.06
647.447	603.06
647.652	627.06
647.857	599.06
648.062	561.06
648.266	553.06
648.471	569.06
648.676	569.06
648.88	533.06
649.085	531.06
649.289	534.06
649.494	504.06
649.698	508.06
649.903	501.06
650.107	501.06
650.312	462.06
650.516	469.06
650.721	472.06
650.925	454.06
651.13	422.06
651.334	451.06
651.539	435.06
651.743	429.06
651.947	443.06
652.152	433.06
652.356	441.06
652.56	450.06
652.764	504.06
652.969	456.06
653.173	398.06
653.377	417.06
653.581	381.06
653.785	367.06
653.99	380.06
654.194	365.06
654.398	365.06
654.602	378.06
654.806	344.06
655.01	330.06
655.214	350.06
655.418	322.06
655.622	357.06
655.826	349.06
656.03	349.06
656.234	377.06
656.438	379.06
656.642	374.06
656.846	371.06
657.049	361.06
657.253	326.06
657.457	298.06
657.661	275.06
657.865	277.06
658.068	271.06
658.272	259.06
658.476	234.06
658.68	239.06
658.883	235.06
659.087	210.06
659.291	207.06
659.494	199.06
659.698	177.06
659.901	184.06
660.105	177.06
660.309	174.06
660.512	149.06
660.716	158.06
660.919	130.06
661.123	157.06
661.326	132.06
661.53	138.06
661.733	140.06
661.936	132.06
662.14	125.06
662.343	119.06
662.546	111.06
662.75	98.06
662.953	103.06
663.156	93.06
663.36	113.06
663.563	107.06
663.766	90.06
663.969	100.06
664.173	95.06
664.376	83.06
664.579	86.06
664.782	89.06
664.985	80.06
665.188	97.06
665.391	89.06
665.594	103.06
665.797	93.06
666	90.06
666.203	108.06
666.406	96.06
666.609	92.06
666.812	101.06
667.015	78.06
667.218	85.06
667.421	76.06
667.624	83.06
667.827	92.06
668.03	86.06
668.232	96.06
668.435	85.06
668.638	76.06
668.841	88.06
669.043	89.06
669.246	93.06
669.449	81.06
669.651	84.06
669.854	79.06
670.057	88.06
670.259	86.06
670.462	95.06
670.665	80.06
670.867	79.06
671.07	83.06
671.272	86.06
671.475	80.06
671.677	78.06
671.88	92.06
672.082	88.06
672.284	90.06
672.487	86.06
672.689	92.06
672.892	91.06
