Data from SnStandardFlinnAPT0064_LampEnergy5.5_LIBS07252019.E.O._I.C._HRD10591_15-16-18-491.txt Node
Date: Thu Jul 25 15:16:18 EDT 2019
User: cochatt
Spectrometer: HR+D1059
Trigger mode: 1
Integration Time (sec): 1.000000E-1
Scans to average: 1
Electric dark correction enabled: true
Nonlinearity correction enabled: false
Boxcar width: 0
XAxis mode: Wavelengths
Number of Pixels in Spectrum: 2048
>>>>>Begin Spectral Data<<<<<
223.165	-23.12
223.4	-23.12
223.635	-23.12
223.869	-9.12
224.104	-19.12
224.338	-12.12
224.573	-6.12
224.808	-21.12
225.042	1.88
225.277	2.88
225.511	-14.12
225.746	1.88
225.98	-2.12
226.215	18.88
226.449	11.88
226.683	29.88
226.918	18.88
227.152	20.88
227.387	29.88
227.621	36.88
227.856	34.88
228.09	43.88
228.324	42.88
228.559	55.88
228.793	79.88
229.027	133.88
229.262	148.88
229.496	138.88
229.73	150.88
229.964	149.88
230.199	157.88
230.433	145.88
230.667	148.88
230.901	160.88
231.136	165.88
231.37	170.88
231.604	190.88
231.838	208.88
232.072	220.88
232.306	233.88
232.541	215.88
232.775	199.88
233.009	201.88
233.243	189.88
233.477	208.88
233.711	238.88
233.945	238.88
234.179	233.88
234.413	205.88
234.647	216.88
234.881	223.88
235.115	244.88
235.349	274.88
235.583	321.88
235.817	418.88
236.051	434.88
236.285	293.88
236.519	226.88
236.753	210.88
236.987	216.88
237.221	247.88
237.455	248.88
237.689	216.88
237.922	201.88
238.156	227.88
238.39	212.88
238.624	227.88
238.858	220.88
239.091	229.88
239.325	222.88
239.559	216.88
239.793	234.88
240.027	248.88
240.26	244.88
240.494	244.88
240.728	256.88
240.961	268.88
241.195	278.88
241.429	298.88
241.662	301.88
241.896	326.88
242.13	396.88
242.363	522.88
242.597	624.88
242.83	606.88
243.064	632.88
243.298	727.88
243.531	598.88
243.765	390.88
243.998	326.88
244.232	326.88
244.465	291.88
244.699	277.88
244.932	272.88
245.166	284.88
245.399	284.88
245.633	303.88
245.866	307.88
246.099	285.88
246.333	296.88
246.566	293.88
246.8	281.88
247.033	288.88
247.266	302.88
247.5	298.88
247.733	297.88
247.966	322.88
248.2	326.88
248.433	381.88
248.666	421.88
248.899	381.88
249.133	341.88
249.366	370.88
249.599	382.88
249.832	416.88
250.066	414.88
250.299	382.88
250.532	337.88
250.765	329.88
250.998	322.88
251.231	330.88
251.465	339.88
251.698	342.88
251.931	352.88
252.164	332.88
252.397	336.88
252.63	348.88
252.863	365.88
253.096	343.88
253.329	324.88
253.562	330.88
253.795	356.88
254.028	359.88
254.261	368.88
254.494	378.88
254.727	407.88
254.96	500.88
255.193	484.88
255.426	404.88
255.659	367.88
255.892	364.88
256.124	372.88
256.357	384.88
256.59	400.88
256.823	407.88
257.056	451.88
257.289	522.88
257.521	558.88
257.754	488.88
257.987	429.88
258.22	388.88
258.452	388.88
258.685	391.88
258.918	407.88
259.151	422.88
259.383	441.88
259.616	513.88
259.849	516.88
260.081	458.88
260.314	437.88
260.547	415.88
260.779	405.88
261.012	431.88
261.244	415.88
261.477	421.88
261.71	432.88
261.942	448.88
262.175	462.88
262.407	461.88
262.64	478.88
262.872	484.88
263.105	489.88
263.337	526.88
263.57	560.88
263.802	553.88
264.035	600.88
264.267	566.88
264.499	602.88
264.732	633.88
264.964	612.88
265.197	634.88
265.429	614.88
265.661	621.88
265.894	640.88
266.126	749.88
266.358	789.88
266.591	767.88
266.823	678.88
267.055	640.88
267.287	585.88
267.52	543.88
267.752	551.88
267.984	555.88
268.216	557.88
268.448	535.88
268.681	545.88
268.913	534.88
269.145	549.88
269.377	541.88
269.609	547.88
269.841	541.88
270.073	551.88
270.306	651.88
270.538	868.88
270.77	1261.88
271.002	1538.88
271.234	1065.88
271.466	754.88
271.698	632.88
271.93	580.88
272.162	541.88
272.394	550.88
272.626	553.88
272.858	540.88
273.09	520.88
273.322	541.88
273.553	523.88
273.785	516.88
274.017	513.88
274.249	521.88
274.481	532.88
274.713	513.88
274.945	529.88
275.176	542.88
275.408	545.88
275.64	514.88
275.872	526.88
276.104	540.88
276.335	563.88
276.567	567.88
276.799	541.88
277.031	565.88
277.262	566.88
277.494	575.88
277.726	612.88
277.957	707.88
278.189	787.88
278.421	750.88
278.652	694.88
278.884	642.88
279.115	628.88
279.347	608.88
279.579	590.88
279.81	595.88
280.042	581.88
280.273	596.88
280.505	607.88
280.736	616.88
280.968	646.88
281.199	690.88
281.431	762.88
281.662	794.88
281.894	703.88
282.125	644.88
282.356	669.88
282.588	696.88
282.819	692.88
283.051	728.88
283.282	809.88
283.513	960.88
283.745	1409.88
283.976	2192.88
284.207	3129.88
284.439	2810.88
284.67	1688.88
284.901	1365.88
285.132	1321.88
285.364	1264.88
285.595	1004.88
285.826	935.88
286.057	1088.88
286.288	1491.88
286.52	1970.88
286.751	1796.88
286.982	1146.88
287.213	869.88
287.444	787.88
287.675	766.88
287.906	720.88
288.138	714.88
288.369	688.88
288.6	688.88
288.831	679.88
289.062	694.88
289.293	693.88
289.524	717.88
289.755	714.88
289.986	704.88
290.217	703.88
290.448	719.88
290.679	725.88
290.91	729.88
291.141	737.88
291.371	774.88
291.602	788.88
291.833	731.88
292.064	714.88
292.295	698.88
292.526	694.88
292.757	673.88
292.987	654.88
293.218	662.88
293.449	687.88
293.68	667.88
293.91	662.88
294.141	653.88
294.372	650.88
294.603	658.88
294.833	660.88
295.064	684.88
295.295	671.88
295.525	651.88
295.756	647.88
295.987	661.88
296.217	673.88
296.448	646.88
296.679	633.88
296.909	664.88
297.14	655.88
297.37	689.88
297.601	673.88
297.831	668.88
298.062	676.88
298.292	700.88
298.523	702.88
298.753	713.88
298.984	725.88
299.214	722.88
299.445	713.88
299.675	741.88
299.905	758.88
300.136	774.88
300.366	862.88
300.597	1078.88
300.827	1438.88
301.057	1928.88
301.288	1922.88
301.518	1245.88
301.748	1000.88
301.979	904.88
302.209	897.88
302.439	886.88
302.669	973.88
302.9	1144.88
303.13	1540.88
303.36	2248.88
303.59	2999.88
303.82	2642.88
304.051	1570.88
304.281	1114.88
304.511	956.88
304.741	912.88
304.971	846.88
305.201	833.88
305.431	814.88
305.661	807.88
305.891	789.88
306.121	778.88
306.352	748.88
306.582	794.88
306.812	776.88
307.042	785.88
307.272	764.88
307.502	737.88
307.731	784.88
307.961	766.88
308.191	766.88
308.421	746.88
308.651	778.88
308.881	764.88
309.111	754.88
309.341	718.88
309.571	768.88
309.8	784.88
310.03	792.88
310.26	772.88
310.49	785.88
310.72	790.88
310.949	791.88
311.179	789.88
311.409	783.88
311.639	801.88
311.868	809.88
312.098	812.88
312.328	837.88
312.557	807.88
312.787	798.88
313.017	799.88
313.246	838.88
313.476	860.88
313.706	884.88
313.935	889.88
314.165	937.88
314.394	970.88
314.624	953.88
314.853	896.88
315.083	887.88
315.312	888.88
315.542	896.88
315.771	917.88
316.001	901.88
316.23	921.88
316.46	1004.88
316.689	1074.88
316.919	1236.88
317.148	1766.88
317.377	2684.88
317.607	3984.88
317.836	4062.88
318.065	2397.88
318.295	1543.88
318.524	1264.88
318.753	1162.88
318.983	1046.88
319.212	1012.88
319.441	1000.88
319.67	991.88
319.9	976.88
320.129	946.88
320.358	961.88
320.587	974.88
320.816	950.88
321.046	951.88
321.275	954.88
321.504	977.88
321.733	977.88
321.962	997.88
322.191	1001.88
322.42	1009.88
322.649	1004.88
322.878	990.88
323.108	1002.88
323.337	1044.88
323.566	1043.88
323.795	1074.88
324.024	1104.88
324.253	1103.88
324.482	1110.88
324.71	1172.88
324.939	1253.88
325.168	1245.88
325.397	1307.88
325.626	1538.88
325.855	2116.88
326.084	3357.88
326.313	4893.88
326.542	5176.88
326.77	3282.88
326.999	2110.88
327.228	1824.88
327.457	1733.88
327.686	1772.88
327.914	1914.88
328.143	2157.88
328.372	2529.88
328.6	2732.88
328.829	2498.88
329.058	2205.88
329.287	1957.88
329.515	1820.88
329.744	1660.88
329.972	1553.88
330.201	1505.88
330.43	1439.88
330.658	1413.88
330.887	1418.88
331.115	1369.88
331.344	1356.88
331.572	1370.88
331.801	1377.88
332.03	1360.88
332.258	1414.88
332.486	1474.88
332.715	1651.88
332.943	1977.88
333.172	2416.88
333.4	2382.88
333.629	1903.88
333.857	1731.88
334.085	1741.88
334.314	1823.88
334.542	1969.88
334.771	2288.88
334.999	2640.88
335.227	3229.88
335.455	3628.88
335.684	3314.88
335.912	2848.88
336.14	2457.88
336.369	2208.88
336.597	2052.88
336.825	1870.88
337.053	1763.88
337.281	1692.88
337.51	1590.88
337.738	1551.88
337.966	1479.88
338.194	1446.88
338.422	1399.88
338.65	1371.88
338.878	1340.88
339.106	1308.88
339.334	1317.88
339.562	1283.88
339.79	1250.88
340.018	1240.88
340.246	1222.88
340.474	1240.88
340.702	1213.88
340.93	1217.88
341.158	1213.88
341.386	1223.88
341.614	1235.88
341.842	1196.88
342.07	1146.88
342.298	1161.88
342.526	1149.88
342.754	1117.88
342.981	1111.88
343.209	1145.88
343.437	1138.88
343.665	1156.88
343.893	1187.88
344.12	1146.88
344.348	1145.88
344.576	1100.88
344.804	1095.88
345.031	1094.88
345.259	1097.88
345.487	1058.88
345.714	1062.88
345.942	1068.88
346.17	1036.88
346.397	1071.88
346.625	1036.88
346.853	1065.88
347.08	1030.88
347.308	1051.88
347.535	1056.88
347.763	1029.88
347.99	1035.88
348.218	1021.88
348.445	1050.88
348.673	1050.88
348.9	1009.88
349.128	1045.88
349.355	1012.88
349.583	1017.88
349.81	1023.88
350.037	992.88
350.265	997.88
350.492	998.88
350.72	987.88
350.947	1003.88
351.174	1000.88
351.402	1020.88
351.629	995.88
351.856	1042.88
352.083	1016.88
352.311	981.88
352.538	997.88
352.765	1006.88
352.992	989.88
353.22	983.88
353.447	989.88
353.674	1006.88
353.901	997.88
354.128	1007.88
354.355	1006.88
354.583	998.88
354.81	990.88
355.037	1001.88
355.264	1028.88
355.491	999.88
355.718	1047.88
355.945	1063.88
356.172	1014.88
356.399	1011.88
356.626	1052.88
356.853	1040.88
357.08	1046.88
357.307	1038.88
357.534	1082.88
357.761	1069.88
357.988	1047.88
358.215	1066.88
358.441	1057.88
358.668	1069.88
358.895	1058.88
359.122	1024.88
359.349	1060.88
359.576	1071.88
359.802	1056.88
360.029	1066.88
360.256	1031.88
360.483	1049.88
360.709	1072.88
360.936	1085.88
361.163	1074.88
361.39	1069.88
361.616	1050.88
361.843	1090.88
362.07	1077.88
362.296	1056.88
362.523	1066.88
362.749	1079.88
362.976	1080.88
363.203	1070.88
363.429	1076.88
363.656	1074.88
363.882	1080.88
364.109	1076.88
364.335	1044.88
364.562	1081.88
364.788	1063.88
365.015	1076.88
365.241	1085.88
365.468	1100.88
365.694	1163.88
365.92	1136.88
366.147	1107.88
366.373	1096.88
366.599	1097.88
366.826	1111.88
367.052	1109.88
367.278	1080.88
367.505	1083.88
367.731	1114.88
367.957	1089.88
368.184	1092.88
368.41	1110.88
368.636	1090.88
368.862	1096.88
369.089	1089.88
369.315	1111.88
369.541	1140.88
369.767	1109.88
369.993	1113.88
370.219	1104.88
370.445	1106.88
370.672	1125.88
370.898	1108.88
371.124	1117.88
371.35	1110.88
371.576	1128.88
371.802	1153.88
372.028	1136.88
372.254	1160.88
372.48	1175.88
372.706	1172.88
372.932	1187.88
373.158	1163.88
373.384	1173.88
373.61	1176.88
373.835	1159.88
374.061	1166.88
374.287	1214.88
374.513	1162.88
374.739	1178.88
374.965	1219.88
375.191	1212.88
375.416	1207.88
375.642	1198.88
375.868	1220.88
376.094	1183.88
376.319	1204.88
376.545	1155.88
376.771	1167.88
376.997	1157.88
377.222	1152.88
377.448	1132.88
377.674	1156.88
377.899	1132.88
378.125	1163.88
378.35	1130.88
378.576	1148.88
378.802	1154.88
379.027	1187.88
379.253	1161.88
379.478	1271.88
379.704	1401.88
379.929	1962.88
380.155	2944.88
380.38	3049.88
380.606	1978.88
380.831	1417.88
381.057	1271.88
381.282	1223.88
381.507	1182.88
381.733	1188.88
381.958	1122.88
382.184	1154.88
382.409	1141.88
382.634	1143.88
382.86	1101.88
383.085	1156.88
383.31	1138.88
383.535	1153.88
383.761	1181.88
383.986	1155.88
384.211	1165.88
384.436	1162.88
384.662	1167.88
384.887	1196.88
385.112	1183.88
385.337	1197.88
385.562	1142.88
385.787	1166.88
386.013	1172.88
386.238	1198.88
386.463	1156.88
386.688	1157.88
386.913	1149.88
387.138	1162.88
387.363	1162.88
387.588	1155.88
387.813	1163.88
388.038	1186.88
388.263	1163.88
388.488	1157.88
388.713	1175.88
388.938	1177.88
389.163	1175.88
389.387	1162.88
389.612	1176.88
389.837	1166.88
390.062	1183.88
390.287	1225.88
390.512	1178.88
390.736	1216.88
390.961	1219.88
391.186	1186.88
391.411	1241.88
391.636	1236.88
391.86	1263.88
392.085	1255.88
392.31	1204.88
392.534	1226.88
392.759	1217.88
392.984	1236.88
393.208	1223.88
393.433	1300.88
393.658	1266.88
393.882	1212.88
394.107	1237.88
394.331	1199.88
394.556	1241.88
394.78	1229.88
395.005	1183.88
395.229	1219.88
395.454	1212.88
395.678	1224.88
395.903	1206.88
396.127	1252.88
396.352	1189.88
396.576	1222.88
396.801	1232.88
397.025	1269.88
397.249	1248.88
397.474	1249.88
397.698	1261.88
397.922	1258.88
398.147	1259.88
398.371	1245.88
398.595	1306.88
398.82	1299.88
399.044	1358.88
399.268	1439.88
399.492	1482.88
399.717	1567.88
399.941	1560.88
400.165	1517.88
400.389	1457.88
400.613	1373.88
400.837	1350.88
401.062	1307.88
401.286	1304.88
401.51	1298.88
401.734	1276.88
401.958	1316.88
402.182	1290.88
402.406	1330.88
402.63	1302.88
402.854	1321.88
403.078	1357.88
403.302	1347.88
403.526	1329.88
403.75	1358.88
403.974	1375.88
404.198	1368.88
404.422	1356.88
404.645	1354.88
404.869	1315.88
405.093	1326.88
405.317	1320.88
405.541	1360.88
405.765	1355.88
405.988	1382.88
406.212	1361.88
406.436	1363.88
406.66	1393.88
406.883	1404.88
407.107	1427.88
407.331	1468.88
407.555	1471.88
407.778	1437.88
408.002	1445.88
408.226	1425.88
408.449	1440.88
408.673	1358.88
408.896	1378.88
409.12	1376.88
409.344	1367.88
409.567	1343.88
409.791	1315.88
410.014	1369.88
410.238	1301.88
410.461	1327.88
410.685	1320.88
410.908	1313.88
411.132	1327.88
411.355	1283.88
411.578	1281.88
411.802	1297.88
412.025	1279.88
412.249	1315.88
412.472	1299.88
412.695	1326.88
412.919	1269.88
413.142	1263.88
413.365	1260.88
413.589	1260.88
413.812	1255.88
414.035	1283.88
414.258	1263.88
414.482	1298.88
414.705	1302.88
414.928	1279.88
415.151	1272.88
415.374	1269.88
415.597	1294.88
415.821	1237.88
416.044	1242.88
416.267	1216.88
416.49	1220.88
416.713	1236.88
416.936	1253.88
417.159	1233.88
417.382	1212.88
417.605	1200.88
417.828	1240.88
418.051	1250.88
418.274	1249.88
418.497	1211.88
418.72	1313.88
418.943	1264.88
419.166	1305.88
419.389	1363.88
419.611	1336.88
419.834	1323.88
420.057	1290.88
420.28	1286.88
420.503	1216.88
420.726	1225.88
420.948	1230.88
421.171	1204.88
421.394	1234.88
421.617	1237.88
421.839	1266.88
422.062	1259.88
422.285	1216.88
422.507	1273.88
422.73	1288.88
422.953	1280.88
423.175	1279.88
423.398	1277.88
423.621	1245.88
423.843	1239.88
424.066	1240.88
424.288	1233.88
424.511	1221.88
424.733	1222.88
424.956	1204.88
425.178	1236.88
425.401	1232.88
425.623	1221.88
425.846	1184.88
426.068	1198.88
426.291	1200.88
426.513	1166.88
426.735	1178.88
426.958	1168.88
427.18	1167.88
427.402	1186.88
427.625	1178.88
427.847	1148.88
428.069	1149.88
428.292	1173.88
428.514	1151.88
428.736	1141.88
428.958	1133.88
429.181	1127.88
429.403	1134.88
429.625	1170.88
429.847	1154.88
430.069	1148.88
430.292	1181.88
430.514	1198.88
430.736	1224.88
430.958	1168.88
431.18	1150.88
431.402	1147.88
431.624	1120.88
431.846	1106.88
432.068	1104.88
432.29	1123.88
432.512	1128.88
432.734	1140.88
432.956	1176.88
433.178	1156.88
433.4	1125.88
433.622	1185.88
433.844	1171.88
434.066	1119.88
434.287	1141.88
434.509	1137.88
434.731	1188.88
434.953	1148.88
435.175	1177.88
435.397	1178.88
435.618	1156.88
435.84	1134.88
436.062	1106.88
436.284	1168.88
436.505	1130.88
436.727	1154.88
436.949	1114.88
437.17	1115.88
437.392	1108.88
437.614	1106.88
437.835	1095.88
438.057	1091.88
438.278	1081.88
438.5	1122.88
438.721	1127.88
438.943	1133.88
439.165	1160.88
439.386	1160.88
439.608	1198.88
439.829	1194.88
440.05	1212.88
440.272	1223.88
440.493	1190.88
440.715	1164.88
440.936	1187.88
441.158	1191.88
441.379	1213.88
441.6	1239.88
441.822	1249.88
442.043	1316.88
442.264	1358.88
442.486	1264.88
442.707	1228.88
442.928	1213.88
443.149	1184.88
443.371	1207.88
443.592	1218.88
443.813	1209.88
444.034	1223.88
444.255	1243.88
444.476	1276.88
444.698	1308.88
444.919	1291.88
445.14	1398.88
445.361	1300.88
445.582	1286.88
445.803	1215.88
446.024	1198.88
446.245	1220.88
446.466	1198.88
446.687	1176.88
446.908	1206.88
447.129	1197.88
447.35	1203.88
447.571	1162.88
447.792	1160.88
448.013	1145.88
448.234	1118.88
448.455	1102.88
448.675	1119.88
448.896	1162.88
449.117	1198.88
449.338	1273.88
449.559	1302.88
449.779	1192.88
450	1075.88
450.221	1109.88
450.442	1097.88
450.662	1094.88
450.883	1100.88
451.104	1096.88
451.324	1076.88
451.545	1089.88
451.766	1092.88
451.986	1102.88
452.207	1147.88
452.428	1389.88
452.648	1870.88
452.869	1632.88
453.089	1233.88
453.31	1207.88
453.53	1216.88
453.751	1266.88
453.971	1263.88
454.192	1311.88
454.412	1127.88
454.633	1090.88
454.853	1052.88
455.073	1072.88
455.294	1042.88
455.514	1028.88
455.734	1023.88
455.955	1046.88
456.175	1052.88
456.395	1008.88
456.616	1058.88
456.836	1048.88
457.056	1032.88
457.276	1036.88
457.497	1105.88
457.717	1124.88
457.937	1064.88
458.157	1074.88
458.377	1102.88
458.598	1103.88
458.818	1120.88
459.038	1084.88
459.258	1112.88
459.478	1122.88
459.698	1121.88
459.918	1142.88
460.138	1180.88
460.358	1223.88
460.578	1212.88
460.798	1213.88
461.018	1247.88
461.238	1232.88
461.458	1239.88
461.678	1216.88
461.898	1277.88
462.118	1296.88
462.338	1335.88
462.558	1311.88
462.777	1338.88
462.997	1372.88
463.217	1430.88
463.437	1444.88
463.657	1481.88
463.876	1418.88
464.096	1399.88
464.316	1378.88
464.536	1353.88
464.755	1365.88
464.975	1292.88
465.195	1290.88
465.414	1212.88
465.634	1181.88
465.854	1165.88
466.073	1167.88
466.293	1151.88
466.512	1165.88
466.732	1143.88
466.951	1179.88
467.171	1284.88
467.391	1232.88
467.61	1178.88
467.829	1150.88
468.049	1139.88
468.268	1113.88
468.488	1097.88
468.707	1138.88
468.927	1089.88
469.146	1148.88
469.365	1123.88
469.585	1156.88
469.804	1196.88
470.023	1152.88
470.243	1170.88
470.462	1186.88
470.681	1264.88
470.901	1369.88
471.12	1577.88
471.339	1568.88
471.558	1317.88
471.777	1223.88
471.997	1204.88
472.216	1152.88
472.435	1124.88
472.654	1101.88
472.873	1106.88
473.092	1126.88
473.311	1106.88
473.53	1109.88
473.749	1164.88
473.968	1174.88
474.187	1155.88
474.406	1098.88
474.625	1119.88
474.844	1132.88
475.063	1117.88
475.282	1098.88
475.501	1083.88
475.72	1120.88
475.939	1137.88
476.158	1152.88
476.377	1185.88
476.596	1190.88
476.814	1170.88
477.033	1146.88
477.252	1172.88
477.471	1196.88
477.69	1220.88
477.908	1236.88
478.127	1261.88
478.346	1276.88
478.564	1309.88
478.783	1300.88
479.002	1312.88
479.22	1326.88
479.439	1340.88
479.658	1358.88
479.876	1294.88
480.095	1351.88
480.313	1348.88
480.532	1364.88
480.751	1326.88
480.969	1301.88
481.188	1301.88
481.406	1321.88
481.624	1306.88
481.843	1314.88
482.061	1334.88
482.28	1300.88
482.498	1303.88
482.717	1305.88
482.935	1334.88
483.153	1383.88
483.372	1364.88
483.59	1381.88
483.808	1423.88
484.027	1436.88
484.245	1480.88
484.463	1654.88
484.681	1845.88
484.9	1723.88
485.118	1618.88
485.336	1556.88
485.554	1561.88
485.772	1630.88
485.99	1893.88
486.209	1964.88
486.427	1687.88
486.645	1520.88
486.863	1462.88
487.081	1462.88
487.299	1439.88
487.517	1407.88
487.735	1435.88
487.953	1462.88
488.171	1467.88
488.389	1466.88
488.607	1416.88
488.825	1372.88
489.043	1360.88
489.261	1336.88
489.479	1344.88
489.696	1414.88
489.914	1372.88
490.132	1404.88
490.35	1403.88
490.568	1416.88
490.786	1406.88
491.003	1445.88
491.221	1454.88
491.439	1463.88
491.657	1461.88
491.874	1504.88
492.092	1529.88
492.31	1550.88
492.527	1518.88
492.745	1494.88
492.963	1482.88
493.18	1491.88
493.398	1500.88
493.615	1512.88
493.833	1526.88
494.05	1496.88
494.268	1500.88
494.485	1476.88
494.703	1476.88
494.92	1498.88
495.138	1511.88
495.355	1502.88
495.573	1475.88
495.79	1489.88
496.008	1487.88
496.225	1522.88
496.442	1530.88
496.66	1577.88
496.877	1603.88
497.094	1631.88
497.312	1584.88
497.529	1546.88
497.746	1599.88
497.963	1626.88
498.181	1665.88
498.398	1668.88
498.615	1744.88
498.832	1746.88
499.049	1860.88
499.267	2000.88
499.484	2098.88
499.701	2168.88
499.918	2243.88
500.135	2359.88
500.352	2476.88
500.569	2534.88
500.786	2521.88
501.003	2358.88
501.22	2264.88
501.437	2126.88
501.654	1995.88
501.871	1960.88
502.088	1869.88
502.305	1769.88
502.522	1746.88
502.739	1699.88
502.956	1628.88
503.172	1620.88
503.389	1568.88
503.606	1561.88
503.823	1538.88
504.04	1506.88
504.256	1506.88
504.473	1483.88
504.69	1505.88
504.907	1500.88
505.123	1474.88
505.34	1428.88
505.557	1379.88
505.773	1384.88
505.99	1373.88
506.207	1353.88
506.423	1326.88
506.64	1329.88
506.856	1290.88
507.073	1281.88
507.289	1301.88
507.506	1316.88
507.722	1269.88
507.939	1297.88
508.155	1277.88
508.372	1234.88
508.588	1255.88
508.805	1247.88
509.021	1239.88
509.238	1231.88
509.454	1314.88
509.67	1393.88
509.887	1276.88
510.103	1250.88
510.319	1274.88
510.536	1251.88
510.752	1229.88
510.968	1249.88
511.184	1206.88
511.401	1198.88
511.617	1183.88
511.833	1199.88
512.049	1207.88
512.265	1193.88
512.481	1185.88
512.698	1208.88
512.914	1228.88
513.13	1206.88
513.346	1178.88
513.562	1205.88
513.778	1211.88
513.994	1205.88
514.21	1238.88
514.426	1314.88
514.642	1318.88
514.858	1253.88
515.074	1245.88
515.29	1222.88
515.506	1218.88
515.721	1240.88
515.937	1223.88
516.153	1231.88
516.369	1246.88
516.585	1269.88
516.801	1298.88
517.016	1302.88
517.232	1316.88
517.448	1351.88
517.664	1369.88
517.879	1380.88
518.095	1347.88
518.311	1365.88
518.527	1314.88
518.742	1315.88
518.958	1331.88
519.173	1321.88
519.389	1284.88
519.605	1254.88
519.82	1230.88
520.036	1247.88
520.251	1206.88
520.467	1210.88
520.682	1174.88
520.898	1187.88
521.113	1176.88
521.329	1192.88
521.544	1208.88
521.76	1178.88
521.975	1172.88
522.19	1153.88
522.406	1141.88
522.621	1174.88
522.836	1141.88
523.052	1156.88
523.267	1189.88
523.482	1172.88
523.698	1157.88
523.913	1162.88
524.128	1148.88
524.343	1171.88
524.559	1193.88
524.774	1137.88
524.989	1148.88
525.204	1164.88
525.419	1122.88
525.634	1160.88
525.849	1148.88
526.064	1128.88
526.28	1164.88
526.495	1137.88
526.71	1181.88
526.925	1176.88
527.14	1174.88
527.355	1189.88
527.57	1184.88
527.785	1163.88
527.999	1157.88
528.214	1183.88
528.429	1196.88
528.644	1185.88
528.859	1217.88
529.074	1251.88
529.289	1254.88
529.503	1233.88
529.718	1232.88
529.933	1204.88
530.148	1235.88
530.363	1217.88
530.577	1222.88
530.792	1230.88
531.007	1229.88
531.221	1253.88
531.436	1223.88
531.651	1238.88
531.865	1272.88
532.08	1278.88
532.295	1289.88
532.509	1386.88
532.724	1356.88
532.938	1407.88
533.153	1417.88
533.367	1490.88
533.582	1520.88
533.796	1528.88
534.011	1487.88
534.225	1433.88
534.44	1439.88
534.654	1396.88
534.868	1403.88
535.083	1354.88
535.297	1360.88
535.511	1298.88
535.726	1300.88
535.94	1316.88
536.154	1253.88
536.369	1248.88
536.583	1220.88
536.797	1197.88
537.011	1216.88
537.225	1175.88
537.44	1205.88
537.654	1178.88
537.868	1176.88
538.082	1128.88
538.296	1130.88
538.51	1142.88
538.724	1166.88
538.938	1112.88
539.153	1132.88
539.367	1129.88
539.581	1141.88
539.795	1143.88
540.009	1112.88
540.222	1090.88
540.436	1140.88
540.65	1105.88
540.864	1143.88
541.078	1148.88
541.292	1224.88
541.506	1428.88
541.72	1498.88
541.934	1295.88
542.147	1280.88
542.361	1208.88
542.575	1140.88
542.789	1133.88
543.002	1086.88
543.216	1091.88
543.43	1098.88
543.644	1079.88
543.857	1107.88
544.071	1106.88
544.285	1139.88
544.498	1127.88
544.712	1124.88
544.925	1116.88
545.139	1127.88
545.352	1155.88
545.566	1141.88
545.779	1119.88
545.993	1116.88
546.206	1159.88
546.42	1170.88
546.633	1132.88
546.847	1157.88
547.06	1126.88
547.274	1118.88
547.487	1166.88
547.7	1134.88
547.914	1104.88
548.127	1140.88
548.34	1132.88
548.554	1138.88
548.767	1139.88
548.98	1139.88
549.193	1144.88
549.407	1113.88
549.62	1150.88
549.833	1132.88
550.046	1128.88
550.259	1126.88
550.473	1108.88
550.686	1144.88
550.899	1147.88
551.112	1121.88
551.325	1127.88
551.538	1119.88
551.751	1108.88
551.964	1117.88
552.177	1125.88
552.39	1169.88
552.603	1170.88
552.816	1170.88
553.029	1171.88
553.242	1234.88
553.455	1242.88
553.667	1251.88
553.88	1218.88
554.093	1208.88
554.306	1247.88
554.519	1264.88
554.732	1278.88
554.944	1292.88
555.157	1300.88
555.37	1309.88
555.583	1357.88
555.795	1393.88
556.008	1449.88
556.221	1583.88
556.433	1664.88
556.646	1684.88
556.859	1671.88
557.071	1604.88
557.284	1544.88
557.496	1510.88
557.709	1504.88
557.921	1491.88
558.134	1491.88
558.346	1537.88
558.559	1588.88
558.771	1610.88
558.984	1725.88
559.196	1817.88
559.409	1798.88
559.621	1648.88
559.833	1573.88
560.046	1530.88
560.258	1437.88
560.47	1377.88
560.683	1340.88
560.895	1276.88
561.107	1302.88
561.32	1209.88
561.532	1209.88
561.744	1216.88
561.956	1220.88
562.168	1140.88
562.381	1169.88
562.593	1148.88
562.805	1124.88
563.017	1148.88
563.229	1154.88
563.441	1284.88
563.653	1126.88
563.865	1031.88
564.077	1028.88
564.289	1041.88
564.501	1034.88
564.713	1028.88
564.925	1052.88
565.137	1036.88
565.349	1028.88
565.561	1054.88
565.773	1067.88
565.985	1050.88
566.197	1083.88
566.408	1108.88
566.62	1121.88
566.832	1149.88
567.044	1135.88
567.255	1146.88
567.467	1160.88
567.679	1162.88
567.891	1248.88
568.102	1345.88
568.314	1551.88
568.526	1354.88
568.737	1164.88
568.949	1086.88
569.161	1002.88
569.372	980.88
569.584	962.88
569.795	929.88
570.007	916.88
570.218	933.88
570.43	950.88
570.641	930.88
570.853	868.88
571.064	873.88
571.276	885.88
571.487	844.88
571.698	800.88
571.91	828.88
572.121	831.88
572.333	814.88
572.544	829.88
572.755	858.88
572.966	1026.88
573.178	892.88
573.389	809.88
573.6	780.88
573.811	766.88
574.023	740.88
574.234	762.88
574.445	768.88
574.656	764.88
574.867	761.88
575.078	762.88
575.289	777.88
575.501	772.88
575.712	735.88
575.923	722.88
576.134	718.88
576.345	749.88
576.556	770.88
576.767	750.88
576.978	765.88
577.188	749.88
577.399	769.88
577.61	764.88
577.821	757.88
578.032	785.88
578.243	768.88
578.454	796.88
578.665	822.88
578.875	832.88
579.086	834.88
579.297	889.88
579.508	905.88
579.718	988.88
579.929	1070.88
580.14	1175.88
580.35	1238.88
580.561	1163.88
580.772	1106.88
580.982	1016.88
581.193	970.88
581.403	940.88
581.614	892.88
581.825	836.88
582.035	843.88
582.246	796.88
582.456	799.88
582.667	773.88
582.877	735.88
583.087	758.88
583.298	710.88
583.508	721.88
583.719	684.88
583.929	700.88
584.139	675.88
584.35	646.88
584.56	652.88
584.77	636.88
584.981	644.88
585.191	605.88
585.401	626.88
585.611	615.88
585.821	619.88
586.032	603.88
586.242	597.88
586.452	608.88
586.662	602.88
586.872	595.88
587.082	603.88
587.292	586.88
587.502	582.88
587.713	567.88
587.923	575.88
588.133	566.88
588.343	558.88
588.553	547.88
588.762	548.88
588.972	545.88
589.182	545.88
589.392	559.88
589.602	554.88
589.812	554.88
590.022	539.88
590.232	532.88
590.441	541.88
590.651	554.88
590.861	526.88
591.071	544.88
591.281	538.88
591.49	542.88
591.7	535.88
591.91	547.88
592.119	540.88
592.329	547.88
592.539	523.88
592.748	551.88
592.958	550.88
593.167	563.88
593.377	570.88
593.587	573.88
593.796	576.88
594.006	581.88
594.215	566.88
594.424	590.88
594.634	596.88
594.843	547.88
595.053	548.88
595.262	544.88
595.472	531.88
595.681	499.88
595.89	495.88
596.1	482.88
596.309	496.88
596.518	477.88
596.727	487.88
596.937	478.88
597.146	496.88
597.355	485.88
597.564	481.88
597.774	477.88
597.983	464.88
598.192	458.88
598.401	462.88
598.61	460.88
598.819	450.88
599.028	456.88
599.237	455.88
599.446	471.88
599.655	481.88
599.864	444.88
600.073	424.88
600.282	462.88
600.491	447.88
600.7	450.88
600.909	446.88
601.118	447.88
601.327	457.88
601.536	465.88
601.745	449.88
601.953	506.88
602.162	540.88
602.371	479.88
602.58	471.88
602.789	461.88
602.997	430.88
603.206	450.88
603.415	443.88
603.623	449.88
603.832	436.88
604.041	441.88
604.249	434.88
604.458	434.88
604.666	421.88
604.875	424.88
605.084	447.88
605.292	410.88
605.501	425.88
605.709	442.88
605.918	420.88
606.126	439.88
606.334	446.88
606.543	448.88
606.751	472.88
606.96	518.88
607.168	556.88
607.376	482.88
607.585	433.88
607.793	432.88
608.001	430.88
608.21	393.88
608.418	416.88
608.626	435.88
608.834	425.88
609.043	422.88
609.251	422.88
609.459	407.88
609.667	414.88
609.875	409.88
610.083	404.88
610.291	401.88
610.499	398.88
610.707	412.88
610.916	398.88
611.124	395.88
611.332	402.88
611.54	408.88
611.748	390.88
611.955	398.88
612.163	409.88
612.371	393.88
612.579	402.88
612.787	383.88
612.995	378.88
613.203	387.88
613.411	385.88
613.618	398.88
613.826	378.88
614.034	386.88
614.242	392.88
614.449	388.88
614.657	392.88
614.865	389.88
615.072	383.88
615.28	392.88
615.488	391.88
615.695	381.88
615.903	398.88
616.111	392.88
616.318	392.88
616.526	378.88
616.733	400.88
616.941	390.88
617.148	388.88
617.356	387.88
617.563	385.88
617.771	375.88
617.978	371.88
618.185	405.88
618.393	385.88
618.6	390.88
618.807	366.88
619.015	353.88
619.222	374.88
619.429	370.88
619.637	375.88
619.844	386.88
620.051	363.88
620.258	361.88
620.466	368.88
620.673	369.88
620.88	348.88
621.087	362.88
621.294	333.88
621.501	348.88
621.708	353.88
621.915	357.88
622.122	351.88
622.329	368.88
622.536	366.88
622.743	345.88
622.95	343.88
623.157	356.88
623.364	351.88
623.571	360.88
623.778	344.88
623.985	341.88
624.192	369.88
624.399	350.88
624.606	358.88
624.812	342.88
625.019	348.88
625.226	328.88
625.433	342.88
625.639	322.88
625.846	322.88
626.053	306.88
626.259	319.88
626.466	323.88
626.673	333.88
626.879	304.88
627.086	324.88
627.293	316.88
627.499	324.88
627.706	321.88
627.912	327.88
628.119	328.88
628.325	327.88
628.532	311.88
628.738	324.88
628.945	309.88
629.151	295.88
629.357	322.88
629.564	310.88
629.77	316.88
629.976	295.88
630.183	304.88
630.389	309.88
630.595	327.88
630.802	325.88
631.008	306.88
631.214	294.88
631.42	310.88
631.627	317.88
631.833	284.88
632.039	296.88
632.245	304.88
632.451	311.88
632.657	316.88
632.863	286.88
633.069	303.88
633.275	286.88
633.481	294.88
633.688	296.88
633.893	298.88
634.099	306.88
634.305	306.88
634.511	296.88
634.717	284.88
634.923	295.88
635.129	327.88
635.335	384.88
635.541	322.88
635.747	300.88
635.952	289.88
636.158	285.88
636.364	319.88
636.57	292.88
636.775	288.88
636.981	286.88
637.187	310.88
637.392	282.88
637.598	297.88
637.804	292.88
638.009	298.88
638.215	292.88
638.421	295.88
638.626	304.88
638.832	288.88
639.037	289.88
639.243	308.88
639.448	289.88
639.654	294.88
639.859	332.88
640.065	308.88
640.27	295.88
640.475	304.88
640.681	306.88
640.886	322.88
641.091	317.88
641.297	306.88
641.502	292.88
641.707	314.88
641.913	326.88
642.118	332.88
642.323	311.88
642.528	341.88
642.733	339.88
642.939	344.88
643.144	380.88
643.349	352.88
643.554	369.88
643.759	371.88
643.964	359.88
644.169	416.88
644.374	437.88
644.579	475.88
644.784	504.88
644.989	552.88
645.194	647.88
645.399	736.88
645.604	750.88
645.809	612.88
646.014	495.88
646.219	428.88
646.423	382.88
646.628	351.88
646.833	334.88
647.038	349.88
647.243	334.88
647.447	322.88
647.652	310.88
647.857	275.88
648.062	304.88
648.266	293.88
648.471	288.88
648.676	294.88
648.88	276.88
649.085	278.88
649.289	281.88
649.494	264.88
649.698	264.88
649.903	254.88
650.107	253.88
650.312	264.88
650.516	270.88
650.721	252.88
650.925	256.88
651.13	229.88
651.334	234.88
651.539	226.88
651.743	225.88
651.947	226.88
652.152	229.88
652.356	237.88
652.56	249.88
652.764	262.88
652.969	233.88
653.173	222.88
653.377	228.88
653.581	217.88
653.785	210.88
653.99	221.88
654.194	213.88
654.398	213.88
654.602	212.88
654.806	201.88
655.01	214.88
655.214	208.88
655.418	202.88
655.622	199.88
655.826	202.88
656.03	210.88
656.234	238.88
656.438	239.88
656.642	236.88
656.846	202.88
657.049	206.88
657.253	188.88
657.457	185.88
657.661	183.88
657.865	160.88
658.068	169.88
658.272	145.88
658.476	165.88
658.68	160.88
658.883	149.88
659.087	136.88
659.291	139.88
659.494	122.88
659.698	116.88
659.901	131.88
660.105	128.88
660.309	114.88
660.512	113.88
660.716	125.88
660.919	119.88
661.123	112.88
661.326	106.88
661.53	102.88
661.733	105.88
661.936	84.88
662.14	84.88
662.343	81.88
662.546	94.88
662.75	88.88
662.953	85.88
663.156	86.88
663.36	85.88
663.563	66.88
663.766	86.88
663.969	83.88
664.173	72.88
664.376	81.88
664.579	79.88
664.782	84.88
664.985	93.88
665.188	84.88
665.391	86.88
665.594	88.88
665.797	75.88
666	85.88
666.203	83.88
666.406	78.88
666.609	99.88
666.812	73.88
667.015	61.88
667.218	76.88
667.421	91.88
667.624	81.88
667.827	76.88
668.03	88.88
668.232	86.88
668.435	62.88
668.638	80.88
668.841	97.88
669.043	78.88
669.246	77.88
669.449	70.88
669.651	81.88
669.854	76.88
670.057	74.88
670.259	72.88
670.462	78.88
670.665	84.88
670.867	63.88
671.07	82.88
671.272	87.88
671.475	90.88
671.677	100.88
671.88	81.88
672.082	69.88
672.284	69.88
672.487	78.88
672.689	82.88
672.892	76.88
