Data from SnStandardFlinnAPT0064_LampEnergy5.5_LIBS07252019.E.O._I.C._HRD10591_15-17-21-492.txt Node
Date: Thu Jul 25 15:17:21 EDT 2019
User: cochatt
Spectrometer: HR+D1059
Trigger mode: 1
Integration Time (sec): 1.000000E-1
Scans to average: 1
Electric dark correction enabled: true
Nonlinearity correction enabled: false
Boxcar width: 0
XAxis mode: Wavelengths
Number of Pixels in Spectrum: 2048
>>>>>Begin Spectral Data<<<<<
223.165	-16.31
223.4	-16.31
223.635	-16.31
223.869	-11.31
224.104	-12.31
224.338	0.69
224.573	-14.31
224.808	-17.31
225.042	-8.31
225.277	-0.31
225.511	-1.31
225.746	-10.31
225.98	6.69
226.215	7.69
226.449	11.69
226.683	22.69
226.918	20.69
227.152	21.69
227.387	25.69
227.621	50.69
227.856	40.69
228.09	55.69
228.324	45.69
228.559	50.69
228.793	91.69
229.027	160.69
229.262	171.69
229.496	180.69
229.73	160.69
229.964	157.69
230.199	163.69
230.433	186.69
230.667	170.69
230.901	188.69
231.136	166.69
231.37	195.69
231.604	208.69
231.838	222.69
232.072	254.69
232.306	271.69
232.541	232.69
232.775	220.69
233.009	220.69
233.243	220.69
233.477	241.69
233.711	266.69
233.945	285.69
234.179	247.69
234.413	232.69
234.647	231.69
234.881	245.69
235.115	258.69
235.349	307.69
235.583	365.69
235.817	474.69
236.051	473.69
236.285	327.69
236.519	271.69
236.753	231.69
236.987	244.69
237.221	250.69
237.455	246.69
237.689	241.69
237.922	229.69
238.156	219.69
238.39	235.69
238.624	256.69
238.858	253.69
239.091	276.69
239.325	240.69
239.559	236.69
239.793	249.69
240.027	256.69
240.26	258.69
240.494	267.69
240.728	271.69
240.961	309.69
241.195	308.69
241.429	295.69
241.662	324.69
241.896	356.69
242.13	428.69
242.363	584.69
242.597	716.69
242.83	654.69
243.064	689.69
243.298	818.69
243.531	703.69
243.765	429.69
243.998	349.69
244.232	342.69
244.465	316.69
244.699	304.69
244.932	316.69
245.166	317.69
245.399	330.69
245.633	334.69
245.866	317.69
246.099	324.69
246.333	316.69
246.566	317.69
246.8	314.69
247.033	322.69
247.266	321.69
247.5	320.69
247.733	312.69
247.966	341.69
248.2	346.69
248.433	392.69
248.666	452.69
248.899	427.69
249.133	408.69
249.366	409.69
249.599	424.69
249.832	503.69
250.066	490.69
250.299	401.69
250.532	358.69
250.765	364.69
250.998	358.69
251.231	352.69
251.465	365.69
251.698	361.69
251.931	364.69
252.164	354.69
252.397	353.69
252.63	365.69
252.863	365.69
253.096	368.69
253.329	356.69
253.562	372.69
253.795	374.69
254.028	381.69
254.261	382.69
254.494	387.69
254.727	473.69
254.96	572.69
255.193	533.69
255.426	442.69
255.659	412.69
255.892	414.69
256.124	416.69
256.357	386.69
256.59	417.69
256.823	438.69
257.056	501.69
257.289	588.69
257.521	628.69
257.754	510.69
257.987	442.69
258.22	447.69
258.452	422.69
258.685	434.69
258.918	426.69
259.151	457.69
259.383	486.69
259.616	546.69
259.849	559.69
260.081	485.69
260.314	451.69
260.547	439.69
260.779	441.69
261.012	448.69
261.244	459.69
261.477	460.69
261.71	464.69
261.942	478.69
262.175	490.69
262.407	504.69
262.64	491.69
262.872	521.69
263.105	520.69
263.337	566.69
263.57	603.69
263.802	590.69
264.035	601.69
264.267	614.69
264.499	630.69
264.732	660.69
264.964	674.69
265.197	650.69
265.429	665.69
265.661	664.69
265.894	714.69
266.126	786.69
266.358	900.69
266.591	884.69
266.823	764.69
267.055	661.69
267.287	653.69
267.52	614.69
267.752	612.69
267.984	622.69
268.216	596.69
268.448	569.69
268.681	563.69
268.913	585.69
269.145	563.69
269.377	573.69
269.609	576.69
269.841	590.69
270.073	624.69
270.306	734.69
270.538	957.69
270.77	1414.69
271.002	1736.69
271.234	1186.69
271.466	809.69
271.698	696.69
271.93	608.69
272.162	599.69
272.394	589.69
272.626	560.69
272.858	549.69
273.09	584.69
273.322	564.69
273.553	569.69
273.785	553.69
274.017	566.69
274.249	562.69
274.481	551.69
274.713	568.69
274.945	559.69
275.176	580.69
275.408	565.69
275.64	588.69
275.872	599.69
276.104	589.69
276.335	590.69
276.567	589.69
276.799	612.69
277.031	604.69
277.262	591.69
277.494	605.69
277.726	695.69
277.957	784.69
278.189	860.69
278.421	816.69
278.652	740.69
278.884	728.69
279.115	655.69
279.347	626.69
279.579	624.69
279.81	628.69
280.042	617.69
280.273	636.69
280.505	652.69
280.736	661.69
280.968	725.69
281.199	780.69
281.431	863.69
281.662	873.69
281.894	775.69
282.125	736.69
282.356	729.69
282.588	743.69
282.819	763.69
283.051	816.69
283.282	850.69
283.513	1098.69
283.745	1596.69
283.976	2562.69
284.207	3680.69
284.439	3207.69
284.67	1844.69
284.901	1498.69
285.132	1524.69
285.364	1424.69
285.595	1135.69
285.826	1064.69
286.057	1216.69
286.288	1678.69
286.52	2284.69
286.751	2103.69
286.982	1269.69
287.213	953.69
287.444	854.69
287.675	796.69
287.906	767.69
288.138	776.69
288.369	771.69
288.6	766.69
288.831	738.69
289.062	743.69
289.293	746.69
289.524	730.69
289.755	757.69
289.986	746.69
290.217	766.69
290.448	744.69
290.679	805.69
290.91	747.69
291.141	808.69
291.371	844.69
291.602	883.69
291.833	803.69
292.064	782.69
292.295	727.69
292.526	735.69
292.757	700.69
292.987	738.69
293.218	700.69
293.449	706.69
293.68	710.69
293.91	708.69
294.141	690.69
294.372	714.69
294.603	702.69
294.833	697.69
295.064	675.69
295.295	697.69
295.525	682.69
295.756	683.69
295.987	683.69
296.217	695.69
296.448	692.69
296.679	690.69
296.909	702.69
297.14	723.69
297.37	719.69
297.601	716.69
297.831	719.69
298.062	717.69
298.292	750.69
298.523	743.69
298.753	762.69
298.984	747.69
299.214	760.69
299.445	757.69
299.675	792.69
299.905	791.69
300.136	840.69
300.366	956.69
300.597	1196.69
300.827	1729.69
301.057	2285.69
301.288	2249.69
301.518	1402.69
301.748	1077.69
301.979	982.69
302.209	974.69
302.439	973.69
302.669	1037.69
302.9	1252.69
303.13	1748.69
303.36	2633.69
303.59	3543.69
303.82	3022.69
304.051	1731.69
304.281	1244.69
304.511	1046.69
304.741	980.69
304.971	904.69
305.201	870.69
305.431	862.69
305.661	849.69
305.891	833.69
306.121	843.69
306.352	838.69
306.582	818.69
306.812	844.69
307.042	827.69
307.272	803.69
307.502	830.69
307.731	815.69
307.961	811.69
308.191	798.69
308.421	775.69
308.651	816.69
308.881	799.69
309.111	818.69
309.341	803.69
309.571	830.69
309.8	829.69
310.03	822.69
310.26	804.69
310.49	830.69
310.72	866.69
310.949	840.69
311.179	832.69
311.409	836.69
311.639	884.69
311.868	842.69
312.098	865.69
312.328	893.69
312.557	876.69
312.787	873.69
313.017	843.69
313.246	865.69
313.476	880.69
313.706	910.69
313.935	941.69
314.165	992.69
314.394	1069.69
314.624	1020.69
314.853	944.69
315.083	923.69
315.312	942.69
315.542	954.69
315.771	958.69
316.001	992.69
316.23	1024.69
316.46	1044.69
316.689	1161.69
316.919	1369.69
317.148	2047.69
317.377	3144.69
317.607	4678.69
317.836	4830.69
318.065	2722.69
318.295	1720.69
318.524	1360.69
318.753	1226.69
318.983	1144.69
319.212	1065.69
319.441	1077.69
319.67	1066.69
319.9	1044.69
320.129	1052.69
320.358	1034.69
320.587	1038.69
320.816	1037.69
321.046	1026.69
321.275	1006.69
321.504	1049.69
321.733	1051.69
321.962	1070.69
322.191	1088.69
322.42	1061.69
322.649	1073.69
322.878	1061.69
323.108	1084.69
323.337	1092.69
323.566	1096.69
323.795	1125.69
324.024	1172.69
324.253	1170.69
324.482	1179.69
324.71	1254.69
324.939	1348.69
325.168	1352.69
325.397	1427.69
325.626	1678.69
325.855	2379.69
326.084	3782.69
326.313	5742.69
326.542	6104.69
326.77	3760.69
326.999	2397.69
327.228	2006.69
327.457	1882.69
327.686	1856.69
327.914	2024.69
328.143	2339.69
328.372	2734.69
328.6	2889.69
328.829	2667.69
329.058	2369.69
329.287	2094.69
329.515	1932.69
329.744	1814.69
329.972	1703.69
330.201	1604.69
330.43	1569.69
330.658	1498.69
330.887	1470.69
331.115	1487.69
331.344	1476.69
331.572	1463.69
331.801	1481.69
332.03	1508.69
332.258	1510.69
332.486	1565.69
332.715	1813.69
332.943	2175.69
333.172	2759.69
333.4	2662.69
333.629	2085.69
333.857	1869.69
334.085	1867.69
334.314	1945.69
334.542	2105.69
334.771	2402.69
334.999	2881.69
335.227	3531.69
335.455	3920.69
335.684	3634.69
335.912	3096.69
336.14	2681.69
336.369	2352.69
336.597	2139.69
336.825	1990.69
337.053	1862.69
337.281	1755.69
337.51	1721.69
337.738	1640.69
337.966	1594.69
338.194	1484.69
338.422	1472.69
338.65	1474.69
338.878	1392.69
339.106	1385.69
339.334	1400.69
339.562	1366.69
339.79	1314.69
340.018	1313.69
340.246	1308.69
340.474	1310.69
340.702	1314.69
340.93	1320.69
341.158	1331.69
341.386	1296.69
341.614	1287.69
341.842	1284.69
342.07	1272.69
342.298	1235.69
342.526	1208.69
342.754	1198.69
342.981	1164.69
343.209	1183.69
343.437	1213.69
343.665	1224.69
343.893	1220.69
344.12	1231.69
344.348	1236.69
344.576	1205.69
344.804	1194.69
345.031	1166.69
345.259	1158.69
345.487	1110.69
345.714	1124.69
345.942	1114.69
346.17	1148.69
346.397	1111.69
346.625	1121.69
346.853	1116.69
347.08	1100.69
347.308	1099.69
347.535	1105.69
347.763	1104.69
347.99	1113.69
348.218	1079.69
348.445	1088.69
348.673	1082.69
348.9	1061.69
349.128	1091.69
349.355	1050.69
349.583	1081.69
349.81	1082.69
350.037	1062.69
350.265	1059.69
350.492	1066.69
350.72	1062.69
350.947	1075.69
351.174	1059.69
351.402	1069.69
351.629	1107.69
351.856	1088.69
352.083	1036.69
352.311	1046.69
352.538	1063.69
352.765	1068.69
352.992	1047.69
353.22	1035.69
353.447	1048.69
353.674	1060.69
353.901	1065.69
354.128	1045.69
354.355	1037.69
354.583	1044.69
354.81	1092.69
355.037	1100.69
355.264	1101.69
355.491	1080.69
355.718	1074.69
355.945	1111.69
356.172	1052.69
356.399	1084.69
356.626	1099.69
356.853	1106.69
357.08	1111.69
357.307	1109.69
357.534	1155.69
357.761	1145.69
357.988	1133.69
358.215	1144.69
358.441	1132.69
358.668	1098.69
358.895	1129.69
359.122	1141.69
359.349	1120.69
359.576	1120.69
359.802	1121.69
360.029	1103.69
360.256	1130.69
360.483	1119.69
360.709	1137.69
360.936	1112.69
361.163	1089.69
361.39	1108.69
361.616	1123.69
361.843	1125.69
362.07	1105.69
362.296	1160.69
362.523	1109.69
362.749	1124.69
362.976	1108.69
363.203	1126.69
363.429	1123.69
363.656	1110.69
363.882	1151.69
364.109	1098.69
364.335	1104.69
364.562	1123.69
364.788	1159.69
365.015	1146.69
365.241	1178.69
365.468	1204.69
365.694	1230.69
365.92	1238.69
366.147	1171.69
366.373	1159.69
366.599	1162.69
366.826	1164.69
367.052	1142.69
367.278	1163.69
367.505	1176.69
367.731	1204.69
367.957	1163.69
368.184	1155.69
368.41	1199.69
368.636	1178.69
368.862	1181.69
369.089	1152.69
369.315	1203.69
369.541	1148.69
369.767	1150.69
369.993	1178.69
370.219	1156.69
370.445	1152.69
370.672	1174.69
370.898	1197.69
371.124	1174.69
371.35	1203.69
371.576	1170.69
371.802	1225.69
372.028	1206.69
372.254	1228.69
372.48	1239.69
372.706	1242.69
372.932	1257.69
373.158	1242.69
373.384	1241.69
373.61	1266.69
373.835	1225.69
374.061	1233.69
374.287	1241.69
374.513	1260.69
374.739	1259.69
374.965	1288.69
375.191	1277.69
375.416	1251.69
375.642	1284.69
375.868	1294.69
376.094	1243.69
376.319	1259.69
376.545	1237.69
376.771	1210.69
376.997	1206.69
377.222	1232.69
377.448	1213.69
377.674	1225.69
377.899	1177.69
378.125	1213.69
378.35	1239.69
378.576	1221.69
378.802	1212.69
379.027	1244.69
379.253	1275.69
379.478	1340.69
379.704	1522.69
379.929	2240.69
380.155	3404.69
380.38	3628.69
380.606	2200.69
380.831	1592.69
381.057	1396.69
381.282	1289.69
381.507	1251.69
381.733	1221.69
381.958	1222.69
382.184	1158.69
382.409	1209.69
382.634	1203.69
382.86	1172.69
383.085	1210.69
383.31	1212.69
383.535	1238.69
383.761	1208.69
383.986	1202.69
384.211	1227.69
384.436	1228.69
384.662	1241.69
384.887	1212.69
385.112	1258.69
385.337	1267.69
385.562	1241.69
385.787	1226.69
386.013	1250.69
386.238	1238.69
386.463	1234.69
386.688	1262.69
386.913	1254.69
387.138	1264.69
387.363	1246.69
387.588	1234.69
387.813	1234.69
388.038	1247.69
388.263	1233.69
388.488	1237.69
388.713	1246.69
388.938	1229.69
389.163	1256.69
389.387	1254.69
389.612	1242.69
389.837	1250.69
390.062	1251.69
390.287	1255.69
390.512	1234.69
390.736	1266.69
390.961	1260.69
391.186	1244.69
391.411	1277.69
391.636	1294.69
391.86	1309.69
392.085	1307.69
392.31	1289.69
392.534	1287.69
392.759	1296.69
392.984	1264.69
393.208	1303.69
393.433	1305.69
393.658	1298.69
393.882	1254.69
394.107	1246.69
394.331	1259.69
394.556	1241.69
394.78	1254.69
395.005	1316.69
395.229	1252.69
395.454	1266.69
395.678	1322.69
395.903	1269.69
396.127	1290.69
396.352	1246.69
396.576	1256.69
396.801	1303.69
397.025	1280.69
397.249	1329.69
397.474	1338.69
397.698	1316.69
397.922	1323.69
398.147	1346.69
398.371	1336.69
398.595	1346.69
398.82	1364.69
399.044	1466.69
399.268	1483.69
399.492	1574.69
399.717	1654.69
399.941	1609.69
400.165	1549.69
400.389	1524.69
400.613	1428.69
400.837	1398.69
401.062	1367.69
401.286	1368.69
401.51	1375.69
401.734	1351.69
401.958	1385.69
402.182	1401.69
402.406	1351.69
402.63	1381.69
402.854	1419.69
403.078	1387.69
403.302	1413.69
403.526	1412.69
403.75	1445.69
403.974	1394.69
404.198	1395.69
404.422	1447.69
404.645	1446.69
404.869	1436.69
405.093	1431.69
405.317	1400.69
405.541	1449.69
405.765	1432.69
405.988	1451.69
406.212	1476.69
406.436	1412.69
406.66	1476.69
406.883	1416.69
407.107	1496.69
407.331	1538.69
407.555	1530.69
407.778	1543.69
408.002	1510.69
408.226	1490.69
408.449	1492.69
408.673	1462.69
408.896	1464.69
409.12	1443.69
409.344	1456.69
409.567	1415.69
409.791	1413.69
410.014	1444.69
410.238	1395.69
410.461	1417.69
410.685	1413.69
410.908	1377.69
411.132	1422.69
411.355	1385.69
411.578	1343.69
411.802	1343.69
412.025	1326.69
412.249	1367.69
412.472	1375.69
412.695	1365.69
412.919	1384.69
413.142	1326.69
413.365	1362.69
413.589	1389.69
413.812	1325.69
414.035	1369.69
414.258	1344.69
414.482	1383.69
414.705	1348.69
414.928	1358.69
415.151	1361.69
415.374	1358.69
415.597	1319.69
415.821	1319.69
416.044	1318.69
416.267	1277.69
416.49	1294.69
416.713	1285.69
416.936	1307.69
417.159	1270.69
417.382	1275.69
417.605	1278.69
417.828	1284.69
418.051	1301.69
418.274	1316.69
418.497	1326.69
418.72	1348.69
418.943	1305.69
419.166	1400.69
419.389	1429.69
419.611	1434.69
419.834	1392.69
420.057	1361.69
420.28	1320.69
420.503	1321.69
420.726	1315.69
420.948	1303.69
421.171	1314.69
421.394	1302.69
421.617	1312.69
421.839	1288.69
422.062	1314.69
422.285	1318.69
422.507	1305.69
422.73	1316.69
422.953	1345.69
423.175	1342.69
423.398	1330.69
423.621	1288.69
423.843	1324.69
424.066	1324.69
424.288	1323.69
424.511	1321.69
424.733	1298.69
424.956	1329.69
425.178	1284.69
425.401	1246.69
425.623	1302.69
425.846	1285.69
426.068	1266.69
426.291	1259.69
426.513	1268.69
426.735	1246.69
426.958	1258.69
427.18	1221.69
427.402	1270.69
427.625	1243.69
427.847	1198.69
428.069	1193.69
428.292	1224.69
428.514	1208.69
428.736	1234.69
428.958	1220.69
429.181	1216.69
429.403	1211.69
429.625	1197.69
429.847	1212.69
430.069	1223.69
430.292	1224.69
430.514	1288.69
430.736	1328.69
430.958	1248.69
431.18	1156.69
431.402	1192.69
431.624	1184.69
431.846	1184.69
432.068	1180.69
432.29	1184.69
432.512	1165.69
432.734	1195.69
432.956	1195.69
433.178	1225.69
433.4	1206.69
433.622	1180.69
433.844	1221.69
434.066	1220.69
434.287	1169.69
434.509	1194.69
434.731	1206.69
434.953	1219.69
435.175	1228.69
435.397	1252.69
435.618	1209.69
435.84	1210.69
436.062	1212.69
436.284	1215.69
436.505	1188.69
436.727	1207.69
436.949	1232.69
437.17	1216.69
437.392	1164.69
437.614	1164.69
437.835	1114.69
438.057	1166.69
438.278	1152.69
438.5	1172.69
438.721	1164.69
438.943	1223.69
439.165	1230.69
439.386	1237.69
439.608	1244.69
439.829	1253.69
440.05	1305.69
440.272	1309.69
440.493	1248.69
440.715	1251.69
440.936	1230.69
441.158	1247.69
441.379	1276.69
441.6	1315.69
441.822	1336.69
442.043	1406.69
442.264	1442.69
442.486	1317.69
442.707	1294.69
442.928	1273.69
443.149	1301.69
443.371	1236.69
443.592	1312.69
443.813	1282.69
444.034	1284.69
444.255	1300.69
444.476	1361.69
444.698	1355.69
444.919	1406.69
445.14	1484.69
445.361	1383.69
445.582	1332.69
445.803	1284.69
446.024	1286.69
446.245	1289.69
446.466	1300.69
446.687	1275.69
446.908	1245.69
447.129	1225.69
447.35	1225.69
447.571	1232.69
447.792	1175.69
448.013	1210.69
448.234	1178.69
448.455	1179.69
448.675	1202.69
448.896	1197.69
449.117	1251.69
449.338	1357.69
449.559	1418.69
449.779	1286.69
450	1184.69
450.221	1147.69
450.442	1167.69
450.662	1163.69
450.883	1128.69
451.104	1134.69
451.324	1148.69
451.545	1138.69
451.766	1184.69
451.986	1161.69
452.207	1263.69
452.428	1523.69
452.648	2192.69
452.869	1878.69
453.089	1353.69
453.31	1254.69
453.53	1279.69
453.751	1320.69
453.971	1393.69
454.192	1435.69
454.412	1206.69
454.633	1188.69
454.853	1144.69
455.073	1081.69
455.294	1097.69
455.514	1088.69
455.734	1068.69
455.955	1090.69
456.175	1113.69
456.395	1086.69
456.616	1106.69
456.836	1118.69
457.056	1102.69
457.276	1102.69
457.497	1170.69
457.717	1180.69
457.937	1149.69
458.157	1180.69
458.377	1137.69
458.598	1176.69
458.818	1183.69
459.038	1201.69
459.258	1185.69
459.478	1202.69
459.698	1213.69
459.918	1225.69
460.138	1223.69
460.358	1237.69
460.578	1286.69
460.798	1271.69
461.018	1297.69
461.238	1306.69
461.458	1296.69
461.678	1289.69
461.898	1324.69
462.118	1363.69
462.338	1399.69
462.558	1362.69
462.777	1384.69
462.997	1450.69
463.217	1482.69
463.437	1558.69
463.657	1569.69
463.876	1565.69
464.096	1492.69
464.316	1432.69
464.536	1404.69
464.755	1382.69
464.975	1356.69
465.195	1333.69
465.414	1270.69
465.634	1255.69
465.854	1267.69
466.073	1226.69
466.293	1182.69
466.512	1180.69
466.732	1220.69
466.951	1292.69
467.171	1355.69
467.391	1330.69
467.61	1204.69
467.829	1172.69
468.049	1154.69
468.268	1190.69
468.488	1159.69
468.707	1152.69
468.927	1153.69
469.146	1176.69
469.365	1190.69
469.585	1204.69
469.804	1243.69
470.023	1240.69
470.243	1249.69
470.462	1305.69
470.681	1338.69
470.901	1472.69
471.12	1718.69
471.339	1746.69
471.558	1429.69
471.777	1278.69
471.997	1234.69
472.216	1206.69
472.435	1227.69
472.654	1164.69
472.873	1168.69
473.092	1147.69
473.311	1177.69
473.53	1183.69
473.749	1230.69
473.968	1229.69
474.187	1176.69
474.406	1184.69
474.625	1172.69
474.844	1202.69
475.063	1174.69
475.282	1164.69
475.501	1185.69
475.72	1200.69
475.939	1212.69
476.158	1237.69
476.377	1297.69
476.596	1213.69
476.814	1222.69
477.033	1251.69
477.252	1251.69
477.471	1299.69
477.69	1308.69
477.908	1330.69
478.127	1373.69
478.346	1347.69
478.564	1316.69
478.783	1372.69
479.002	1384.69
479.22	1399.69
479.439	1414.69
479.658	1402.69
479.876	1393.69
480.095	1392.69
480.313	1433.69
480.532	1438.69
480.751	1440.69
480.969	1419.69
481.188	1406.69
481.406	1400.69
481.624	1387.69
481.843	1394.69
482.061	1372.69
482.28	1428.69
482.498	1390.69
482.717	1378.69
482.935	1415.69
483.153	1460.69
483.372	1467.69
483.59	1501.69
483.808	1503.69
484.027	1510.69
484.245	1580.69
484.463	1806.69
484.681	2032.69
484.9	1800.69
485.118	1698.69
485.336	1628.69
485.554	1673.69
485.772	1758.69
485.99	2012.69
486.209	2222.69
486.427	1831.69
486.645	1620.69
486.863	1570.69
487.081	1518.69
487.299	1511.69
487.517	1521.69
487.735	1524.69
487.953	1535.69
488.171	1523.69
488.389	1457.69
488.607	1477.69
488.825	1478.69
489.043	1428.69
489.261	1475.69
489.479	1441.69
489.696	1480.69
489.914	1470.69
490.132	1479.69
490.35	1512.69
490.568	1481.69
490.786	1538.69
491.003	1507.69
491.221	1538.69
491.439	1568.69
491.657	1532.69
491.874	1520.69
492.092	1586.69
492.31	1587.69
492.527	1597.69
492.745	1586.69
492.963	1578.69
493.18	1545.69
493.398	1573.69
493.615	1564.69
493.833	1565.69
494.05	1564.69
494.268	1542.69
494.485	1537.69
494.703	1558.69
494.92	1557.69
495.138	1546.69
495.355	1581.69
495.573	1553.69
495.79	1586.69
496.008	1551.69
496.225	1571.69
496.442	1581.69
496.66	1630.69
496.877	1739.69
497.094	1694.69
497.312	1674.69
497.529	1643.69
497.746	1650.69
497.963	1719.69
498.181	1768.69
498.398	1796.69
498.615	1828.69
498.832	1909.69
499.049	1994.69
499.267	2088.69
499.484	2253.69
499.701	2234.69
499.918	2294.69
500.135	2492.69
500.352	2592.69
500.569	2629.69
500.786	2578.69
501.003	2504.69
501.22	2389.69
501.437	2267.69
501.654	2134.69
501.871	2052.69
502.088	1948.69
502.305	1879.69
502.522	1826.69
502.739	1804.69
502.956	1743.69
503.172	1675.69
503.389	1643.69
503.606	1597.69
503.823	1619.69
504.04	1603.69
504.256	1597.69
504.473	1572.69
504.69	1587.69
504.907	1572.69
505.123	1528.69
505.34	1503.69
505.557	1440.69
505.773	1459.69
505.99	1438.69
506.207	1421.69
506.423	1387.69
506.64	1416.69
506.856	1387.69
507.073	1378.69
507.289	1397.69
507.506	1380.69
507.722	1344.69
507.939	1316.69
508.155	1320.69
508.372	1323.69
508.588	1320.69
508.805	1344.69
509.021	1342.69
509.238	1354.69
509.454	1400.69
509.67	1472.69
509.887	1411.69
510.103	1356.69
510.319	1290.69
510.536	1317.69
510.752	1299.69
510.968	1303.69
511.184	1269.69
511.401	1248.69
511.617	1226.69
511.833	1265.69
512.049	1245.69
512.265	1241.69
512.481	1292.69
512.698	1267.69
512.914	1266.69
513.13	1278.69
513.346	1293.69
513.562	1252.69
513.778	1285.69
513.994	1272.69
514.21	1304.69
514.426	1418.69
514.642	1434.69
514.858	1350.69
515.074	1298.69
515.29	1297.69
515.506	1315.69
515.721	1290.69
515.937	1300.69
516.153	1308.69
516.369	1296.69
516.585	1321.69
516.801	1339.69
517.016	1389.69
517.232	1403.69
517.448	1406.69
517.664	1442.69
517.879	1437.69
518.095	1435.69
518.311	1429.69
518.527	1407.69
518.742	1406.69
518.958	1392.69
519.173	1422.69
519.389	1357.69
519.605	1305.69
519.82	1300.69
520.036	1339.69
520.251	1290.69
520.467	1249.69
520.682	1238.69
520.898	1219.69
521.113	1241.69
521.329	1244.69
521.544	1243.69
521.76	1264.69
521.975	1245.69
522.19	1232.69
522.406	1239.69
522.621	1257.69
522.836	1229.69
523.052	1210.69
523.267	1232.69
523.482	1209.69
523.698	1221.69
523.913	1251.69
524.128	1215.69
524.343	1245.69
524.559	1233.69
524.774	1242.69
524.989	1266.69
525.204	1226.69
525.419	1233.69
525.634	1226.69
525.849	1241.69
526.064	1204.69
526.28	1218.69
526.495	1236.69
526.71	1214.69
526.925	1214.69
527.14	1203.69
527.355	1229.69
527.57	1233.69
527.785	1235.69
527.999	1225.69
528.214	1231.69
528.429	1254.69
528.644	1286.69
528.859	1308.69
529.074	1297.69
529.289	1309.69
529.503	1334.69
529.718	1315.69
529.933	1280.69
530.148	1255.69
530.363	1285.69
530.577	1268.69
530.792	1292.69
531.007	1300.69
531.221	1330.69
531.436	1347.69
531.651	1337.69
531.865	1334.69
532.08	1373.69
532.295	1389.69
532.509	1483.69
532.724	1476.69
532.938	1485.69
533.153	1516.69
533.367	1598.69
533.582	1674.69
533.796	1648.69
534.011	1554.69
534.225	1528.69
534.44	1480.69
534.654	1480.69
534.868	1453.69
535.083	1461.69
535.297	1407.69
535.511	1402.69
535.726	1388.69
535.94	1344.69
536.154	1373.69
536.369	1281.69
536.583	1266.69
536.797	1264.69
537.011	1261.69
537.225	1264.69
537.44	1220.69
537.654	1218.69
537.868	1236.69
538.082	1211.69
538.296	1194.69
538.51	1227.69
538.724	1238.69
538.938	1204.69
539.153	1185.69
539.367	1210.69
539.581	1176.69
539.795	1195.69
540.009	1174.69
540.222	1160.69
540.436	1209.69
540.65	1202.69
540.864	1209.69
541.078	1218.69
541.292	1310.69
541.506	1552.69
541.72	1624.69
541.934	1376.69
542.147	1308.69
542.361	1294.69
542.575	1222.69
542.789	1203.69
543.002	1150.69
543.216	1149.69
543.43	1162.69
543.644	1149.69
543.857	1145.69
544.071	1150.69
544.285	1163.69
544.498	1171.69
544.712	1181.69
544.925	1193.69
545.139	1178.69
545.352	1186.69
545.566	1198.69
545.779	1202.69
545.993	1205.69
546.206	1173.69
546.42	1191.69
546.633	1181.69
546.847	1171.69
547.06	1176.69
547.274	1203.69
547.487	1200.69
547.7	1195.69
547.914	1210.69
548.127	1178.69
548.34	1194.69
548.554	1166.69
548.767	1165.69
548.98	1169.69
549.193	1180.69
549.407	1200.69
549.62	1200.69
549.833	1183.69
550.046	1175.69
550.259	1195.69
550.473	1218.69
550.686	1182.69
550.899	1172.69
551.112	1154.69
551.325	1173.69
551.538	1142.69
551.751	1142.69
551.964	1157.69
552.177	1208.69
552.39	1213.69
552.603	1249.69
552.816	1232.69
553.029	1259.69
553.242	1267.69
553.455	1301.69
553.667	1316.69
553.88	1317.69
554.093	1300.69
554.306	1301.69
554.519	1333.69
554.732	1350.69
554.944	1338.69
555.157	1371.69
555.37	1372.69
555.583	1409.69
555.795	1480.69
556.008	1598.69
556.221	1751.69
556.433	1821.69
556.646	1795.69
556.859	1778.69
557.071	1674.69
557.284	1687.69
557.496	1618.69
557.709	1621.69
557.921	1597.69
558.134	1622.69
558.346	1590.69
558.559	1656.69
558.771	1738.69
558.984	1789.69
559.196	1981.69
559.409	1905.69
559.621	1777.69
559.833	1695.69
560.046	1584.69
560.258	1520.69
560.47	1457.69
560.683	1426.69
560.895	1377.69
561.107	1337.69
561.32	1306.69
561.532	1296.69
561.744	1287.69
561.956	1236.69
562.168	1231.69
562.381	1213.69
562.593	1177.69
562.805	1220.69
563.017	1178.69
563.229	1238.69
563.441	1350.69
563.653	1211.69
563.865	1130.69
564.077	1078.69
564.289	1088.69
564.501	1070.69
564.713	1098.69
564.925	1069.69
565.137	1072.69
565.349	1072.69
565.561	1124.69
565.773	1085.69
565.985	1100.69
566.197	1144.69
566.408	1153.69
566.62	1180.69
566.832	1207.69
567.044	1200.69
567.255	1191.69
567.467	1195.69
567.679	1250.69
567.891	1323.69
568.102	1468.69
568.314	1741.69
568.526	1420.69
568.737	1244.69
568.949	1123.69
569.161	1076.69
569.372	1016.69
569.584	1022.69
569.795	951.69
570.007	983.69
570.218	993.69
570.43	992.69
570.641	976.69
570.853	904.69
571.064	932.69
571.276	907.69
571.487	907.69
571.698	902.69
571.91	896.69
572.121	875.69
572.333	844.69
572.544	883.69
572.755	912.69
572.966	1085.69
573.178	953.69
573.389	858.69
573.6	850.69
573.811	817.69
574.023	802.69
574.234	793.69
574.445	798.69
574.656	776.69
574.867	816.69
575.078	778.69
575.289	792.69
575.501	800.69
575.712	796.69
575.923	799.69
576.134	757.69
576.345	781.69
576.556	782.69
576.767	782.69
576.978	800.69
577.188	794.69
577.399	796.69
577.61	791.69
577.821	819.69
578.032	783.69
578.243	812.69
578.454	836.69
578.665	853.69
578.875	869.69
579.086	889.69
579.297	932.69
579.508	956.69
579.718	1026.69
579.929	1155.69
580.14	1298.69
580.35	1326.69
580.561	1254.69
580.772	1155.69
580.982	1107.69
581.193	999.69
581.403	981.69
581.614	922.69
581.825	904.69
582.035	862.69
582.246	842.69
582.456	830.69
582.667	801.69
582.877	816.69
583.087	780.69
583.298	786.69
583.508	728.69
583.719	724.69
583.929	712.69
584.139	690.69
584.35	701.69
584.56	683.69
584.77	686.69
584.981	678.69
585.191	664.69
585.401	640.69
585.611	648.69
585.821	673.69
586.032	640.69
586.242	632.69
586.452	616.69
586.662	617.69
586.872	612.69
587.082	600.69
587.292	600.69
587.502	605.69
587.713	593.69
587.923	613.69
588.133	582.69
588.343	581.69
588.553	585.69
588.762	553.69
588.972	596.69
589.182	606.69
589.392	572.69
589.602	582.69
589.812	596.69
590.022	567.69
590.232	558.69
590.441	550.69
590.651	573.69
590.861	554.69
591.071	555.69
591.281	560.69
591.49	552.69
591.7	570.69
591.91	564.69
592.119	560.69
592.329	574.69
592.539	580.69
592.748	585.69
592.958	566.69
593.167	601.69
593.377	578.69
593.587	597.69
593.796	578.69
594.006	584.69
594.215	603.69
594.424	605.69
594.634	580.69
594.843	572.69
595.053	569.69
595.262	557.69
595.472	550.69
595.681	545.69
595.89	524.69
596.1	519.69
596.309	526.69
596.518	532.69
596.727	498.69
596.937	503.69
597.146	493.69
597.355	493.69
597.564	495.69
597.774	485.69
597.983	479.69
598.192	473.69
598.401	478.69
598.61	482.69
598.819	476.69
599.028	485.69
599.237	470.69
599.446	492.69
599.655	487.69
599.864	477.69
600.073	484.69
600.282	473.69
600.491	455.69
600.7	471.69
600.909	489.69
601.118	466.69
601.327	460.69
601.536	494.69
601.745	472.69
601.953	537.69
602.162	587.69
602.371	520.69
602.58	487.69
602.789	463.69
602.997	473.69
603.206	469.69
603.415	463.69
603.623	440.69
603.832	448.69
604.041	434.69
604.249	462.69
604.458	436.69
604.666	454.69
604.875	450.69
605.084	438.69
605.292	453.69
605.501	443.69
605.709	449.69
605.918	445.69
606.126	452.69
606.334	467.69
606.543	470.69
606.751	488.69
606.96	563.69
607.168	618.69
607.376	514.69
607.585	465.69
607.793	462.69
608.001	452.69
608.21	458.69
608.418	452.69
608.626	418.69
608.834	430.69
609.043	452.69
609.251	448.69
609.459	434.69
609.667	444.69
609.875	434.69
610.083	433.69
610.291	415.69
610.499	409.69
610.707	440.69
610.916	418.69
611.124	428.69
611.332	431.69
611.54	430.69
611.748	420.69
611.955	424.69
612.163	420.69
612.371	417.69
612.579	412.69
612.787	410.69
612.995	402.69
613.203	421.69
613.411	389.69
613.618	397.69
613.826	421.69
614.034	406.69
614.242	406.69
614.449	409.69
614.657	417.69
614.865	396.69
615.072	420.69
615.28	415.69
615.488	412.69
615.695	422.69
615.903	430.69
616.111	424.69
616.318	404.69
616.526	405.69
616.733	419.69
616.941	415.69
617.148	432.69
617.356	394.69
617.563	399.69
617.771	390.69
617.978	395.69
618.185	396.69
618.393	396.69
618.6	393.69
618.807	399.69
619.015	392.69
619.222	392.69
619.429	382.69
619.637	377.69
619.844	398.69
620.051	389.69
620.258	386.69
620.466	370.69
620.673	361.69
620.88	355.69
621.087	368.69
621.294	378.69
621.501	372.69
621.708	354.69
621.915	361.69
622.122	362.69
622.329	367.69
622.536	370.69
622.743	354.69
622.95	360.69
623.157	334.69
623.364	365.69
623.571	382.69
623.778	348.69
623.985	369.69
624.192	356.69
624.399	338.69
624.606	362.69
624.812	364.69
625.019	353.69
625.226	364.69
625.433	334.69
625.639	341.69
625.846	343.69
626.053	330.69
626.259	329.69
626.466	325.69
626.673	325.69
626.879	320.69
627.086	321.69
627.293	339.69
627.499	339.69
627.706	336.69
627.912	328.69
628.119	351.69
628.325	344.69
628.532	354.69
628.738	335.69
628.945	333.69
629.151	319.69
629.357	315.69
629.564	328.69
629.77	335.69
629.976	314.69
630.183	312.69
630.389	322.69
630.595	323.69
630.802	339.69
631.008	317.69
631.214	322.69
631.42	337.69
631.627	309.69
631.833	324.69
632.039	316.69
632.245	336.69
632.451	315.69
632.657	320.69
632.863	316.69
633.069	316.69
633.275	317.69
633.481	304.69
633.688	308.69
633.893	336.69
634.099	305.69
634.305	314.69
634.511	317.69
634.717	337.69
634.923	334.69
635.129	358.69
635.335	424.69
635.541	358.69
635.747	344.69
635.952	336.69
636.158	321.69
636.364	326.69
636.57	309.69
636.775	320.69
636.981	319.69
637.187	311.69
637.392	317.69
637.598	321.69
637.804	315.69
638.009	302.69
638.215	309.69
638.421	307.69
638.626	317.69
638.832	315.69
639.037	319.69
639.243	325.69
639.448	317.69
639.654	309.69
639.859	315.69
640.065	312.69
640.27	342.69
640.475	326.69
640.681	334.69
640.886	323.69
641.091	325.69
641.297	349.69
641.502	342.69
641.707	324.69
641.913	345.69
642.118	342.69
642.323	343.69
642.528	356.69
642.733	358.69
642.939	362.69
643.144	372.69
643.349	393.69
643.554	392.69
643.759	402.69
643.964	422.69
644.169	439.69
644.374	448.69
644.579	502.69
644.784	545.69
644.989	599.69
645.194	673.69
645.399	806.69
645.604	831.69
645.809	664.69
646.014	512.69
646.219	456.69
646.423	392.69
646.628	376.69
646.833	372.69
647.038	357.69
647.243	343.69
647.447	330.69
647.652	316.69
647.857	318.69
648.062	307.69
648.266	320.69
648.471	316.69
648.676	312.69
648.88	285.69
649.085	296.69
649.289	288.69
649.494	300.69
649.698	276.69
649.903	263.69
650.107	273.69
650.312	265.69
650.516	260.69
650.721	252.69
650.925	243.69
651.13	253.69
651.334	253.69
651.539	232.69
651.743	240.69
651.947	242.69
652.152	239.69
652.356	249.69
652.56	254.69
652.764	286.69
652.969	261.69
653.173	232.69
653.377	238.69
653.581	220.69
653.785	213.69
653.99	219.69
654.194	219.69
654.398	211.69
654.602	207.69
654.806	221.69
655.01	189.69
655.214	184.69
655.418	216.69
655.622	208.69
655.826	222.69
656.03	204.69
656.234	231.69
656.438	238.69
656.642	240.69
656.846	230.69
657.049	215.69
657.253	203.69
657.457	184.69
657.661	191.69
657.865	174.69
658.068	173.69
658.272	168.69
658.476	161.69
658.68	149.69
658.883	143.69
659.087	141.69
659.291	140.69
659.494	126.69
659.698	141.69
659.901	137.69
660.105	132.69
660.309	132.69
660.512	124.69
660.716	128.69
660.919	121.69
661.123	125.69
661.326	124.69
661.53	83.69
661.733	99.69
661.936	101.69
662.14	101.69
662.343	102.69
662.546	81.69
662.75	99.69
662.953	86.69
663.156	86.69
663.36	89.69
663.563	75.69
663.766	84.69
663.969	90.69
664.173	84.69
664.376	85.69
664.579	93.69
664.782	78.69
664.985	75.69
665.188	85.69
665.391	95.69
665.594	92.69
665.797	80.69
666	78.69
666.203	77.69
666.406	75.69
666.609	97.69
666.812	84.69
667.015	81.69
667.218	91.69
667.421	100.69
667.624	87.69
667.827	83.69
668.03	69.69
668.232	81.69
668.435	90.69
668.638	84.69
668.841	73.69
669.043	77.69
669.246	86.69
669.449	86.69
669.651	87.69
669.854	72.69
670.057	76.69
670.259	81.69
670.462	94.69
670.665	82.69
670.867	81.69
671.07	91.69
671.272	86.69
671.475	92.69
671.677	86.69
671.88	79.69
672.082	76.69
672.284	77.69
672.487	84.69
672.689	77.69
672.892	97.69
