Data from SnStandardFlinnAPT0064_LampEnergy10_LIBS07252019.E.O._I.C._HRD10591_15-20-51-494.txt Node
Date: Thu Jul 25 15:20:51 EDT 2019
User: cochatt
Spectrometer: HR+D1059
Trigger mode: 1
Integration Time (sec): 1.000000E-1
Scans to average: 1
Electric dark correction enabled: true
Nonlinearity correction enabled: false
Boxcar width: 0
XAxis mode: Wavelengths
Number of Pixels in Spectrum: 2048
>>>>>Begin Spectral Data<<<<<
223.165	-29.06
223.4	-29.06
223.635	-29.06
223.869	-22.06
224.104	-9.06
224.338	-11.06
224.573	-15.06
224.808	-19.06
225.042	-0.06
225.277	-0.06
225.511	-1.06
225.746	14.94
225.98	6.94
226.215	14.94
226.449	2.94
226.683	5.94
226.918	26.94
227.152	33.94
227.387	45.94
227.621	28.94
227.856	45.94
228.09	39.94
228.324	37.94
228.559	40.94
228.793	129.94
229.027	310.94
229.262	317.94
229.496	312.94
229.73	290.94
229.964	306.94
230.199	299.94
230.433	324.94
230.667	314.94
230.901	319.94
231.136	339.94
231.37	360.94
231.604	377.94
231.838	429.94
232.072	511.94
232.306	574.94
232.541	466.94
232.775	410.94
233.009	403.94
233.243	428.94
233.477	476.94
233.711	512.94
233.945	578.94
234.179	504.94
234.413	440.94
234.647	458.94
234.881	467.94
235.115	522.94
235.349	612.94
235.583	767.94
235.817	981.94
236.051	957.94
236.285	672.94
236.519	541.94
236.753	511.94
236.987	510.94
237.221	530.94
237.455	515.94
237.689	467.94
237.922	448.94
238.156	469.94
238.39	490.94
238.624	488.94
238.858	477.94
239.091	468.94
239.325	494.94
239.559	499.94
239.793	495.94
240.027	498.94
240.26	530.94
240.494	563.94
240.728	578.94
240.961	610.94
241.195	638.94
241.429	690.94
241.662	697.94
241.896	773.94
242.13	953.94
242.363	1213.94
242.597	1587.94
242.83	1513.94
243.064	1542.94
243.298	1795.94
243.531	1474.94
243.765	950.94
243.998	769.94
244.232	710.94
244.465	663.94
244.699	662.94
244.932	677.94
245.166	709.94
245.399	685.94
245.633	675.94
245.866	712.94
246.099	669.94
246.333	662.94
246.566	653.94
246.8	654.94
247.033	626.94
247.266	658.94
247.5	667.94
247.733	687.94
247.966	706.94
248.2	780.94
248.433	892.94
248.666	1007.94
248.899	927.94
249.133	853.94
249.366	875.94
249.599	963.94
249.832	1065.94
250.066	1063.94
250.299	849.94
250.532	792.94
250.765	745.94
250.998	734.94
251.231	742.94
251.465	745.94
251.698	722.94
251.931	738.94
252.164	749.94
252.397	773.94
252.63	789.94
252.863	815.94
253.096	788.94
253.329	781.94
253.562	758.94
253.795	797.94
254.028	818.94
254.261	811.94
254.494	883.94
254.727	1036.94
254.96	1222.94
255.193	1224.94
255.426	1008.94
255.659	847.94
255.892	863.94
256.124	872.94
256.357	881.94
256.59	911.94
256.823	988.94
257.056	1134.94
257.289	1374.94
257.521	1479.94
257.754	1183.94
257.987	954.94
258.22	908.94
258.452	902.94
258.685	939.94
258.918	978.94
259.151	982.94
259.383	1099.94
259.616	1193.94
259.849	1281.94
260.081	1118.94
260.314	981.94
260.547	924.94
260.779	926.94
261.012	952.94
261.244	971.94
261.477	964.94
261.71	976.94
261.942	1022.94
262.175	1031.94
262.407	1043.94
262.64	1061.94
262.872	1104.94
263.105	1154.94
263.337	1226.94
263.57	1240.94
263.802	1272.94
264.035	1318.94
264.267	1327.94
264.499	1361.94
264.732	1417.94
264.964	1437.94
265.197	1464.94
265.429	1460.94
265.661	1481.94
265.894	1583.94
266.126	1746.94
266.358	1969.94
266.591	1910.94
266.823	1638.94
267.055	1480.94
267.287	1383.94
267.52	1352.94
267.752	1279.94
267.984	1285.94
268.216	1305.94
268.448	1261.94
268.681	1240.94
268.913	1218.94
269.145	1239.94
269.377	1231.94
269.609	1205.94
269.841	1265.94
270.073	1389.94
270.306	1597.94
270.538	2122.94
270.77	3168.94
271.002	3889.94
271.234	2801.94
271.466	1864.94
271.698	1511.94
271.93	1388.94
272.162	1320.94
272.394	1307.94
272.626	1242.94
272.858	1221.94
273.09	1227.94
273.322	1242.94
273.553	1205.94
273.785	1191.94
274.017	1206.94
274.249	1176.94
274.481	1225.94
274.713	1175.94
274.945	1206.94
275.176	1221.94
275.408	1210.94
275.64	1206.94
275.872	1252.94
276.104	1253.94
276.335	1287.94
276.567	1257.94
276.799	1256.94
277.031	1291.94
277.262	1324.94
277.494	1401.94
277.726	1569.94
277.957	1843.94
278.189	2100.94
278.421	1991.94
278.652	1758.94
278.884	1633.94
279.115	1501.94
279.347	1451.94
279.579	1373.94
279.81	1359.94
280.042	1398.94
280.273	1401.94
280.505	1443.94
280.736	1488.94
280.968	1597.94
281.199	1784.94
281.431	2013.94
281.662	2131.94
281.894	1778.94
282.125	1643.94
282.356	1648.94
282.588	1685.94
282.819	1714.94
283.051	1837.94
283.282	1987.94
283.513	2471.94
283.745	3556.94
283.976	5530.94
284.207	7891.94
284.439	7196.94
284.67	4531.94
284.901	3764.94
285.132	3792.94
285.364	3570.94
285.595	2704.94
285.826	2379.94
286.057	2862.94
286.288	3869.94
286.52	5072.94
286.751	4761.94
286.982	3080.94
287.213	2314.94
287.444	2000.94
287.675	1867.94
287.906	1830.94
288.138	1725.94
288.369	1693.94
288.6	1726.94
288.831	1671.94
289.062	1637.94
289.293	1627.94
289.524	1716.94
289.755	1693.94
289.986	1695.94
290.217	1694.94
290.448	1689.94
290.679	1736.94
290.91	1768.94
291.141	1864.94
291.371	2027.94
291.602	2134.94
291.833	1943.94
292.064	1778.94
292.295	1718.94
292.526	1661.94
292.757	1643.94
292.987	1599.94
293.218	1587.94
293.449	1597.94
293.68	1558.94
293.91	1569.94
294.141	1532.94
294.372	1577.94
294.603	1557.94
294.833	1573.94
295.064	1560.94
295.295	1570.94
295.525	1561.94
295.756	1552.94
295.987	1584.94
296.217	1599.94
296.448	1571.94
296.679	1588.94
296.909	1578.94
297.14	1619.94
297.37	1653.94
297.601	1646.94
297.831	1610.94
298.062	1659.94
298.292	1616.94
298.523	1681.94
298.753	1702.94
298.984	1704.94
299.214	1732.94
299.445	1752.94
299.675	1738.94
299.905	1846.94
300.136	1922.94
300.366	2118.94
300.597	2717.94
300.827	3719.94
301.057	5180.94
301.288	5179.94
301.518	3409.94
301.748	2632.94
301.979	2392.94
302.209	2280.94
302.439	2359.94
302.669	2441.94
302.9	2926.94
303.13	4118.94
303.36	6075.94
303.59	8010.94
303.82	7097.94
304.051	4221.94
304.281	3093.94
304.511	2562.94
304.741	2363.94
304.971	2236.94
305.201	2081.94
305.431	2008.94
305.661	1969.94
305.891	1896.94
306.121	1879.94
306.352	1906.94
306.582	1857.94
306.812	1839.94
307.042	1868.94
307.272	1840.94
307.502	1848.94
307.731	1847.94
307.961	1804.94
308.191	1815.94
308.421	1791.94
308.651	1837.94
308.881	1853.94
309.111	1823.94
309.341	1845.94
309.571	1853.94
309.8	1844.94
310.03	1839.94
310.26	1847.94
310.49	1850.94
310.72	1870.94
310.949	1835.94
311.179	1927.94
311.409	1886.94
311.639	1920.94
311.868	1942.94
312.098	1951.94
312.328	1968.94
312.557	1954.94
312.787	1990.94
313.017	1995.94
313.246	1990.94
313.476	2008.94
313.706	2081.94
313.935	2172.94
314.165	2345.94
314.394	2435.94
314.624	2358.94
314.853	2189.94
315.083	2145.94
315.312	2199.94
315.542	2185.94
315.771	2175.94
316.001	2231.94
316.23	2342.94
316.46	2435.94
316.689	2690.94
316.919	3221.94
317.148	4533.94
317.377	6987.94
317.607	10090.94
317.836	10663.94
318.065	6545.94
318.295	4337.94
318.524	3437.94
318.753	3000.94
318.983	2769.94
319.212	2563.94
319.441	2514.94
319.67	2440.94
319.9	2436.94
320.129	2346.94
320.358	2307.94
320.587	2363.94
320.816	2347.94
321.046	2359.94
321.275	2354.94
321.504	2421.94
321.733	2449.94
321.962	2490.94
322.191	2517.94
322.42	2507.94
322.649	2467.94
322.878	2507.94
323.108	2471.94
323.337	2507.94
323.566	2571.94
323.795	2638.94
324.024	2668.94
324.253	2733.94
324.482	2843.94
324.71	2986.94
324.939	3237.94
325.168	3228.94
325.397	3409.94
325.626	4058.94
325.855	5579.94
326.084	8618.94
326.313	12458.94
326.542	13305.94
326.77	9155.94
326.999	5966.94
327.228	5065.94
327.457	4765.94
327.686	4891.94
327.914	5202.94
328.143	6112.94
328.372	7194.94
328.6	7801.94
328.829	7091.94
329.058	5916.94
329.287	5119.94
329.515	4645.94
329.744	4373.94
329.972	4108.94
330.201	3914.94
330.43	3786.94
330.658	3658.94
330.887	3559.94
331.115	3517.94
331.344	3462.94
331.572	3475.94
331.801	3488.94
332.03	3602.94
332.258	3534.94
332.486	3849.94
332.715	4327.94
332.943	5234.94
333.172	6579.94
333.4	6573.94
333.629	5005.94
333.857	4513.94
334.085	4468.94
334.314	4745.94
334.542	5192.94
334.771	6103.94
334.999	7511.94
335.227	9449.94
335.455	10517.94
335.684	9576.94
335.912	7845.94
336.14	6593.94
336.369	5728.94
336.597	5297.94
336.825	4834.94
337.053	4554.94
337.281	4259.94
337.51	4058.94
337.738	3922.94
337.966	3788.94
338.194	3600.94
338.422	3499.94
338.65	3351.94
338.878	3336.94
339.106	3249.94
339.334	3223.94
339.562	3210.94
339.79	3074.94
340.018	3122.94
340.246	2998.94
340.474	3080.94
340.702	3078.94
340.93	3049.94
341.158	3015.94
341.386	3028.94
341.614	3000.94
341.842	2919.94
342.07	2901.94
342.298	2839.94
342.526	2834.94
342.754	2741.94
342.981	2729.94
343.209	2710.94
343.437	2778.94
343.665	2840.94
343.893	2823.94
344.12	2812.94
344.348	2805.94
344.576	2694.94
344.804	2726.94
345.031	2645.94
345.259	2628.94
345.487	2599.94
345.714	2590.94
345.942	2555.94
346.17	2586.94
346.397	2566.94
346.625	2544.94
346.853	2551.94
347.08	2517.94
347.308	2510.94
347.535	2521.94
347.763	2541.94
347.99	2512.94
348.218	2492.94
348.445	2460.94
348.673	2503.94
348.9	2469.94
349.128	2473.94
349.355	2406.94
349.583	2440.94
349.81	2386.94
350.037	2369.94
350.265	2410.94
350.492	2403.94
350.72	2439.94
350.947	2413.94
351.174	2406.94
351.402	2401.94
351.629	2433.94
351.856	2389.94
352.083	2399.94
352.311	2401.94
352.538	2388.94
352.765	2414.94
352.992	2372.94
353.22	2377.94
353.447	2403.94
353.674	2388.94
353.901	2383.94
354.128	2393.94
354.355	2431.94
354.583	2396.94
354.81	2415.94
355.037	2475.94
355.264	2433.94
355.491	2490.94
355.718	2433.94
355.945	2468.94
356.172	2493.94
356.399	2507.94
356.626	2507.94
356.853	2512.94
357.08	2503.94
357.307	2542.94
357.534	2588.94
357.761	2624.94
357.988	2585.94
358.215	2586.94
358.441	2543.94
358.668	2545.94
358.895	2582.94
359.122	2538.94
359.349	2526.94
359.576	2533.94
359.802	2569.94
360.029	2529.94
360.256	2602.94
360.483	2519.94
360.709	2562.94
360.936	2577.94
361.163	2571.94
361.39	2574.94
361.616	2552.94
361.843	2529.94
362.07	2565.94
362.296	2580.94
362.523	2584.94
362.749	2558.94
362.976	2546.94
363.203	2548.94
363.429	2550.94
363.656	2560.94
363.882	2522.94
364.109	2519.94
364.335	2564.94
364.562	2563.94
364.788	2542.94
365.015	2567.94
365.241	2665.94
365.468	2802.94
365.694	2949.94
365.92	2830.94
366.147	2623.94
366.373	2632.94
366.599	2632.94
366.826	2597.94
367.052	2585.94
367.278	2626.94
367.505	2594.94
367.731	2659.94
367.957	2639.94
368.184	2642.94
368.41	2658.94
368.636	2671.94
368.862	2675.94
369.089	2652.94
369.315	2617.94
369.541	2673.94
369.767	2695.94
369.993	2639.94
370.219	2656.94
370.445	2658.94
370.672	2676.94
370.898	2651.94
371.124	2719.94
371.35	2738.94
371.576	2784.94
371.802	2752.94
372.028	2759.94
372.254	2734.94
372.48	2784.94
372.706	2802.94
372.932	2749.94
373.158	2801.94
373.384	2783.94
373.61	2827.94
373.835	2824.94
374.061	2796.94
374.287	2879.94
374.513	2863.94
374.739	2866.94
374.965	2856.94
375.191	2931.94
375.416	2934.94
375.642	2872.94
375.868	2829.94
376.094	2801.94
376.319	2819.94
376.545	2783.94
376.771	2739.94
376.997	2728.94
377.222	2717.94
377.448	2731.94
377.674	2730.94
377.899	2744.94
378.125	2747.94
378.35	2737.94
378.576	2771.94
378.802	2748.94
379.027	2831.94
379.253	2916.94
379.478	3012.94
379.704	3510.94
379.929	5077.94
380.155	7687.94
380.38	8433.94
380.606	5286.94
380.831	3732.94
381.057	3266.94
381.282	2923.94
381.507	2897.94
381.733	2825.94
381.958	2713.94
382.184	2691.94
382.409	2738.94
382.634	2682.94
382.86	2671.94
383.085	2705.94
383.31	2736.94
383.535	2702.94
383.761	2656.94
383.986	2705.94
384.211	2723.94
384.436	2791.94
384.662	2774.94
384.887	2817.94
385.112	2719.94
385.337	2776.94
385.562	2775.94
385.787	2798.94
386.013	2816.94
386.238	2787.94
386.463	2775.94
386.688	2752.94
386.913	2703.94
387.138	2755.94
387.363	2785.94
387.588	2805.94
387.813	2776.94
388.038	2760.94
388.263	2738.94
388.488	2753.94
388.713	2826.94
388.938	2774.94
389.163	2771.94
389.387	2747.94
389.612	2712.94
389.837	2805.94
390.062	2758.94
390.287	2796.94
390.512	2829.94
390.736	2853.94
390.961	2914.94
391.186	2911.94
391.411	2901.94
391.636	2951.94
391.86	2932.94
392.085	2916.94
392.31	2904.94
392.534	2830.94
392.759	2845.94
392.984	2842.94
393.208	2861.94
393.433	2856.94
393.658	2854.94
393.882	2779.94
394.107	2773.94
394.331	2826.94
394.556	2807.94
394.78	2824.94
395.005	2869.94
395.229	2865.94
395.454	2902.94
395.678	2927.94
395.903	2913.94
396.127	2900.94
396.352	2831.94
396.576	2843.94
396.801	2875.94
397.025	2910.94
397.249	2945.94
397.474	2931.94
397.698	2907.94
397.922	2961.94
398.147	2953.94
398.371	2941.94
398.595	3038.94
398.82	3080.94
399.044	3258.94
399.268	3332.94
399.492	3477.94
399.717	3647.94
399.941	3675.94
400.165	3544.94
400.389	3375.94
400.613	3269.94
400.837	3158.94
401.062	3179.94
401.286	3044.94
401.51	3062.94
401.734	3006.94
401.958	3080.94
402.182	3006.94
402.406	3073.94
402.63	3054.94
402.854	3126.94
403.078	3123.94
403.302	3135.94
403.526	3167.94
403.75	3137.94
403.974	3191.94
404.198	3160.94
404.422	3163.94
404.645	3186.94
404.869	3125.94
405.093	3189.94
405.317	3152.94
405.541	3232.94
405.765	3247.94
405.988	3365.94
406.212	3290.94
406.436	3269.94
406.66	3280.94
406.883	3223.94
407.107	3401.94
407.331	3387.94
407.555	3486.94
407.778	3441.94
408.002	3384.94
408.226	3379.94
408.449	3385.94
408.673	3280.94
408.896	3286.94
409.12	3207.94
409.344	3243.94
409.567	3222.94
409.791	3165.94
410.014	3175.94
410.238	3117.94
410.461	3166.94
410.685	3121.94
410.908	3084.94
411.132	3117.94
411.355	3020.94
411.578	3045.94
411.802	2986.94
412.025	3057.94
412.249	3076.94
412.472	3044.94
412.695	3016.94
412.919	2955.94
413.142	3045.94
413.365	2995.94
413.589	3002.94
413.812	2963.94
414.035	2950.94
414.258	2983.94
414.482	2963.94
414.705	3027.94
414.928	3014.94
415.151	2973.94
415.374	2920.94
415.597	2939.94
415.821	2911.94
416.044	2922.94
416.267	2864.94
416.49	2865.94
416.713	2861.94
416.936	2898.94
417.159	2833.94
417.382	2872.94
417.605	2813.94
417.828	2819.94
418.051	2889.94
418.274	2937.94
418.497	2913.94
418.72	2954.94
418.943	2938.94
419.166	3087.94
419.389	3225.94
419.611	3203.94
419.834	3068.94
420.057	2973.94
420.28	2902.94
420.503	2869.94
420.726	2827.94
420.948	2835.94
421.171	2891.94
421.394	2845.94
421.617	2822.94
421.839	2856.94
422.062	2917.94
422.285	2829.94
422.507	2870.94
422.73	2901.94
422.953	2963.94
423.175	2953.94
423.398	2954.94
423.621	2911.94
423.843	2959.94
424.066	2896.94
424.288	2855.94
424.511	2846.94
424.733	2861.94
424.956	2853.94
425.178	2797.94
425.401	2856.94
425.623	2840.94
425.846	2769.94
426.068	2782.94
426.291	2755.94
426.513	2737.94
426.735	2766.94
426.958	2691.94
427.18	2708.94
427.402	2726.94
427.625	2734.94
427.847	2693.94
428.069	2605.94
428.292	2759.94
428.514	2627.94
428.736	2687.94
428.958	2644.94
429.181	2585.94
429.403	2582.94
429.625	2622.94
429.847	2673.94
430.069	2690.94
430.292	2737.94
430.514	2866.94
430.736	2882.94
430.958	2700.94
431.18	2633.94
431.402	2615.94
431.624	2597.94
431.846	2622.94
432.068	2578.94
432.29	2636.94
432.512	2559.94
432.734	2640.94
432.956	2603.94
433.178	2674.94
433.4	2624.94
433.622	2681.94
433.844	2704.94
434.066	2663.94
434.287	2621.94
434.509	2737.94
434.731	2767.94
434.953	2750.94
435.175	2754.94
435.397	2798.94
435.618	2677.94
435.84	2648.94
436.062	2568.94
436.284	2682.94
436.505	2589.94
436.727	2651.94
436.949	2613.94
437.17	2590.94
437.392	2539.94
437.614	2567.94
437.835	2559.94
438.057	2607.94
438.278	2509.94
438.5	2557.94
438.721	2585.94
438.943	2682.94
439.165	2766.94
439.386	2746.94
439.608	2708.94
439.829	2685.94
440.05	2789.94
440.272	2794.94
440.493	2739.94
440.715	2662.94
440.936	2706.94
441.158	2735.94
441.379	2766.94
441.6	2864.94
441.822	2989.94
442.043	3062.94
442.264	3177.94
442.486	2941.94
442.707	2896.94
442.928	2799.94
443.149	2797.94
443.371	2757.94
443.592	2785.94
443.813	2857.94
444.034	2874.94
444.255	2933.94
444.476	2925.94
444.698	3000.94
444.919	3064.94
445.14	3097.94
445.361	2941.94
445.582	2935.94
445.803	2805.94
446.024	2744.94
446.245	2853.94
446.466	2817.94
446.687	2777.94
446.908	2783.94
447.129	2667.94
447.35	2646.94
447.571	2627.94
447.792	2553.94
448.013	2616.94
448.234	2579.94
448.455	2564.94
448.675	2608.94
448.896	2609.94
449.117	2805.94
449.338	2978.94
449.559	3099.94
449.779	2811.94
450	2626.94
450.221	2581.94
450.442	2538.94
450.662	2516.94
450.883	2546.94
451.104	2562.94
451.324	2535.94
451.545	2526.94
451.766	2571.94
451.986	2619.94
452.207	2800.94
452.428	3608.94
452.648	5389.94
452.869	4643.94
453.089	3179.94
453.31	2976.94
453.53	2978.94
453.751	2991.94
453.971	3155.94
454.192	3073.94
454.412	2743.94
454.633	2556.94
454.853	2489.94
455.073	2447.94
455.294	2467.94
455.514	2449.94
455.734	2416.94
455.955	2391.94
456.175	2411.94
456.395	2461.94
456.616	2449.94
456.836	2432.94
457.056	2466.94
457.276	2459.94
457.497	2601.94
457.717	2642.94
457.937	2589.94
458.157	2565.94
458.377	2611.94
458.598	2608.94
458.818	2617.94
459.038	2631.94
459.258	2656.94
459.478	2695.94
459.698	2665.94
459.918	2659.94
460.138	2724.94
460.358	2791.94
460.578	2827.94
460.798	2867.94
461.018	2832.94
461.238	2893.94
461.458	2936.94
461.678	2929.94
461.898	3007.94
462.118	2991.94
462.338	3060.94
462.558	3063.94
462.777	3127.94
462.997	3263.94
463.217	3384.94
463.437	3465.94
463.657	3542.94
463.876	3498.94
464.096	3378.94
464.316	3270.94
464.536	3189.94
464.755	3056.94
464.975	3007.94
465.195	2888.94
465.414	2858.94
465.634	2757.94
465.854	2755.94
466.073	2706.94
466.293	2684.94
466.512	2642.94
466.732	2693.94
466.951	2765.94
467.171	2997.94
467.391	2942.94
467.61	2709.94
467.829	2652.94
468.049	2589.94
468.268	2575.94
468.488	2569.94
468.707	2570.94
468.927	2545.94
469.146	2600.94
469.365	2653.94
469.585	2672.94
469.804	2676.94
470.023	2730.94
470.243	2760.94
470.462	2870.94
470.681	2947.94
470.901	3334.94
471.12	3779.94
471.339	3704.94
471.558	3154.94
471.777	2931.94
471.997	2772.94
472.216	2721.94
472.435	2649.94
472.654	2660.94
472.873	2541.94
473.092	2570.94
473.311	2601.94
473.53	2620.94
473.749	2672.94
473.968	2755.94
474.187	2666.94
474.406	2615.94
474.625	2621.94
474.844	2578.94
475.063	2593.94
475.282	2645.94
475.501	2618.94
475.72	2678.94
475.939	2673.94
476.158	2717.94
476.377	2776.94
476.596	2750.94
476.814	2755.94
477.033	2757.94
477.252	2754.94
477.471	2820.94
477.69	2865.94
477.908	2892.94
478.127	2955.94
478.346	2972.94
478.564	3010.94
478.783	3044.94
479.002	3081.94
479.22	3054.94
479.439	3089.94
479.658	3077.94
479.876	3136.94
480.095	3167.94
480.313	3243.94
480.532	3263.94
480.751	3252.94
480.969	3201.94
481.188	3195.94
481.406	3145.94
481.624	3129.94
481.843	3176.94
482.061	3189.94
482.28	3167.94
482.498	3179.94
482.717	3178.94
482.935	3149.94
483.153	3233.94
483.372	3231.94
483.59	3244.94
483.808	3316.94
484.027	3393.94
484.245	3606.94
484.463	4022.94
484.681	4403.94
484.9	4097.94
485.118	3821.94
485.336	3769.94
485.554	3810.94
485.772	3988.94
485.99	4487.94
486.209	4769.94
486.427	4132.94
486.645	3698.94
486.863	3559.94
487.081	3417.94
487.299	3401.94
487.517	3414.94
487.735	3395.94
487.953	3375.94
488.171	3381.94
488.389	3359.94
488.607	3281.94
488.825	3274.94
489.043	3235.94
489.261	3185.94
489.479	3188.94
489.696	3228.94
489.914	3311.94
490.132	3323.94
490.35	3299.94
490.568	3357.94
490.786	3316.94
491.003	3309.94
491.221	3350.94
491.439	3365.94
491.657	3368.94
491.874	3395.94
492.092	3455.94
492.31	3429.94
492.527	3397.94
492.745	3439.94
492.963	3407.94
493.18	3424.94
493.398	3393.94
493.615	3411.94
493.833	3382.94
494.05	3408.94
494.268	3429.94
494.485	3411.94
494.703	3394.94
494.92	3428.94
495.138	3466.94
495.355	3437.94
495.573	3438.94
495.79	3434.94
496.008	3475.94
496.225	3453.94
496.442	3520.94
496.66	3637.94
496.877	3799.94
497.094	3809.94
497.312	3690.94
497.529	3687.94
497.746	3761.94
497.963	3801.94
498.181	3877.94
498.398	3989.94
498.615	4057.94
498.832	4202.94
499.049	4433.94
499.267	4773.94
499.484	5066.94
499.701	5043.94
499.918	5193.94
500.135	5434.94
500.352	5686.94
500.569	5727.94
500.786	5700.94
501.003	5551.94
501.22	5265.94
501.437	5006.94
501.654	4735.94
501.871	4584.94
502.088	4355.94
502.305	4216.94
502.522	4059.94
502.739	3969.94
502.956	3860.94
503.172	3787.94
503.389	3736.94
503.606	3640.94
503.823	3599.94
504.04	3593.94
504.256	3558.94
504.473	3639.94
504.69	3540.94
504.907	3531.94
505.123	3503.94
505.34	3352.94
505.557	3314.94
505.773	3258.94
505.99	3241.94
506.207	3168.94
506.423	3151.94
506.64	3092.94
506.856	3085.94
507.073	3081.94
507.289	3063.94
507.506	3021.94
507.722	3065.94
507.939	3048.94
508.155	3040.94
508.372	2893.94
508.588	2954.94
508.805	2960.94
509.021	2953.94
509.238	2997.94
509.454	3149.94
509.67	3319.94
509.887	3131.94
510.103	3075.94
510.319	2939.94
510.536	2946.94
510.752	2888.94
510.968	2915.94
511.184	2895.94
511.401	2904.94
511.617	2887.94
511.833	2869.94
512.049	2822.94
512.265	2845.94
512.481	2902.94
512.698	2861.94
512.914	2803.94
513.13	2865.94
513.346	2843.94
513.562	2837.94
513.778	2836.94
513.994	2905.94
514.21	3037.94
514.426	3100.94
514.642	3281.94
514.858	3031.94
515.074	2938.94
515.29	2887.94
515.506	2936.94
515.721	2987.94
515.937	2961.94
516.153	2922.94
516.369	2963.94
516.585	3003.94
516.801	3008.94
517.016	3084.94
517.232	3097.94
517.448	3211.94
517.664	3241.94
517.879	3233.94
518.095	3206.94
518.311	3229.94
518.527	3159.94
518.742	3125.94
518.958	3169.94
519.173	3213.94
519.389	3101.94
519.605	3019.94
519.82	2925.94
520.036	2939.94
520.251	2881.94
520.467	2880.94
520.682	2825.94
520.898	2808.94
521.113	2775.94
521.329	2766.94
521.544	2792.94
521.76	2775.94
521.975	2805.94
522.19	2774.94
522.406	2778.94
522.621	2818.94
522.836	2690.94
523.052	2754.94
523.267	2708.94
523.482	2687.94
523.698	2699.94
523.913	2705.94
524.128	2717.94
524.343	2732.94
524.559	2678.94
524.774	2657.94
524.989	2677.94
525.204	2691.94
525.419	2704.94
525.634	2693.94
525.849	2704.94
526.064	2717.94
526.28	2709.94
526.495	2707.94
526.71	2753.94
526.925	2726.94
527.14	2749.94
527.355	2691.94
527.57	2742.94
527.785	2749.94
527.999	2734.94
528.214	2790.94
528.429	2809.94
528.644	2846.94
528.859	2863.94
529.074	2878.94
529.289	2913.94
529.503	2909.94
529.718	2922.94
529.933	2909.94
530.148	2829.94
530.363	2937.94
530.577	2911.94
530.792	2945.94
531.007	2905.94
531.221	2967.94
531.436	2966.94
531.651	3009.94
531.865	3007.94
532.08	3106.94
532.295	3189.94
532.509	3385.94
532.724	3457.94
532.938	3473.94
533.153	3589.94
533.367	3821.94
533.582	3965.94
533.796	3961.94
534.011	3802.94
534.225	3677.94
534.44	3517.94
534.654	3475.94
534.868	3424.94
535.083	3269.94
535.297	3277.94
535.511	3140.94
535.726	3125.94
535.94	3091.94
536.154	3042.94
536.369	2969.94
536.583	2923.94
536.797	2894.94
537.011	2843.94
537.225	2876.94
537.44	2843.94
537.654	2847.94
537.868	2823.94
538.082	2741.94
538.296	2737.94
538.51	2733.94
538.724	2697.94
538.938	2706.94
539.153	2650.94
539.367	2699.94
539.581	2634.94
539.795	2675.94
540.009	2578.94
540.222	2609.94
540.436	2614.94
540.65	2660.94
540.864	2624.94
541.078	2722.94
541.292	2849.94
541.506	3320.94
541.72	3450.94
541.934	3042.94
542.147	2877.94
542.361	2721.94
542.575	2651.94
542.789	2621.94
543.002	2553.94
543.216	2607.94
543.43	2517.94
543.644	2526.94
543.857	2548.94
544.071	2573.94
544.285	2576.94
544.498	2558.94
544.712	2562.94
544.925	2549.94
545.139	2575.94
545.352	2543.94
545.566	2519.94
545.779	2517.94
545.993	2588.94
546.206	2561.94
546.42	2549.94
546.633	2544.94
546.847	2559.94
547.06	2513.94
547.274	2521.94
547.487	2538.94
547.7	2586.94
547.914	2558.94
548.127	2504.94
548.34	2563.94
548.554	2538.94
548.767	2538.94
548.98	2546.94
549.193	2565.94
549.407	2577.94
549.62	2550.94
549.833	2581.94
550.046	2518.94
550.259	2542.94
550.473	2476.94
550.686	2539.94
550.899	2597.94
551.112	2549.94
551.325	2516.94
551.538	2525.94
551.751	2549.94
551.964	2565.94
552.177	2623.94
552.39	2610.94
552.603	2693.94
552.816	2696.94
553.029	2785.94
553.242	2774.94
553.455	2824.94
553.667	2800.94
553.88	2831.94
554.093	2822.94
554.306	2840.94
554.519	2926.94
554.732	2934.94
554.944	3045.94
555.157	3092.94
555.37	3147.94
555.583	3240.94
555.795	3429.94
556.008	3695.94
556.221	4143.94
556.433	4486.94
556.646	4485.94
556.859	4283.94
557.071	4115.94
557.284	4015.94
557.496	3827.94
557.709	3749.94
557.921	3718.94
558.134	3739.94
558.346	3768.94
558.559	3951.94
558.771	4153.94
558.984	4573.94
559.196	4915.94
559.409	4633.94
559.621	4319.94
559.833	3999.94
560.046	3782.94
560.258	3592.94
560.47	3398.94
560.683	3299.94
560.895	3127.94
561.107	3007.94
561.32	2918.94
561.532	2885.94
561.744	2822.94
561.956	2712.94
562.168	2719.94
562.381	2660.94
562.593	2687.94
562.805	2695.94
563.017	2721.94
563.229	2738.94
563.441	3162.94
563.653	2677.94
563.865	2466.94
564.077	2459.94
564.289	2380.94
564.501	2375.94
564.713	2405.94
564.925	2401.94
565.137	2373.94
565.349	2377.94
565.561	2370.94
565.773	2431.94
565.985	2419.94
566.197	2442.94
566.408	2470.94
566.62	2496.94
566.832	2567.94
567.044	2653.94
567.255	2628.94
567.467	2631.94
567.679	2705.94
567.891	2850.94
568.102	3127.94
568.314	3512.94
568.526	3123.94
568.737	2712.94
568.949	2523.94
569.161	2382.94
569.372	2266.94
569.584	2185.94
569.795	2141.94
570.007	2104.94
570.218	2174.94
570.43	2242.94
570.641	2056.94
570.853	2015.94
571.064	1978.94
571.276	1967.94
571.487	1949.94
571.698	1906.94
571.91	1896.94
572.121	1875.94
572.333	1891.94
572.544	1894.94
572.755	1963.94
572.966	2271.94
573.178	2106.94
573.389	1888.94
573.6	1787.94
573.811	1760.94
574.023	1757.94
574.234	1763.94
574.445	1746.94
574.656	1700.94
574.867	1750.94
575.078	1704.94
575.289	1713.94
575.501	1746.94
575.712	1673.94
575.923	1733.94
576.134	1707.94
576.345	1717.94
576.556	1718.94
576.767	1689.94
576.978	1715.94
577.188	1718.94
577.399	1748.94
577.61	1762.94
577.821	1803.94
578.032	1841.94
578.243	1826.94
578.454	1851.94
578.665	1917.94
578.875	1928.94
579.086	1980.94
579.297	2103.94
579.508	2249.94
579.718	2445.94
579.929	2753.94
580.14	3281.94
580.35	3417.94
580.561	3079.94
580.772	2759.94
580.982	2526.94
581.193	2359.94
581.403	2269.94
581.614	2148.94
581.825	2074.94
582.035	1995.94
582.246	1872.94
582.456	1841.94
582.667	1774.94
582.877	1811.94
583.087	1737.94
583.298	1673.94
583.508	1633.94
583.719	1590.94
583.929	1568.94
584.139	1497.94
584.35	1480.94
584.56	1472.94
584.77	1449.94
584.981	1429.94
585.191	1412.94
585.401	1395.94
585.611	1420.94
585.821	1373.94
586.032	1356.94
586.242	1353.94
586.452	1333.94
586.662	1301.94
586.872	1319.94
587.082	1322.94
587.292	1290.94
587.502	1285.94
587.713	1294.94
587.923	1247.94
588.133	1249.94
588.343	1287.94
588.553	1244.94
588.762	1213.94
588.972	1220.94
589.182	1238.94
589.392	1257.94
589.602	1220.94
589.812	1199.94
590.022	1216.94
590.232	1177.94
590.441	1170.94
590.651	1166.94
590.861	1176.94
591.071	1172.94
591.281	1189.94
591.49	1173.94
591.7	1183.94
591.91	1188.94
592.119	1171.94
592.329	1197.94
592.539	1225.94
592.748	1224.94
592.958	1213.94
593.167	1205.94
593.377	1230.94
593.587	1236.94
593.796	1226.94
594.006	1241.94
594.215	1250.94
594.424	1189.94
594.634	1218.94
594.843	1226.94
595.053	1152.94
595.262	1135.94
595.472	1122.94
595.681	1099.94
595.89	1088.94
596.1	1099.94
596.309	1054.94
596.518	1071.94
596.727	1042.94
596.937	1025.94
597.146	1037.94
597.355	1028.94
597.564	1032.94
597.774	999.94
597.983	970.94
598.192	977.94
598.401	976.94
598.61	976.94
598.819	968.94
599.028	960.94
599.237	949.94
599.446	968.94
599.655	963.94
599.864	958.94
600.073	959.94
600.282	965.94
600.491	942.94
600.7	942.94
600.909	947.94
601.118	929.94
601.327	920.94
601.536	957.94
601.745	961.94
601.953	1093.94
602.162	1226.94
602.371	1061.94
602.58	985.94
602.789	969.94
602.997	923.94
603.206	934.94
603.415	896.94
603.623	926.94
603.832	917.94
604.041	938.94
604.249	919.94
604.458	897.94
604.666	864.94
604.875	896.94
605.084	893.94
605.292	882.94
605.501	893.94
605.709	901.94
605.918	893.94
606.126	891.94
606.334	893.94
606.543	922.94
606.751	1023.94
606.96	1090.94
607.168	1229.94
607.376	1041.94
607.585	978.94
607.793	918.94
608.001	901.94
608.21	871.94
608.418	899.94
608.626	889.94
608.834	871.94
609.043	845.94
609.251	840.94
609.459	855.94
609.667	853.94
609.875	858.94
610.083	838.94
610.291	848.94
610.499	836.94
610.707	837.94
610.916	821.94
611.124	819.94
611.332	780.94
611.54	831.94
611.748	825.94
611.955	791.94
612.163	793.94
612.371	787.94
612.579	809.94
612.787	817.94
612.995	800.94
613.203	821.94
613.411	785.94
613.618	792.94
613.826	797.94
614.034	789.94
614.242	773.94
614.449	786.94
614.657	792.94
614.865	788.94
615.072	801.94
615.28	815.94
615.488	787.94
615.695	799.94
615.903	816.94
616.111	785.94
616.318	769.94
616.526	796.94
616.733	777.94
616.941	773.94
617.148	774.94
617.356	785.94
617.563	719.94
617.771	770.94
617.978	737.94
618.185	743.94
618.393	767.94
618.6	735.94
618.807	775.94
619.015	757.94
619.222	746.94
619.429	772.94
619.637	726.94
619.844	743.94
620.051	720.94
620.258	702.94
620.466	711.94
620.673	705.94
620.88	676.94
621.087	735.94
621.294	721.94
621.501	694.94
621.708	700.94
621.915	678.94
622.122	687.94
622.329	717.94
622.536	682.94
622.743	706.94
622.95	693.94
623.157	697.94
623.364	676.94
623.571	691.94
623.778	695.94
623.985	697.94
624.192	663.94
624.399	655.94
624.606	695.94
624.812	664.94
625.019	661.94
625.226	669.94
625.433	651.94
625.639	664.94
625.846	646.94
626.053	634.94
626.259	628.94
626.466	627.94
626.673	645.94
626.879	621.94
627.086	652.94
627.293	636.94
627.499	640.94
627.706	669.94
627.912	647.94
628.119	639.94
628.325	624.94
628.532	627.94
628.738	630.94
628.945	627.94
629.151	627.94
629.357	632.94
629.564	632.94
629.77	605.94
629.976	619.94
630.183	603.94
630.389	607.94
630.595	605.94
630.802	585.94
631.008	597.94
631.214	621.94
631.42	589.94
631.627	594.94
631.833	588.94
632.039	586.94
632.245	597.94
632.451	584.94
632.657	594.94
632.863	575.94
633.069	584.94
633.275	585.94
633.481	585.94
633.688	587.94
633.893	582.94
634.099	563.94
634.305	567.94
634.511	562.94
634.717	606.94
634.923	623.94
635.129	661.94
635.335	762.94
635.541	703.94
635.747	637.94
635.952	599.94
636.158	619.94
636.364	618.94
636.57	610.94
636.775	610.94
636.981	575.94
637.187	581.94
637.392	578.94
637.598	572.94
637.804	594.94
638.009	581.94
638.215	599.94
638.421	586.94
638.626	616.94
638.832	591.94
639.037	576.94
639.243	593.94
639.448	558.94
639.654	605.94
639.859	625.94
640.065	599.94
640.27	610.94
640.475	618.94
640.681	620.94
640.886	618.94
641.091	645.94
641.297	645.94
641.502	643.94
641.707	638.94
641.913	659.94
642.118	657.94
642.323	677.94
642.528	698.94
642.733	700.94
642.939	724.94
643.144	742.94
643.349	755.94
643.554	757.94
643.759	809.94
643.964	852.94
644.169	894.94
644.374	949.94
644.579	1062.94
644.784	1172.94
644.989	1323.94
645.194	1560.94
645.399	1903.94
645.604	2053.94
645.809	1510.94
646.014	1145.94
646.219	965.94
646.423	865.94
646.628	770.94
646.833	719.94
647.038	672.94
647.243	661.94
647.447	622.94
647.652	614.94
647.857	584.94
648.062	585.94
648.266	591.94
648.471	544.94
648.676	539.94
648.88	550.94
649.085	541.94
649.289	540.94
649.494	530.94
649.698	483.94
649.903	503.94
650.107	489.94
650.312	476.94
650.516	481.94
650.721	474.94
650.925	425.94
651.13	456.94
651.334	435.94
651.539	443.94
651.743	433.94
651.947	407.94
652.152	423.94
652.356	407.94
652.56	459.94
652.764	501.94
652.969	462.94
653.173	426.94
653.377	387.94
653.581	377.94
653.785	371.94
653.99	368.94
654.194	377.94
654.398	355.94
654.602	343.94
654.806	351.94
655.01	361.94
655.214	348.94
655.418	331.94
655.622	347.94
655.826	352.94
656.03	358.94
656.234	371.94
656.438	371.94
656.642	381.94
656.846	374.94
657.049	338.94
657.253	339.94
657.457	329.94
657.661	300.94
657.865	298.94
658.068	267.94
658.272	257.94
658.476	243.94
658.68	222.94
658.883	225.94
659.087	212.94
659.291	199.94
659.494	171.94
659.698	185.94
659.901	193.94
660.105	175.94
660.309	166.94
660.512	175.94
660.716	151.94
660.919	127.94
661.123	147.94
661.326	140.94
661.53	128.94
661.733	127.94
661.936	121.94
662.14	125.94
662.343	102.94
662.546	104.94
662.75	103.94
662.953	98.94
663.156	116.94
663.36	104.94
663.563	101.94
663.766	95.94
663.969	91.94
664.173	90.94
664.376	84.94
664.579	91.94
664.782	87.94
664.985	79.94
665.188	83.94
665.391	67.94
665.594	73.94
665.797	89.94
666	77.94
666.203	97.94
666.406	81.94
666.609	90.94
666.812	83.94
667.015	94.94
667.218	88.94
667.421	73.94
667.624	97.94
667.827	75.94
668.03	83.94
668.232	96.94
668.435	83.94
668.638	88.94
668.841	82.94
669.043	88.94
669.246	84.94
669.449	86.94
669.651	85.94
669.854	79.94
670.057	77.94
670.259	86.94
670.462	84.94
670.665	87.94
670.867	89.94
671.07	79.94
671.272	74.94
671.475	85.94
671.677	88.94
671.88	90.94
672.082	77.94
672.284	78.94
672.487	87.94
672.689	86.94
672.892	71.94
