Data from SnStandardFlinnAPT0064_LampEnergy5.5_LIBS07252019.E.O._I.C._HRD10591_15-16-26-491.txt Node
Date: Thu Jul 25 15:16:26 EDT 2019
User: cochatt
Spectrometer: HR+D1059
Trigger mode: 1
Integration Time (sec): 1.000000E-1
Scans to average: 1
Electric dark correction enabled: true
Nonlinearity correction enabled: false
Boxcar width: 0
XAxis mode: Wavelengths
Number of Pixels in Spectrum: 2048
>>>>>Begin Spectral Data<<<<<
223.165	-15.94
223.4	-15.94
223.635	-15.94
223.869	-16.94
224.104	-23.94
224.338	-23.94
224.573	-21.94
224.808	-10.94
225.042	-8.94
225.277	2.06
225.511	-0.94
225.746	7.06
225.98	2.06
226.215	8.06
226.449	21.06
226.683	33.06
226.918	30.06
227.152	20.06
227.387	42.06
227.621	37.06
227.856	51.06
228.09	31.06
228.324	59.06
228.559	49.06
228.793	101.06
229.027	144.06
229.262	164.06
229.496	145.06
229.73	153.06
229.964	153.06
230.199	146.06
230.433	166.06
230.667	186.06
230.901	159.06
231.136	177.06
231.37	173.06
231.604	195.06
231.838	209.06
232.072	249.06
232.306	258.06
232.541	215.06
232.775	197.06
233.009	223.06
233.243	205.06
233.477	213.06
233.711	234.06
233.945	275.06
234.179	236.06
234.413	229.06
234.647	228.06
234.881	232.06
235.115	255.06
235.349	289.06
235.583	326.06
235.817	442.06
236.051	422.06
236.285	312.06
236.519	250.06
236.753	231.06
236.987	236.06
237.221	231.06
237.455	235.06
237.689	238.06
237.922	229.06
238.156	219.06
238.39	244.06
238.624	237.06
238.858	253.06
239.091	239.06
239.325	248.06
239.559	244.06
239.793	234.06
240.027	253.06
240.26	244.06
240.494	263.06
240.728	268.06
240.961	283.06
241.195	289.06
241.429	313.06
241.662	298.06
241.896	326.06
242.13	399.06
242.363	513.06
242.597	660.06
242.83	629.06
243.064	636.06
243.298	693.06
243.531	630.06
243.765	389.06
243.998	349.06
244.232	316.06
244.465	292.06
244.699	296.06
244.932	299.06
245.166	299.06
245.399	305.06
245.633	307.06
245.866	301.06
246.099	305.06
246.333	299.06
246.566	309.06
246.8	309.06
247.033	296.06
247.266	302.06
247.5	295.06
247.733	324.06
247.966	340.06
248.2	347.06
248.433	367.06
248.666	427.06
248.899	409.06
249.133	356.06
249.366	383.06
249.599	401.06
249.832	449.06
250.066	467.06
250.299	383.06
250.532	339.06
250.765	337.06
250.998	338.06
251.231	330.06
251.465	340.06
251.698	326.06
251.931	326.06
252.164	337.06
252.397	324.06
252.63	368.06
252.863	342.06
253.096	349.06
253.329	347.06
253.562	351.06
253.795	374.06
254.028	362.06
254.261	400.06
254.494	387.06
254.727	449.06
254.96	535.06
255.193	511.06
255.426	426.06
255.659	392.06
255.892	387.06
256.124	361.06
256.357	393.06
256.59	421.06
256.823	426.06
257.056	486.06
257.289	578.06
257.521	591.06
257.754	495.06
257.987	421.06
258.22	400.06
258.452	403.06
258.685	401.06
258.918	417.06
259.151	447.06
259.383	458.06
259.616	493.06
259.849	539.06
260.081	491.06
260.314	456.06
260.547	431.06
260.779	420.06
261.012	436.06
261.244	433.06
261.477	447.06
261.71	431.06
261.942	450.06
262.175	454.06
262.407	468.06
262.64	474.06
262.872	481.06
263.105	521.06
263.337	567.06
263.57	573.06
263.802	555.06
264.035	570.06
264.267	587.06
264.499	604.06
264.732	642.06
264.964	618.06
265.197	630.06
265.429	655.06
265.661	653.06
265.894	672.06
266.126	744.06
266.358	813.06
266.591	784.06
266.823	687.06
267.055	647.06
267.287	611.06
267.52	598.06
267.752	590.06
267.984	553.06
268.216	586.06
268.448	547.06
268.681	562.06
268.913	535.06
269.145	561.06
269.377	548.06
269.609	567.06
269.841	575.06
270.073	601.06
270.306	691.06
270.538	910.06
270.77	1292.06
271.002	1525.06
271.234	1143.06
271.466	753.06
271.698	639.06
271.93	628.06
272.162	571.06
272.394	587.06
272.626	562.06
272.858	533.06
273.09	523.06
273.322	535.06
273.553	536.06
273.785	523.06
274.017	532.06
274.249	548.06
274.481	539.06
274.713	526.06
274.945	538.06
275.176	555.06
275.408	535.06
275.64	529.06
275.872	552.06
276.104	543.06
276.335	560.06
276.567	556.06
276.799	553.06
277.031	574.06
277.262	590.06
277.494	599.06
277.726	656.06
277.957	738.06
278.189	802.06
278.421	776.06
278.652	716.06
278.884	663.06
279.115	618.06
279.347	619.06
279.579	589.06
279.81	617.06
280.042	599.06
280.273	618.06
280.505	618.06
280.736	672.06
280.968	667.06
281.199	723.06
281.431	806.06
281.662	811.06
281.894	719.06
282.125	670.06
282.356	676.06
282.588	701.06
282.819	709.06
283.051	766.06
283.282	764.06
283.513	996.06
283.745	1447.06
283.976	2279.06
284.207	3152.06
284.439	2812.06
284.67	1713.06
284.901	1405.06
285.132	1380.06
285.364	1335.06
285.595	1031.06
285.826	973.06
286.057	1141.06
286.288	1529.06
286.52	2043.06
286.751	1910.06
286.982	1194.06
287.213	886.06
287.444	827.06
287.675	763.06
287.906	760.06
288.138	734.06
288.369	740.06
288.6	723.06
288.831	696.06
289.062	683.06
289.293	715.06
289.524	727.06
289.755	715.06
289.986	721.06
290.217	727.06
290.448	712.06
290.679	737.06
290.91	740.06
291.141	773.06
291.371	820.06
291.602	832.06
291.833	784.06
292.064	749.06
292.295	725.06
292.526	716.06
292.757	701.06
292.987	701.06
293.218	697.06
293.449	693.06
293.68	683.06
293.91	676.06
294.141	692.06
294.372	681.06
294.603	682.06
294.833	658.06
295.064	672.06
295.295	669.06
295.525	681.06
295.756	681.06
295.987	669.06
296.217	692.06
296.448	648.06
296.679	663.06
296.909	675.06
297.14	673.06
297.37	681.06
297.601	692.06
297.831	691.06
298.062	684.06
298.292	714.06
298.523	711.06
298.753	722.06
298.984	729.06
299.214	740.06
299.445	730.06
299.675	764.06
299.905	787.06
300.136	803.06
300.366	890.06
300.597	1125.06
300.827	1491.06
301.057	2020.06
301.288	2000.06
301.518	1313.06
301.748	1014.06
301.979	951.06
302.209	923.06
302.439	925.06
302.669	978.06
302.9	1181.06
303.13	1615.06
303.36	2380.06
303.59	3099.06
303.82	2713.06
304.051	1576.06
304.281	1155.06
304.511	1000.06
304.741	936.06
304.971	880.06
305.201	862.06
305.431	823.06
305.661	811.06
305.891	797.06
306.121	793.06
306.352	816.06
306.582	771.06
306.812	812.06
307.042	786.06
307.272	797.06
307.502	768.06
307.731	801.06
307.961	764.06
308.191	789.06
308.421	744.06
308.651	795.06
308.881	791.06
309.111	794.06
309.341	777.06
309.571	780.06
309.8	762.06
310.03	771.06
310.26	771.06
310.49	779.06
310.72	793.06
310.949	819.06
311.179	785.06
311.409	821.06
311.639	829.06
311.868	805.06
312.098	832.06
312.328	841.06
312.557	841.06
312.787	809.06
313.017	870.06
313.246	859.06
313.476	853.06
313.706	901.06
313.935	924.06
314.165	948.06
314.394	964.06
314.624	967.06
314.853	909.06
315.083	873.06
315.312	882.06
315.542	911.06
315.771	924.06
316.001	944.06
316.23	983.06
316.46	1004.06
316.689	1075.06
316.919	1253.06
317.148	1819.06
317.377	2830.06
317.607	4144.06
317.836	4217.06
318.065	2503.06
318.295	1623.06
318.524	1302.06
318.753	1149.06
318.983	1084.06
319.212	1045.06
319.441	1029.06
319.67	1024.06
319.9	960.06
320.129	978.06
320.358	966.06
320.587	985.06
320.816	969.06
321.046	987.06
321.275	993.06
321.504	978.06
321.733	1010.06
321.962	1004.06
322.191	1060.06
322.42	1046.06
322.649	1062.06
322.878	1024.06
323.108	1020.06
323.337	1062.06
323.566	1080.06
323.795	1073.06
324.024	1098.06
324.253	1114.06
324.482	1160.06
324.71	1234.06
324.939	1291.06
325.168	1343.06
325.397	1357.06
325.626	1610.06
325.855	2181.06
326.084	3418.06
326.313	5051.06
326.542	5305.06
326.77	3284.06
326.999	2225.06
327.228	1870.06
327.457	1826.06
327.686	1818.06
327.914	1922.06
328.143	2192.06
328.372	2513.06
328.6	2677.06
328.829	2524.06
329.058	2209.06
329.287	1992.06
329.515	1803.06
329.744	1716.06
329.972	1620.06
330.201	1541.06
330.43	1498.06
330.658	1475.06
330.887	1452.06
331.115	1443.06
331.344	1391.06
331.572	1409.06
331.801	1413.06
332.03	1419.06
332.258	1432.06
332.486	1515.06
332.715	1706.06
332.943	2055.06
333.172	2485.06
333.4	2455.06
333.629	1965.06
333.857	1749.06
334.085	1766.06
334.314	1834.06
334.542	2008.06
334.771	2291.06
334.999	2670.06
335.227	3237.06
335.455	3623.06
335.684	3388.06
335.912	2891.06
336.14	2482.06
336.369	2223.06
336.597	2082.06
336.825	1923.06
337.053	1795.06
337.281	1744.06
337.51	1623.06
337.738	1584.06
337.966	1511.06
338.194	1479.06
338.422	1435.06
338.65	1407.06
338.878	1394.06
339.106	1349.06
339.334	1351.06
339.562	1327.06
339.79	1285.06
340.018	1297.06
340.246	1285.06
340.474	1232.06
340.702	1235.06
340.93	1253.06
341.158	1268.06
341.386	1232.06
341.614	1209.06
341.842	1233.06
342.07	1185.06
342.298	1187.06
342.526	1182.06
342.754	1154.06
342.981	1180.06
343.209	1130.06
343.437	1137.06
343.665	1181.06
343.893	1209.06
344.12	1172.06
344.348	1155.06
344.576	1117.06
344.804	1148.06
345.031	1107.06
345.259	1129.06
345.487	1076.06
345.714	1071.06
345.942	1043.06
346.17	1089.06
346.397	1061.06
346.625	1081.06
346.853	1048.06
347.08	1081.06
347.308	1093.06
347.535	1078.06
347.763	1044.06
347.99	1058.06
348.218	1055.06
348.445	1036.06
348.673	1049.06
348.9	1043.06
349.128	1044.06
349.355	1037.06
349.583	1027.06
349.81	1052.06
350.037	1028.06
350.265	1044.06
350.492	1033.06
350.72	1042.06
350.947	1025.06
351.174	1037.06
351.402	1007.06
351.629	1020.06
351.856	1044.06
352.083	1044.06
352.311	1043.06
352.538	1001.06
352.765	1002.06
352.992	1031.06
353.22	1007.06
353.447	1007.06
353.674	1017.06
353.901	1011.06
354.128	1011.06
354.355	1014.06
354.583	990.06
354.81	1020.06
355.037	1043.06
355.264	1079.06
355.491	1060.06
355.718	1038.06
355.945	1001.06
356.172	1019.06
356.399	1023.06
356.626	1035.06
356.853	1058.06
357.08	1078.06
357.307	1089.06
357.534	1076.06
357.761	1101.06
357.988	1069.06
358.215	1113.06
358.441	1088.06
358.668	1058.06
358.895	1066.06
359.122	1089.06
359.349	1068.06
359.576	1075.06
359.802	1055.06
360.029	1080.06
360.256	1099.06
360.483	1087.06
360.709	1099.06
360.936	1080.06
361.163	1107.06
361.39	1087.06
361.616	1082.06
361.843	1068.06
362.07	1077.06
362.296	1078.06
362.523	1096.06
362.749	1078.06
362.976	1082.06
363.203	1052.06
363.429	1076.06
363.656	1083.06
363.882	1104.06
364.109	1094.06
364.335	1081.06
364.562	1107.06
364.788	1091.06
365.015	1095.06
365.241	1140.06
365.468	1169.06
365.694	1185.06
365.92	1158.06
366.147	1112.06
366.373	1097.06
366.599	1116.06
366.826	1107.06
367.052	1094.06
367.278	1132.06
367.505	1110.06
367.731	1100.06
367.957	1099.06
368.184	1114.06
368.41	1134.06
368.636	1159.06
368.862	1127.06
369.089	1152.06
369.315	1098.06
369.541	1083.06
369.767	1123.06
369.993	1143.06
370.219	1107.06
370.445	1130.06
370.672	1153.06
370.898	1171.06
371.124	1116.06
371.35	1157.06
371.576	1171.06
371.802	1157.06
372.028	1188.06
372.254	1178.06
372.48	1184.06
372.706	1173.06
372.932	1205.06
373.158	1191.06
373.384	1203.06
373.61	1203.06
373.835	1211.06
374.061	1206.06
374.287	1220.06
374.513	1215.06
374.739	1201.06
374.965	1251.06
375.191	1225.06
375.416	1209.06
375.642	1220.06
375.868	1221.06
376.094	1189.06
376.319	1173.06
376.545	1199.06
376.771	1183.06
376.997	1187.06
377.222	1181.06
377.448	1172.06
377.674	1171.06
377.899	1172.06
378.125	1147.06
378.35	1176.06
378.576	1165.06
378.802	1167.06
379.027	1167.06
379.253	1220.06
379.478	1301.06
379.704	1476.06
379.929	2035.06
380.155	3069.06
380.38	3302.06
380.606	2014.06
380.831	1504.06
381.057	1339.06
381.282	1256.06
381.507	1229.06
381.733	1172.06
381.958	1175.06
382.184	1179.06
382.409	1155.06
382.634	1139.06
382.86	1147.06
383.085	1138.06
383.31	1180.06
383.535	1175.06
383.761	1167.06
383.986	1203.06
384.211	1186.06
384.436	1183.06
384.662	1164.06
384.887	1191.06
385.112	1174.06
385.337	1191.06
385.562	1191.06
385.787	1229.06
386.013	1220.06
386.238	1189.06
386.463	1208.06
386.688	1199.06
386.913	1177.06
387.138	1185.06
387.363	1203.06
387.588	1185.06
387.813	1190.06
388.038	1142.06
388.263	1169.06
388.488	1180.06
388.713	1200.06
388.938	1207.06
389.163	1199.06
389.387	1203.06
389.612	1194.06
389.837	1199.06
390.062	1196.06
390.287	1203.06
390.512	1214.06
390.736	1225.06
390.961	1234.06
391.186	1258.06
391.411	1224.06
391.636	1255.06
391.86	1283.06
392.085	1277.06
392.31	1238.06
392.534	1199.06
392.759	1212.06
392.984	1214.06
393.208	1242.06
393.433	1270.06
393.658	1250.06
393.882	1219.06
394.107	1210.06
394.331	1223.06
394.556	1200.06
394.78	1244.06
395.005	1212.06
395.229	1242.06
395.454	1247.06
395.678	1266.06
395.903	1217.06
396.127	1260.06
396.352	1251.06
396.576	1239.06
396.801	1261.06
397.025	1292.06
397.249	1280.06
397.474	1267.06
397.698	1235.06
397.922	1270.06
398.147	1251.06
398.371	1301.06
398.595	1317.06
398.82	1362.06
399.044	1427.06
399.268	1477.06
399.492	1545.06
399.717	1546.06
399.941	1586.06
400.165	1509.06
400.389	1459.06
400.613	1433.06
400.837	1361.06
401.062	1388.06
401.286	1348.06
401.51	1319.06
401.734	1316.06
401.958	1362.06
402.182	1315.06
402.406	1340.06
402.63	1341.06
402.854	1338.06
403.078	1341.06
403.302	1347.06
403.526	1359.06
403.75	1378.06
403.974	1371.06
404.198	1391.06
404.422	1396.06
404.645	1386.06
404.869	1353.06
405.093	1399.06
405.317	1355.06
405.541	1382.06
405.765	1378.06
405.988	1397.06
406.212	1384.06
406.436	1420.06
406.66	1446.06
406.883	1429.06
407.107	1475.06
407.331	1465.06
407.555	1501.06
407.778	1539.06
408.002	1503.06
408.226	1431.06
408.449	1441.06
408.673	1428.06
408.896	1388.06
409.12	1397.06
409.344	1403.06
409.567	1387.06
409.791	1351.06
410.014	1364.06
410.238	1346.06
410.461	1363.06
410.685	1347.06
410.908	1350.06
411.132	1353.06
411.355	1334.06
411.578	1339.06
411.802	1329.06
412.025	1319.06
412.249	1316.06
412.472	1318.06
412.695	1322.06
412.919	1282.06
413.142	1331.06
413.365	1291.06
413.589	1304.06
413.812	1292.06
414.035	1297.06
414.258	1331.06
414.482	1287.06
414.705	1315.06
414.928	1279.06
415.151	1289.06
415.374	1296.06
415.597	1279.06
415.821	1230.06
416.044	1227.06
416.267	1233.06
416.49	1253.06
416.713	1248.06
416.936	1251.06
417.159	1243.06
417.382	1217.06
417.605	1247.06
417.828	1227.06
418.051	1292.06
418.274	1288.06
418.497	1276.06
418.72	1301.06
418.943	1267.06
419.166	1346.06
419.389	1372.06
419.611	1341.06
419.834	1307.06
420.057	1257.06
420.28	1271.06
420.503	1235.06
420.726	1240.06
420.948	1244.06
421.171	1287.06
421.394	1287.06
421.617	1267.06
421.839	1270.06
422.062	1282.06
422.285	1264.06
422.507	1284.06
422.73	1304.06
422.953	1279.06
423.175	1307.06
423.398	1307.06
423.621	1286.06
423.843	1254.06
424.066	1281.06
424.288	1247.06
424.511	1279.06
424.733	1245.06
424.956	1247.06
425.178	1244.06
425.401	1235.06
425.623	1240.06
425.846	1233.06
426.068	1228.06
426.291	1208.06
426.513	1219.06
426.735	1225.06
426.958	1182.06
427.18	1175.06
427.402	1183.06
427.625	1174.06
427.847	1162.06
428.069	1157.06
428.292	1189.06
428.514	1188.06
428.736	1172.06
428.958	1207.06
429.181	1153.06
429.403	1147.06
429.625	1153.06
429.847	1163.06
430.069	1178.06
430.292	1239.06
430.514	1233.06
430.736	1247.06
430.958	1186.06
431.18	1170.06
431.402	1165.06
431.624	1131.06
431.846	1131.06
432.068	1117.06
432.29	1143.06
432.512	1135.06
432.734	1146.06
432.956	1165.06
433.178	1171.06
433.4	1193.06
433.622	1195.06
433.844	1180.06
434.066	1188.06
434.287	1136.06
434.509	1156.06
434.731	1165.06
434.953	1157.06
435.175	1189.06
435.397	1185.06
435.618	1140.06
435.84	1166.06
436.062	1139.06
436.284	1164.06
436.505	1141.06
436.727	1163.06
436.949	1174.06
437.17	1151.06
437.392	1133.06
437.614	1159.06
437.835	1083.06
438.057	1116.06
438.278	1092.06
438.5	1134.06
438.721	1144.06
438.943	1169.06
439.165	1186.06
439.386	1186.06
439.608	1162.06
439.829	1196.06
440.05	1209.06
440.272	1235.06
440.493	1199.06
440.715	1177.06
440.936	1208.06
441.158	1237.06
441.379	1242.06
441.6	1277.06
441.822	1292.06
442.043	1309.06
442.264	1377.06
442.486	1290.06
442.707	1253.06
442.928	1253.06
443.149	1287.06
443.371	1221.06
443.592	1226.06
443.813	1227.06
444.034	1249.06
444.255	1286.06
444.476	1293.06
444.698	1330.06
444.919	1319.06
445.14	1381.06
445.361	1329.06
445.582	1274.06
445.803	1234.06
446.024	1243.06
446.245	1249.06
446.466	1244.06
446.687	1199.06
446.908	1210.06
447.129	1161.06
447.35	1175.06
447.571	1183.06
447.792	1119.06
448.013	1176.06
448.234	1167.06
448.455	1140.06
448.675	1137.06
448.896	1199.06
449.117	1228.06
449.338	1321.06
449.559	1334.06
449.779	1202.06
450	1132.06
450.221	1122.06
450.442	1109.06
450.662	1142.06
450.883	1124.06
451.104	1103.06
451.324	1113.06
451.545	1091.06
451.766	1115.06
451.986	1133.06
452.207	1203.06
452.428	1467.06
452.648	2011.06
452.869	1717.06
453.089	1282.06
453.31	1217.06
453.53	1218.06
453.751	1249.06
453.971	1313.06
454.192	1285.06
454.412	1127.06
454.633	1114.06
454.853	1082.06
455.073	1084.06
455.294	1067.06
455.514	1073.06
455.734	1038.06
455.955	1040.06
456.175	1057.06
456.395	1069.06
456.616	1063.06
456.836	1064.06
457.056	1077.06
457.276	1081.06
457.497	1130.06
457.717	1128.06
457.937	1103.06
458.157	1141.06
458.377	1096.06
458.598	1112.06
458.818	1143.06
459.038	1125.06
459.258	1133.06
459.478	1161.06
459.698	1171.06
459.918	1157.06
460.138	1210.06
460.358	1212.06
460.578	1255.06
460.798	1249.06
461.018	1272.06
461.238	1266.06
461.458	1256.06
461.678	1247.06
461.898	1275.06
462.118	1283.06
462.338	1315.06
462.558	1320.06
462.777	1345.06
462.997	1424.06
463.217	1460.06
463.437	1510.06
463.657	1492.06
463.876	1487.06
464.096	1442.06
464.316	1344.06
464.536	1369.06
464.755	1322.06
464.975	1315.06
465.195	1258.06
465.414	1236.06
465.634	1193.06
465.854	1205.06
466.073	1161.06
466.293	1186.06
466.512	1149.06
466.732	1196.06
466.951	1214.06
467.171	1289.06
467.391	1254.06
467.61	1183.06
467.829	1168.06
468.049	1159.06
468.268	1108.06
468.488	1126.06
468.707	1121.06
468.927	1129.06
469.146	1123.06
469.365	1146.06
469.585	1156.06
469.804	1185.06
470.023	1201.06
470.243	1188.06
470.462	1252.06
470.681	1282.06
470.901	1404.06
471.12	1590.06
471.339	1631.06
471.558	1343.06
471.777	1250.06
471.997	1207.06
472.216	1171.06
472.435	1162.06
472.654	1153.06
472.873	1111.06
473.092	1116.06
473.311	1115.06
473.53	1149.06
473.749	1154.06
473.968	1199.06
474.187	1157.06
474.406	1135.06
474.625	1141.06
474.844	1144.06
475.063	1161.06
475.282	1155.06
475.501	1143.06
475.72	1172.06
475.939	1179.06
476.158	1209.06
476.377	1195.06
476.596	1195.06
476.814	1207.06
477.033	1159.06
477.252	1213.06
477.471	1238.06
477.69	1271.06
477.908	1288.06
478.127	1308.06
478.346	1277.06
478.564	1339.06
478.783	1347.06
479.002	1360.06
479.22	1335.06
479.439	1341.06
479.658	1349.06
479.876	1365.06
480.095	1395.06
480.313	1396.06
480.532	1394.06
480.751	1380.06
480.969	1345.06
481.188	1352.06
481.406	1357.06
481.624	1379.06
481.843	1361.06
482.061	1364.06
482.28	1360.06
482.498	1340.06
482.717	1350.06
482.935	1397.06
483.153	1377.06
483.372	1415.06
483.59	1431.06
483.808	1438.06
484.027	1489.06
484.245	1563.06
484.463	1701.06
484.681	1888.06
484.9	1733.06
485.118	1587.06
485.336	1593.06
485.554	1567.06
485.772	1673.06
485.99	1891.06
486.209	2063.06
486.427	1741.06
486.645	1561.06
486.863	1511.06
487.081	1512.06
487.299	1464.06
487.517	1434.06
487.735	1497.06
487.953	1536.06
488.171	1464.06
488.389	1467.06
488.607	1435.06
488.825	1401.06
489.043	1416.06
489.261	1440.06
489.479	1415.06
489.696	1403.06
489.914	1450.06
490.132	1405.06
490.35	1440.06
490.568	1411.06
490.786	1507.06
491.003	1466.06
491.221	1507.06
491.439	1554.06
491.657	1521.06
491.874	1502.06
492.092	1521.06
492.31	1577.06
492.527	1563.06
492.745	1528.06
492.963	1536.06
493.18	1503.06
493.398	1493.06
493.615	1471.06
493.833	1522.06
494.05	1495.06
494.268	1523.06
494.485	1508.06
494.703	1494.06
494.92	1506.06
495.138	1529.06
495.355	1538.06
495.573	1497.06
495.79	1522.06
496.008	1568.06
496.225	1551.06
496.442	1559.06
496.66	1572.06
496.877	1651.06
497.094	1677.06
497.312	1594.06
497.529	1607.06
497.746	1617.06
497.963	1637.06
498.181	1660.06
498.398	1757.06
498.615	1748.06
498.832	1794.06
499.049	1907.06
499.267	2039.06
499.484	2162.06
499.701	2187.06
499.918	2246.06
500.135	2418.06
500.352	2530.06
500.569	2548.06
500.786	2515.06
501.003	2463.06
501.22	2337.06
501.437	2197.06
501.654	2102.06
501.871	2028.06
502.088	1880.06
502.305	1857.06
502.522	1819.06
502.739	1727.06
502.956	1687.06
503.172	1659.06
503.389	1629.06
503.606	1583.06
503.823	1545.06
504.04	1595.06
504.256	1580.06
504.473	1571.06
504.69	1528.06
504.907	1527.06
505.123	1501.06
505.34	1459.06
505.557	1429.06
505.773	1388.06
505.99	1405.06
506.207	1365.06
506.423	1402.06
506.64	1380.06
506.856	1337.06
507.073	1359.06
507.289	1328.06
507.506	1340.06
507.722	1310.06
507.939	1279.06
508.155	1270.06
508.372	1313.06
508.588	1270.06
508.805	1260.06
509.021	1257.06
509.238	1307.06
509.454	1341.06
509.67	1439.06
509.887	1347.06
510.103	1276.06
510.319	1275.06
510.536	1294.06
510.752	1281.06
510.968	1256.06
511.184	1234.06
511.401	1224.06
511.617	1203.06
511.833	1224.06
512.049	1223.06
512.265	1206.06
512.481	1220.06
512.698	1227.06
512.914	1235.06
513.13	1208.06
513.346	1217.06
513.562	1236.06
513.778	1248.06
513.994	1237.06
514.21	1256.06
514.426	1335.06
514.642	1388.06
514.858	1248.06
515.074	1232.06
515.29	1286.06
515.506	1271.06
515.721	1271.06
515.937	1265.06
516.153	1246.06
516.369	1252.06
516.585	1333.06
516.801	1329.06
517.016	1345.06
517.232	1381.06
517.448	1364.06
517.664	1362.06
517.879	1384.06
518.095	1384.06
518.311	1411.06
518.527	1329.06
518.742	1366.06
518.958	1359.06
519.173	1368.06
519.389	1300.06
519.605	1271.06
519.82	1274.06
520.036	1279.06
520.251	1250.06
520.467	1225.06
520.682	1209.06
520.898	1228.06
521.113	1204.06
521.329	1196.06
521.544	1192.06
521.76	1201.06
521.975	1185.06
522.19	1186.06
522.406	1189.06
522.621	1199.06
522.836	1199.06
523.052	1202.06
523.267	1199.06
523.482	1200.06
523.698	1196.06
523.913	1186.06
524.128	1172.06
524.343	1156.06
524.559	1174.06
524.774	1176.06
524.989	1177.06
525.204	1213.06
525.419	1188.06
525.634	1199.06
525.849	1191.06
526.064	1207.06
526.28	1163.06
526.495	1168.06
526.71	1183.06
526.925	1173.06
527.14	1180.06
527.355	1188.06
527.57	1169.06
527.785	1197.06
527.999	1189.06
528.214	1216.06
528.429	1218.06
528.644	1219.06
528.859	1239.06
529.074	1228.06
529.289	1292.06
529.503	1304.06
529.718	1267.06
529.933	1264.06
530.148	1244.06
530.363	1236.06
530.577	1269.06
530.792	1204.06
531.007	1251.06
531.221	1263.06
531.436	1248.06
531.651	1227.06
531.865	1298.06
532.08	1291.06
532.295	1351.06
532.509	1383.06
532.724	1403.06
532.938	1425.06
533.153	1433.06
533.367	1494.06
533.582	1554.06
533.796	1540.06
534.011	1518.06
534.225	1459.06
534.44	1422.06
534.654	1417.06
534.868	1394.06
535.083	1364.06
535.297	1330.06
535.511	1312.06
535.726	1323.06
535.94	1318.06
536.154	1299.06
536.369	1259.06
536.583	1245.06
536.797	1221.06
537.011	1211.06
537.225	1220.06
537.44	1203.06
537.654	1188.06
537.868	1178.06
538.082	1175.06
538.296	1204.06
538.51	1192.06
538.724	1194.06
538.938	1186.06
539.153	1190.06
539.367	1173.06
539.581	1110.06
539.795	1159.06
540.009	1156.06
540.222	1140.06
540.436	1109.06
540.65	1154.06
540.864	1142.06
541.078	1202.06
541.292	1270.06
541.506	1424.06
541.72	1486.06
541.934	1331.06
542.147	1283.06
542.361	1219.06
542.575	1187.06
542.789	1144.06
543.002	1105.06
543.216	1109.06
543.43	1111.06
543.644	1109.06
543.857	1107.06
544.071	1166.06
544.285	1140.06
544.498	1153.06
544.712	1164.06
544.925	1145.06
545.139	1125.06
545.352	1147.06
545.566	1142.06
545.779	1155.06
545.993	1151.06
546.206	1183.06
546.42	1128.06
546.633	1140.06
546.847	1159.06
547.06	1160.06
547.274	1175.06
547.487	1169.06
547.7	1170.06
547.914	1165.06
548.127	1153.06
548.34	1121.06
548.554	1132.06
548.767	1143.06
548.98	1137.06
549.193	1182.06
549.407	1150.06
549.62	1166.06
549.833	1144.06
550.046	1183.06
550.259	1151.06
550.473	1148.06
550.686	1175.06
550.899	1155.06
551.112	1136.06
551.325	1128.06
551.538	1155.06
551.751	1119.06
551.964	1147.06
552.177	1117.06
552.39	1169.06
552.603	1209.06
552.816	1192.06
553.029	1228.06
553.242	1205.06
553.455	1228.06
553.667	1287.06
553.88	1273.06
554.093	1263.06
554.306	1300.06
554.519	1274.06
554.732	1290.06
554.944	1298.06
555.157	1291.06
555.37	1333.06
555.583	1373.06
555.795	1414.06
556.008	1485.06
556.221	1587.06
556.433	1667.06
556.646	1678.06
556.859	1663.06
557.071	1612.06
557.284	1563.06
557.496	1559.06
557.709	1510.06
557.921	1483.06
558.134	1519.06
558.346	1558.06
558.559	1573.06
558.771	1651.06
558.984	1713.06
559.196	1801.06
559.409	1771.06
559.621	1695.06
559.833	1600.06
560.046	1533.06
560.258	1522.06
560.47	1435.06
560.683	1385.06
560.895	1335.06
561.107	1286.06
561.32	1254.06
561.532	1255.06
561.744	1227.06
561.956	1183.06
562.168	1167.06
562.381	1189.06
562.593	1151.06
562.805	1168.06
563.017	1191.06
563.229	1176.06
563.441	1287.06
563.653	1143.06
563.865	1079.06
564.077	1095.06
564.289	1081.06
564.501	1073.06
564.713	1061.06
564.925	1041.06
565.137	1079.06
565.349	1023.06
565.561	1087.06
565.773	1079.06
565.985	1092.06
566.197	1073.06
566.408	1093.06
566.62	1148.06
566.832	1149.06
567.044	1194.06
567.255	1165.06
567.467	1169.06
567.679	1160.06
567.891	1278.06
568.102	1387.06
568.314	1596.06
568.526	1362.06
568.737	1195.06
568.949	1088.06
569.161	1042.06
569.372	988.06
569.584	959.06
569.795	930.06
570.007	922.06
570.218	967.06
570.43	958.06
570.641	928.06
570.853	885.06
571.064	910.06
571.276	871.06
571.487	852.06
571.698	855.06
571.91	842.06
572.121	835.06
572.333	822.06
572.544	833.06
572.755	893.06
572.966	1033.06
573.178	934.06
573.389	844.06
573.6	794.06
573.811	801.06
574.023	792.06
574.234	792.06
574.445	766.06
574.656	760.06
574.867	765.06
575.078	787.06
575.289	755.06
575.501	795.06
575.712	772.06
575.923	742.06
576.134	783.06
576.345	770.06
576.556	753.06
576.767	774.06
576.978	773.06
577.188	775.06
577.399	770.06
577.61	768.06
577.821	769.06
578.032	772.06
578.243	806.06
578.454	807.06
578.665	820.06
578.875	863.06
579.086	868.06
579.297	887.06
579.508	913.06
579.718	956.06
579.929	1090.06
580.14	1188.06
580.35	1214.06
580.561	1161.06
580.772	1114.06
580.982	1061.06
581.193	1009.06
581.403	937.06
581.614	918.06
581.825	873.06
582.035	819.06
582.246	827.06
582.456	802.06
582.667	808.06
582.877	763.06
583.087	767.06
583.298	737.06
583.508	701.06
583.719	700.06
583.929	696.06
584.139	688.06
584.35	657.06
584.56	648.06
584.77	649.06
584.981	658.06
585.191	659.06
585.401	620.06
585.611	665.06
585.821	637.06
586.032	625.06
586.242	634.06
586.452	621.06
586.662	611.06
586.872	597.06
587.082	581.06
587.292	588.06
587.502	588.06
587.713	592.06
587.923	611.06
588.133	564.06
588.343	570.06
588.553	588.06
588.762	593.06
588.972	561.06
589.182	591.06
589.392	572.06
589.602	567.06
589.812	557.06
590.022	588.06
590.232	546.06
590.441	555.06
590.651	537.06
590.861	575.06
591.071	535.06
591.281	539.06
591.49	566.06
591.7	556.06
591.91	553.06
592.119	561.06
592.329	544.06
592.539	553.06
592.748	583.06
592.958	583.06
593.167	572.06
593.377	565.06
593.587	572.06
593.796	593.06
594.006	585.06
594.215	559.06
594.424	573.06
594.634	582.06
594.843	583.06
595.053	557.06
595.262	548.06
595.472	534.06
595.681	521.06
595.89	522.06
596.1	507.06
596.309	509.06
596.518	508.06
596.727	502.06
596.937	500.06
597.146	506.06
597.355	483.06
597.564	479.06
597.774	476.06
597.983	462.06
598.192	468.06
598.401	471.06
598.61	487.06
598.819	476.06
599.028	460.06
599.237	468.06
599.446	450.06
599.655	471.06
599.864	473.06
600.073	448.06
600.282	460.06
600.491	448.06
600.7	455.06
600.909	443.06
601.118	435.06
601.327	470.06
601.536	463.06
601.745	472.06
601.953	480.06
602.162	584.06
602.371	513.06
602.58	468.06
602.789	465.06
602.997	444.06
603.206	459.06
603.415	453.06
603.623	458.06
603.832	458.06
604.041	456.06
604.249	461.06
604.458	411.06
604.666	421.06
604.875	445.06
605.084	415.06
605.292	433.06
605.501	448.06
605.709	439.06
605.918	440.06
606.126	408.06
606.334	439.06
606.543	447.06
606.751	462.06
606.96	535.06
607.168	610.06
607.376	488.06
607.585	463.06
607.793	467.06
608.001	439.06
608.21	448.06
608.418	432.06
608.626	428.06
608.834	419.06
609.043	417.06
609.251	443.06
609.459	440.06
609.667	426.06
609.875	426.06
610.083	417.06
610.291	426.06
610.499	415.06
610.707	415.06
610.916	427.06
611.124	404.06
611.332	412.06
611.54	416.06
611.748	406.06
611.955	396.06
612.163	401.06
612.371	405.06
612.579	395.06
612.787	399.06
612.995	405.06
613.203	396.06
613.411	403.06
613.618	391.06
613.826	394.06
614.034	395.06
614.242	409.06
614.449	406.06
614.657	396.06
614.865	397.06
615.072	432.06
615.28	397.06
615.488	401.06
615.695	393.06
615.903	401.06
616.111	425.06
616.318	414.06
616.526	389.06
616.733	394.06
616.941	393.06
617.148	387.06
617.356	393.06
617.563	378.06
617.771	382.06
617.978	369.06
618.185	374.06
618.393	393.06
618.6	389.06
618.807	384.06
619.015	389.06
619.222	385.06
619.429	381.06
619.637	375.06
619.844	377.06
620.051	386.06
620.258	385.06
620.466	367.06
620.673	367.06
620.88	344.06
621.087	359.06
621.294	363.06
621.501	352.06
621.708	384.06
621.915	372.06
622.122	376.06
622.329	384.06
622.536	350.06
622.743	357.06
622.95	339.06
623.157	358.06
623.364	352.06
623.571	333.06
623.778	361.06
623.985	357.06
624.192	349.06
624.399	342.06
624.606	339.06
624.812	357.06
625.019	340.06
625.226	344.06
625.433	338.06
625.639	359.06
625.846	327.06
626.053	325.06
626.259	329.06
626.466	322.06
626.673	333.06
626.879	313.06
627.086	319.06
627.293	320.06
627.499	323.06
627.706	332.06
627.912	348.06
628.119	333.06
628.325	333.06
628.532	313.06
628.738	337.06
628.945	336.06
629.151	323.06
629.357	321.06
629.564	319.06
629.77	326.06
629.976	307.06
630.183	314.06
630.389	315.06
630.595	311.06
630.802	340.06
631.008	321.06
631.214	305.06
631.42	304.06
631.627	314.06
631.833	318.06
632.039	289.06
632.245	312.06
632.451	303.06
632.657	313.06
632.863	305.06
633.069	307.06
633.275	310.06
633.481	296.06
633.688	313.06
633.893	309.06
634.099	300.06
634.305	311.06
634.511	307.06
634.717	326.06
634.923	317.06
635.129	346.06
635.335	378.06
635.541	348.06
635.747	332.06
635.952	319.06
636.158	320.06
636.364	321.06
636.57	308.06
636.775	298.06
636.981	304.06
637.187	303.06
637.392	293.06
637.598	295.06
637.804	299.06
638.009	299.06
638.215	295.06
638.421	309.06
638.626	319.06
638.832	314.06
639.037	295.06
639.243	292.06
639.448	301.06
639.654	338.06
639.859	323.06
640.065	292.06
640.27	335.06
640.475	321.06
640.681	320.06
640.886	319.06
641.091	325.06
641.297	341.06
641.502	302.06
641.707	327.06
641.913	349.06
642.118	343.06
642.323	334.06
642.528	338.06
642.733	360.06
642.939	361.06
643.144	348.06
643.349	360.06
643.554	365.06
643.759	393.06
643.964	398.06
644.169	419.06
644.374	437.06
644.579	477.06
644.784	517.06
644.989	571.06
645.194	600.06
645.399	707.06
645.604	723.06
645.809	591.06
646.014	521.06
646.219	426.06
646.423	383.06
646.628	362.06
646.833	343.06
647.038	344.06
647.243	328.06
647.447	304.06
647.652	318.06
647.857	311.06
648.062	289.06
648.266	289.06
648.471	292.06
648.676	282.06
648.88	287.06
649.085	293.06
649.289	272.06
649.494	274.06
649.698	286.06
649.903	261.06
650.107	254.06
650.312	262.06
650.516	234.06
650.721	243.06
650.925	239.06
651.13	232.06
651.334	255.06
651.539	230.06
651.743	235.06
651.947	246.06
652.152	228.06
652.356	233.06
652.56	239.06
652.764	265.06
652.969	265.06
653.173	224.06
653.377	227.06
653.581	223.06
653.785	197.06
653.99	227.06
654.194	194.06
654.398	196.06
654.602	210.06
654.806	197.06
655.01	200.06
655.214	204.06
655.418	195.06
655.622	186.06
655.826	215.06
656.03	228.06
656.234	228.06
656.438	243.06
656.642	230.06
656.846	224.06
657.049	219.06
657.253	200.06
657.457	173.06
657.661	162.06
657.865	157.06
658.068	166.06
658.272	159.06
658.476	169.06
658.68	151.06
658.883	155.06
659.087	145.06
659.291	128.06
659.494	127.06
659.698	123.06
659.901	142.06
660.105	117.06
660.309	122.06
660.512	102.06
660.716	121.06
660.919	108.06
661.123	119.06
661.326	108.06
661.53	111.06
661.733	91.06
661.936	99.06
662.14	108.06
662.343	112.06
662.546	89.06
662.75	97.06
662.953	94.06
663.156	88.06
663.36	97.06
663.563	87.06
663.766	87.06
663.969	84.06
664.173	79.06
664.376	89.06
664.579	76.06
664.782	81.06
664.985	92.06
665.188	82.06
665.391	77.06
665.594	85.06
665.797	77.06
666	65.06
666.203	76.06
666.406	76.06
666.609	85.06
666.812	80.06
667.015	80.06
667.218	80.06
667.421	85.06
667.624	96.06
667.827	82.06
668.03	80.06
668.232	83.06
668.435	80.06
668.638	88.06
668.841	85.06
669.043	66.06
669.246	82.06
669.449	91.06
669.651	93.06
669.854	87.06
670.057	88.06
670.259	82.06
670.462	78.06
670.665	69.06
670.867	84.06
671.07	76.06
671.272	76.06
671.475	73.06
671.677	82.06
671.88	78.06
672.082	78.06
672.284	87.06
672.487	82.06
672.689	87.06
672.892	92.06
