Data from SnStandardFlinnAPT0064_LampEnergy10_LIBS07252019.E.O._I.C._HRD10591_15-19-30-493.txt Node
Date: Thu Jul 25 15:19:30 EDT 2019
User: cochatt
Spectrometer: HR+D1059
Trigger mode: 1
Integration Time (sec): 1.000000E-1
Scans to average: 1
Electric dark correction enabled: true
Nonlinearity correction enabled: false
Boxcar width: 0
XAxis mode: Wavelengths
Number of Pixels in Spectrum: 2048
>>>>>Begin Spectral Data<<<<<
223.165	-20.5
223.4	-20.5
223.635	-20.5
223.869	-31.5
224.104	-10.5
224.338	-6.5
224.573	-8.5
224.808	-15.5
225.042	-11.5
225.277	3.5
225.511	-1.5
225.746	-1.5
225.98	-19.5
226.215	20.5
226.449	10.5
226.683	30.5
226.918	42.5
227.152	19.5
227.387	43.5
227.621	47.5
227.856	45.5
228.09	61.5
228.324	65.5
228.559	55.5
228.793	92.5
229.027	304.5
229.262	349.5
229.496	317.5
229.73	304.5
229.964	308.5
230.199	294.5
230.433	309.5
230.667	333.5
230.901	325.5
231.136	343.5
231.37	368.5
231.604	401.5
231.838	455.5
232.072	545.5
232.306	602.5
232.541	513.5
232.775	455.5
233.009	428.5
233.243	430.5
233.477	479.5
233.711	559.5
233.945	628.5
234.179	525.5
234.413	472.5
234.647	453.5
234.881	489.5
235.115	533.5
235.349	628.5
235.583	816.5
235.817	1075.5
236.051	1045.5
236.285	709.5
236.519	559.5
236.753	517.5
236.987	508.5
237.221	540.5
237.455	523.5
237.689	473.5
237.922	456.5
238.156	464.5
238.39	473.5
238.624	499.5
238.858	480.5
239.091	495.5
239.325	501.5
239.559	510.5
239.793	502.5
240.027	528.5
240.26	560.5
240.494	558.5
240.728	603.5
240.961	636.5
241.195	680.5
241.429	687.5
241.662	726.5
241.896	818.5
242.13	1013.5
242.363	1333.5
242.597	1728.5
242.83	1644.5
243.064	1641.5
243.298	1900.5
243.531	1592.5
243.765	1028.5
243.998	826.5
244.232	708.5
244.465	676.5
244.699	649.5
244.932	667.5
245.166	677.5
245.399	678.5
245.633	649.5
245.866	676.5
246.099	670.5
246.333	638.5
246.566	644.5
246.8	657.5
247.033	641.5
247.266	636.5
247.5	645.5
247.733	678.5
247.966	713.5
248.2	783.5
248.433	901.5
248.666	1021.5
248.899	960.5
249.133	854.5
249.366	877.5
249.599	951.5
249.832	1143.5
250.066	1145.5
250.299	884.5
250.532	771.5
250.765	767.5
250.998	735.5
251.231	732.5
251.465	714.5
251.698	712.5
251.931	749.5
252.164	740.5
252.397	763.5
252.63	767.5
252.863	789.5
253.096	785.5
253.329	804.5
253.562	772.5
253.795	760.5
254.028	769.5
254.261	820.5
254.494	879.5
254.727	1044.5
254.96	1299.5
255.193	1271.5
255.426	996.5
255.659	881.5
255.892	895.5
256.124	883.5
256.357	890.5
256.59	906.5
256.823	1007.5
257.056	1128.5
257.289	1404.5
257.521	1524.5
257.754	1229.5
257.987	982.5
258.22	932.5
258.452	896.5
258.685	920.5
258.918	940.5
259.151	991.5
259.383	1101.5
259.616	1235.5
259.849	1325.5
260.081	1133.5
260.314	993.5
260.547	952.5
260.779	915.5
261.012	924.5
261.244	920.5
261.477	954.5
261.71	998.5
261.942	961.5
262.175	981.5
262.407	1041.5
262.64	996.5
262.872	1073.5
263.105	1116.5
263.337	1153.5
263.57	1193.5
263.802	1238.5
264.035	1253.5
264.267	1285.5
264.499	1311.5
264.732	1356.5
264.964	1377.5
265.197	1367.5
265.429	1381.5
265.661	1411.5
265.894	1503.5
266.126	1716.5
266.358	1919.5
266.591	1866.5
266.823	1577.5
267.055	1411.5
267.287	1354.5
267.52	1274.5
267.752	1285.5
267.984	1236.5
268.216	1226.5
268.448	1218.5
268.681	1203.5
268.913	1211.5
269.145	1195.5
269.377	1209.5
269.609	1241.5
269.841	1281.5
270.073	1375.5
270.306	1654.5
270.538	2205.5
270.77	3368.5
271.002	4144.5
271.234	2964.5
271.466	1971.5
271.698	1552.5
271.93	1414.5
272.162	1352.5
272.394	1301.5
272.626	1244.5
272.858	1235.5
273.09	1191.5
273.322	1188.5
273.553	1192.5
273.785	1199.5
274.017	1183.5
274.249	1211.5
274.481	1177.5
274.713	1199.5
274.945	1230.5
275.176	1225.5
275.408	1194.5
275.64	1205.5
275.872	1190.5
276.104	1236.5
276.335	1249.5
276.567	1275.5
276.799	1248.5
277.031	1309.5
277.262	1327.5
277.494	1409.5
277.726	1624.5
277.957	1890.5
278.189	2192.5
278.421	2046.5
278.652	1800.5
278.884	1690.5
279.115	1468.5
279.347	1422.5
279.579	1351.5
279.81	1388.5
280.042	1394.5
280.273	1404.5
280.505	1419.5
280.736	1457.5
280.968	1622.5
281.199	1822.5
281.431	2081.5
281.662	2164.5
281.894	1803.5
282.125	1654.5
282.356	1625.5
282.588	1669.5
282.819	1741.5
283.051	1871.5
283.282	2076.5
283.513	2573.5
283.745	3729.5
283.976	5945.5
284.207	8427.5
284.439	7706.5
284.67	4825.5
284.901	4015.5
285.132	3959.5
285.364	3798.5
285.595	2909.5
285.826	2586.5
286.057	2983.5
286.288	4081.5
286.52	5504.5
286.751	5224.5
286.982	3202.5
287.213	2410.5
287.444	2045.5
287.675	1884.5
287.906	1780.5
288.138	1745.5
288.369	1653.5
288.6	1650.5
288.831	1625.5
289.062	1663.5
289.293	1669.5
289.524	1673.5
289.755	1680.5
289.986	1675.5
290.217	1683.5
290.448	1675.5
290.679	1712.5
290.91	1729.5
291.141	1864.5
291.371	2022.5
291.602	2123.5
291.833	1989.5
292.064	1714.5
292.295	1679.5
292.526	1623.5
292.757	1594.5
292.987	1548.5
293.218	1552.5
293.449	1583.5
293.68	1575.5
293.91	1573.5
294.141	1558.5
294.372	1585.5
294.603	1513.5
294.833	1507.5
295.064	1545.5
295.295	1513.5
295.525	1533.5
295.756	1521.5
295.987	1535.5
296.217	1569.5
296.448	1549.5
296.679	1562.5
296.909	1539.5
297.14	1562.5
297.37	1561.5
297.601	1611.5
297.831	1613.5
298.062	1604.5
298.292	1592.5
298.523	1612.5
298.753	1664.5
298.984	1659.5
299.214	1702.5
299.445	1754.5
299.675	1800.5
299.905	1829.5
300.136	1874.5
300.366	2198.5
300.597	2835.5
300.827	4010.5
301.057	5488.5
301.288	5563.5
301.518	3591.5
301.748	2679.5
301.979	2448.5
302.209	2315.5
302.439	2314.5
302.669	2516.5
302.9	3076.5
303.13	4341.5
303.36	6519.5
303.59	8812.5
303.82	7656.5
304.051	4531.5
304.281	3189.5
304.511	2636.5
304.741	2357.5
304.971	2195.5
305.201	2075.5
305.431	1980.5
305.661	1973.5
305.891	1865.5
306.121	1901.5
306.352	1859.5
306.582	1841.5
306.812	1819.5
307.042	1778.5
307.272	1809.5
307.502	1807.5
307.731	1808.5
307.961	1764.5
308.191	1746.5
308.421	1778.5
308.651	1754.5
308.881	1747.5
309.111	1785.5
309.341	1770.5
309.571	1785.5
309.8	1773.5
310.03	1797.5
310.26	1801.5
310.49	1791.5
310.72	1828.5
310.949	1833.5
311.179	1839.5
311.409	1832.5
311.639	1858.5
311.868	1855.5
312.098	1889.5
312.328	1884.5
312.557	1950.5
312.787	1896.5
313.017	1994.5
313.246	1932.5
313.476	1981.5
313.706	2056.5
313.935	2228.5
314.165	2330.5
314.394	2469.5
314.624	2351.5
314.853	2113.5
315.083	2156.5
315.312	2142.5
315.542	2203.5
315.771	2183.5
316.001	2227.5
316.23	2318.5
316.46	2468.5
316.689	2699.5
316.919	3320.5
317.148	4814.5
317.377	7469.5
317.607	11057.5
317.836	11416.5
318.065	7115.5
318.295	4545.5
318.524	3553.5
318.753	3144.5
318.983	2816.5
319.212	2656.5
319.441	2548.5
319.67	2427.5
319.9	2423.5
320.129	2365.5
320.358	2317.5
320.587	2321.5
320.816	2290.5
321.046	2344.5
321.275	2327.5
321.504	2326.5
321.733	2381.5
321.962	2474.5
322.191	2479.5
322.42	2488.5
322.649	2449.5
322.878	2451.5
323.108	2440.5
323.337	2520.5
323.566	2502.5
323.795	2559.5
324.024	2675.5
324.253	2717.5
324.482	2864.5
324.71	3023.5
324.939	3219.5
325.168	3285.5
325.397	3434.5
325.626	4138.5
325.855	5755.5
326.084	9153.5
326.313	13145.5
326.542	13931.5
326.77	9699.5
326.999	6358.5
327.228	5220.5
327.457	4824.5
327.686	4886.5
327.914	5148.5
328.143	6013.5
328.372	7138.5
328.6	7786.5
328.829	6907.5
329.058	5739.5
329.287	5021.5
329.515	4607.5
329.744	4261.5
329.972	4007.5
330.201	3788.5
330.43	3670.5
330.658	3548.5
330.887	3494.5
331.115	3462.5
331.344	3402.5
331.572	3415.5
331.801	3421.5
332.03	3436.5
332.258	3476.5
332.486	3688.5
332.715	4336.5
332.943	5430.5
333.172	6732.5
333.4	6795.5
333.629	5015.5
333.857	4520.5
334.085	4446.5
334.314	4677.5
334.542	5039.5
334.771	5844.5
334.999	7382.5
335.227	9138.5
335.455	10442.5
335.684	9260.5
335.912	7546.5
336.14	6397.5
336.369	5635.5
336.597	5119.5
336.825	4713.5
337.053	4455.5
337.281	4102.5
337.51	3964.5
337.738	3732.5
337.966	3589.5
338.194	3459.5
338.422	3344.5
338.65	3305.5
338.878	3277.5
339.106	3180.5
339.334	3134.5
339.562	3024.5
339.79	2961.5
340.018	2944.5
340.246	2903.5
340.474	2892.5
340.702	2927.5
340.93	2922.5
341.158	2929.5
341.386	2951.5
341.614	2845.5
341.842	2796.5
342.07	2751.5
342.298	2701.5
342.526	2680.5
342.754	2712.5
342.981	2635.5
343.209	2605.5
343.437	2685.5
343.665	2669.5
343.893	2711.5
344.12	2738.5
344.348	2665.5
344.576	2646.5
344.804	2595.5
345.031	2566.5
345.259	2524.5
345.487	2510.5
345.714	2444.5
345.942	2434.5
346.17	2472.5
346.397	2452.5
346.625	2426.5
346.853	2469.5
347.08	2495.5
347.308	2428.5
347.535	2454.5
347.763	2463.5
347.99	2422.5
348.218	2433.5
348.445	2411.5
348.673	2438.5
348.9	2404.5
349.128	2362.5
349.355	2336.5
349.583	2345.5
349.81	2355.5
350.037	2316.5
350.265	2338.5
350.492	2321.5
350.72	2342.5
350.947	2378.5
351.174	2313.5
351.402	2331.5
351.629	2312.5
351.856	2330.5
352.083	2323.5
352.311	2345.5
352.538	2284.5
352.765	2298.5
352.992	2322.5
353.22	2278.5
353.447	2310.5
353.674	2327.5
353.901	2326.5
354.128	2292.5
354.355	2266.5
354.583	2317.5
354.81	2378.5
355.037	2388.5
355.264	2368.5
355.491	2387.5
355.718	2375.5
355.945	2340.5
356.172	2376.5
356.399	2414.5
356.626	2392.5
356.853	2403.5
357.08	2445.5
357.307	2439.5
357.534	2467.5
357.761	2538.5
357.988	2492.5
358.215	2500.5
358.441	2469.5
358.668	2465.5
358.895	2432.5
359.122	2440.5
359.349	2461.5
359.576	2435.5
359.802	2439.5
360.029	2453.5
360.256	2487.5
360.483	2439.5
360.709	2444.5
360.936	2466.5
361.163	2483.5
361.39	2501.5
361.616	2471.5
361.843	2491.5
362.07	2477.5
362.296	2481.5
362.523	2453.5
362.749	2490.5
362.976	2467.5
363.203	2464.5
363.429	2472.5
363.656	2495.5
363.882	2461.5
364.109	2434.5
364.335	2406.5
364.562	2451.5
364.788	2471.5
365.015	2486.5
365.241	2568.5
365.468	2769.5
365.694	2894.5
365.92	2771.5
366.147	2539.5
366.373	2509.5
366.599	2503.5
366.826	2519.5
367.052	2440.5
367.278	2545.5
367.505	2538.5
367.731	2502.5
367.957	2496.5
368.184	2537.5
368.41	2529.5
368.636	2566.5
368.862	2568.5
369.089	2522.5
369.315	2536.5
369.541	2542.5
369.767	2538.5
369.993	2508.5
370.219	2491.5
370.445	2583.5
370.672	2551.5
370.898	2566.5
371.124	2574.5
371.35	2576.5
371.576	2645.5
371.802	2595.5
372.028	2659.5
372.254	2628.5
372.48	2676.5
372.706	2686.5
372.932	2676.5
373.158	2693.5
373.384	2701.5
373.61	2628.5
373.835	2707.5
374.061	2687.5
374.287	2703.5
374.513	2714.5
374.739	2735.5
374.965	2764.5
375.191	2831.5
375.416	2753.5
375.642	2718.5
375.868	2754.5
376.094	2662.5
376.319	2647.5
376.545	2640.5
376.771	2640.5
376.997	2657.5
377.222	2587.5
377.448	2635.5
377.674	2629.5
377.899	2621.5
378.125	2633.5
378.35	2636.5
378.576	2679.5
378.802	2651.5
379.027	2769.5
379.253	2827.5
379.478	3020.5
379.704	3557.5
379.929	5252.5
380.155	8165.5
380.38	9068.5
380.606	5481.5
380.831	3763.5
381.057	3245.5
381.282	2919.5
381.507	2819.5
381.733	2728.5
381.958	2662.5
382.184	2650.5
382.409	2626.5
382.634	2587.5
382.86	2630.5
383.085	2541.5
383.31	2635.5
383.535	2594.5
383.761	2580.5
383.986	2593.5
384.211	2632.5
384.436	2689.5
384.662	2653.5
384.887	2660.5
385.112	2668.5
385.337	2689.5
385.562	2634.5
385.787	2653.5
386.013	2671.5
386.238	2691.5
386.463	2709.5
386.688	2709.5
386.913	2684.5
387.138	2653.5
387.363	2705.5
387.588	2636.5
387.813	2648.5
388.038	2635.5
388.263	2643.5
388.488	2654.5
388.713	2615.5
388.938	2579.5
389.163	2612.5
389.387	2707.5
389.612	2623.5
389.837	2679.5
390.062	2683.5
390.287	2645.5
390.512	2703.5
390.736	2710.5
390.961	2760.5
391.186	2732.5
391.411	2761.5
391.636	2729.5
391.86	2763.5
392.085	2857.5
392.31	2787.5
392.534	2814.5
392.759	2716.5
392.984	2741.5
393.208	2722.5
393.433	2783.5
393.658	2786.5
393.882	2626.5
394.107	2679.5
394.331	2694.5
394.556	2670.5
394.78	2711.5
395.005	2744.5
395.229	2700.5
395.454	2744.5
395.678	2745.5
395.903	2727.5
396.127	2765.5
396.352	2743.5
396.576	2772.5
396.801	2805.5
397.025	2846.5
397.249	2786.5
397.474	2788.5
397.698	2790.5
397.922	2836.5
398.147	2776.5
398.371	2825.5
398.595	2904.5
398.82	2955.5
399.044	3071.5
399.268	3133.5
399.492	3373.5
399.717	3408.5
399.941	3452.5
400.165	3341.5
400.389	3179.5
400.613	3040.5
400.837	3014.5
401.062	2959.5
401.286	3001.5
401.51	2927.5
401.734	2905.5
401.958	2915.5
402.182	2909.5
402.406	2941.5
402.63	2912.5
402.854	3010.5
403.078	2951.5
403.302	3020.5
403.526	3021.5
403.75	3010.5
403.974	3061.5
404.198	3044.5
404.422	2998.5
404.645	2980.5
404.869	3008.5
405.093	3012.5
405.317	2991.5
405.541	3050.5
405.765	3096.5
405.988	3121.5
406.212	3103.5
406.436	3075.5
406.66	3122.5
406.883	3097.5
407.107	3169.5
407.331	3217.5
407.555	3307.5
407.778	3289.5
408.002	3288.5
408.226	3219.5
408.449	3239.5
408.673	3176.5
408.896	3109.5
409.12	3098.5
409.344	3120.5
409.567	3030.5
409.791	3103.5
410.014	3056.5
410.238	3014.5
410.461	3041.5
410.685	3032.5
410.908	2936.5
411.132	2960.5
411.355	2891.5
411.578	2855.5
411.802	2874.5
412.025	2899.5
412.249	2947.5
412.472	2904.5
412.695	2805.5
412.919	2790.5
413.142	2909.5
413.365	2875.5
413.589	2872.5
413.812	2852.5
414.035	2821.5
414.258	2867.5
414.482	2879.5
414.705	2903.5
414.928	2829.5
415.151	2856.5
415.374	2852.5
415.597	2775.5
415.821	2735.5
416.044	2731.5
416.267	2731.5
416.49	2810.5
416.713	2753.5
416.936	2778.5
417.159	2753.5
417.382	2689.5
417.605	2645.5
417.828	2762.5
418.051	2778.5
418.274	2806.5
418.497	2790.5
418.72	2819.5
418.943	2821.5
419.166	2920.5
419.389	3057.5
419.611	3016.5
419.834	2922.5
420.057	2897.5
420.28	2799.5
420.503	2743.5
420.726	2775.5
420.948	2703.5
421.171	2756.5
421.394	2745.5
421.617	2770.5
421.839	2779.5
422.062	2760.5
422.285	2766.5
422.507	2773.5
422.73	2860.5
422.953	2807.5
423.175	2829.5
423.398	2805.5
423.621	2725.5
423.843	2760.5
424.066	2765.5
424.288	2745.5
424.511	2792.5
424.733	2760.5
424.956	2698.5
425.178	2719.5
425.401	2712.5
425.623	2697.5
425.846	2634.5
426.068	2635.5
426.291	2634.5
426.513	2665.5
426.735	2613.5
426.958	2628.5
427.18	2612.5
427.402	2659.5
427.625	2645.5
427.847	2565.5
428.069	2578.5
428.292	2601.5
428.514	2532.5
428.736	2567.5
428.958	2606.5
429.181	2560.5
429.403	2561.5
429.625	2500.5
429.847	2565.5
430.069	2642.5
430.292	2682.5
430.514	2792.5
430.736	2796.5
430.958	2583.5
431.18	2546.5
431.402	2548.5
431.624	2456.5
431.846	2482.5
432.068	2475.5
432.29	2499.5
432.512	2425.5
432.734	2530.5
432.956	2555.5
433.178	2526.5
433.4	2516.5
433.622	2591.5
433.844	2552.5
434.066	2524.5
434.287	2525.5
434.509	2616.5
434.731	2602.5
434.953	2589.5
435.175	2701.5
435.397	2617.5
435.618	2621.5
435.84	2640.5
436.062	2519.5
436.284	2509.5
436.505	2479.5
436.727	2527.5
436.949	2548.5
437.17	2526.5
437.392	2477.5
437.614	2529.5
437.835	2392.5
438.057	2465.5
438.278	2389.5
438.5	2451.5
438.721	2507.5
438.943	2635.5
439.165	2636.5
439.386	2679.5
439.608	2611.5
439.829	2654.5
440.05	2756.5
440.272	2763.5
440.493	2673.5
440.715	2644.5
440.936	2661.5
441.158	2678.5
441.379	2682.5
441.6	2776.5
441.822	2856.5
442.043	3048.5
442.264	3092.5
442.486	2924.5
442.707	2755.5
442.928	2714.5
443.149	2696.5
443.371	2682.5
443.592	2681.5
443.813	2669.5
444.034	2731.5
444.255	2785.5
444.476	2810.5
444.698	2884.5
444.919	2910.5
445.14	2960.5
445.361	2810.5
445.582	2731.5
445.803	2741.5
446.024	2713.5
446.245	2715.5
446.466	2669.5
446.687	2643.5
446.908	2692.5
447.129	2598.5
447.35	2637.5
447.571	2540.5
447.792	2520.5
448.013	2536.5
448.234	2509.5
448.455	2504.5
448.675	2602.5
448.896	2647.5
449.117	2736.5
449.338	2997.5
449.559	3151.5
449.779	2748.5
450	2561.5
450.221	2525.5
450.442	2524.5
450.662	2500.5
450.883	2472.5
451.104	2435.5
451.324	2446.5
451.545	2441.5
451.766	2476.5
451.986	2535.5
452.207	2761.5
452.428	3667.5
452.648	5674.5
452.869	4757.5
453.089	3186.5
453.31	2961.5
453.53	2912.5
453.751	2991.5
453.971	3213.5
454.192	3071.5
454.412	2703.5
454.633	2505.5
454.853	2453.5
455.073	2421.5
455.294	2383.5
455.514	2368.5
455.734	2388.5
455.955	2323.5
456.175	2356.5
456.395	2307.5
456.616	2354.5
456.836	2390.5
457.056	2355.5
457.276	2397.5
457.497	2550.5
457.717	2578.5
457.937	2506.5
458.157	2501.5
458.377	2501.5
458.598	2544.5
458.818	2487.5
459.038	2501.5
459.258	2484.5
459.478	2560.5
459.698	2591.5
459.918	2640.5
460.138	2657.5
460.358	2693.5
460.578	2716.5
460.798	2746.5
461.018	2722.5
461.238	2764.5
461.458	2747.5
461.678	2790.5
461.898	2872.5
462.118	2921.5
462.338	2936.5
462.558	2955.5
462.777	3015.5
462.997	3122.5
463.217	3272.5
463.437	3379.5
463.657	3481.5
463.876	3447.5
464.096	3264.5
464.316	3069.5
464.536	3081.5
464.755	2984.5
464.975	2936.5
465.195	2860.5
465.414	2713.5
465.634	2671.5
465.854	2624.5
466.073	2665.5
466.293	2584.5
466.512	2599.5
466.732	2609.5
466.951	2783.5
467.171	3016.5
467.391	2885.5
467.61	2660.5
467.829	2570.5
468.049	2561.5
468.268	2543.5
468.488	2495.5
468.707	2433.5
468.927	2528.5
469.146	2507.5
469.365	2530.5
469.585	2608.5
469.804	2618.5
470.023	2687.5
470.243	2730.5
470.462	2801.5
470.681	2995.5
470.901	3272.5
471.12	3778.5
471.339	3771.5
471.558	3135.5
471.777	2818.5
471.997	2711.5
472.216	2669.5
472.435	2612.5
472.654	2533.5
472.873	2499.5
473.092	2490.5
473.311	2525.5
473.53	2587.5
473.749	2639.5
473.968	2714.5
474.187	2586.5
474.406	2502.5
474.625	2535.5
474.844	2568.5
475.063	2534.5
475.282	2575.5
475.501	2553.5
475.72	2641.5
475.939	2620.5
476.158	2643.5
476.377	2696.5
476.596	2695.5
476.814	2744.5
477.033	2673.5
477.252	2720.5
477.471	2800.5
477.69	2765.5
477.908	2821.5
478.127	2891.5
478.346	2865.5
478.564	2913.5
478.783	2917.5
479.002	2953.5
479.22	2992.5
479.439	3064.5
479.658	3000.5
479.876	3072.5
480.095	3055.5
480.313	3161.5
480.532	3111.5
480.751	3149.5
480.969	3072.5
481.188	3067.5
481.406	3102.5
481.624	3073.5
481.843	3132.5
482.061	3067.5
482.28	3083.5
482.498	3097.5
482.717	3112.5
482.935	3115.5
483.153	3112.5
483.372	3161.5
483.59	3227.5
483.808	3298.5
484.027	3395.5
484.245	3589.5
484.463	4026.5
484.681	4455.5
484.9	4114.5
485.118	3847.5
485.336	3676.5
485.554	3773.5
485.772	3971.5
485.99	4531.5
486.209	4839.5
486.427	4083.5
486.645	3628.5
486.863	3499.5
487.081	3324.5
487.299	3291.5
487.517	3300.5
487.735	3268.5
487.953	3295.5
488.171	3307.5
488.389	3219.5
488.607	3199.5
488.825	3192.5
489.043	3142.5
489.261	3187.5
489.479	3126.5
489.696	3163.5
489.914	3205.5
490.132	3183.5
490.35	3235.5
490.568	3207.5
490.786	3230.5
491.003	3233.5
491.221	3335.5
491.439	3276.5
491.657	3333.5
491.874	3303.5
492.092	3306.5
492.31	3367.5
492.527	3341.5
492.745	3291.5
492.963	3318.5
493.18	3255.5
493.398	3313.5
493.615	3364.5
493.833	3340.5
494.05	3327.5
494.268	3299.5
494.485	3374.5
494.703	3347.5
494.92	3331.5
495.138	3325.5
495.355	3350.5
495.573	3358.5
495.79	3368.5
496.008	3385.5
496.225	3415.5
496.442	3481.5
496.66	3634.5
496.877	3844.5
497.094	3713.5
497.312	3628.5
497.529	3648.5
497.746	3628.5
497.963	3680.5
498.181	3775.5
498.398	3849.5
498.615	3953.5
498.832	4138.5
499.049	4360.5
499.267	4591.5
499.484	4850.5
499.701	4900.5
499.918	4968.5
500.135	5157.5
500.352	5363.5
500.569	5491.5
500.786	5407.5
501.003	5283.5
501.22	5084.5
501.437	4788.5
501.654	4515.5
501.871	4329.5
502.088	4215.5
502.305	4073.5
502.522	3924.5
502.739	3859.5
502.956	3754.5
503.172	3645.5
503.389	3564.5
503.606	3483.5
503.823	3455.5
504.04	3439.5
504.256	3458.5
504.473	3470.5
504.69	3385.5
504.907	3422.5
505.123	3301.5
505.34	3207.5
505.557	3178.5
505.773	3117.5
505.99	3108.5
506.207	3037.5
506.423	2996.5
506.64	2985.5
506.856	3009.5
507.073	2972.5
507.289	2911.5
507.506	2939.5
507.722	2931.5
507.939	2930.5
508.155	2870.5
508.372	2898.5
508.588	2879.5
508.805	2847.5
509.021	2864.5
509.238	2861.5
509.454	3141.5
509.67	3333.5
509.887	3064.5
510.103	2921.5
510.319	2883.5
510.536	2916.5
510.752	2866.5
510.968	2833.5
511.184	2796.5
511.401	2803.5
511.617	2731.5
511.833	2728.5
512.049	2764.5
512.265	2714.5
512.481	2686.5
512.698	2707.5
512.914	2754.5
513.13	2744.5
513.346	2757.5
513.562	2787.5
513.778	2786.5
513.994	2829.5
514.21	2922.5
514.426	3154.5
514.642	3223.5
514.858	2977.5
515.074	2853.5
515.29	2850.5
515.506	2807.5
515.721	2855.5
515.937	2886.5
516.153	2871.5
516.369	2867.5
516.585	2879.5
516.801	2962.5
517.016	2965.5
517.232	3056.5
517.448	3075.5
517.664	3071.5
517.879	3119.5
518.095	3163.5
518.311	3124.5
518.527	3087.5
518.742	3048.5
518.958	3087.5
519.173	3195.5
519.389	3052.5
519.605	2867.5
519.82	2828.5
520.036	2780.5
520.251	2798.5
520.467	2760.5
520.682	2719.5
520.898	2750.5
521.113	2690.5
521.329	2656.5
521.544	2697.5
521.76	2747.5
521.975	2700.5
522.19	2709.5
522.406	2673.5
522.621	2652.5
522.836	2651.5
523.052	2657.5
523.267	2644.5
523.482	2624.5
523.698	2619.5
523.913	2641.5
524.128	2660.5
524.343	2682.5
524.559	2649.5
524.774	2610.5
524.989	2630.5
525.204	2584.5
525.419	2617.5
525.634	2589.5
525.849	2674.5
526.064	2621.5
526.28	2656.5
526.495	2613.5
526.71	2653.5
526.925	2664.5
527.14	2624.5
527.355	2677.5
527.57	2644.5
527.785	2701.5
527.999	2707.5
528.214	2692.5
528.429	2744.5
528.644	2692.5
528.859	2815.5
529.074	2848.5
529.289	2852.5
529.503	2860.5
529.718	2856.5
529.933	2829.5
530.148	2793.5
530.363	2799.5
530.577	2756.5
530.792	2852.5
531.007	2867.5
531.221	2882.5
531.436	2892.5
531.651	2948.5
531.865	2971.5
532.08	2994.5
532.295	3084.5
532.509	3366.5
532.724	3308.5
532.938	3377.5
533.153	3469.5
533.367	3798.5
533.582	3977.5
533.796	3895.5
534.011	3776.5
534.225	3613.5
534.44	3447.5
534.654	3328.5
534.868	3259.5
535.083	3209.5
535.297	3121.5
535.511	3092.5
535.726	3076.5
535.94	2983.5
536.154	2941.5
536.369	2913.5
536.583	2863.5
536.797	2887.5
537.011	2794.5
537.225	2792.5
537.44	2776.5
537.654	2764.5
537.868	2726.5
538.082	2644.5
538.296	2695.5
538.51	2640.5
538.724	2633.5
538.938	2655.5
539.153	2614.5
539.367	2572.5
539.581	2601.5
539.795	2570.5
540.009	2513.5
540.222	2524.5
540.436	2576.5
540.65	2587.5
540.864	2643.5
541.078	2651.5
541.292	2856.5
541.506	3312.5
541.72	3493.5
541.934	3031.5
542.147	2850.5
542.361	2743.5
542.575	2659.5
542.789	2535.5
543.002	2496.5
543.216	2508.5
543.43	2476.5
543.644	2438.5
543.857	2504.5
544.071	2472.5
544.285	2480.5
544.498	2511.5
544.712	2482.5
544.925	2514.5
545.139	2459.5
545.352	2484.5
545.566	2511.5
545.779	2472.5
545.993	2497.5
546.206	2519.5
546.42	2454.5
546.633	2491.5
546.847	2474.5
547.06	2501.5
547.274	2507.5
547.487	2466.5
547.7	2474.5
547.914	2492.5
548.127	2559.5
548.34	2511.5
548.554	2483.5
548.767	2501.5
548.98	2516.5
549.193	2530.5
549.407	2452.5
549.62	2451.5
549.833	2522.5
550.046	2525.5
550.259	2500.5
550.473	2478.5
550.686	2458.5
550.899	2514.5
551.112	2495.5
551.325	2487.5
551.538	2471.5
551.751	2458.5
551.964	2446.5
552.177	2519.5
552.39	2577.5
552.603	2613.5
552.816	2667.5
553.029	2732.5
553.242	2696.5
553.455	2744.5
553.667	2770.5
553.88	2782.5
554.093	2825.5
554.306	2864.5
554.519	2872.5
554.732	2907.5
554.944	2991.5
555.157	3015.5
555.37	3091.5
555.583	3279.5
555.795	3443.5
556.008	3758.5
556.221	4134.5
556.433	4459.5
556.646	4505.5
556.859	4238.5
557.071	4008.5
557.284	3929.5
557.496	3799.5
557.709	3741.5
557.921	3670.5
558.134	3639.5
558.346	3680.5
558.559	3901.5
558.771	4063.5
558.984	4553.5
559.196	4860.5
559.409	4677.5
559.621	4227.5
559.833	4001.5
560.046	3740.5
560.258	3535.5
560.47	3352.5
560.683	3219.5
560.895	3098.5
561.107	2976.5
561.32	2860.5
561.532	2843.5
561.744	2754.5
561.956	2713.5
562.168	2675.5
562.381	2652.5
562.593	2589.5
562.805	2635.5
563.017	2717.5
563.229	2764.5
563.441	3204.5
563.653	2682.5
563.865	2477.5
564.077	2395.5
564.289	2373.5
564.501	2346.5
564.713	2345.5
564.925	2323.5
565.137	2309.5
565.349	2341.5
565.561	2312.5
565.773	2307.5
565.985	2339.5
566.197	2374.5
566.408	2405.5
566.62	2489.5
566.832	2548.5
567.044	2528.5
567.255	2533.5
567.467	2612.5
567.679	2637.5
567.891	2754.5
568.102	3072.5
568.314	3536.5
568.526	3041.5
568.737	2664.5
568.949	2433.5
569.161	2287.5
569.372	2255.5
569.584	2180.5
569.795	2119.5
570.007	2117.5
570.218	2187.5
570.43	2261.5
570.641	2044.5
570.853	2008.5
571.064	1951.5
571.276	1914.5
571.487	1881.5
571.698	1859.5
571.91	1857.5
572.121	1855.5
572.333	1819.5
572.544	1831.5
572.755	1980.5
572.966	2346.5
573.178	2137.5
573.389	1873.5
573.6	1796.5
573.811	1759.5
574.023	1731.5
574.234	1722.5
574.445	1731.5
574.656	1681.5
574.867	1678.5
575.078	1685.5
575.289	1689.5
575.501	1692.5
575.712	1663.5
575.923	1634.5
576.134	1633.5
576.345	1676.5
576.556	1704.5
576.767	1695.5
576.978	1700.5
577.188	1719.5
577.399	1735.5
577.61	1711.5
577.821	1742.5
578.032	1778.5
578.243	1787.5
578.454	1826.5
578.665	1897.5
578.875	1930.5
579.086	1987.5
579.297	2071.5
579.508	2233.5
579.718	2383.5
579.929	2765.5
580.14	3304.5
580.35	3318.5
580.561	3001.5
580.772	2721.5
580.982	2554.5
581.193	2339.5
581.403	2159.5
581.614	2084.5
581.825	2036.5
582.035	1928.5
582.246	1856.5
582.456	1834.5
582.667	1779.5
582.877	1745.5
583.087	1685.5
583.298	1657.5
583.508	1587.5
583.719	1571.5
583.929	1524.5
584.139	1533.5
584.35	1419.5
584.56	1450.5
584.77	1415.5
584.981	1416.5
585.191	1394.5
585.401	1380.5
585.611	1339.5
585.821	1322.5
586.032	1341.5
586.242	1326.5
586.452	1292.5
586.662	1290.5
586.872	1272.5
587.082	1256.5
587.292	1252.5
587.502	1252.5
587.713	1254.5
587.923	1221.5
588.133	1206.5
588.343	1175.5
588.553	1205.5
588.762	1194.5
588.972	1199.5
589.182	1217.5
589.392	1220.5
589.602	1191.5
589.812	1201.5
590.022	1190.5
590.232	1163.5
590.441	1173.5
590.651	1175.5
590.861	1180.5
591.071	1155.5
591.281	1163.5
591.49	1169.5
591.7	1128.5
591.91	1164.5
592.119	1142.5
592.329	1179.5
592.539	1185.5
592.748	1179.5
592.958	1192.5
593.167	1185.5
593.377	1207.5
593.587	1159.5
593.796	1197.5
594.006	1193.5
594.215	1156.5
594.424	1183.5
594.634	1164.5
594.843	1140.5
595.053	1132.5
595.262	1095.5
595.472	1081.5
595.681	1091.5
595.89	1085.5
596.1	1085.5
596.309	1049.5
596.518	1033.5
596.727	1041.5
596.937	1027.5
597.146	1018.5
597.355	990.5
597.564	989.5
597.774	982.5
597.983	984.5
598.192	964.5
598.401	973.5
598.61	943.5
598.819	960.5
599.028	974.5
599.237	909.5
599.446	931.5
599.655	943.5
599.864	909.5
600.073	953.5
600.282	909.5
600.491	954.5
600.7	948.5
600.909	960.5
601.118	923.5
601.327	952.5
601.536	940.5
601.745	955.5
601.953	1063.5
602.162	1211.5
602.371	1068.5
602.58	976.5
602.789	947.5
602.997	952.5
603.206	923.5
603.415	912.5
603.623	917.5
603.832	901.5
604.041	892.5
604.249	894.5
604.458	888.5
604.666	868.5
604.875	893.5
605.084	872.5
605.292	888.5
605.501	895.5
605.709	903.5
605.918	888.5
606.126	886.5
606.334	923.5
606.543	939.5
606.751	986.5
606.96	1091.5
607.168	1239.5
607.376	1059.5
607.585	967.5
607.793	936.5
608.001	915.5
608.21	890.5
608.418	881.5
608.626	881.5
608.834	860.5
609.043	876.5
609.251	868.5
609.459	824.5
609.667	844.5
609.875	846.5
610.083	844.5
610.291	829.5
610.499	821.5
610.707	811.5
610.916	817.5
611.124	787.5
611.332	821.5
611.54	820.5
611.748	809.5
611.955	804.5
612.163	794.5
612.371	761.5
612.579	815.5
612.787	814.5
612.995	786.5
613.203	775.5
613.411	799.5
613.618	790.5
613.826	798.5
614.034	769.5
614.242	768.5
614.449	764.5
614.657	784.5
614.865	746.5
615.072	772.5
615.28	785.5
615.488	793.5
615.695	803.5
615.903	774.5
616.111	767.5
616.318	803.5
616.526	774.5
616.733	739.5
616.941	779.5
617.148	752.5
617.356	757.5
617.563	765.5
617.771	772.5
617.978	732.5
618.185	721.5
618.393	748.5
618.6	759.5
618.807	735.5
619.015	758.5
619.222	721.5
619.429	739.5
619.637	706.5
619.844	692.5
620.051	722.5
620.258	681.5
620.466	705.5
620.673	684.5
620.88	682.5
621.087	696.5
621.294	672.5
621.501	685.5
621.708	707.5
621.915	704.5
622.122	674.5
622.329	685.5
622.536	711.5
622.743	672.5
622.95	708.5
623.157	689.5
623.364	707.5
623.571	698.5
623.778	675.5
623.985	673.5
624.192	673.5
624.399	671.5
624.606	671.5
624.812	639.5
625.019	647.5
625.226	647.5
625.433	653.5
625.639	651.5
625.846	642.5
626.053	636.5
626.259	626.5
626.466	622.5
626.673	625.5
626.879	624.5
627.086	610.5
627.293	639.5
627.499	634.5
627.706	637.5
627.912	620.5
628.119	645.5
628.325	633.5
628.532	599.5
628.738	614.5
628.945	611.5
629.151	634.5
629.357	614.5
629.564	611.5
629.77	600.5
629.976	600.5
630.183	578.5
630.389	573.5
630.595	602.5
630.802	587.5
631.008	597.5
631.214	596.5
631.42	594.5
631.627	587.5
631.833	574.5
632.039	573.5
632.245	595.5
632.451	593.5
632.657	588.5
632.863	595.5
633.069	586.5
633.275	586.5
633.481	562.5
633.688	571.5
633.893	579.5
634.099	561.5
634.305	571.5
634.511	569.5
634.717	588.5
634.923	587.5
635.129	730.5
635.335	773.5
635.541	687.5
635.747	645.5
635.952	620.5
636.158	604.5
636.364	587.5
636.57	575.5
636.775	595.5
636.981	571.5
637.187	562.5
637.392	557.5
637.598	572.5
637.804	572.5
638.009	595.5
638.215	554.5
638.421	563.5
638.626	566.5
638.832	595.5
639.037	556.5
639.243	596.5
639.448	588.5
639.654	589.5
639.859	594.5
640.065	594.5
640.27	603.5
640.475	605.5
640.681	623.5
640.886	637.5
641.091	635.5
641.297	658.5
641.502	647.5
641.707	657.5
641.913	672.5
642.118	658.5
642.323	680.5
642.528	685.5
642.733	695.5
642.939	723.5
643.144	731.5
643.349	769.5
643.554	819.5
643.759	816.5
643.964	841.5
644.169	890.5
644.374	963.5
644.579	1054.5
644.784	1172.5
644.989	1304.5
645.194	1564.5
645.399	1972.5
645.604	2086.5
645.809	1557.5
646.014	1185.5
646.219	985.5
646.423	853.5
646.628	781.5
646.833	744.5
647.038	675.5
647.243	625.5
647.447	620.5
647.652	600.5
647.857	567.5
648.062	573.5
648.266	546.5
648.471	580.5
648.676	554.5
648.88	556.5
649.085	532.5
649.289	512.5
649.494	497.5
649.698	498.5
649.903	486.5
650.107	487.5
650.312	486.5
650.516	469.5
650.721	468.5
650.925	442.5
651.13	441.5
651.334	440.5
651.539	427.5
651.743	432.5
651.947	438.5
652.152	415.5
652.356	409.5
652.56	475.5
652.764	513.5
652.969	465.5
653.173	428.5
653.377	409.5
653.581	395.5
653.785	377.5
653.99	379.5
654.194	355.5
654.398	364.5
654.602	333.5
654.806	351.5
655.01	351.5
655.214	350.5
655.418	352.5
655.622	348.5
655.826	361.5
656.03	353.5
656.234	379.5
656.438	373.5
656.642	377.5
656.846	359.5
657.049	345.5
657.253	349.5
657.457	313.5
657.661	300.5
657.865	277.5
658.068	270.5
658.272	248.5
658.476	245.5
658.68	219.5
658.883	230.5
659.087	220.5
659.291	198.5
659.494	186.5
659.698	180.5
659.901	194.5
660.105	181.5
660.309	149.5
660.512	169.5
660.716	149.5
660.919	139.5
661.123	153.5
661.326	144.5
661.53	143.5
661.733	120.5
661.936	115.5
662.14	118.5
662.343	117.5
662.546	108.5
662.75	115.5
662.953	104.5
663.156	103.5
663.36	84.5
663.563	104.5
663.766	87.5
663.969	86.5
664.173	91.5
664.376	95.5
664.579	97.5
664.782	90.5
664.985	98.5
665.188	92.5
665.391	73.5
665.594	90.5
665.797	86.5
666	88.5
666.203	79.5
666.406	85.5
666.609	97.5
666.812	89.5
667.015	88.5
667.218	89.5
667.421	79.5
667.624	85.5
667.827	82.5
668.03	84.5
668.232	85.5
668.435	100.5
668.638	80.5
668.841	89.5
669.043	56.5
669.246	89.5
669.449	68.5
669.651	93.5
669.854	84.5
670.057	75.5
670.259	81.5
670.462	75.5
670.665	77.5
670.867	77.5
671.07	82.5
671.272	87.5
671.475	80.5
671.677	87.5
671.88	95.5
672.082	72.5
672.284	92.5
672.487	89.5
672.689	96.5
672.892	82.5
