Data from SnStandardFlinnAPT0064_LampEnergy10_LIBS07252019.E.O._I.C._HRD10591_15-22-34-494.txt Node
Date: Thu Jul 25 15:22:34 EDT 2019
User: cochatt
Spectrometer: HR+D1059
Trigger mode: 1
Integration Time (sec): 1.000000E-1
Scans to average: 1
Electric dark correction enabled: true
Nonlinearity correction enabled: false
Boxcar width: 0
XAxis mode: Wavelengths
Number of Pixels in Spectrum: 2048
>>>>>Begin Spectral Data<<<<<
223.165	-11.62
223.4	-11.62
223.635	-11.62
223.869	-12.62
224.104	-17.62
224.338	-30.62
224.573	-9.62
224.808	-15.62
225.042	-1.62
225.277	-9.62
225.511	-13.62
225.746	5.38
225.98	6.38
226.215	9.38
226.449	21.38
226.683	16.38
226.918	23.38
227.152	40.38
227.387	39.38
227.621	24.38
227.856	49.38
228.09	44.38
228.324	36.38
228.559	50.38
228.793	129.38
229.027	307.38
229.262	335.38
229.496	292.38
229.73	282.38
229.964	293.38
230.199	284.38
230.433	308.38
230.667	308.38
230.901	312.38
231.136	333.38
231.37	337.38
231.604	387.38
231.838	434.38
232.072	528.38
232.306	555.38
232.541	466.38
232.775	414.38
233.009	404.38
233.243	425.38
233.477	418.38
233.711	514.38
233.945	589.38
234.179	503.38
234.413	455.38
234.647	447.38
234.881	464.38
235.115	523.38
235.349	598.38
235.583	756.38
235.817	1027.38
236.051	1018.38
236.285	645.38
236.519	512.38
236.753	470.38
236.987	498.38
237.221	530.38
237.455	512.38
237.689	462.38
237.922	435.38
238.156	451.38
238.39	487.38
238.624	495.38
238.858	464.38
239.091	474.38
239.325	474.38
239.559	486.38
239.793	501.38
240.027	508.38
240.26	520.38
240.494	547.38
240.728	550.38
240.961	597.38
241.195	635.38
241.429	676.38
241.662	686.38
241.896	763.38
242.13	964.38
242.363	1284.38
242.597	1683.38
242.83	1599.38
243.064	1553.38
243.298	1862.38
243.531	1527.38
243.765	959.38
243.998	784.38
244.232	697.38
244.465	673.38
244.699	642.38
244.932	648.38
245.166	651.38
245.399	677.38
245.633	682.38
245.866	684.38
246.099	675.38
246.333	632.38
246.566	630.38
246.8	639.38
247.033	647.38
247.266	653.38
247.5	635.38
247.733	658.38
247.966	730.38
248.2	783.38
248.433	854.38
248.666	987.38
248.899	955.38
249.133	820.38
249.366	871.38
249.599	978.38
249.832	1094.38
250.066	1063.38
250.299	854.38
250.532	764.38
250.765	712.38
250.998	718.38
251.231	730.38
251.465	729.38
251.698	743.38
251.931	736.38
252.164	727.38
252.397	771.38
252.63	778.38
252.863	800.38
253.096	776.38
253.329	770.38
253.562	787.38
253.795	777.38
254.028	791.38
254.261	836.38
254.494	862.38
254.727	1023.38
254.96	1234.38
255.193	1218.38
255.426	970.38
255.659	864.38
255.892	865.38
256.124	868.38
256.357	878.38
256.59	906.38
256.823	945.38
257.056	1126.38
257.289	1363.38
257.521	1507.38
257.754	1210.38
257.987	960.38
258.22	879.38
258.452	906.38
258.685	905.38
258.918	949.38
259.151	978.38
259.383	1097.38
259.616	1218.38
259.849	1276.38
260.081	1061.38
260.314	957.38
260.547	932.38
260.779	933.38
261.012	961.38
261.244	968.38
261.477	959.38
261.71	987.38
261.942	1002.38
262.175	1023.38
262.407	1045.38
262.64	1009.38
262.872	1092.38
263.105	1135.38
263.337	1221.38
263.57	1305.38
263.802	1294.38
264.035	1327.38
264.267	1380.38
264.499	1390.38
264.732	1422.38
264.964	1475.38
265.197	1437.38
265.429	1466.38
265.661	1468.38
265.894	1568.38
266.126	1753.38
266.358	1950.38
266.591	1926.38
266.823	1626.38
267.055	1484.38
267.287	1397.38
267.52	1322.38
267.752	1330.38
267.984	1310.38
268.216	1264.38
268.448	1249.38
268.681	1283.38
268.913	1225.38
269.145	1214.38
269.377	1223.38
269.609	1244.38
269.841	1286.38
270.073	1382.38
270.306	1614.38
270.538	2180.38
270.77	3287.38
271.002	4066.38
271.234	2783.38
271.466	1852.38
271.698	1546.38
271.93	1407.38
272.162	1314.38
272.394	1276.38
272.626	1242.38
272.858	1219.38
273.09	1218.38
273.322	1245.38
273.553	1214.38
273.785	1198.38
274.017	1199.38
274.249	1194.38
274.481	1205.38
274.713	1202.38
274.945	1225.38
275.176	1190.38
275.408	1206.38
275.64	1211.38
275.872	1238.38
276.104	1225.38
276.335	1259.38
276.567	1277.38
276.799	1283.38
277.031	1313.38
277.262	1337.38
277.494	1420.38
277.726	1510.38
277.957	1843.38
278.189	2059.38
278.421	1988.38
278.652	1738.38
278.884	1620.38
279.115	1496.38
279.347	1423.38
279.579	1368.38
279.81	1368.38
280.042	1349.38
280.273	1385.38
280.505	1470.38
280.736	1526.38
280.968	1578.38
281.199	1769.38
281.431	2061.38
281.662	2120.38
281.894	1769.38
282.125	1612.38
282.356	1648.38
282.588	1657.38
282.819	1700.38
283.051	1764.38
283.282	1977.38
283.513	2509.38
283.745	3606.38
283.976	5822.38
284.207	8369.38
284.439	7524.38
284.67	4500.38
284.901	3679.38
285.132	3759.38
285.364	3624.38
285.595	2670.38
285.826	2454.38
286.057	2888.38
286.288	3959.38
286.52	5380.38
286.751	5020.38
286.982	3026.38
287.213	2218.38
287.444	1961.38
287.675	1832.38
287.906	1774.38
288.138	1691.38
288.369	1694.38
288.6	1680.38
288.831	1659.38
289.062	1625.38
289.293	1677.38
289.524	1692.38
289.755	1683.38
289.986	1737.38
290.217	1674.38
290.448	1719.38
290.679	1735.38
290.91	1758.38
291.141	1859.38
291.371	2050.38
291.602	2122.38
291.833	1944.38
292.064	1713.38
292.295	1670.38
292.526	1632.38
292.757	1621.38
292.987	1588.38
293.218	1563.38
293.449	1627.38
293.68	1575.38
293.91	1576.38
294.141	1580.38
294.372	1556.38
294.603	1562.38
294.833	1569.38
295.064	1529.38
295.295	1563.38
295.525	1534.38
295.756	1533.38
295.987	1511.38
296.217	1592.38
296.448	1533.38
296.679	1568.38
296.909	1561.38
297.14	1573.38
297.37	1622.38
297.601	1603.38
297.831	1611.38
298.062	1614.38
298.292	1656.38
298.523	1635.38
298.753	1681.38
298.984	1691.38
299.214	1726.38
299.445	1720.38
299.675	1786.38
299.905	1801.38
300.136	1876.38
300.366	2146.38
300.597	2803.38
300.827	3972.38
301.057	5379.38
301.288	5326.38
301.518	3422.38
301.748	2576.38
301.979	2323.38
302.209	2282.38
302.439	2292.38
302.669	2389.38
302.9	2996.38
303.13	4196.38
303.36	6357.38
303.59	8533.38
303.82	7266.38
304.051	4215.38
304.281	3014.38
304.511	2496.38
304.741	2267.38
304.971	2154.38
305.201	2100.38
305.431	1997.38
305.661	1958.38
305.891	1885.38
306.121	1858.38
306.352	1869.38
306.582	1855.38
306.812	1821.38
307.042	1898.38
307.272	1817.38
307.502	1801.38
307.731	1815.38
307.961	1786.38
308.191	1818.38
308.421	1829.38
308.651	1794.38
308.881	1794.38
309.111	1818.38
309.341	1838.38
309.571	1831.38
309.8	1825.38
310.03	1833.38
310.26	1862.38
310.49	1849.38
310.72	1855.38
310.949	1829.38
311.179	1886.38
311.409	1899.38
311.639	1947.38
311.868	1953.38
312.098	1955.38
312.328	1950.38
312.557	1936.38
312.787	1941.38
313.017	1992.38
313.246	2029.38
313.476	2042.38
313.706	2076.38
313.935	2191.38
314.165	2371.38
314.394	2480.38
314.624	2330.38
314.853	2202.38
315.083	2133.38
315.312	2133.38
315.542	2175.38
315.771	2231.38
316.001	2256.38
316.23	2309.38
316.46	2394.38
316.689	2654.38
316.919	3226.38
317.148	4732.38
317.377	7380.38
317.607	10906.38
317.836	11220.38
318.065	6630.38
318.295	4198.38
318.524	3341.38
318.753	2906.38
318.983	2751.38
319.212	2544.38
319.441	2492.38
319.67	2436.38
319.9	2374.38
320.129	2347.38
320.358	2337.38
320.587	2311.38
320.816	2307.38
321.046	2383.38
321.275	2351.38
321.504	2369.38
321.733	2432.38
321.962	2489.38
322.191	2545.38
322.42	2482.38
322.649	2539.38
322.878	2474.38
323.108	2506.38
323.337	2520.38
323.566	2582.38
323.795	2594.38
324.024	2630.38
324.253	2692.38
324.482	2872.38
324.71	2971.38
324.939	3144.38
325.168	3261.38
325.397	3357.38
325.626	4037.38
325.855	5703.38
326.084	9030.38
326.313	13007.38
326.542	13668.38
326.77	9059.38
326.999	5861.38
327.228	4842.38
327.457	4668.38
327.686	4765.38
327.914	5060.38
328.143	5974.38
328.372	7019.38
328.6	7812.38
328.829	6872.38
329.058	5720.38
329.287	5039.38
329.515	4598.38
329.744	4200.38
329.972	4022.38
330.201	3803.38
330.43	3718.38
330.658	3606.38
330.887	3572.38
331.115	3426.38
331.344	3497.38
331.572	3446.38
331.801	3483.38
332.03	3527.38
332.258	3546.38
332.486	3778.38
332.715	4305.38
332.943	5305.38
333.172	6724.38
333.4	6584.38
333.629	4930.38
333.857	4489.38
334.085	4488.38
334.314	4686.38
334.542	5093.38
334.771	6011.38
334.999	7359.38
335.227	9394.38
335.455	10562.38
335.684	9275.38
335.912	7546.38
336.14	6311.38
336.369	5607.38
336.597	5131.38
336.825	4754.38
337.053	4544.38
337.281	4226.38
337.51	4040.38
337.738	3826.38
337.966	3704.38
338.194	3640.38
338.422	3521.38
338.65	3428.38
338.878	3289.38
339.106	3276.38
339.334	3210.38
339.562	3183.38
339.79	3060.38
340.018	3106.38
340.246	3026.38
340.474	3058.38
340.702	3035.38
340.93	2996.38
341.158	3006.38
341.386	3017.38
341.614	3012.38
341.842	2944.38
342.07	2903.38
342.298	2826.38
342.526	2758.38
342.754	2745.38
342.981	2723.38
343.209	2705.38
343.437	2811.38
343.665	2798.38
343.893	2836.38
344.12	2838.38
344.348	2794.38
344.576	2774.38
344.804	2701.38
345.031	2640.38
345.259	2636.38
345.487	2612.38
345.714	2581.38
345.942	2532.38
346.17	2574.38
346.397	2525.38
346.625	2568.38
346.853	2562.38
347.08	2520.38
347.308	2550.38
347.535	2567.38
347.763	2554.38
347.99	2519.38
348.218	2492.38
348.445	2496.38
348.673	2467.38
348.9	2450.38
349.128	2462.38
349.355	2434.38
349.583	2456.38
349.81	2407.38
350.037	2394.38
350.265	2415.38
350.492	2410.38
350.72	2396.38
350.947	2408.38
351.174	2393.38
351.402	2407.38
351.629	2410.38
351.856	2418.38
352.083	2420.38
352.311	2371.38
352.538	2402.38
352.765	2379.38
352.992	2347.38
353.22	2376.38
353.447	2371.38
353.674	2398.38
353.901	2440.38
354.128	2416.38
354.355	2380.38
354.583	2414.38
354.81	2406.38
355.037	2454.38
355.264	2459.38
355.491	2457.38
355.718	2439.38
355.945	2448.38
356.172	2468.38
356.399	2456.38
356.626	2507.38
356.853	2540.38
357.08	2480.38
357.307	2544.38
357.534	2597.38
357.761	2656.38
357.988	2590.38
358.215	2531.38
358.441	2551.38
358.668	2532.38
358.895	2540.38
359.122	2527.38
359.349	2561.38
359.576	2566.38
359.802	2538.38
360.029	2519.38
360.256	2542.38
360.483	2519.38
360.709	2568.38
360.936	2593.38
361.163	2610.38
361.39	2596.38
361.616	2569.38
361.843	2578.38
362.07	2570.38
362.296	2564.38
362.523	2590.38
362.749	2562.38
362.976	2564.38
363.203	2521.38
363.429	2564.38
363.656	2526.38
363.882	2558.38
364.109	2507.38
364.335	2537.38
364.562	2562.38
364.788	2546.38
365.015	2561.38
365.241	2631.38
365.468	2822.38
365.694	2939.38
365.92	2824.38
366.147	2629.38
366.373	2598.38
366.599	2671.38
366.826	2610.38
367.052	2598.38
367.278	2640.38
367.505	2561.38
367.731	2631.38
367.957	2633.38
368.184	2645.38
368.41	2707.38
368.636	2679.38
368.862	2650.38
369.089	2664.38
369.315	2659.38
369.541	2606.38
369.767	2646.38
369.993	2654.38
370.219	2620.38
370.445	2663.38
370.672	2638.38
370.898	2656.38
371.124	2696.38
371.35	2682.38
371.576	2777.38
371.802	2741.38
372.028	2793.38
372.254	2752.38
372.48	2758.38
372.706	2786.38
372.932	2754.38
373.158	2809.38
373.384	2789.38
373.61	2764.38
373.835	2866.38
374.061	2878.38
374.287	2907.38
374.513	2890.38
374.739	2916.38
374.965	2913.38
375.191	2903.38
375.416	2938.38
375.642	2884.38
375.868	2877.38
376.094	2834.38
376.319	2788.38
376.545	2793.38
376.771	2781.38
376.997	2739.38
377.222	2707.38
377.448	2735.38
377.674	2738.38
377.899	2694.38
378.125	2787.38
378.35	2745.38
378.576	2713.38
378.802	2807.38
379.027	2809.38
379.253	2912.38
379.478	3078.38
379.704	3627.38
379.929	5285.38
380.155	8168.38
380.38	8811.38
380.606	5269.38
380.831	3744.38
381.057	3274.38
381.282	2968.38
381.507	2885.38
381.733	2832.38
381.958	2769.38
382.184	2729.38
382.409	2729.38
382.634	2711.38
382.86	2675.38
383.085	2740.38
383.31	2685.38
383.535	2680.38
383.761	2744.38
383.986	2721.38
384.211	2762.38
384.436	2778.38
384.662	2762.38
384.887	2756.38
385.112	2739.38
385.337	2815.38
385.562	2824.38
385.787	2792.38
386.013	2832.38
386.238	2818.38
386.463	2759.38
386.688	2776.38
386.913	2807.38
387.138	2754.38
387.363	2793.38
387.588	2746.38
387.813	2800.38
388.038	2769.38
388.263	2758.38
388.488	2807.38
388.713	2814.38
388.938	2773.38
389.163	2768.38
389.387	2807.38
389.612	2790.38
389.837	2756.38
390.062	2789.38
390.287	2830.38
390.512	2825.38
390.736	2816.38
390.961	2900.38
391.186	2902.38
391.411	2902.38
391.636	2932.38
391.86	2970.38
392.085	2933.38
392.31	2953.38
392.534	2867.38
392.759	2831.38
392.984	2821.38
393.208	2892.38
393.433	2955.38
393.658	2911.38
393.882	2799.38
394.107	2849.38
394.331	2847.38
394.556	2838.38
394.78	2846.38
395.005	2871.38
395.229	2814.38
395.454	2898.38
395.678	2897.38
395.903	2872.38
396.127	2926.38
396.352	2859.38
396.576	2866.38
396.801	2879.38
397.025	2917.38
397.249	2965.38
397.474	2953.38
397.698	2944.38
397.922	2993.38
398.147	2943.38
398.371	2983.38
398.595	2986.38
398.82	3092.38
399.044	3237.38
399.268	3325.38
399.492	3597.38
399.717	3639.38
399.941	3683.38
400.165	3577.38
400.389	3395.38
400.613	3308.38
400.837	3174.38
401.062	3151.38
401.286	3082.38
401.51	3081.38
401.734	3042.38
401.958	3088.38
402.182	3086.38
402.406	3023.38
402.63	3094.38
402.854	3089.38
403.078	3136.38
403.302	3122.38
403.526	3176.38
403.75	3206.38
403.974	3216.38
404.198	3155.38
404.422	3212.38
404.645	3164.38
404.869	3160.38
405.093	3175.38
405.317	3154.38
405.541	3172.38
405.765	3273.38
405.988	3304.38
406.212	3278.38
406.436	3251.38
406.66	3302.38
406.883	3305.38
407.107	3424.38
407.331	3465.38
407.555	3534.38
407.778	3465.38
408.002	3404.38
408.226	3403.38
408.449	3420.38
408.673	3355.38
408.896	3302.38
409.12	3192.38
409.344	3207.38
409.567	3175.38
409.791	3191.38
410.014	3200.38
410.238	3146.38
410.461	3222.38
410.685	3110.38
410.908	3061.38
411.132	3160.38
411.355	3066.38
411.578	3017.38
411.802	3069.38
412.025	3051.38
412.249	3109.38
412.472	3044.38
412.695	3030.38
412.919	2954.38
413.142	3004.38
413.365	3006.38
413.589	3018.38
413.812	3009.38
414.035	3034.38
414.258	2968.38
414.482	3016.38
414.705	3009.38
414.928	2963.38
415.151	2998.38
415.374	2955.38
415.597	2902.38
415.821	2883.38
416.044	2909.38
416.267	2871.38
416.49	2937.38
416.713	2911.38
416.936	2895.38
417.159	2887.38
417.382	2839.38
417.605	2848.38
417.828	2864.38
418.051	2867.38
418.274	2910.38
418.497	2939.38
418.72	3020.38
418.943	2873.38
419.166	3047.38
419.389	3195.38
419.611	3158.38
419.834	3065.38
420.057	3034.38
420.28	2904.38
420.503	2823.38
420.726	2890.38
420.948	2889.38
421.171	2823.38
421.394	2878.38
421.617	2880.38
421.839	2903.38
422.062	2924.38
422.285	2868.38
422.507	2948.38
422.73	2938.38
422.953	2968.38
423.175	3035.38
423.398	2949.38
423.621	2876.38
423.843	2868.38
424.066	2933.38
424.288	2889.38
424.511	2892.38
424.733	2875.38
424.956	2838.38
425.178	2840.38
425.401	2846.38
425.623	2892.38
425.846	2835.38
426.068	2846.38
426.291	2764.38
426.513	2761.38
426.735	2777.38
426.958	2782.38
427.18	2714.38
427.402	2725.38
427.625	2750.38
427.847	2677.38
428.069	2665.38
428.292	2718.38
428.514	2683.38
428.736	2651.38
428.958	2711.38
429.181	2614.38
429.403	2636.38
429.625	2688.38
429.847	2643.38
430.069	2716.38
430.292	2812.38
430.514	2934.38
430.736	2878.38
430.958	2724.38
431.18	2695.38
431.402	2616.38
431.624	2653.38
431.846	2581.38
432.068	2595.38
432.29	2620.38
432.512	2609.38
432.734	2703.38
432.956	2644.38
433.178	2682.38
433.4	2601.38
433.622	2661.38
433.844	2668.38
434.066	2610.38
434.287	2663.38
434.509	2695.38
434.731	2681.38
434.953	2713.38
435.175	2828.38
435.397	2748.38
435.618	2708.38
435.84	2659.38
436.062	2641.38
436.284	2639.38
436.505	2631.38
436.727	2654.38
436.949	2639.38
437.17	2625.38
437.392	2551.38
437.614	2533.38
437.835	2513.38
438.057	2517.38
438.278	2491.38
438.5	2581.38
438.721	2600.38
438.943	2672.38
439.165	2758.38
439.386	2777.38
439.608	2739.38
439.829	2724.38
440.05	2812.38
440.272	2851.38
440.493	2732.38
440.715	2688.38
440.936	2698.38
441.158	2734.38
441.379	2761.38
441.6	2865.38
441.822	2911.38
442.043	3090.38
442.264	3194.38
442.486	2977.38
442.707	2854.38
442.928	2838.38
443.149	2826.38
443.371	2781.38
443.592	2848.38
443.813	2807.38
444.034	2841.38
444.255	2865.38
444.476	2963.38
444.698	3046.38
444.919	3034.38
445.14	3165.38
445.361	2970.38
445.582	2884.38
445.803	2848.38
446.024	2815.38
446.245	2805.38
446.466	2817.38
446.687	2799.38
446.908	2769.38
447.129	2699.38
447.35	2667.38
447.571	2678.38
447.792	2614.38
448.013	2602.38
448.234	2581.38
448.455	2552.38
448.675	2649.38
448.896	2681.38
449.117	2783.38
449.338	3064.38
449.559	3184.38
449.779	2823.38
450	2628.38
450.221	2530.38
450.442	2542.38
450.662	2551.38
450.883	2517.38
451.104	2547.38
451.324	2571.38
451.545	2563.38
451.766	2560.38
451.986	2631.38
452.207	2784.38
452.428	3641.38
452.648	5539.38
452.869	4593.38
453.089	3142.38
453.31	2977.38
453.53	2942.38
453.751	3005.38
453.971	3235.38
454.192	3182.38
454.412	2742.38
454.633	2562.38
454.853	2471.38
455.073	2454.38
455.294	2452.38
455.514	2423.38
455.734	2409.38
455.955	2404.38
456.175	2415.38
456.395	2371.38
456.616	2403.38
456.836	2485.38
457.056	2459.38
457.276	2484.38
457.497	2669.38
457.717	2678.38
457.937	2553.38
458.157	2574.38
458.377	2552.38
458.598	2600.38
458.818	2615.38
459.038	2627.38
459.258	2644.38
459.478	2686.38
459.698	2668.38
459.918	2738.38
460.138	2684.38
460.358	2796.38
460.578	2810.38
460.798	2843.38
461.018	2858.38
461.238	2903.38
461.458	2913.38
461.678	2915.38
461.898	2972.38
462.118	3024.38
462.338	3104.38
462.558	3080.38
462.777	3146.38
462.997	3259.38
463.217	3419.38
463.437	3508.38
463.657	3612.38
463.876	3629.38
464.096	3356.38
464.316	3206.38
464.536	3143.38
464.755	3036.38
464.975	3002.38
465.195	2935.38
465.414	2850.38
465.634	2722.38
465.854	2675.38
466.073	2724.38
466.293	2645.38
466.512	2644.38
466.732	2695.38
466.951	2851.38
467.171	3051.38
467.391	2934.38
467.61	2745.38
467.829	2663.38
468.049	2630.38
468.268	2537.38
468.488	2586.38
468.707	2572.38
468.927	2560.38
469.146	2607.38
469.365	2585.38
469.585	2612.38
469.804	2706.38
470.023	2729.38
470.243	2799.38
470.462	2819.38
470.681	3032.38
470.901	3341.38
471.12	3852.38
471.339	3832.38
471.558	3175.38
471.777	2881.38
471.997	2752.38
472.216	2670.38
472.435	2640.38
472.654	2619.38
472.873	2618.38
473.092	2616.38
473.311	2643.38
473.53	2611.38
473.749	2684.38
473.968	2822.38
474.187	2681.38
474.406	2606.38
474.625	2626.38
474.844	2599.38
475.063	2599.38
475.282	2635.38
475.501	2663.38
475.72	2643.38
475.939	2727.38
476.158	2718.38
476.377	2741.38
476.596	2742.38
476.814	2746.38
477.033	2739.38
477.252	2791.38
477.471	2819.38
477.69	2883.38
477.908	2938.38
478.127	2962.38
478.346	2967.38
478.564	3049.38
478.783	3033.38
479.002	3062.38
479.22	3074.38
479.439	3088.38
479.658	3042.38
479.876	3150.38
480.095	3197.38
480.313	3230.38
480.532	3262.38
480.751	3224.38
480.969	3202.38
481.188	3163.38
481.406	3183.38
481.624	3194.38
481.843	3209.38
482.061	3200.38
482.28	3156.38
482.498	3119.38
482.717	3139.38
482.935	3194.38
483.153	3211.38
483.372	3214.38
483.59	3295.38
483.808	3345.38
484.027	3426.38
484.245	3656.38
484.463	4192.38
484.681	4673.38
484.9	4111.38
485.118	3834.38
485.336	3739.38
485.554	3797.38
485.772	4021.38
485.99	4604.38
486.209	5027.38
486.427	4148.38
486.645	3678.38
486.863	3478.38
487.081	3491.38
487.299	3463.38
487.517	3371.38
487.735	3371.38
487.953	3380.38
488.171	3348.38
488.389	3355.38
488.607	3278.38
488.825	3301.38
489.043	3220.38
489.261	3241.38
489.479	3252.38
489.696	3316.38
489.914	3264.38
490.132	3265.38
490.35	3296.38
490.568	3271.38
490.786	3297.38
491.003	3359.38
491.221	3414.38
491.439	3403.38
491.657	3367.38
491.874	3332.38
492.092	3434.38
492.31	3450.38
492.527	3392.38
492.745	3344.38
492.963	3409.38
493.18	3448.38
493.398	3395.38
493.615	3368.38
493.833	3410.38
494.05	3446.38
494.268	3492.38
494.485	3440.38
494.703	3434.38
494.92	3382.38
495.138	3414.38
495.355	3435.38
495.573	3427.38
495.79	3471.38
496.008	3496.38
496.225	3518.38
496.442	3483.38
496.66	3734.38
496.877	3915.38
497.094	3838.38
497.312	3712.38
497.529	3748.38
497.746	3739.38
497.963	3803.38
498.181	3877.38
498.398	3996.38
498.615	4118.38
498.832	4210.38
499.049	4439.38
499.267	4817.38
499.484	5076.38
499.701	5064.38
499.918	5127.38
500.135	5423.38
500.352	5811.38
500.569	5761.38
500.786	5700.38
501.003	5548.38
501.22	5310.38
501.437	4967.38
501.654	4782.38
501.871	4510.38
502.088	4342.38
502.305	4299.38
502.522	4096.38
502.739	4004.38
502.956	3892.38
503.172	3758.38
503.389	3748.38
503.606	3718.38
503.823	3606.38
504.04	3606.38
504.256	3570.38
504.473	3566.38
504.69	3592.38
504.907	3523.38
505.123	3521.38
505.34	3379.38
505.557	3264.38
505.773	3226.38
505.99	3204.38
506.207	3127.38
506.423	3136.38
506.64	3109.38
506.856	3092.38
507.073	3058.38
507.289	3055.38
507.506	3030.38
507.722	3020.38
507.939	2984.38
508.155	2934.38
508.372	2990.38
508.588	2970.38
508.805	2927.38
509.021	2945.38
509.238	3023.38
509.454	3160.38
509.67	3379.38
509.887	3136.38
510.103	3028.38
510.319	2967.38
510.536	2954.38
510.752	2959.38
510.968	2948.38
511.184	2815.38
511.401	2920.38
511.617	2849.38
511.833	2828.38
512.049	2798.38
512.265	2852.38
512.481	2868.38
512.698	2809.38
512.914	2841.38
513.13	2871.38
513.346	2864.38
513.562	2874.38
513.778	2853.38
513.994	2893.38
514.21	2948.38
514.426	3140.38
514.642	3337.38
514.858	3008.38
515.074	2947.38
515.29	2884.38
515.506	2854.38
515.721	2928.38
515.937	2920.38
516.153	2952.38
516.369	2988.38
516.585	3049.38
516.801	3075.38
517.016	3094.38
517.232	3196.38
517.448	3258.38
517.664	3283.38
517.879	3281.38
518.095	3268.38
518.311	3256.38
518.527	3194.38
518.742	3110.38
518.958	3209.38
519.173	3259.38
519.389	3125.38
519.605	2991.38
519.82	2917.38
520.036	2924.38
520.251	2892.38
520.467	2811.38
520.682	2836.38
520.898	2796.38
521.113	2827.38
521.329	2826.38
521.544	2785.38
521.76	2754.38
521.975	2807.38
522.19	2734.38
522.406	2732.38
522.621	2742.38
522.836	2757.38
523.052	2739.38
523.267	2681.38
523.482	2721.38
523.698	2707.38
523.913	2712.38
524.128	2727.38
524.343	2750.38
524.559	2731.38
524.774	2719.38
524.989	2735.38
525.204	2688.38
525.419	2711.38
525.634	2679.38
525.849	2676.38
526.064	2681.38
526.28	2660.38
526.495	2713.38
526.71	2729.38
526.925	2699.38
527.14	2677.38
527.355	2680.38
527.57	2752.38
527.785	2749.38
527.999	2735.38
528.214	2768.38
528.429	2774.38
528.644	2720.38
528.859	2856.38
529.074	2885.38
529.289	2913.38
529.503	2902.38
529.718	2841.38
529.933	2856.38
530.148	2859.38
530.363	2882.38
530.577	2882.38
530.792	2862.38
531.007	2916.38
531.221	2935.38
531.436	2987.38
531.651	2994.38
531.865	3057.38
532.08	3083.38
532.295	3167.38
532.509	3351.38
532.724	3369.38
532.938	3418.38
533.153	3523.38
533.367	3806.38
533.582	4075.38
533.796	3946.38
534.011	3770.38
534.225	3650.38
534.44	3468.38
534.654	3402.38
534.868	3330.38
535.083	3272.38
535.297	3195.38
535.511	3134.38
535.726	3101.38
535.94	2987.38
536.154	3003.38
536.369	2986.38
536.583	2893.38
536.797	2840.38
537.011	2929.38
537.225	2843.38
537.44	2803.38
537.654	2784.38
537.868	2751.38
538.082	2738.38
538.296	2730.38
538.51	2715.38
538.724	2740.38
538.938	2714.38
539.153	2645.38
539.367	2698.38
539.581	2640.38
539.795	2586.38
540.009	2616.38
540.222	2611.38
540.436	2614.38
540.65	2615.38
540.864	2636.38
541.078	2717.38
541.292	2876.38
541.506	3374.38
541.72	3532.38
541.934	3015.38
542.147	2853.38
542.361	2771.38
542.575	2654.38
542.789	2610.38
543.002	2590.38
543.216	2542.38
543.43	2536.38
543.644	2479.38
543.857	2484.38
544.071	2492.38
544.285	2532.38
544.498	2553.38
544.712	2584.38
544.925	2565.38
545.139	2550.38
545.352	2548.38
545.566	2568.38
545.779	2509.38
545.993	2554.38
546.206	2563.38
546.42	2540.38
546.633	2531.38
546.847	2548.38
547.06	2518.38
547.274	2540.38
547.487	2569.38
547.7	2602.38
547.914	2532.38
548.127	2519.38
548.34	2487.38
548.554	2534.38
548.767	2536.38
548.98	2542.38
549.193	2533.38
549.407	2564.38
549.62	2574.38
549.833	2548.38
550.046	2557.38
550.259	2529.38
550.473	2500.38
550.686	2562.38
550.899	2530.38
551.112	2583.38
551.325	2564.38
551.538	2560.38
551.751	2535.38
551.964	2534.38
552.177	2590.38
552.39	2590.38
552.603	2709.38
552.816	2692.38
553.029	2709.38
553.242	2742.38
553.455	2805.38
553.667	2808.38
553.88	2841.38
554.093	2826.38
554.306	2850.38
554.519	2874.38
554.732	2950.38
554.944	2956.38
555.157	3041.38
555.37	3122.38
555.583	3268.38
555.795	3419.38
556.008	3670.38
556.221	4192.38
556.433	4543.38
556.646	4524.38
556.859	4324.38
557.071	3977.38
557.284	3886.38
557.496	3727.38
557.709	3680.38
557.921	3637.38
558.134	3675.38
558.346	3695.38
558.559	3756.38
558.771	4074.38
558.984	4531.38
559.196	4986.38
559.409	4597.38
559.621	4192.38
559.833	3945.38
560.046	3696.38
560.258	3463.38
560.47	3361.38
560.683	3225.38
560.895	3052.38
561.107	2940.38
561.32	2864.38
561.532	2793.38
561.744	2734.38
561.956	2682.38
562.168	2682.38
562.381	2663.38
562.593	2599.38
562.805	2664.38
563.017	2718.38
563.229	2719.38
563.441	3183.38
563.653	2655.38
563.865	2483.38
564.077	2410.38
564.289	2408.38
564.501	2360.38
564.713	2354.38
564.925	2356.38
565.137	2358.38
565.349	2334.38
565.561	2337.38
565.773	2368.38
565.985	2396.38
566.197	2472.38
566.408	2470.38
566.62	2501.38
566.832	2599.38
567.044	2615.38
567.255	2593.38
567.467	2646.38
567.679	2671.38
567.891	2851.38
568.102	3168.38
568.314	3711.38
568.526	3156.38
568.737	2712.38
568.949	2474.38
569.161	2354.38
569.372	2240.38
569.584	2178.38
569.795	2166.38
570.007	2108.38
570.218	2193.38
570.43	2306.38
570.641	2111.38
570.853	2012.38
571.064	1978.38
571.276	1979.38
571.487	1954.38
571.698	1897.38
571.91	1888.38
572.121	1870.38
572.333	1847.38
572.544	1847.38
572.755	1977.38
572.966	2370.38
573.178	2103.38
573.389	1899.38
573.6	1808.38
573.811	1773.38
574.023	1768.38
574.234	1718.38
574.445	1723.38
574.656	1693.38
574.867	1682.38
575.078	1698.38
575.289	1737.38
575.501	1665.38
575.712	1679.38
575.923	1669.38
576.134	1710.38
576.345	1724.38
576.556	1688.38
576.767	1691.38
576.978	1700.38
577.188	1699.38
577.399	1756.38
577.61	1752.38
577.821	1730.38
578.032	1752.38
578.243	1787.38
578.454	1878.38
578.665	1872.38
578.875	1892.38
579.086	1935.38
579.297	2120.38
579.508	2166.38
579.718	2356.38
579.929	2747.38
580.14	3331.38
580.35	3350.38
580.561	3020.38
580.772	2676.38
580.982	2476.38
581.193	2266.38
581.403	2192.38
581.614	2097.38
581.825	1992.38
582.035	1950.38
582.246	1830.38
582.456	1798.38
582.667	1762.38
582.877	1779.38
583.087	1739.38
583.298	1646.38
583.508	1636.38
583.719	1564.38
583.929	1526.38
584.139	1504.38
584.35	1501.38
584.56	1500.38
584.77	1474.38
584.981	1454.38
585.191	1434.38
585.401	1413.38
585.611	1394.38
585.821	1365.38
586.032	1332.38
586.242	1324.38
586.452	1298.38
586.662	1331.38
586.872	1310.38
587.082	1260.38
587.292	1278.38
587.502	1256.38
587.713	1243.38
587.923	1231.38
588.133	1217.38
588.343	1227.38
588.553	1235.38
588.762	1189.38
588.972	1219.38
589.182	1247.38
589.392	1259.38
589.602	1190.38
589.812	1196.38
590.022	1163.38
590.232	1180.38
590.441	1206.38
590.651	1160.38
590.861	1193.38
591.071	1187.38
591.281	1180.38
591.49	1188.38
591.7	1189.38
591.91	1198.38
592.119	1170.38
592.329	1218.38
592.539	1175.38
592.748	1205.38
592.958	1187.38
593.167	1211.38
593.377	1228.38
593.587	1211.38
593.796	1231.38
594.006	1221.38
594.215	1220.38
594.424	1194.38
594.634	1176.38
594.843	1173.38
595.053	1187.38
595.262	1146.38
595.472	1142.38
595.681	1098.38
595.89	1094.38
596.1	1097.38
596.309	1070.38
596.518	1054.38
596.727	1048.38
596.937	1011.38
597.146	1035.38
597.355	999.38
597.564	998.38
597.774	1012.38
597.983	985.38
598.192	967.38
598.401	998.38
598.61	1004.38
598.819	950.38
599.028	964.38
599.237	948.38
599.446	942.38
599.655	961.38
599.864	960.38
600.073	943.38
600.282	966.38
600.491	938.38
600.7	929.38
600.909	951.38
601.118	934.38
601.327	912.38
601.536	941.38
601.745	968.38
601.953	1086.38
602.162	1224.38
602.371	1057.38
602.58	1007.38
602.789	952.38
602.997	945.38
603.206	916.38
603.415	928.38
603.623	918.38
603.832	906.38
604.041	912.38
604.249	885.38
604.458	887.38
604.666	889.38
604.875	868.38
605.084	850.38
605.292	885.38
605.501	892.38
605.709	890.38
605.918	923.38
606.126	932.38
606.334	904.38
606.543	933.38
606.751	1021.38
606.96	1135.38
607.168	1265.38
607.376	1052.38
607.585	994.38
607.793	930.38
608.001	890.38
608.21	878.38
608.418	868.38
608.626	850.38
608.834	879.38
609.043	873.38
609.251	832.38
609.459	840.38
609.667	837.38
609.875	819.38
610.083	812.38
610.291	856.38
610.499	837.38
610.707	840.38
610.916	835.38
611.124	828.38
611.332	826.38
611.54	816.38
611.748	799.38
611.955	798.38
612.163	809.38
612.371	801.38
612.579	798.38
612.787	803.38
612.995	786.38
613.203	799.38
613.411	807.38
613.618	778.38
613.826	802.38
614.034	809.38
614.242	772.38
614.449	774.38
614.657	797.38
614.865	789.38
615.072	820.38
615.28	817.38
615.488	785.38
615.695	790.38
615.903	766.38
616.111	809.38
616.318	793.38
616.526	798.38
616.733	808.38
616.941	777.38
617.148	791.38
617.356	760.38
617.563	774.38
617.771	780.38
617.978	748.38
618.185	753.38
618.393	766.38
618.6	725.38
618.807	738.38
619.015	746.38
619.222	746.38
619.429	739.38
619.637	722.38
619.844	711.38
620.051	713.38
620.258	703.38
620.466	720.38
620.673	683.38
620.88	696.38
621.087	676.38
621.294	704.38
621.501	670.38
621.708	669.38
621.915	691.38
622.122	703.38
622.329	703.38
622.536	703.38
622.743	690.38
622.95	708.38
623.157	689.38
623.364	686.38
623.571	688.38
623.778	705.38
623.985	682.38
624.192	691.38
624.399	665.38
624.606	672.38
624.812	658.38
625.019	658.38
625.226	665.38
625.433	659.38
625.639	627.38
625.846	645.38
626.053	658.38
626.259	652.38
626.466	647.38
626.673	626.38
626.879	620.38
627.086	624.38
627.293	625.38
627.499	623.38
627.706	606.38
627.912	656.38
628.119	635.38
628.325	631.38
628.532	625.38
628.738	645.38
628.945	624.38
629.151	628.38
629.357	624.38
629.564	592.38
629.77	616.38
629.976	594.38
630.183	604.38
630.389	603.38
630.595	595.38
630.802	607.38
631.008	600.38
631.214	595.38
631.42	595.38
631.627	614.38
631.833	572.38
632.039	583.38
632.245	593.38
632.451	595.38
632.657	597.38
632.863	586.38
633.069	592.38
633.275	582.38
633.481	588.38
633.688	577.38
633.893	582.38
634.099	570.38
634.305	592.38
634.511	591.38
634.717	595.38
634.923	602.38
635.129	680.38
635.335	792.38
635.541	702.38
635.747	600.38
635.952	570.38
636.158	595.38
636.364	604.38
636.57	588.38
636.775	609.38
636.981	597.38
637.187	572.38
637.392	558.38
637.598	580.38
637.804	580.38
638.009	550.38
638.215	587.38
638.421	585.38
638.626	584.38
638.832	563.38
639.037	580.38
639.243	577.38
639.448	592.38
639.654	612.38
639.859	623.38
640.065	596.38
640.27	642.38
640.475	610.38
640.681	628.38
640.886	636.38
641.091	625.38
641.297	617.38
641.502	627.38
641.707	628.38
641.913	640.38
642.118	673.38
642.323	665.38
642.528	670.38
642.733	684.38
642.939	716.38
643.144	739.38
643.349	738.38
643.554	757.38
643.759	800.38
643.964	836.38
644.169	888.38
644.374	948.38
644.579	1048.38
644.784	1141.38
644.989	1282.38
645.194	1548.38
645.399	1976.38
645.604	2094.38
645.809	1553.38
646.014	1143.38
646.219	961.38
646.423	822.38
646.628	784.38
646.833	730.38
647.038	688.38
647.243	634.38
647.447	615.38
647.652	608.38
647.857	579.38
648.062	573.38
648.266	554.38
648.471	555.38
648.676	544.38
648.88	536.38
649.085	539.38
649.289	498.38
649.494	498.38
649.698	515.38
649.903	501.38
650.107	471.38
650.312	474.38
650.516	459.38
650.721	463.38
650.925	470.38
651.13	442.38
651.334	453.38
651.539	423.38
651.743	420.38
651.947	418.38
652.152	424.38
652.356	427.38
652.56	451.38
652.764	517.38
652.969	454.38
653.173	417.38
653.377	406.38
653.581	379.38
653.785	378.38
653.99	379.38
654.194	368.38
654.398	361.38
654.602	336.38
654.806	363.38
655.01	357.38
655.214	361.38
655.418	351.38
655.622	347.38
655.826	369.38
656.03	362.38
656.234	368.38
656.438	353.38
656.642	372.38
656.846	362.38
657.049	355.38
657.253	337.38
657.457	315.38
657.661	286.38
657.865	288.38
658.068	258.38
658.272	247.38
658.476	235.38
658.68	230.38
658.883	210.38
659.087	207.38
659.291	197.38
659.494	197.38
659.698	198.38
659.901	188.38
660.105	183.38
660.309	171.38
660.512	159.38
660.716	173.38
660.919	152.38
661.123	147.38
661.326	141.38
661.53	141.38
661.733	124.38
661.936	112.38
662.14	120.38
662.343	124.38
662.546	103.38
662.75	107.38
662.953	119.38
663.156	103.38
663.36	98.38
663.563	94.38
663.766	75.38
663.969	94.38
664.173	86.38
664.376	95.38
664.579	90.38
664.782	93.38
664.985	95.38
665.188	94.38
665.391	87.38
665.594	78.38
665.797	85.38
666	95.38
666.203	75.38
666.406	73.38
666.609	94.38
666.812	103.38
667.015	92.38
667.218	80.38
667.421	79.38
667.624	87.38
667.827	74.38
668.03	95.38
668.232	83.38
668.435	84.38
668.638	79.38
668.841	90.38
669.043	79.38
669.246	78.38
669.449	74.38
669.651	90.38
669.854	82.38
670.057	87.38
670.259	83.38
670.462	99.38
670.665	84.38
670.867	72.38
671.07	85.38
671.272	90.38
671.475	86.38
671.677	89.38
671.88	76.38
672.082	87.38
672.284	91.38
672.487	86.38
672.689	81.38
672.892	89.38
