Data from SnStandardFlinnAPT0064_LampEnergy5.5_LIBS07252019.E.O._I.C._HRD10591_15-17-10-491.txt Node
Date: Thu Jul 25 15:17:10 EDT 2019
User: cochatt
Spectrometer: HR+D1059
Trigger mode: 1
Integration Time (sec): 1.000000E-1
Scans to average: 1
Electric dark correction enabled: true
Nonlinearity correction enabled: false
Boxcar width: 0
XAxis mode: Wavelengths
Number of Pixels in Spectrum: 2048
>>>>>Begin Spectral Data<<<<<
223.165	-17.5
223.4	-17.5
223.635	-17.5
223.869	-21.5
224.104	-25.5
224.338	-17.5
224.573	-24.5
224.808	-0.5
225.042	-23.5
225.277	-4.5
225.511	-1.5
225.746	3.5
225.98	16.5
226.215	16.5
226.449	19.5
226.683	27.5
226.918	19.5
227.152	33.5
227.387	35.5
227.621	45.5
227.856	35.5
228.09	53.5
228.324	49.5
228.559	54.5
228.793	76.5
229.027	147.5
229.262	156.5
229.496	159.5
229.73	154.5
229.964	165.5
230.199	155.5
230.433	164.5
230.667	147.5
230.901	152.5
231.136	156.5
231.37	167.5
231.604	176.5
231.838	201.5
232.072	222.5
232.306	242.5
232.541	223.5
232.775	203.5
233.009	191.5
233.243	214.5
233.477	211.5
233.711	227.5
233.945	267.5
234.179	247.5
234.413	232.5
234.647	231.5
234.881	224.5
235.115	245.5
235.349	294.5
235.583	335.5
235.817	435.5
236.051	442.5
236.285	306.5
236.519	246.5
236.753	245.5
236.987	225.5
237.221	231.5
237.455	232.5
237.689	214.5
237.922	237.5
238.156	223.5
238.39	247.5
238.624	237.5
238.858	230.5
239.091	226.5
239.325	246.5
239.559	232.5
239.793	228.5
240.027	242.5
240.26	245.5
240.494	253.5
240.728	253.5
240.961	273.5
241.195	290.5
241.429	322.5
241.662	305.5
241.896	350.5
242.13	397.5
242.363	525.5
242.597	641.5
242.83	666.5
243.064	645.5
243.298	757.5
243.531	645.5
243.765	397.5
243.998	345.5
244.232	298.5
244.465	283.5
244.699	303.5
244.932	278.5
245.166	305.5
245.399	288.5
245.633	305.5
245.866	306.5
246.099	306.5
246.333	295.5
246.566	285.5
246.8	281.5
247.033	277.5
247.266	288.5
247.5	309.5
247.733	299.5
247.966	309.5
248.2	349.5
248.433	361.5
248.666	425.5
248.899	405.5
249.133	340.5
249.366	382.5
249.599	407.5
249.832	453.5
250.066	452.5
250.299	375.5
250.532	345.5
250.765	328.5
250.998	343.5
251.231	334.5
251.465	339.5
251.698	328.5
251.931	329.5
252.164	321.5
252.397	316.5
252.63	352.5
252.863	365.5
253.096	347.5
253.329	330.5
253.562	347.5
253.795	339.5
254.028	343.5
254.261	360.5
254.494	370.5
254.727	457.5
254.96	545.5
255.193	505.5
255.426	431.5
255.659	373.5
255.892	382.5
256.124	381.5
256.357	394.5
256.59	387.5
256.823	412.5
257.056	443.5
257.289	545.5
257.521	592.5
257.754	515.5
257.987	419.5
258.22	407.5
258.452	387.5
258.685	410.5
258.918	417.5
259.151	434.5
259.383	452.5
259.616	476.5
259.849	514.5
260.081	450.5
260.314	417.5
260.547	434.5
260.779	419.5
261.012	402.5
261.244	439.5
261.477	426.5
261.71	443.5
261.942	429.5
262.175	467.5
262.407	485.5
262.64	470.5
262.872	484.5
263.105	482.5
263.337	545.5
263.57	554.5
263.802	573.5
264.035	551.5
264.267	589.5
264.499	579.5
264.732	630.5
264.964	629.5
265.197	609.5
265.429	637.5
265.661	609.5
265.894	675.5
266.126	739.5
266.358	850.5
266.591	800.5
266.823	671.5
267.055	622.5
267.287	599.5
267.52	573.5
267.752	566.5
267.984	550.5
268.216	577.5
268.448	553.5
268.681	542.5
268.913	554.5
269.145	550.5
269.377	554.5
269.609	544.5
269.841	562.5
270.073	570.5
270.306	669.5
270.538	893.5
270.77	1284.5
271.002	1595.5
271.234	1115.5
271.466	745.5
271.698	624.5
271.93	573.5
272.162	565.5
272.394	561.5
272.626	544.5
272.858	542.5
273.09	528.5
273.322	549.5
273.553	507.5
273.785	528.5
274.017	531.5
274.249	533.5
274.481	515.5
274.713	525.5
274.945	522.5
275.176	517.5
275.408	528.5
275.64	511.5
275.872	529.5
276.104	547.5
276.335	542.5
276.567	554.5
276.799	564.5
277.031	552.5
277.262	554.5
277.494	577.5
277.726	622.5
277.957	723.5
278.189	822.5
278.421	791.5
278.652	691.5
278.884	669.5
279.115	619.5
279.347	607.5
279.579	579.5
279.81	625.5
280.042	593.5
280.273	594.5
280.505	617.5
280.736	639.5
280.968	645.5
281.199	698.5
281.431	781.5
281.662	803.5
281.894	741.5
282.125	693.5
282.356	687.5
282.588	663.5
282.819	713.5
283.051	738.5
283.282	787.5
283.513	1027.5
283.745	1434.5
283.976	2337.5
284.207	3270.5
284.439	2924.5
284.67	1696.5
284.901	1399.5
285.132	1399.5
285.364	1334.5
285.595	1047.5
285.826	968.5
286.057	1175.5
286.288	1576.5
286.52	2141.5
286.751	1947.5
286.982	1175.5
287.213	898.5
287.444	789.5
287.675	749.5
287.906	713.5
288.138	717.5
288.369	698.5
288.6	716.5
288.831	685.5
289.062	693.5
289.293	713.5
289.524	720.5
289.755	707.5
289.986	735.5
290.217	714.5
290.448	709.5
290.679	731.5
290.91	735.5
291.141	746.5
291.371	794.5
291.602	834.5
291.833	767.5
292.064	718.5
292.295	705.5
292.526	691.5
292.757	677.5
292.987	694.5
293.218	665.5
293.449	667.5
293.68	672.5
293.91	661.5
294.141	656.5
294.372	655.5
294.603	663.5
294.833	683.5
295.064	688.5
295.295	651.5
295.525	663.5
295.756	664.5
295.987	673.5
296.217	659.5
296.448	673.5
296.679	638.5
296.909	683.5
297.14	667.5
297.37	690.5
297.601	708.5
297.831	690.5
298.062	665.5
298.292	672.5
298.523	692.5
298.753	722.5
298.984	692.5
299.214	731.5
299.445	707.5
299.675	735.5
299.905	756.5
300.136	771.5
300.366	882.5
300.597	1107.5
300.827	1556.5
301.057	2109.5
301.288	2075.5
301.518	1331.5
301.748	1018.5
301.979	926.5
302.209	921.5
302.439	907.5
302.669	955.5
302.9	1192.5
303.13	1599.5
303.36	2349.5
303.59	3250.5
303.82	2762.5
304.051	1617.5
304.281	1155.5
304.511	997.5
304.741	922.5
304.971	866.5
305.201	805.5
305.431	828.5
305.661	793.5
305.891	801.5
306.121	781.5
306.352	781.5
306.582	754.5
306.812	787.5
307.042	776.5
307.272	787.5
307.502	781.5
307.731	758.5
307.961	767.5
308.191	750.5
308.421	737.5
308.651	769.5
308.881	759.5
309.111	759.5
309.341	756.5
309.571	790.5
309.8	776.5
310.03	771.5
310.26	777.5
310.49	797.5
310.72	789.5
310.949	779.5
311.179	779.5
311.409	798.5
311.639	799.5
311.868	785.5
312.098	804.5
312.328	824.5
312.557	806.5
312.787	811.5
313.017	840.5
313.246	848.5
313.476	843.5
313.706	863.5
313.935	888.5
314.165	960.5
314.394	979.5
314.624	936.5
314.853	879.5
315.083	869.5
315.312	898.5
315.542	920.5
315.771	909.5
316.001	928.5
316.23	970.5
316.46	965.5
316.689	1070.5
316.919	1283.5
317.148	1861.5
317.377	2897.5
317.607	4279.5
317.836	4439.5
318.065	2489.5
318.295	1625.5
318.524	1288.5
318.753	1147.5
318.983	1079.5
319.212	1043.5
319.441	1042.5
319.67	992.5
319.9	957.5
320.129	961.5
320.358	961.5
320.587	971.5
320.816	963.5
321.046	957.5
321.275	974.5
321.504	978.5
321.733	984.5
321.962	1009.5
322.191	1052.5
322.42	1024.5
322.649	994.5
322.878	996.5
323.108	1015.5
323.337	1071.5
323.566	1060.5
323.795	1054.5
324.024	1078.5
324.253	1103.5
324.482	1141.5
324.71	1205.5
324.939	1238.5
325.168	1292.5
325.397	1355.5
325.626	1585.5
325.855	2191.5
326.084	3425.5
326.313	5185.5
326.542	5572.5
326.77	3379.5
326.999	2242.5
327.228	1871.5
327.457	1751.5
327.686	1798.5
327.914	1917.5
328.143	2159.5
328.372	2470.5
328.6	2667.5
328.829	2479.5
329.058	2165.5
329.287	1940.5
329.515	1790.5
329.744	1703.5
329.972	1585.5
330.201	1531.5
330.43	1505.5
330.658	1459.5
330.887	1400.5
331.115	1371.5
331.344	1373.5
331.572	1383.5
331.801	1373.5
332.03	1415.5
332.258	1420.5
332.486	1489.5
332.715	1681.5
332.943	2080.5
333.172	2520.5
333.4	2502.5
333.629	1925.5
333.857	1737.5
334.085	1754.5
334.314	1811.5
334.542	1983.5
334.771	2229.5
334.999	2690.5
335.227	3251.5
335.455	3630.5
335.684	3336.5
335.912	2851.5
336.14	2468.5
336.369	2186.5
336.597	2029.5
336.825	1883.5
337.053	1770.5
337.281	1649.5
337.51	1574.5
337.738	1528.5
337.966	1465.5
338.194	1462.5
338.422	1415.5
338.65	1365.5
338.878	1377.5
339.106	1291.5
339.334	1307.5
339.562	1266.5
339.79	1233.5
340.018	1254.5
340.246	1226.5
340.474	1230.5
340.702	1265.5
340.93	1217.5
341.158	1226.5
341.386	1239.5
341.614	1230.5
341.842	1203.5
342.07	1165.5
342.298	1185.5
342.526	1153.5
342.754	1110.5
342.981	1133.5
343.209	1130.5
343.437	1163.5
343.665	1167.5
343.893	1171.5
344.12	1169.5
344.348	1151.5
344.576	1131.5
344.804	1128.5
345.031	1105.5
345.259	1093.5
345.487	1059.5
345.714	1085.5
345.942	1064.5
346.17	1085.5
346.397	1043.5
346.625	1071.5
346.853	1075.5
347.08	1046.5
347.308	1061.5
347.535	1036.5
347.763	1042.5
347.99	1047.5
348.218	1035.5
348.445	1036.5
348.673	1047.5
348.9	1019.5
349.128	1034.5
349.355	1039.5
349.583	1026.5
349.81	1025.5
350.037	1041.5
350.265	1031.5
350.492	1030.5
350.72	1005.5
350.947	1033.5
351.174	996.5
351.402	1035.5
351.629	1001.5
351.856	1019.5
352.083	1001.5
352.311	1028.5
352.538	982.5
352.765	1015.5
352.992	1008.5
353.22	970.5
353.447	1011.5
353.674	1000.5
353.901	986.5
354.128	993.5
354.355	1013.5
354.583	1017.5
354.81	999.5
355.037	1032.5
355.264	1048.5
355.491	1018.5
355.718	1007.5
355.945	1013.5
356.172	999.5
356.399	1027.5
356.626	1021.5
356.853	1039.5
357.08	1031.5
357.307	1050.5
357.534	1043.5
357.761	1057.5
357.988	1088.5
358.215	1052.5
358.441	1059.5
358.668	1051.5
358.895	1051.5
359.122	1081.5
359.349	1054.5
359.576	1058.5
359.802	1082.5
360.029	1076.5
360.256	1055.5
360.483	1059.5
360.709	1062.5
360.936	1069.5
361.163	1092.5
361.39	1053.5
361.616	1065.5
361.843	1042.5
362.07	1093.5
362.296	1069.5
362.523	1035.5
362.749	1091.5
362.976	1053.5
363.203	1087.5
363.429	1075.5
363.656	1052.5
363.882	1079.5
364.109	1057.5
364.335	1062.5
364.562	1048.5
364.788	1062.5
365.015	1087.5
365.241	1105.5
365.468	1143.5
365.694	1194.5
365.92	1162.5
366.147	1097.5
366.373	1089.5
366.599	1103.5
366.826	1093.5
367.052	1086.5
367.278	1094.5
367.505	1121.5
367.731	1096.5
367.957	1079.5
368.184	1099.5
368.41	1106.5
368.636	1119.5
368.862	1108.5
369.089	1111.5
369.315	1099.5
369.541	1085.5
369.767	1103.5
369.993	1096.5
370.219	1092.5
370.445	1110.5
370.672	1131.5
370.898	1095.5
371.124	1122.5
371.35	1132.5
371.576	1140.5
371.802	1161.5
372.028	1168.5
372.254	1137.5
372.48	1155.5
372.706	1147.5
372.932	1144.5
373.158	1158.5
373.384	1190.5
373.61	1169.5
373.835	1171.5
374.061	1177.5
374.287	1180.5
374.513	1199.5
374.739	1218.5
374.965	1200.5
375.191	1237.5
375.416	1222.5
375.642	1158.5
375.868	1175.5
376.094	1190.5
376.319	1142.5
376.545	1157.5
376.771	1173.5
376.997	1146.5
377.222	1163.5
377.448	1155.5
377.674	1157.5
377.899	1145.5
378.125	1133.5
378.35	1117.5
378.576	1147.5
378.802	1171.5
379.027	1183.5
379.253	1217.5
379.478	1269.5
379.704	1483.5
379.929	2086.5
380.155	3163.5
380.38	3356.5
380.606	2037.5
380.831	1476.5
381.057	1295.5
381.282	1233.5
381.507	1159.5
381.733	1197.5
381.958	1157.5
382.184	1145.5
382.409	1178.5
382.634	1158.5
382.86	1136.5
383.085	1149.5
383.31	1158.5
383.535	1123.5
383.761	1145.5
383.986	1134.5
384.211	1153.5
384.436	1162.5
384.662	1141.5
384.887	1183.5
385.112	1173.5
385.337	1174.5
385.562	1153.5
385.787	1205.5
386.013	1168.5
386.238	1164.5
386.463	1157.5
386.688	1171.5
386.913	1183.5
387.138	1189.5
387.363	1167.5
387.588	1193.5
387.813	1163.5
388.038	1136.5
388.263	1170.5
388.488	1161.5
388.713	1181.5
388.938	1183.5
389.163	1188.5
389.387	1181.5
389.612	1155.5
389.837	1164.5
390.062	1178.5
390.287	1170.5
390.512	1237.5
390.736	1182.5
390.961	1208.5
391.186	1193.5
391.411	1236.5
391.636	1211.5
391.86	1232.5
392.085	1245.5
392.31	1223.5
392.534	1242.5
392.759	1235.5
392.984	1218.5
393.208	1197.5
393.433	1221.5
393.658	1255.5
393.882	1169.5
394.107	1201.5
394.331	1201.5
394.556	1193.5
394.78	1215.5
395.005	1215.5
395.229	1207.5
395.454	1219.5
395.678	1231.5
395.903	1218.5
396.127	1201.5
396.352	1226.5
396.576	1209.5
396.801	1239.5
397.025	1245.5
397.249	1219.5
397.474	1253.5
397.698	1263.5
397.922	1292.5
398.147	1261.5
398.371	1275.5
398.595	1307.5
398.82	1310.5
399.044	1367.5
399.268	1433.5
399.492	1513.5
399.717	1581.5
399.941	1538.5
400.165	1479.5
400.389	1422.5
400.613	1411.5
400.837	1347.5
401.062	1337.5
401.286	1337.5
401.51	1296.5
401.734	1279.5
401.958	1327.5
402.182	1285.5
402.406	1287.5
402.63	1271.5
402.854	1321.5
403.078	1297.5
403.302	1341.5
403.526	1342.5
403.75	1360.5
403.974	1362.5
404.198	1331.5
404.422	1359.5
404.645	1380.5
404.869	1375.5
405.093	1357.5
405.317	1339.5
405.541	1343.5
405.765	1343.5
405.988	1391.5
406.212	1358.5
406.436	1355.5
406.66	1407.5
406.883	1384.5
407.107	1426.5
407.331	1457.5
407.555	1480.5
407.778	1479.5
408.002	1448.5
408.226	1444.5
408.449	1409.5
408.673	1380.5
408.896	1379.5
409.12	1341.5
409.344	1346.5
409.567	1316.5
409.791	1349.5
410.014	1338.5
410.238	1327.5
410.461	1319.5
410.685	1341.5
410.908	1339.5
411.132	1373.5
411.355	1286.5
411.578	1305.5
411.802	1301.5
412.025	1289.5
412.249	1292.5
412.472	1345.5
412.695	1295.5
412.919	1256.5
413.142	1291.5
413.365	1296.5
413.589	1304.5
413.812	1254.5
414.035	1301.5
414.258	1285.5
414.482	1274.5
414.705	1300.5
414.928	1267.5
415.151	1258.5
415.374	1261.5
415.597	1265.5
415.821	1230.5
416.044	1227.5
416.267	1234.5
416.49	1226.5
416.713	1227.5
416.936	1241.5
417.159	1257.5
417.382	1216.5
417.605	1217.5
417.828	1242.5
418.051	1219.5
418.274	1238.5
418.497	1231.5
418.72	1258.5
418.943	1231.5
419.166	1309.5
419.389	1364.5
419.611	1362.5
419.834	1323.5
420.057	1255.5
420.28	1256.5
420.503	1229.5
420.726	1202.5
420.948	1226.5
421.171	1230.5
421.394	1259.5
421.617	1224.5
421.839	1234.5
422.062	1249.5
422.285	1227.5
422.507	1247.5
422.73	1256.5
422.953	1263.5
423.175	1325.5
423.398	1316.5
423.621	1205.5
423.843	1259.5
424.066	1261.5
424.288	1240.5
424.511	1262.5
424.733	1254.5
424.956	1245.5
425.178	1226.5
425.401	1221.5
425.623	1238.5
425.846	1193.5
426.068	1206.5
426.291	1186.5
426.513	1211.5
426.735	1181.5
426.958	1163.5
427.18	1157.5
427.402	1145.5
427.625	1164.5
427.847	1141.5
428.069	1151.5
428.292	1154.5
428.514	1141.5
428.736	1173.5
428.958	1160.5
429.181	1139.5
429.403	1112.5
429.625	1147.5
429.847	1155.5
430.069	1190.5
430.292	1183.5
430.514	1241.5
430.736	1209.5
430.958	1164.5
431.18	1147.5
431.402	1143.5
431.624	1130.5
431.846	1109.5
432.068	1098.5
432.29	1123.5
432.512	1093.5
432.734	1130.5
432.956	1160.5
433.178	1164.5
433.4	1139.5
433.622	1139.5
433.844	1175.5
434.066	1146.5
434.287	1119.5
434.509	1120.5
434.731	1163.5
434.953	1157.5
435.175	1159.5
435.397	1183.5
435.618	1163.5
435.84	1138.5
436.062	1143.5
436.284	1129.5
436.505	1111.5
436.727	1102.5
436.949	1145.5
437.17	1143.5
437.392	1112.5
437.614	1126.5
437.835	1047.5
438.057	1053.5
438.278	1082.5
438.5	1098.5
438.721	1137.5
438.943	1180.5
439.165	1177.5
439.386	1186.5
439.608	1175.5
439.829	1150.5
440.05	1192.5
440.272	1228.5
440.493	1183.5
440.715	1181.5
440.936	1163.5
441.158	1188.5
441.379	1219.5
441.6	1261.5
441.822	1266.5
442.043	1326.5
442.264	1363.5
442.486	1292.5
442.707	1213.5
442.928	1267.5
443.149	1226.5
443.371	1221.5
443.592	1228.5
443.813	1224.5
444.034	1210.5
444.255	1271.5
444.476	1287.5
444.698	1293.5
444.919	1341.5
445.14	1415.5
445.361	1293.5
445.582	1206.5
445.803	1240.5
446.024	1231.5
446.245	1233.5
446.466	1263.5
446.687	1213.5
446.908	1209.5
447.129	1155.5
447.35	1179.5
447.571	1157.5
447.792	1140.5
448.013	1153.5
448.234	1136.5
448.455	1130.5
448.675	1161.5
448.896	1148.5
449.117	1197.5
449.338	1281.5
449.559	1339.5
449.779	1205.5
450	1141.5
450.221	1100.5
450.442	1107.5
450.662	1089.5
450.883	1104.5
451.104	1080.5
451.324	1097.5
451.545	1062.5
451.766	1109.5
451.986	1117.5
452.207	1179.5
452.428	1455.5
452.648	1995.5
452.869	1727.5
453.089	1257.5
453.31	1190.5
453.53	1219.5
453.751	1261.5
453.971	1315.5
454.192	1304.5
454.412	1141.5
454.633	1094.5
454.853	1082.5
455.073	1078.5
455.294	1047.5
455.514	1054.5
455.734	1019.5
455.955	1046.5
456.175	1035.5
456.395	1049.5
456.616	1044.5
456.836	1015.5
457.056	1076.5
457.276	1063.5
457.497	1085.5
457.717	1087.5
457.937	1082.5
458.157	1102.5
458.377	1100.5
458.598	1105.5
458.818	1104.5
459.038	1105.5
459.258	1107.5
459.478	1136.5
459.698	1155.5
459.918	1178.5
460.138	1170.5
460.358	1206.5
460.578	1199.5
460.798	1215.5
461.018	1227.5
461.238	1238.5
461.458	1239.5
461.678	1250.5
461.898	1277.5
462.118	1287.5
462.338	1270.5
462.558	1316.5
462.777	1341.5
462.997	1400.5
463.217	1393.5
463.437	1454.5
463.657	1501.5
463.876	1475.5
464.096	1431.5
464.316	1349.5
464.536	1344.5
464.755	1290.5
464.975	1275.5
465.195	1251.5
465.414	1198.5
465.634	1186.5
465.854	1192.5
466.073	1173.5
466.293	1130.5
466.512	1157.5
466.732	1159.5
466.951	1201.5
467.171	1275.5
467.391	1264.5
467.61	1145.5
467.829	1145.5
468.049	1147.5
468.268	1093.5
468.488	1120.5
468.707	1107.5
468.927	1123.5
469.146	1123.5
469.365	1123.5
469.585	1110.5
469.804	1153.5
470.023	1157.5
470.243	1181.5
470.462	1232.5
470.681	1291.5
470.901	1364.5
471.12	1613.5
471.339	1626.5
471.558	1327.5
471.777	1235.5
471.997	1175.5
472.216	1163.5
472.435	1149.5
472.654	1112.5
472.873	1093.5
473.092	1101.5
473.311	1101.5
473.53	1131.5
473.749	1125.5
473.968	1166.5
474.187	1129.5
474.406	1145.5
474.625	1099.5
474.844	1126.5
475.063	1124.5
475.282	1143.5
475.501	1118.5
475.72	1155.5
475.939	1137.5
476.158	1155.5
476.377	1169.5
476.596	1157.5
476.814	1172.5
477.033	1169.5
477.252	1158.5
477.471	1229.5
477.69	1256.5
477.908	1239.5
478.127	1262.5
478.346	1275.5
478.564	1285.5
478.783	1280.5
479.002	1352.5
479.22	1334.5
479.439	1333.5
479.658	1335.5
479.876	1329.5
480.095	1341.5
480.313	1358.5
480.532	1369.5
480.751	1351.5
480.969	1362.5
481.188	1339.5
481.406	1321.5
481.624	1297.5
481.843	1331.5
482.061	1351.5
482.28	1359.5
482.498	1299.5
482.717	1307.5
482.935	1346.5
483.153	1373.5
483.372	1375.5
483.59	1361.5
483.808	1433.5
484.027	1419.5
484.245	1500.5
484.463	1704.5
484.681	1882.5
484.9	1734.5
485.118	1610.5
485.336	1560.5
485.554	1538.5
485.772	1615.5
485.99	1893.5
486.209	2092.5
486.427	1695.5
486.645	1539.5
486.863	1493.5
487.081	1465.5
487.299	1411.5
487.517	1434.5
487.735	1434.5
487.953	1478.5
488.171	1452.5
488.389	1444.5
488.607	1390.5
488.825	1370.5
489.043	1382.5
489.261	1385.5
489.479	1382.5
489.696	1399.5
489.914	1397.5
490.132	1426.5
490.35	1447.5
490.568	1437.5
490.786	1451.5
491.003	1453.5
491.221	1469.5
491.439	1465.5
491.657	1465.5
491.874	1502.5
492.092	1523.5
492.31	1517.5
492.527	1541.5
492.745	1482.5
492.963	1486.5
493.18	1494.5
493.398	1505.5
493.615	1489.5
493.833	1495.5
494.05	1496.5
494.268	1490.5
494.485	1487.5
494.703	1454.5
494.92	1512.5
495.138	1504.5
495.355	1484.5
495.573	1479.5
495.79	1479.5
496.008	1497.5
496.225	1505.5
496.442	1545.5
496.66	1562.5
496.877	1629.5
497.094	1639.5
497.312	1579.5
497.529	1616.5
497.746	1611.5
497.963	1583.5
498.181	1669.5
498.398	1686.5
498.615	1757.5
498.832	1820.5
499.049	1845.5
499.267	2038.5
499.484	2121.5
499.701	2152.5
499.918	2189.5
500.135	2340.5
500.352	2465.5
500.569	2492.5
500.786	2461.5
501.003	2400.5
501.22	2234.5
501.437	2124.5
501.654	2053.5
501.871	1931.5
502.088	1851.5
502.305	1769.5
502.522	1772.5
502.739	1761.5
502.956	1657.5
503.172	1635.5
503.389	1581.5
503.606	1519.5
503.823	1492.5
504.04	1517.5
504.256	1501.5
504.473	1561.5
504.69	1512.5
504.907	1469.5
505.123	1464.5
505.34	1427.5
505.557	1409.5
505.773	1385.5
505.99	1370.5
506.207	1331.5
506.423	1331.5
506.64	1353.5
506.856	1286.5
507.073	1343.5
507.289	1286.5
507.506	1306.5
507.722	1305.5
507.939	1267.5
508.155	1257.5
508.372	1278.5
508.588	1271.5
508.805	1270.5
509.021	1225.5
509.238	1272.5
509.454	1359.5
509.67	1401.5
509.887	1325.5
510.103	1277.5
510.319	1279.5
510.536	1247.5
510.752	1220.5
510.968	1197.5
511.184	1197.5
511.401	1222.5
511.617	1211.5
511.833	1214.5
512.049	1169.5
512.265	1192.5
512.481	1220.5
512.698	1227.5
512.914	1234.5
513.13	1189.5
513.346	1184.5
513.562	1169.5
513.778	1203.5
513.994	1228.5
514.21	1234.5
514.426	1301.5
514.642	1350.5
514.858	1280.5
515.074	1261.5
515.29	1220.5
515.506	1226.5
515.721	1219.5
515.937	1225.5
516.153	1261.5
516.369	1253.5
516.585	1268.5
516.801	1287.5
517.016	1292.5
517.232	1349.5
517.448	1348.5
517.664	1346.5
517.879	1361.5
518.095	1322.5
518.311	1351.5
518.527	1352.5
518.742	1327.5
518.958	1335.5
519.173	1341.5
519.389	1299.5
519.605	1239.5
519.82	1225.5
520.036	1256.5
520.251	1216.5
520.467	1216.5
520.682	1223.5
520.898	1200.5
521.113	1157.5
521.329	1151.5
521.544	1194.5
521.76	1170.5
521.975	1176.5
522.19	1195.5
522.406	1156.5
522.621	1169.5
522.836	1114.5
523.052	1159.5
523.267	1189.5
523.482	1174.5
523.698	1192.5
523.913	1130.5
524.128	1158.5
524.343	1197.5
524.559	1174.5
524.774	1173.5
524.989	1151.5
525.204	1184.5
525.419	1174.5
525.634	1167.5
525.849	1139.5
526.064	1189.5
526.28	1155.5
526.495	1145.5
526.71	1123.5
526.925	1162.5
527.14	1168.5
527.355	1161.5
527.57	1151.5
527.785	1155.5
527.999	1164.5
528.214	1165.5
528.429	1181.5
528.644	1205.5
528.859	1230.5
529.074	1241.5
529.289	1241.5
529.503	1272.5
529.718	1223.5
529.933	1213.5
530.148	1241.5
530.363	1221.5
530.577	1216.5
530.792	1215.5
531.007	1243.5
531.221	1241.5
531.436	1253.5
531.651	1229.5
531.865	1262.5
532.08	1250.5
532.295	1307.5
532.509	1354.5
532.724	1351.5
532.938	1401.5
533.153	1409.5
533.367	1482.5
533.582	1555.5
533.796	1511.5
534.011	1459.5
534.225	1436.5
534.44	1394.5
534.654	1392.5
534.868	1365.5
535.083	1337.5
535.297	1313.5
535.511	1303.5
535.726	1251.5
535.94	1295.5
536.154	1270.5
536.369	1258.5
536.583	1191.5
536.797	1219.5
537.011	1162.5
537.225	1161.5
537.44	1159.5
537.654	1162.5
537.868	1129.5
538.082	1137.5
538.296	1161.5
538.51	1147.5
538.724	1179.5
538.938	1143.5
539.153	1128.5
539.367	1153.5
539.581	1121.5
539.795	1118.5
540.009	1118.5
540.222	1106.5
540.436	1127.5
540.65	1150.5
540.864	1139.5
541.078	1160.5
541.292	1213.5
541.506	1459.5
541.72	1542.5
541.934	1365.5
542.147	1245.5
542.361	1194.5
542.575	1157.5
542.789	1131.5
543.002	1128.5
543.216	1106.5
543.43	1069.5
543.644	1087.5
543.857	1117.5
544.071	1142.5
544.285	1120.5
544.498	1104.5
544.712	1148.5
544.925	1103.5
545.139	1139.5
545.352	1104.5
545.566	1124.5
545.779	1121.5
545.993	1085.5
546.206	1123.5
546.42	1137.5
546.633	1121.5
546.847	1139.5
547.06	1109.5
547.274	1142.5
547.487	1135.5
547.7	1144.5
547.914	1141.5
548.127	1123.5
548.34	1135.5
548.554	1146.5
548.767	1128.5
548.98	1143.5
549.193	1107.5
549.407	1113.5
549.62	1148.5
549.833	1160.5
550.046	1144.5
550.259	1137.5
550.473	1127.5
550.686	1119.5
550.899	1142.5
551.112	1131.5
551.325	1111.5
551.538	1107.5
551.751	1132.5
551.964	1092.5
552.177	1126.5
552.39	1141.5
552.603	1195.5
552.816	1179.5
553.029	1208.5
553.242	1188.5
553.455	1243.5
553.667	1232.5
553.88	1230.5
554.093	1223.5
554.306	1224.5
554.519	1243.5
554.732	1267.5
554.944	1265.5
555.157	1307.5
555.37	1296.5
555.583	1338.5
555.795	1412.5
556.008	1477.5
556.221	1565.5
556.433	1676.5
556.646	1665.5
556.859	1626.5
557.071	1603.5
557.284	1598.5
557.496	1529.5
557.709	1480.5
557.921	1503.5
558.134	1501.5
558.346	1491.5
558.559	1546.5
558.771	1643.5
558.984	1674.5
559.196	1848.5
559.409	1712.5
559.621	1629.5
559.833	1565.5
560.046	1492.5
560.258	1420.5
560.47	1348.5
560.683	1349.5
560.895	1302.5
561.107	1255.5
561.32	1236.5
561.532	1226.5
561.744	1203.5
561.956	1185.5
562.168	1173.5
562.381	1142.5
562.593	1123.5
562.805	1147.5
563.017	1145.5
563.229	1147.5
563.441	1285.5
563.653	1131.5
563.865	1092.5
564.077	1043.5
564.289	1031.5
564.501	1047.5
564.713	1015.5
564.925	1009.5
565.137	996.5
565.349	999.5
565.561	1051.5
565.773	1069.5
565.985	1054.5
566.197	1093.5
566.408	1081.5
566.62	1064.5
566.832	1160.5
567.044	1154.5
567.255	1147.5
567.467	1143.5
567.679	1161.5
567.891	1203.5
568.102	1383.5
568.314	1554.5
568.526	1324.5
568.737	1157.5
568.949	1063.5
569.161	1015.5
569.372	984.5
569.584	934.5
569.795	931.5
570.007	916.5
570.218	967.5
570.43	985.5
570.641	893.5
570.853	879.5
571.064	858.5
571.276	854.5
571.487	877.5
571.698	833.5
571.91	808.5
572.121	836.5
572.333	823.5
572.544	837.5
572.755	899.5
572.966	1025.5
573.178	907.5
573.389	839.5
573.6	775.5
573.811	769.5
574.023	778.5
574.234	745.5
574.445	761.5
574.656	751.5
574.867	766.5
575.078	727.5
575.289	739.5
575.501	761.5
575.712	730.5
575.923	713.5
576.134	735.5
576.345	778.5
576.556	789.5
576.767	749.5
576.978	786.5
577.188	793.5
577.399	744.5
577.61	749.5
577.821	737.5
578.032	729.5
578.243	771.5
578.454	797.5
578.665	811.5
578.875	807.5
579.086	826.5
579.297	867.5
579.508	883.5
579.718	961.5
579.929	1053.5
580.14	1201.5
580.35	1231.5
580.561	1137.5
580.772	1087.5
580.982	1026.5
581.193	975.5
581.403	893.5
581.614	886.5
581.825	863.5
582.035	826.5
582.246	828.5
582.456	772.5
582.667	778.5
582.877	754.5
583.087	722.5
583.298	721.5
583.508	701.5
583.719	701.5
583.929	663.5
584.139	680.5
584.35	647.5
584.56	639.5
584.77	643.5
584.981	650.5
585.191	636.5
585.401	623.5
585.611	636.5
585.821	624.5
586.032	616.5
586.242	607.5
586.452	611.5
586.662	600.5
586.872	605.5
587.082	587.5
587.292	569.5
587.502	566.5
587.713	554.5
587.923	587.5
588.133	572.5
588.343	547.5
588.553	564.5
588.762	549.5
588.972	545.5
589.182	564.5
589.392	569.5
589.602	549.5
589.812	559.5
590.022	544.5
590.232	528.5
590.441	554.5
590.651	544.5
590.861	515.5
591.071	521.5
591.281	529.5
591.49	546.5
591.7	547.5
591.91	558.5
592.119	564.5
592.329	544.5
592.539	547.5
592.748	561.5
592.958	555.5
593.167	570.5
593.377	555.5
593.587	557.5
593.796	575.5
594.006	576.5
594.215	562.5
594.424	555.5
594.634	575.5
594.843	555.5
595.053	533.5
595.262	533.5
595.472	519.5
595.681	523.5
595.89	493.5
596.1	509.5
596.309	495.5
596.518	496.5
596.727	477.5
596.937	487.5
597.146	482.5
597.355	485.5
597.564	442.5
597.774	471.5
597.983	464.5
598.192	461.5
598.401	448.5
598.61	452.5
598.819	448.5
599.028	437.5
599.237	461.5
599.446	465.5
599.655	439.5
599.864	415.5
600.073	435.5
600.282	449.5
600.491	446.5
600.7	455.5
600.909	433.5
601.118	445.5
601.327	436.5
601.536	450.5
601.745	465.5
601.953	499.5
602.162	568.5
602.371	509.5
602.58	467.5
602.789	473.5
602.997	454.5
603.206	420.5
603.415	435.5
603.623	439.5
603.832	441.5
604.041	418.5
604.249	451.5
604.458	445.5
604.666	443.5
604.875	434.5
605.084	407.5
605.292	451.5
605.501	439.5
605.709	451.5
605.918	436.5
606.126	439.5
606.334	453.5
606.543	468.5
606.751	483.5
606.96	539.5
607.168	601.5
607.376	509.5
607.585	439.5
607.793	445.5
608.001	419.5
608.21	415.5
608.418	417.5
608.626	407.5
608.834	406.5
609.043	413.5
609.251	405.5
609.459	421.5
609.667	436.5
609.875	411.5
610.083	407.5
610.291	403.5
610.499	394.5
610.707	394.5
610.916	413.5
611.124	412.5
611.332	399.5
611.54	378.5
611.748	401.5
611.955	395.5
612.163	396.5
612.371	416.5
612.579	407.5
612.787	409.5
612.995	384.5
613.203	384.5
613.411	396.5
613.618	395.5
613.826	381.5
614.034	392.5
614.242	390.5
614.449	394.5
614.657	395.5
614.865	414.5
615.072	411.5
615.28	371.5
615.488	386.5
615.695	387.5
615.903	397.5
616.111	418.5
616.318	394.5
616.526	391.5
616.733	375.5
616.941	368.5
617.148	405.5
617.356	382.5
617.563	383.5
617.771	396.5
617.978	382.5
618.185	389.5
618.393	373.5
618.6	386.5
618.807	383.5
619.015	387.5
619.222	347.5
619.429	367.5
619.637	368.5
619.844	362.5
620.051	349.5
620.258	369.5
620.466	349.5
620.673	367.5
620.88	347.5
621.087	347.5
621.294	353.5
621.501	342.5
621.708	357.5
621.915	362.5
622.122	345.5
622.329	344.5
622.536	349.5
622.743	327.5
622.95	331.5
623.157	356.5
623.364	353.5
623.571	354.5
623.778	347.5
623.985	352.5
624.192	358.5
624.399	343.5
624.606	337.5
624.812	348.5
625.019	312.5
625.226	331.5
625.433	330.5
625.639	312.5
625.846	340.5
626.053	318.5
626.259	318.5
626.466	317.5
626.673	331.5
626.879	307.5
627.086	314.5
627.293	326.5
627.499	318.5
627.706	319.5
627.912	331.5
628.119	314.5
628.325	326.5
628.532	334.5
628.738	306.5
628.945	307.5
629.151	310.5
629.357	318.5
629.564	323.5
629.77	296.5
629.976	323.5
630.183	307.5
630.389	321.5
630.595	290.5
630.802	315.5
631.008	305.5
631.214	319.5
631.42	295.5
631.627	295.5
631.833	306.5
632.039	306.5
632.245	294.5
632.451	303.5
632.657	297.5
632.863	282.5
633.069	296.5
633.275	296.5
633.481	309.5
633.688	303.5
633.893	312.5
634.099	290.5
634.305	312.5
634.511	289.5
634.717	314.5
634.923	298.5
635.129	326.5
635.335	401.5
635.541	328.5
635.747	319.5
635.952	312.5
636.158	313.5
636.364	302.5
636.57	312.5
636.775	299.5
636.981	318.5
637.187	291.5
637.392	280.5
637.598	280.5
637.804	304.5
638.009	314.5
638.215	302.5
638.421	317.5
638.626	287.5
638.832	296.5
639.037	300.5
639.243	313.5
639.448	320.5
639.654	317.5
639.859	331.5
640.065	316.5
640.27	318.5
640.475	328.5
640.681	304.5
640.886	316.5
641.091	308.5
641.297	315.5
641.502	325.5
641.707	314.5
641.913	333.5
642.118	352.5
642.323	343.5
642.528	344.5
642.733	348.5
642.939	365.5
643.144	352.5
643.349	368.5
643.554	376.5
643.759	352.5
643.964	389.5
644.169	418.5
644.374	423.5
644.579	444.5
644.784	523.5
644.989	542.5
645.194	617.5
645.399	712.5
645.604	735.5
645.809	583.5
646.014	498.5
646.219	415.5
646.423	391.5
646.628	367.5
646.833	344.5
647.038	317.5
647.243	317.5
647.447	309.5
647.652	298.5
647.857	275.5
648.062	279.5
648.266	285.5
648.471	278.5
648.676	287.5
648.88	262.5
649.085	287.5
649.289	282.5
649.494	265.5
649.698	261.5
649.903	251.5
650.107	245.5
650.312	254.5
650.516	275.5
650.721	254.5
650.925	258.5
651.13	243.5
651.334	249.5
651.539	215.5
651.743	220.5
651.947	220.5
652.152	244.5
652.356	244.5
652.56	239.5
652.764	281.5
652.969	254.5
653.173	229.5
653.377	221.5
653.581	215.5
653.785	211.5
653.99	208.5
654.194	223.5
654.398	209.5
654.602	197.5
654.806	200.5
655.01	195.5
655.214	190.5
655.418	202.5
655.622	195.5
655.826	207.5
656.03	203.5
656.234	223.5
656.438	214.5
656.642	214.5
656.846	227.5
657.049	206.5
657.253	190.5
657.457	194.5
657.661	155.5
657.865	153.5
658.068	170.5
658.272	151.5
658.476	154.5
658.68	158.5
658.883	130.5
659.087	132.5
659.291	135.5
659.494	139.5
659.698	122.5
659.901	129.5
660.105	115.5
660.309	117.5
660.512	117.5
660.716	114.5
660.919	105.5
661.123	115.5
661.326	107.5
661.53	90.5
661.733	90.5
661.936	98.5
662.14	97.5
662.343	98.5
662.546	90.5
662.75	101.5
662.953	92.5
663.156	86.5
663.36	106.5
663.563	94.5
663.766	66.5
663.969	71.5
664.173	81.5
664.376	75.5
664.579	82.5
664.782	75.5
664.985	73.5
665.188	98.5
665.391	105.5
665.594	85.5
665.797	77.5
666	84.5
666.203	79.5
666.406	73.5
666.609	80.5
666.812	80.5
667.015	76.5
667.218	82.5
667.421	74.5
667.624	77.5
667.827	80.5
668.03	73.5
668.232	79.5
668.435	75.5
668.638	81.5
668.841	93.5
669.043	77.5
669.246	86.5
669.449	74.5
669.651	88.5
669.854	95.5
670.057	84.5
670.259	79.5
670.462	74.5
670.665	81.5
670.867	86.5
671.07	84.5
671.272	73.5
671.475	86.5
671.677	81.5
671.88	87.5
672.082	77.5
672.284	83.5
672.487	84.5
672.689	68.5
672.892	61.5
