Data from SnStandardFlinnAPT0064_LampEnergy5.5_LIBS07252019.E.O._I.C._HRD10591_15-17-30-492.txt Node
Date: Thu Jul 25 15:17:30 EDT 2019
User: cochatt
Spectrometer: HR+D1059
Trigger mode: 1
Integration Time (sec): 1.000000E-1
Scans to average: 1
Electric dark correction enabled: true
Nonlinearity correction enabled: false
Boxcar width: 0
XAxis mode: Wavelengths
Number of Pixels in Spectrum: 2048
>>>>>Begin Spectral Data<<<<<
223.165	-20.38
223.4	-20.38
223.635	-20.38
223.869	-18.38
224.104	-13.38
224.338	-6.38
224.573	1.62
224.808	-22.38
225.042	-15.38
225.277	-5.38
225.511	-8.38
225.746	5.62
225.98	-0.38
226.215	14.62
226.449	7.62
226.683	20.62
226.918	30.62
227.152	29.62
227.387	26.62
227.621	37.62
227.856	27.62
228.09	50.62
228.324	40.62
228.559	53.62
228.793	88.62
229.027	156.62
229.262	169.62
229.496	163.62
229.73	162.62
229.964	152.62
230.199	161.62
230.433	179.62
230.667	170.62
230.901	179.62
231.136	181.62
231.37	188.62
231.604	200.62
231.838	228.62
232.072	269.62
232.306	277.62
232.541	218.62
232.775	209.62
233.009	208.62
233.243	203.62
233.477	218.62
233.711	259.62
233.945	291.62
234.179	245.62
234.413	243.62
234.647	221.62
234.881	250.62
235.115	260.62
235.349	328.62
235.583	378.62
235.817	500.62
236.051	472.62
236.285	323.62
236.519	259.62
236.753	256.62
236.987	241.62
237.221	236.62
237.455	257.62
237.689	232.62
237.922	226.62
238.156	247.62
238.39	227.62
238.624	245.62
238.858	240.62
239.091	248.62
239.325	232.62
239.559	248.62
239.793	242.62
240.027	244.62
240.26	256.62
240.494	253.62
240.728	296.62
240.961	293.62
241.195	308.62
241.429	315.62
241.662	335.62
241.896	364.62
242.13	415.62
242.363	579.62
242.597	720.62
242.83	698.62
243.064	692.62
243.298	855.62
243.531	700.62
243.765	431.62
243.998	356.62
244.232	322.62
244.465	319.62
244.699	322.62
244.932	319.62
245.166	325.62
245.399	309.62
245.633	317.62
245.866	308.62
246.099	328.62
246.333	315.62
246.566	310.62
246.8	314.62
247.033	320.62
247.266	317.62
247.5	313.62
247.733	307.62
247.966	330.62
248.2	357.62
248.433	389.62
248.666	440.62
248.899	423.62
249.133	386.62
249.366	398.62
249.599	417.62
249.832	483.62
250.066	503.62
250.299	389.62
250.532	340.62
250.765	354.62
250.998	337.62
251.231	360.62
251.465	340.62
251.698	348.62
251.931	354.62
252.164	371.62
252.397	379.62
252.63	377.62
252.863	376.62
253.096	374.62
253.329	377.62
253.562	347.62
253.795	391.62
254.028	373.62
254.261	383.62
254.494	402.62
254.727	507.62
254.96	566.62
255.193	541.62
255.426	455.62
255.659	398.62
255.892	401.62
256.124	400.62
256.357	399.62
256.59	425.62
256.823	446.62
257.056	491.62
257.289	566.62
257.521	668.62
257.754	518.62
257.987	463.62
258.22	427.62
258.452	410.62
258.685	413.62
258.918	450.62
259.151	453.62
259.383	498.62
259.616	531.62
259.849	560.62
260.081	495.62
260.314	450.62
260.547	436.62
260.779	451.62
261.012	434.62
261.244	460.62
261.477	459.62
261.71	462.62
261.942	458.62
262.175	481.62
262.407	479.62
262.64	491.62
262.872	492.62
263.105	540.62
263.337	553.62
263.57	557.62
263.802	599.62
264.035	601.62
264.267	612.62
264.499	611.62
264.732	697.62
264.964	687.62
265.197	666.62
265.429	695.62
265.661	684.62
265.894	717.62
266.126	799.62
266.358	907.62
266.591	874.62
266.823	732.62
267.055	631.62
267.287	619.62
267.52	600.62
267.752	600.62
267.984	594.62
268.216	559.62
268.448	573.62
268.681	570.62
268.913	581.62
269.145	583.62
269.377	565.62
269.609	566.62
269.841	583.62
270.073	635.62
270.306	722.62
270.538	985.62
270.77	1428.62
271.002	1748.62
271.234	1191.62
271.466	816.62
271.698	647.62
271.93	612.62
272.162	607.62
272.394	567.62
272.626	552.62
272.858	567.62
273.09	566.62
273.322	557.62
273.553	528.62
273.785	556.62
274.017	577.62
274.249	574.62
274.481	551.62
274.713	559.62
274.945	557.62
275.176	571.62
275.408	542.62
275.64	539.62
275.872	560.62
276.104	582.62
276.335	565.62
276.567	575.62
276.799	601.62
277.031	590.62
277.262	586.62
277.494	610.62
277.726	687.62
277.957	782.62
278.189	868.62
278.421	855.62
278.652	776.62
278.884	713.62
279.115	668.62
279.347	620.62
279.579	630.62
279.81	621.62
280.042	625.62
280.273	629.62
280.505	640.62
280.736	653.62
280.968	697.62
281.199	745.62
281.431	861.62
281.662	855.62
281.894	777.62
282.125	715.62
282.356	721.62
282.588	727.62
282.819	761.62
283.051	805.62
283.282	907.62
283.513	1076.62
283.745	1605.62
283.976	2583.62
284.207	3697.62
284.439	3239.62
284.67	1895.62
284.901	1501.62
285.132	1504.62
285.364	1458.62
285.595	1138.62
285.826	1045.62
286.057	1258.62
286.288	1724.62
286.52	2305.62
286.751	2119.62
286.982	1299.62
287.213	946.62
287.444	846.62
287.675	818.62
287.906	753.62
288.138	767.62
288.369	763.62
288.6	748.62
288.831	743.62
289.062	739.62
289.293	761.62
289.524	731.62
289.755	746.62
289.986	774.62
290.217	730.62
290.448	748.62
290.679	771.62
290.91	807.62
291.141	844.62
291.371	860.62
291.602	863.62
291.833	810.62
292.064	743.62
292.295	714.62
292.526	736.62
292.757	724.62
292.987	723.62
293.218	714.62
293.449	705.62
293.68	714.62
293.91	720.62
294.141	709.62
294.372	694.62
294.603	703.62
294.833	676.62
295.064	705.62
295.295	676.62
295.525	684.62
295.756	713.62
295.987	694.62
296.217	716.62
296.448	706.62
296.679	705.62
296.909	685.62
297.14	713.62
297.37	685.62
297.601	706.62
297.831	704.62
298.062	703.62
298.292	740.62
298.523	732.62
298.753	756.62
298.984	746.62
299.214	738.62
299.445	776.62
299.675	762.62
299.905	812.62
300.136	835.62
300.366	940.62
300.597	1199.62
300.827	1649.62
301.057	2311.62
301.288	2209.62
301.518	1425.62
301.748	1076.62
301.979	1010.62
302.209	980.62
302.439	981.62
302.669	1041.62
302.9	1277.62
303.13	1811.62
303.36	2667.62
303.59	3603.62
303.82	3073.62
304.051	1724.62
304.281	1227.62
304.511	1027.62
304.741	983.62
304.971	899.62
305.201	899.62
305.431	855.62
305.661	864.62
305.891	832.62
306.121	826.62
306.352	787.62
306.582	822.62
306.812	805.62
307.042	823.62
307.272	799.62
307.502	779.62
307.731	805.62
307.961	791.62
308.191	791.62
308.421	810.62
308.651	812.62
308.881	804.62
309.111	810.62
309.341	810.62
309.571	815.62
309.8	815.62
310.03	827.62
310.26	853.62
310.49	812.62
310.72	802.62
310.949	853.62
311.179	851.62
311.409	832.62
311.639	877.62
311.868	858.62
312.098	862.62
312.328	853.62
312.557	881.62
312.787	826.62
313.017	863.62
313.246	887.62
313.476	901.62
313.706	885.62
313.935	943.62
314.165	991.62
314.394	1041.62
314.624	991.62
314.853	940.62
315.083	952.62
315.312	956.62
315.542	942.62
315.771	950.62
316.001	994.62
316.23	1018.62
316.46	1035.62
316.689	1144.62
316.919	1385.62
317.148	2009.62
317.377	3187.62
317.607	4714.62
317.836	4793.62
318.065	2704.62
318.295	1695.62
318.524	1388.62
318.753	1252.62
318.983	1104.62
319.212	1081.62
319.441	1057.62
319.67	1056.62
319.9	1016.62
320.129	1030.62
320.358	1007.62
320.587	1014.62
320.816	1009.62
321.046	989.62
321.275	1021.62
321.504	1056.62
321.733	1034.62
321.962	1060.62
322.191	1095.62
322.42	1068.62
322.649	1082.62
322.878	1045.62
323.108	1053.62
323.337	1108.62
323.566	1089.62
323.795	1155.62
324.024	1143.62
324.253	1180.62
324.482	1199.62
324.71	1263.62
324.939	1353.62
325.168	1393.62
325.397	1448.62
325.626	1706.62
325.855	2401.62
326.084	3885.62
326.313	5790.62
326.542	6109.62
326.77	3723.62
326.999	2349.62
327.228	2001.62
327.457	1869.62
327.686	1865.62
327.914	2013.62
328.143	2328.62
328.372	2692.62
328.6	2946.62
328.829	2715.62
329.058	2318.62
329.287	2056.62
329.515	1933.62
329.744	1754.62
329.972	1662.62
330.201	1583.62
330.43	1557.62
330.658	1527.62
330.887	1532.62
331.115	1496.62
331.344	1498.62
331.572	1466.62
331.801	1499.62
332.03	1456.62
332.258	1494.62
332.486	1588.62
332.715	1828.62
332.943	2229.62
333.172	2748.62
333.4	2671.62
333.629	2044.62
333.857	1894.62
334.085	1869.62
334.314	1933.62
334.542	2089.62
334.771	2385.62
334.999	2873.62
335.227	3573.62
335.455	3993.62
335.684	3577.62
335.912	3075.62
336.14	2611.62
336.369	2308.62
336.597	2171.62
336.825	1961.62
337.053	1916.62
337.281	1803.62
337.51	1679.62
337.738	1640.62
337.966	1565.62
338.194	1496.62
338.422	1458.62
338.65	1431.62
338.878	1411.62
339.106	1409.62
339.334	1363.62
339.562	1341.62
339.79	1318.62
340.018	1354.62
340.246	1341.62
340.474	1294.62
340.702	1286.62
340.93	1275.62
341.158	1300.62
341.386	1327.62
341.614	1286.62
341.842	1279.62
342.07	1238.62
342.298	1203.62
342.526	1164.62
342.754	1205.62
342.981	1205.62
343.209	1173.62
343.437	1216.62
343.665	1208.62
343.893	1235.62
344.12	1223.62
344.348	1196.62
344.576	1197.62
344.804	1194.62
345.031	1160.62
345.259	1169.62
345.487	1155.62
345.714	1125.62
345.942	1111.62
346.17	1100.62
346.397	1131.62
346.625	1127.62
346.853	1123.62
347.08	1108.62
347.308	1119.62
347.535	1117.62
347.763	1112.62
347.99	1097.62
348.218	1079.62
348.445	1094.62
348.673	1087.62
348.9	1094.62
349.128	1081.62
349.355	1076.62
349.583	1065.62
349.81	1081.62
350.037	1074.62
350.265	1047.62
350.492	1062.62
350.72	1067.62
350.947	1042.62
351.174	1047.62
351.402	1075.62
351.629	1068.62
351.856	1043.62
352.083	1096.62
352.311	1063.62
352.538	1058.62
352.765	1040.62
352.992	1050.62
353.22	1060.62
353.447	1043.62
353.674	1052.62
353.901	1085.62
354.128	1083.62
354.355	1084.62
354.583	1072.62
354.81	1057.62
355.037	1091.62
355.264	1044.62
355.491	1081.62
355.718	1085.62
355.945	1067.62
356.172	1090.62
356.399	1097.62
356.626	1103.62
356.853	1112.62
357.08	1091.62
357.307	1111.62
357.534	1113.62
357.761	1094.62
357.988	1127.62
358.215	1099.62
358.441	1132.62
358.668	1140.62
358.895	1128.62
359.122	1097.62
359.349	1110.62
359.576	1103.62
359.802	1108.62
360.029	1136.62
360.256	1123.62
360.483	1097.62
360.709	1130.62
360.936	1142.62
361.163	1132.62
361.39	1153.62
361.616	1146.62
361.843	1114.62
362.07	1124.62
362.296	1127.62
362.523	1121.62
362.749	1137.62
362.976	1115.62
363.203	1098.62
363.429	1112.62
363.656	1108.62
363.882	1129.62
364.109	1085.62
364.335	1114.62
364.562	1121.62
364.788	1128.62
365.015	1148.62
365.241	1167.62
365.468	1215.62
365.694	1261.62
365.92	1238.62
366.147	1155.62
366.373	1128.62
366.599	1161.62
366.826	1159.62
367.052	1141.62
367.278	1138.62
367.505	1163.62
367.731	1166.62
367.957	1155.62
368.184	1153.62
368.41	1161.62
368.636	1147.62
368.862	1153.62
369.089	1184.62
369.315	1168.62
369.541	1175.62
369.767	1159.62
369.993	1143.62
370.219	1165.62
370.445	1145.62
370.672	1205.62
370.898	1159.62
371.124	1192.62
371.35	1177.62
371.576	1169.62
371.802	1219.62
372.028	1223.62
372.254	1206.62
372.48	1216.62
372.706	1239.62
372.932	1209.62
373.158	1238.62
373.384	1240.62
373.61	1215.62
373.835	1238.62
374.061	1250.62
374.287	1236.62
374.513	1246.62
374.739	1271.62
374.965	1273.62
375.191	1274.62
375.416	1254.62
375.642	1230.62
375.868	1246.62
376.094	1239.62
376.319	1243.62
376.545	1216.62
376.771	1231.62
376.997	1208.62
377.222	1217.62
377.448	1223.62
377.674	1235.62
377.899	1218.62
378.125	1189.62
378.35	1191.62
378.576	1219.62
378.802	1210.62
379.027	1210.62
379.253	1284.62
379.478	1345.62
379.704	1560.62
379.929	2229.62
380.155	3370.62
380.38	3617.62
380.606	2188.62
380.831	1563.62
381.057	1366.62
381.282	1286.62
381.507	1267.62
381.733	1217.62
381.958	1213.62
382.184	1203.62
382.409	1205.62
382.634	1199.62
382.86	1184.62
383.085	1203.62
383.31	1190.62
383.535	1211.62
383.761	1177.62
383.986	1200.62
384.211	1225.62
384.436	1223.62
384.662	1239.62
384.887	1244.62
385.112	1196.62
385.337	1234.62
385.562	1261.62
385.787	1223.62
386.013	1271.62
386.238	1232.62
386.463	1234.62
386.688	1253.62
386.913	1226.62
387.138	1213.62
387.363	1249.62
387.588	1238.62
387.813	1234.62
388.038	1232.62
388.263	1229.62
388.488	1239.62
388.713	1234.62
388.938	1221.62
389.163	1224.62
389.387	1217.62
389.612	1219.62
389.837	1213.62
390.062	1210.62
390.287	1233.62
390.512	1251.62
390.736	1269.62
390.961	1268.62
391.186	1289.62
391.411	1277.62
391.636	1308.62
391.86	1291.62
392.085	1297.62
392.31	1285.62
392.534	1281.62
392.759	1239.62
392.984	1246.62
393.208	1267.62
393.433	1264.62
393.658	1275.62
393.882	1279.62
394.107	1225.62
394.331	1247.62
394.556	1263.62
394.78	1266.62
395.005	1254.62
395.229	1292.62
395.454	1284.62
395.678	1297.62
395.903	1279.62
396.127	1267.62
396.352	1269.62
396.576	1270.62
396.801	1303.62
397.025	1269.62
397.249	1301.62
397.474	1305.62
397.698	1321.62
397.922	1349.62
398.147	1312.62
398.371	1346.62
398.595	1358.62
398.82	1364.62
399.044	1464.62
399.268	1509.62
399.492	1557.62
399.717	1670.62
399.941	1659.62
400.165	1577.62
400.389	1504.62
400.613	1440.62
400.837	1404.62
401.062	1397.62
401.286	1376.62
401.51	1380.62
401.734	1348.62
401.958	1355.62
402.182	1351.62
402.406	1367.62
402.63	1360.62
402.854	1380.62
403.078	1401.62
403.302	1409.62
403.526	1398.62
403.75	1424.62
403.974	1408.62
404.198	1403.62
404.422	1415.62
404.645	1415.62
404.869	1400.62
405.093	1457.62
405.317	1411.62
405.541	1426.62
405.765	1435.62
405.988	1442.62
406.212	1450.62
406.436	1445.62
406.66	1459.62
406.883	1464.62
407.107	1526.62
407.331	1484.62
407.555	1553.62
407.778	1569.62
408.002	1536.62
408.226	1542.62
408.449	1512.62
408.673	1440.62
408.896	1425.62
409.12	1437.62
409.344	1411.62
409.567	1401.62
409.791	1419.62
410.014	1431.62
410.238	1395.62
410.461	1398.62
410.685	1413.62
410.908	1380.62
411.132	1377.62
411.355	1363.62
411.578	1360.62
411.802	1294.62
412.025	1359.62
412.249	1377.62
412.472	1357.62
412.695	1335.62
412.919	1292.62
413.142	1312.62
413.365	1360.62
413.589	1393.62
413.812	1313.62
414.035	1330.62
414.258	1381.62
414.482	1348.62
414.705	1336.62
414.928	1338.62
415.151	1301.62
415.374	1338.62
415.597	1316.62
415.821	1318.62
416.044	1287.62
416.267	1288.62
416.49	1272.62
416.713	1292.62
416.936	1298.62
417.159	1302.62
417.382	1261.62
417.605	1251.62
417.828	1270.62
418.051	1291.62
418.274	1297.62
418.497	1301.62
418.72	1329.62
418.943	1311.62
419.166	1368.62
419.389	1419.62
419.611	1419.62
419.834	1381.62
420.057	1355.62
420.28	1318.62
420.503	1257.62
420.726	1291.62
420.948	1297.62
421.171	1285.62
421.394	1322.62
421.617	1282.62
421.839	1312.62
422.062	1293.62
422.285	1282.62
422.507	1306.62
422.73	1347.62
422.953	1344.62
423.175	1355.62
423.398	1318.62
423.621	1300.62
423.843	1299.62
424.066	1291.62
424.288	1316.62
424.511	1277.62
424.733	1286.62
424.956	1299.62
425.178	1281.62
425.401	1264.62
425.623	1302.62
425.846	1261.62
426.068	1251.62
426.291	1248.62
426.513	1233.62
426.735	1238.62
426.958	1215.62
427.18	1212.62
427.402	1251.62
427.625	1242.62
427.847	1227.62
428.069	1214.62
428.292	1240.62
428.514	1210.62
428.736	1200.62
428.958	1212.62
429.181	1168.62
429.403	1146.62
429.625	1190.62
429.847	1202.62
430.069	1213.62
430.292	1228.62
430.514	1288.62
430.736	1286.62
430.958	1212.62
431.18	1177.62
431.402	1169.62
431.624	1169.62
431.846	1183.62
432.068	1139.62
432.29	1170.62
432.512	1169.62
432.734	1197.62
432.956	1190.62
433.178	1185.62
433.4	1212.62
433.622	1187.62
433.844	1225.62
434.066	1201.62
434.287	1188.62
434.509	1193.62
434.731	1208.62
434.953	1232.62
435.175	1221.62
435.397	1238.62
435.618	1185.62
435.84	1186.62
436.062	1189.62
436.284	1175.62
436.505	1167.62
436.727	1175.62
436.949	1180.62
437.17	1179.62
437.392	1151.62
437.614	1134.62
437.835	1148.62
438.057	1123.62
438.278	1153.62
438.5	1138.62
438.721	1194.62
438.943	1208.62
439.165	1237.62
439.386	1249.62
439.608	1249.62
439.829	1220.62
440.05	1280.62
440.272	1265.62
440.493	1241.62
440.715	1204.62
440.936	1239.62
441.158	1207.62
441.379	1231.62
441.6	1297.62
441.822	1338.62
442.043	1370.62
442.264	1416.62
442.486	1321.62
442.707	1292.62
442.928	1266.62
443.149	1270.62
443.371	1256.62
443.592	1277.62
443.813	1257.62
444.034	1279.62
444.255	1310.62
444.476	1345.62
444.698	1337.62
444.919	1363.62
445.14	1444.62
445.361	1368.62
445.582	1301.62
445.803	1272.62
446.024	1293.62
446.245	1293.62
446.466	1311.62
446.687	1263.62
446.908	1246.62
447.129	1231.62
447.35	1226.62
447.571	1237.62
447.792	1163.62
448.013	1194.62
448.234	1172.62
448.455	1175.62
448.675	1186.62
448.896	1199.62
449.117	1218.62
449.338	1399.62
449.559	1439.62
449.779	1304.62
450	1207.62
450.221	1159.62
450.442	1185.62
450.662	1172.62
450.883	1143.62
451.104	1153.62
451.324	1106.62
451.545	1153.62
451.766	1147.62
451.986	1177.62
452.207	1249.62
452.428	1520.62
452.648	2167.62
452.869	1864.62
453.089	1339.62
453.31	1293.62
453.53	1290.62
453.751	1336.62
453.971	1376.62
454.192	1401.62
454.412	1223.62
454.633	1114.62
454.853	1142.62
455.073	1131.62
455.294	1102.62
455.514	1059.62
455.734	1101.62
455.955	1081.62
456.175	1098.62
456.395	1099.62
456.616	1083.62
456.836	1113.62
457.056	1109.62
457.276	1125.62
457.497	1195.62
457.717	1179.62
457.937	1147.62
458.157	1122.62
458.377	1157.62
458.598	1147.62
458.818	1175.62
459.038	1163.62
459.258	1183.62
459.478	1165.62
459.698	1204.62
459.918	1212.62
460.138	1236.62
460.358	1271.62
460.578	1237.62
460.798	1256.62
461.018	1302.62
461.238	1284.62
461.458	1296.62
461.678	1339.62
461.898	1359.62
462.118	1304.62
462.338	1375.62
462.558	1395.62
462.777	1409.62
462.997	1459.62
463.217	1512.62
463.437	1575.62
463.657	1605.62
463.876	1582.62
464.096	1480.62
464.316	1437.62
464.536	1379.62
464.755	1356.62
464.975	1343.62
465.195	1332.62
465.414	1263.62
465.634	1213.62
465.854	1225.62
466.073	1177.62
466.293	1175.62
466.512	1193.62
466.732	1210.62
466.951	1240.62
467.171	1326.62
467.391	1322.62
467.61	1215.62
467.829	1178.62
468.049	1156.62
468.268	1145.62
468.488	1167.62
468.707	1155.62
468.927	1173.62
469.146	1158.62
469.365	1180.62
469.585	1198.62
469.804	1232.62
470.023	1210.62
470.243	1254.62
470.462	1308.62
470.681	1364.62
470.901	1482.62
471.12	1719.62
471.339	1727.62
471.558	1416.62
471.777	1289.62
471.997	1267.62
472.216	1228.62
472.435	1205.62
472.654	1133.62
472.873	1145.62
473.092	1161.62
473.311	1164.62
473.53	1178.62
473.749	1207.62
473.968	1220.62
474.187	1213.62
474.406	1193.62
474.625	1179.62
474.844	1172.62
475.063	1194.62
475.282	1192.62
475.501	1126.62
475.72	1210.62
475.939	1200.62
476.158	1220.62
476.377	1247.62
476.596	1230.62
476.814	1209.62
477.033	1229.62
477.252	1231.62
477.471	1253.62
477.69	1294.62
477.908	1299.62
478.127	1330.62
478.346	1336.62
478.564	1353.62
478.783	1364.62
479.002	1375.62
479.22	1393.62
479.439	1360.62
479.658	1403.62
479.876	1380.62
480.095	1399.62
480.313	1433.62
480.532	1416.62
480.751	1428.62
480.969	1416.62
481.188	1361.62
481.406	1403.62
481.624	1391.62
481.843	1409.62
482.061	1400.62
482.28	1394.62
482.498	1370.62
482.717	1394.62
482.935	1411.62
483.153	1458.62
483.372	1508.62
483.59	1491.62
483.808	1496.62
484.027	1498.62
484.245	1592.62
484.463	1808.62
484.681	2052.62
484.9	1771.62
485.118	1649.62
485.336	1605.62
485.554	1621.62
485.772	1734.62
485.99	2025.62
486.209	2197.62
486.427	1816.62
486.645	1595.62
486.863	1566.62
487.081	1529.62
487.299	1477.62
487.517	1501.62
487.735	1512.62
487.953	1548.62
488.171	1509.62
488.389	1476.62
488.607	1471.62
488.825	1472.62
489.043	1421.62
489.261	1392.62
489.479	1445.62
489.696	1459.62
489.914	1489.62
490.132	1508.62
490.35	1483.62
490.568	1475.62
490.786	1474.62
491.003	1525.62
491.221	1589.62
491.439	1521.62
491.657	1543.62
491.874	1580.62
492.092	1565.62
492.31	1599.62
492.527	1590.62
492.745	1573.62
492.963	1567.62
493.18	1560.62
493.398	1531.62
493.615	1549.62
493.833	1545.62
494.05	1565.62
494.268	1572.62
494.485	1572.62
494.703	1553.62
494.92	1540.62
495.138	1544.62
495.355	1560.62
495.573	1520.62
495.79	1539.62
496.008	1578.62
496.225	1591.62
496.442	1607.62
496.66	1616.62
496.877	1722.62
497.094	1721.62
497.312	1676.62
497.529	1687.62
497.746	1618.62
497.963	1710.62
498.181	1770.62
498.398	1756.62
498.615	1824.62
498.832	1848.62
499.049	1979.62
499.267	2095.62
499.484	2224.62
499.701	2278.62
499.918	2315.62
500.135	2441.62
500.352	2571.62
500.569	2614.62
500.786	2557.62
501.003	2491.62
501.22	2372.62
501.437	2225.62
501.654	2106.62
501.871	2019.62
502.088	1947.62
502.305	1875.62
502.522	1866.62
502.739	1769.62
502.956	1721.62
503.172	1653.62
503.389	1612.62
503.606	1606.62
503.823	1578.62
504.04	1640.62
504.256	1612.62
504.473	1613.62
504.69	1553.62
504.907	1589.62
505.123	1523.62
505.34	1485.62
505.557	1466.62
505.773	1466.62
505.99	1429.62
506.207	1391.62
506.423	1400.62
506.64	1361.62
506.856	1382.62
507.073	1378.62
507.289	1349.62
507.506	1359.62
507.722	1368.62
507.939	1341.62
508.155	1357.62
508.372	1314.62
508.588	1327.62
508.805	1311.62
509.021	1327.62
509.238	1360.62
509.454	1400.62
509.67	1495.62
509.887	1382.62
510.103	1309.62
510.319	1324.62
510.536	1333.62
510.752	1305.62
510.968	1274.62
511.184	1271.62
511.401	1263.62
511.617	1258.62
511.833	1273.62
512.049	1258.62
512.265	1251.62
512.481	1257.62
512.698	1229.62
512.914	1242.62
513.13	1256.62
513.346	1239.62
513.562	1252.62
513.778	1285.62
513.994	1247.62
514.21	1301.62
514.426	1365.62
514.642	1440.62
514.858	1319.62
515.074	1284.62
515.29	1289.62
515.506	1290.62
515.721	1300.62
515.937	1303.62
516.153	1320.62
516.369	1288.62
516.585	1305.62
516.801	1320.62
517.016	1369.62
517.232	1412.62
517.448	1429.62
517.664	1419.62
517.879	1449.62
518.095	1420.62
518.311	1429.62
518.527	1393.62
518.742	1413.62
518.958	1416.62
519.173	1421.62
519.389	1357.62
519.605	1321.62
519.82	1297.62
520.036	1304.62
520.251	1290.62
520.467	1269.62
520.682	1227.62
520.898	1234.62
521.113	1239.62
521.329	1241.62
521.544	1254.62
521.76	1223.62
521.975	1216.62
522.19	1219.62
522.406	1206.62
522.621	1218.62
522.836	1247.62
523.052	1217.62
523.267	1196.62
523.482	1225.62
523.698	1199.62
523.913	1224.62
524.128	1233.62
524.343	1219.62
524.559	1208.62
524.774	1206.62
524.989	1218.62
525.204	1227.62
525.419	1191.62
525.634	1186.62
525.849	1211.62
526.064	1217.62
526.28	1181.62
526.495	1199.62
526.71	1193.62
526.925	1236.62
527.14	1175.62
527.355	1239.62
527.57	1187.62
527.785	1215.62
527.999	1216.62
528.214	1247.62
528.429	1280.62
528.644	1251.62
528.859	1268.62
529.074	1286.62
529.289	1314.62
529.503	1314.62
529.718	1323.62
529.933	1291.62
530.148	1283.62
530.363	1254.62
530.577	1264.62
530.792	1280.62
531.007	1331.62
531.221	1301.62
531.436	1301.62
531.651	1301.62
531.865	1329.62
532.08	1327.62
532.295	1350.62
532.509	1503.62
532.724	1480.62
532.938	1479.62
533.153	1488.62
533.367	1584.62
533.582	1648.62
533.796	1624.62
534.011	1550.62
534.225	1520.62
534.44	1464.62
534.654	1455.62
534.868	1443.62
535.083	1403.62
535.297	1414.62
535.511	1382.62
535.726	1373.62
535.94	1329.62
536.154	1313.62
536.369	1296.62
536.583	1299.62
536.797	1267.62
537.011	1285.62
537.225	1241.62
537.44	1228.62
537.654	1249.62
537.868	1217.62
538.082	1215.62
538.296	1203.62
538.51	1202.62
538.724	1180.62
538.938	1208.62
539.153	1203.62
539.367	1195.62
539.581	1191.62
539.795	1180.62
540.009	1140.62
540.222	1193.62
540.436	1195.62
540.65	1217.62
540.864	1199.62
541.078	1196.62
541.292	1277.62
541.506	1567.62
541.72	1606.62
541.934	1415.62
542.147	1340.62
542.361	1270.62
542.575	1170.62
542.789	1183.62
543.002	1166.62
543.216	1139.62
543.43	1143.62
543.644	1149.62
543.857	1144.62
544.071	1173.62
544.285	1145.62
544.498	1156.62
544.712	1193.62
544.925	1181.62
545.139	1159.62
545.352	1163.62
545.566	1182.62
545.779	1194.62
545.993	1181.62
546.206	1222.62
546.42	1179.62
546.633	1175.62
546.847	1195.62
547.06	1170.62
547.274	1191.62
547.487	1194.62
547.7	1206.62
547.914	1197.62
548.127	1163.62
548.34	1173.62
548.554	1167.62
548.767	1182.62
548.98	1215.62
549.193	1209.62
549.407	1217.62
549.62	1183.62
549.833	1173.62
550.046	1169.62
550.259	1183.62
550.473	1181.62
550.686	1199.62
550.899	1159.62
551.112	1185.62
551.325	1147.62
551.538	1181.62
551.751	1171.62
551.964	1152.62
552.177	1138.62
552.39	1253.62
552.603	1237.62
552.816	1226.62
553.029	1249.62
553.242	1291.62
553.455	1288.62
553.667	1286.62
553.88	1283.62
554.093	1265.62
554.306	1314.62
554.519	1307.62
554.732	1333.62
554.944	1335.62
555.157	1367.62
555.37	1435.62
555.583	1452.62
555.795	1503.62
556.008	1536.62
556.221	1731.62
556.433	1813.62
556.646	1785.62
556.859	1763.62
557.071	1662.62
557.284	1695.62
557.496	1619.62
557.709	1563.62
557.921	1597.62
558.134	1585.62
558.346	1629.62
558.559	1659.62
558.771	1695.62
558.984	1824.62
559.196	1944.62
559.409	1882.62
559.621	1766.62
559.833	1673.62
560.046	1605.62
560.258	1517.62
560.47	1465.62
560.683	1430.62
560.895	1384.62
561.107	1334.62
561.32	1321.62
561.532	1274.62
561.744	1300.62
561.956	1215.62
562.168	1205.62
562.381	1183.62
562.593	1180.62
562.805	1191.62
563.017	1183.62
563.229	1195.62
563.441	1352.62
563.653	1200.62
563.865	1142.62
564.077	1133.62
564.289	1079.62
564.501	1069.62
564.713	1087.62
564.925	1083.62
565.137	1089.62
565.349	1060.62
565.561	1118.62
565.773	1096.62
565.985	1121.62
566.197	1113.62
566.408	1162.62
566.62	1170.62
566.832	1197.62
567.044	1215.62
567.255	1189.62
567.467	1220.62
567.679	1242.62
567.891	1307.62
568.102	1416.62
568.314	1675.62
568.526	1407.62
568.737	1228.62
568.949	1107.62
569.161	1081.62
569.372	1043.62
569.584	1003.62
569.795	980.62
570.007	963.62
570.218	994.62
570.43	1014.62
570.641	973.62
570.853	935.62
571.064	897.62
571.276	920.62
571.487	903.62
571.698	871.62
571.91	865.62
572.121	874.62
572.333	857.62
572.544	861.62
572.755	907.62
572.966	1092.62
573.178	971.62
573.389	867.62
573.6	805.62
573.811	815.62
574.023	801.62
574.234	795.62
574.445	787.62
574.656	804.62
574.867	788.62
575.078	776.62
575.289	795.62
575.501	797.62
575.712	759.62
575.923	812.62
576.134	799.62
576.345	798.62
576.556	777.62
576.767	774.62
576.978	795.62
577.188	773.62
577.399	787.62
577.61	767.62
577.821	823.62
578.032	788.62
578.243	812.62
578.454	840.62
578.665	873.62
578.875	871.62
579.086	895.62
579.297	913.62
579.508	967.62
579.718	1008.62
579.929	1131.62
580.14	1292.62
580.35	1295.62
580.561	1243.62
580.772	1142.62
580.982	1069.62
581.193	1020.62
581.403	972.62
581.614	936.62
581.825	919.62
582.035	891.62
582.246	840.62
582.456	821.62
582.667	813.62
582.877	798.62
583.087	778.62
583.298	784.62
583.508	742.62
583.719	729.62
583.929	717.62
584.139	699.62
584.35	678.62
584.56	671.62
584.77	657.62
584.981	671.62
585.191	663.62
585.401	654.62
585.611	640.62
585.821	644.62
586.032	634.62
586.242	632.62
586.452	605.62
586.662	659.62
586.872	616.62
587.082	597.62
587.292	624.62
587.502	620.62
587.713	611.62
587.923	585.62
588.133	589.62
588.343	596.62
588.553	575.62
588.762	587.62
588.972	587.62
589.182	588.62
589.392	586.62
589.602	568.62
589.812	589.62
590.022	551.62
590.232	560.62
590.441	580.62
590.651	563.62
590.861	544.62
591.071	565.62
591.281	559.62
591.49	568.62
591.7	555.62
591.91	551.62
592.119	555.62
592.329	578.62
592.539	581.62
592.748	602.62
592.958	603.62
593.167	578.62
593.377	586.62
593.587	583.62
593.796	587.62
594.006	582.62
594.215	585.62
594.424	580.62
594.634	564.62
594.843	582.62
595.053	569.62
595.262	563.62
595.472	559.62
595.681	550.62
595.89	529.62
596.1	526.62
596.309	523.62
596.518	516.62
596.727	532.62
596.937	487.62
597.146	506.62
597.355	513.62
597.564	493.62
597.774	491.62
597.983	482.62
598.192	487.62
598.401	483.62
598.61	478.62
598.819	482.62
599.028	463.62
599.237	466.62
599.446	477.62
599.655	481.62
599.864	476.62
600.073	475.62
600.282	473.62
600.491	470.62
600.7	446.62
600.909	453.62
601.118	463.62
601.327	474.62
601.536	482.62
601.745	485.62
601.953	543.62
602.162	599.62
602.371	536.62
602.58	485.62
602.789	488.62
602.997	477.62
603.206	469.62
603.415	481.62
603.623	467.62
603.832	457.62
604.041	447.62
604.249	446.62
604.458	444.62
604.666	444.62
604.875	441.62
605.084	444.62
605.292	444.62
605.501	436.62
605.709	477.62
605.918	463.62
606.126	467.62
606.334	467.62
606.543	471.62
606.751	506.62
606.96	563.62
607.168	614.62
607.376	518.62
607.585	472.62
607.793	447.62
608.001	450.62
608.21	451.62
608.418	448.62
608.626	445.62
608.834	449.62
609.043	448.62
609.251	437.62
609.459	421.62
609.667	428.62
609.875	448.62
610.083	426.62
610.291	417.62
610.499	433.62
610.707	428.62
610.916	429.62
611.124	445.62
611.332	422.62
611.54	444.62
611.748	414.62
611.955	426.62
612.163	399.62
612.371	424.62
612.579	405.62
612.787	412.62
612.995	411.62
613.203	422.62
613.411	417.62
613.618	397.62
613.826	413.62
614.034	404.62
614.242	417.62
614.449	397.62
614.657	412.62
614.865	393.62
615.072	425.62
615.28	427.62
615.488	411.62
615.695	404.62
615.903	424.62
616.111	418.62
616.318	408.62
616.526	404.62
616.733	412.62
616.941	408.62
617.148	402.62
617.356	403.62
617.563	402.62
617.771	391.62
617.978	372.62
618.185	395.62
618.393	411.62
618.6	400.62
618.807	394.62
619.015	392.62
619.222	385.62
619.429	372.62
619.637	384.62
619.844	369.62
620.051	387.62
620.258	384.62
620.466	387.62
620.673	362.62
620.88	364.62
621.087	385.62
621.294	377.62
621.501	360.62
621.708	369.62
621.915	362.62
622.122	383.62
622.329	370.62
622.536	381.62
622.743	373.62
622.95	363.62
623.157	341.62
623.364	371.62
623.571	356.62
623.778	351.62
623.985	344.62
624.192	354.62
624.399	339.62
624.606	344.62
624.812	353.62
625.019	341.62
625.226	348.62
625.433	358.62
625.639	345.62
625.846	358.62
626.053	341.62
626.259	323.62
626.466	325.62
626.673	339.62
626.879	329.62
627.086	326.62
627.293	330.62
627.499	332.62
627.706	344.62
627.912	341.62
628.119	325.62
628.325	350.62
628.532	345.62
628.738	335.62
628.945	337.62
629.151	332.62
629.357	327.62
629.564	326.62
629.77	336.62
629.976	333.62
630.183	309.62
630.389	317.62
630.595	320.62
630.802	334.62
631.008	321.62
631.214	322.62
631.42	314.62
631.627	339.62
631.833	325.62
632.039	316.62
632.245	311.62
632.451	315.62
632.657	301.62
632.863	299.62
633.069	322.62
633.275	304.62
633.481	319.62
633.688	324.62
633.893	307.62
634.099	307.62
634.305	301.62
634.511	309.62
634.717	305.62
634.923	308.62
635.129	371.62
635.335	432.62
635.541	356.62
635.747	324.62
635.952	339.62
636.158	318.62
636.364	326.62
636.57	308.62
636.775	327.62
636.981	301.62
637.187	317.62
637.392	333.62
637.598	307.62
637.804	314.62
638.009	305.62
638.215	303.62
638.421	304.62
638.626	336.62
638.832	325.62
639.037	312.62
639.243	312.62
639.448	292.62
639.654	318.62
639.859	335.62
640.065	316.62
640.27	332.62
640.475	329.62
640.681	322.62
640.886	317.62
641.091	331.62
641.297	323.62
641.502	326.62
641.707	326.62
641.913	317.62
642.118	351.62
642.323	344.62
642.528	345.62
642.733	357.62
642.939	360.62
643.144	358.62
643.349	380.62
643.554	379.62
643.759	396.62
643.964	405.62
644.169	422.62
644.374	477.62
644.579	489.62
644.784	535.62
644.989	579.62
645.194	671.62
645.399	798.62
645.604	844.62
645.809	653.62
646.014	544.62
646.219	463.62
646.423	405.62
646.628	380.62
646.833	368.62
647.038	353.62
647.243	328.62
647.447	327.62
647.652	316.62
647.857	314.62
648.062	300.62
648.266	300.62
648.471	279.62
648.676	321.62
648.88	295.62
649.085	276.62
649.289	280.62
649.494	292.62
649.698	297.62
649.903	283.62
650.107	266.62
650.312	276.62
650.516	265.62
650.721	244.62
650.925	263.62
651.13	255.62
651.334	233.62
651.539	232.62
651.743	247.62
651.947	257.62
652.152	233.62
652.356	248.62
652.56	265.62
652.764	292.62
652.969	248.62
653.173	255.62
653.377	232.62
653.581	233.62
653.785	221.62
653.99	227.62
654.194	211.62
654.398	209.62
654.602	199.62
654.806	214.62
655.01	210.62
655.214	219.62
655.418	226.62
655.622	206.62
655.826	210.62
656.03	219.62
656.234	207.62
656.438	242.62
656.642	217.62
656.846	219.62
657.049	207.62
657.253	200.62
657.457	186.62
657.661	184.62
657.865	156.62
658.068	168.62
658.272	156.62
658.476	167.62
658.68	160.62
658.883	137.62
659.087	140.62
659.291	140.62
659.494	124.62
659.698	120.62
659.901	128.62
660.105	130.62
660.309	120.62
660.512	113.62
660.716	121.62
660.919	115.62
661.123	121.62
661.326	119.62
661.53	114.62
661.733	87.62
661.936	103.62
662.14	93.62
662.343	98.62
662.546	84.62
662.75	101.62
662.953	100.62
663.156	95.62
663.36	81.62
663.563	92.62
663.766	91.62
663.969	106.62
664.173	101.62
664.376	89.62
664.579	91.62
664.782	79.62
664.985	82.62
665.188	81.62
665.391	73.62
665.594	80.62
665.797	90.62
666	91.62
666.203	84.62
666.406	78.62
666.609	73.62
666.812	92.62
667.015	82.62
667.218	84.62
667.421	86.62
667.624	86.62
667.827	93.62
668.03	84.62
668.232	91.62
668.435	85.62
668.638	78.62
668.841	90.62
669.043	87.62
669.246	84.62
669.449	87.62
669.651	82.62
669.854	87.62
670.057	74.62
670.259	82.62
670.462	87.62
670.665	84.62
670.867	77.62
671.07	86.62
671.272	93.62
671.475	90.62
671.677	85.62
671.88	85.62
672.082	87.62
672.284	74.62
672.487	81.62
672.689	83.62
672.892	83.62
