Data from SnStandardFlinnAPT0064_LampEnergy5.5_LIBS07252019.E.O._I.C._HRD10591_15-16-49-492.txt Node
Date: Thu Jul 25 15:16:49 EDT 2019
User: cochatt
Spectrometer: HR+D1059
Trigger mode: 1
Integration Time (sec): 1.000000E-1
Scans to average: 1
Electric dark correction enabled: true
Nonlinearity correction enabled: false
Boxcar width: 0
XAxis mode: Wavelengths
Number of Pixels in Spectrum: 2048
>>>>>Begin Spectral Data<<<<<
223.165	-21.38
223.4	-21.38
223.635	-21.38
223.869	-9.38
224.104	-17.38
224.338	-4.38
224.573	-7.38
224.808	-24.38
225.042	-23.38
225.277	-0.38
225.511	2.62
225.746	4.62
225.98	-1.38
226.215	4.62
226.449	26.62
226.683	18.62
226.918	15.62
227.152	36.62
227.387	29.62
227.621	29.62
227.856	44.62
228.09	40.62
228.324	44.62
228.559	39.62
228.793	89.62
229.027	167.62
229.262	168.62
229.496	161.62
229.73	154.62
229.964	171.62
230.199	163.62
230.433	170.62
230.667	172.62
230.901	182.62
231.136	170.62
231.37	194.62
231.604	209.62
231.838	229.62
232.072	241.62
232.306	260.62
232.541	230.62
232.775	200.62
233.009	203.62
233.243	218.62
233.477	227.62
233.711	238.62
233.945	279.62
234.179	249.62
234.413	214.62
234.647	218.62
234.881	235.62
235.115	266.62
235.349	285.62
235.583	375.62
235.817	442.62
236.051	434.62
236.285	276.62
236.519	264.62
236.753	232.62
236.987	238.62
237.221	245.62
237.455	237.62
237.689	225.62
237.922	226.62
238.156	227.62
238.39	233.62
238.624	249.62
238.858	236.62
239.091	250.62
239.325	229.62
239.559	242.62
239.793	237.62
240.027	247.62
240.26	249.62
240.494	265.62
240.728	284.62
240.961	282.62
241.195	284.62
241.429	316.62
241.662	317.62
241.896	350.62
242.13	427.62
242.363	540.62
242.597	690.62
242.83	643.62
243.064	644.62
243.298	769.62
243.531	651.62
243.765	412.62
243.998	334.62
244.232	324.62
244.465	308.62
244.699	311.62
244.932	272.62
245.166	310.62
245.399	315.62
245.633	323.62
245.866	326.62
246.099	297.62
246.333	281.62
246.566	286.62
246.8	298.62
247.033	286.62
247.266	286.62
247.5	294.62
247.733	328.62
247.966	312.62
248.2	330.62
248.433	377.62
248.666	442.62
248.899	414.62
249.133	365.62
249.366	378.62
249.599	408.62
249.832	455.62
250.066	457.62
250.299	375.62
250.532	342.62
250.765	322.62
250.998	334.62
251.231	321.62
251.465	344.62
251.698	333.62
251.931	352.62
252.164	355.62
252.397	346.62
252.63	365.62
252.863	361.62
253.096	352.62
253.329	356.62
253.562	357.62
253.795	372.62
254.028	345.62
254.261	372.62
254.494	392.62
254.727	448.62
254.96	530.62
255.193	528.62
255.426	419.62
255.659	387.62
255.892	394.62
256.124	393.62
256.357	380.62
256.59	402.62
256.823	418.62
257.056	497.62
257.289	562.62
257.521	598.62
257.754	519.62
257.987	426.62
258.22	402.62
258.452	418.62
258.685	394.62
258.918	416.62
259.151	440.62
259.383	448.62
259.616	530.62
259.849	525.62
260.081	482.62
260.314	438.62
260.547	434.62
260.779	435.62
261.012	440.62
261.244	450.62
261.477	436.62
261.71	468.62
261.942	466.62
262.175	447.62
262.407	489.62
262.64	491.62
262.872	513.62
263.105	518.62
263.337	538.62
263.57	567.62
263.802	572.62
264.035	579.62
264.267	579.62
264.499	618.62
264.732	637.62
264.964	617.62
265.197	627.62
265.429	631.62
265.661	647.62
265.894	696.62
266.126	754.62
266.358	818.62
266.591	813.62
266.823	688.62
267.055	646.62
267.287	601.62
267.52	587.62
267.752	571.62
267.984	549.62
268.216	580.62
268.448	561.62
268.681	563.62
268.913	557.62
269.145	541.62
269.377	540.62
269.609	569.62
269.841	587.62
270.073	621.62
270.306	705.62
270.538	941.62
270.77	1344.62
271.002	1614.62
271.234	1147.62
271.466	764.62
271.698	634.62
271.93	584.62
272.162	592.62
272.394	566.62
272.626	568.62
272.858	515.62
273.09	569.62
273.322	547.62
273.553	541.62
273.785	532.62
274.017	530.62
274.249	536.62
274.481	547.62
274.713	528.62
274.945	541.62
275.176	530.62
275.408	530.62
275.64	521.62
275.872	538.62
276.104	562.62
276.335	538.62
276.567	578.62
276.799	589.62
277.031	590.62
277.262	579.62
277.494	604.62
277.726	645.62
277.957	768.62
278.189	809.62
278.421	785.62
278.652	710.62
278.884	698.62
279.115	652.62
279.347	612.62
279.579	594.62
279.81	617.62
280.042	600.62
280.273	605.62
280.505	619.62
280.736	636.62
280.968	655.62
281.199	726.62
281.431	854.62
281.662	836.62
281.894	726.62
282.125	691.62
282.356	725.62
282.588	710.62
282.819	732.62
283.051	753.62
283.282	844.62
283.513	992.62
283.745	1507.62
283.976	2356.62
284.207	3307.62
284.439	2939.62
284.67	1760.62
284.901	1440.62
285.132	1425.62
285.364	1331.62
285.595	1077.62
285.826	1008.62
286.057	1180.62
286.288	1571.62
286.52	2169.62
286.751	2009.62
286.982	1212.62
287.213	915.62
287.444	809.62
287.675	775.62
287.906	748.62
288.138	722.62
288.369	707.62
288.6	718.62
288.831	709.62
289.062	707.62
289.293	708.62
289.524	712.62
289.755	733.62
289.986	720.62
290.217	700.62
290.448	714.62
290.679	733.62
290.91	754.62
291.141	802.62
291.371	811.62
291.602	845.62
291.833	816.62
292.064	735.62
292.295	717.62
292.526	712.62
292.757	713.62
292.987	713.62
293.218	679.62
293.449	706.62
293.68	700.62
293.91	676.62
294.141	664.62
294.372	672.62
294.603	685.62
294.833	679.62
295.064	681.62
295.295	681.62
295.525	675.62
295.756	676.62
295.987	654.62
296.217	652.62
296.448	689.62
296.679	696.62
296.909	690.62
297.14	698.62
297.37	681.62
297.601	686.62
297.831	701.62
298.062	712.62
298.292	712.62
298.523	704.62
298.753	709.62
298.984	708.62
299.214	732.62
299.445	750.62
299.675	740.62
299.905	781.62
300.136	796.62
300.366	889.62
300.597	1152.62
300.827	1558.62
301.057	2117.62
301.288	2118.62
301.518	1357.62
301.748	1052.62
301.979	973.62
302.209	916.62
302.439	924.62
302.669	979.62
302.9	1191.62
303.13	1666.62
303.36	2513.62
303.59	3278.62
303.82	2829.62
304.051	1675.62
304.281	1188.62
304.511	996.62
304.741	940.62
304.971	880.62
305.201	850.62
305.431	849.62
305.661	807.62
305.891	775.62
306.121	799.62
306.352	769.62
306.582	774.62
306.812	782.62
307.042	809.62
307.272	749.62
307.502	787.62
307.731	787.62
307.961	777.62
308.191	792.62
308.421	777.62
308.651	774.62
308.881	756.62
309.111	773.62
309.341	787.62
309.571	782.62
309.8	771.62
310.03	794.62
310.26	784.62
310.49	782.62
310.72	798.62
310.949	803.62
311.179	804.62
311.409	794.62
311.639	822.62
311.868	831.62
312.098	840.62
312.328	823.62
312.557	864.62
312.787	822.62
313.017	837.62
313.246	845.62
313.476	849.62
313.706	891.62
313.935	929.62
314.165	932.62
314.394	981.62
314.624	949.62
314.853	903.62
315.083	896.62
315.312	929.62
315.542	936.62
315.771	925.62
316.001	937.62
316.23	946.62
316.46	1010.62
316.689	1098.62
316.919	1343.62
317.148	1894.62
317.377	2963.62
317.607	4333.62
317.836	4429.62
318.065	2521.62
318.295	1684.62
318.524	1345.62
318.753	1154.62
318.983	1104.62
319.212	1024.62
319.441	1032.62
319.67	1004.62
319.9	1014.62
320.129	988.62
320.358	1008.62
320.587	944.62
320.816	979.62
321.046	1006.62
321.275	976.62
321.504	990.62
321.733	1005.62
321.962	1025.62
322.191	1066.62
322.42	1013.62
322.649	1048.62
322.878	1032.62
323.108	1020.62
323.337	1037.62
323.566	1097.62
323.795	1078.62
324.024	1111.62
324.253	1118.62
324.482	1181.62
324.71	1240.62
324.939	1264.62
325.168	1272.62
325.397	1356.62
325.626	1616.62
325.855	2242.62
326.084	3573.62
326.313	5274.62
326.542	5639.62
326.77	3490.62
326.999	2271.62
327.228	1880.62
327.457	1815.62
327.686	1824.62
327.914	1938.62
328.143	2202.62
328.372	2507.62
328.6	2728.62
328.829	2563.62
329.058	2204.62
329.287	1994.62
329.515	1845.62
329.744	1730.62
329.972	1643.62
330.201	1523.62
330.43	1504.62
330.658	1460.62
330.887	1447.62
331.115	1424.62
331.344	1437.62
331.572	1409.62
331.801	1414.62
332.03	1420.62
332.258	1467.62
332.486	1500.62
332.715	1722.62
332.943	2091.62
333.172	2568.62
333.4	2520.62
333.629	1974.62
333.857	1796.62
334.085	1792.62
334.314	1851.62
334.542	1991.62
334.771	2267.62
334.999	2774.62
335.227	3334.62
335.455	3669.62
335.684	3392.62
335.912	2878.62
336.14	2492.62
336.369	2260.62
336.597	2067.62
336.825	1946.62
337.053	1799.62
337.281	1718.62
337.51	1642.62
337.738	1533.62
337.966	1497.62
338.194	1440.62
338.422	1444.62
338.65	1400.62
338.878	1350.62
339.106	1350.62
339.334	1341.62
339.562	1286.62
339.79	1271.62
340.018	1284.62
340.246	1289.62
340.474	1235.62
340.702	1256.62
340.93	1219.62
341.158	1239.62
341.386	1241.62
341.614	1233.62
341.842	1185.62
342.07	1201.62
342.298	1178.62
342.526	1147.62
342.754	1165.62
342.981	1133.62
343.209	1155.62
343.437	1170.62
343.665	1181.62
343.893	1178.62
344.12	1179.62
344.348	1149.62
344.576	1162.62
344.804	1126.62
345.031	1096.62
345.259	1116.62
345.487	1101.62
345.714	1075.62
345.942	1064.62
346.17	1069.62
346.397	1096.62
346.625	1079.62
346.853	1052.62
347.08	1079.62
347.308	1096.62
347.535	1054.62
347.763	1073.62
347.99	1069.62
348.218	1050.62
348.445	1066.62
348.673	1062.62
348.9	1022.62
349.128	1015.62
349.355	1026.62
349.583	1043.62
349.81	1057.62
350.037	1030.62
350.265	995.62
350.492	1014.62
350.72	1034.62
350.947	1020.62
351.174	1025.62
351.402	1020.62
351.629	1032.62
351.856	1030.62
352.083	1010.62
352.311	1003.62
352.538	1032.62
352.765	1034.62
352.992	998.62
353.22	1008.62
353.447	1004.62
353.674	1012.62
353.901	1043.62
354.128	1029.62
354.355	1024.62
354.583	1005.62
354.81	1029.62
355.037	1048.62
355.264	1033.62
355.491	1036.62
355.718	1016.62
355.945	1014.62
356.172	1065.62
356.399	1044.62
356.626	1063.62
356.853	1073.62
357.08	1058.62
357.307	1066.62
357.534	1081.62
357.761	1088.62
357.988	1094.62
358.215	1085.62
358.441	1096.62
358.668	1073.62
358.895	1090.62
359.122	1086.62
359.349	1088.62
359.576	1101.62
359.802	1112.62
360.029	1084.62
360.256	1082.62
360.483	1089.62
360.709	1069.62
360.936	1094.62
361.163	1104.62
361.39	1091.62
361.616	1096.62
361.843	1090.62
362.07	1108.62
362.296	1058.62
362.523	1077.62
362.749	1097.62
362.976	1089.62
363.203	1102.62
363.429	1066.62
363.656	1109.62
363.882	1100.62
364.109	1055.62
364.335	1064.62
364.562	1099.62
364.788	1067.62
365.015	1121.62
365.241	1126.62
365.468	1171.62
365.694	1196.62
365.92	1184.62
366.147	1109.62
366.373	1113.62
366.599	1089.62
366.826	1106.62
367.052	1111.62
367.278	1107.62
367.505	1098.62
367.731	1101.62
367.957	1078.62
368.184	1110.62
368.41	1115.62
368.636	1136.62
368.862	1104.62
369.089	1116.62
369.315	1138.62
369.541	1125.62
369.767	1116.62
369.993	1120.62
370.219	1099.62
370.445	1122.62
370.672	1125.62
370.898	1134.62
371.124	1112.62
371.35	1175.62
371.576	1143.62
371.802	1144.62
372.028	1164.62
372.254	1165.62
372.48	1181.62
372.706	1202.62
372.932	1227.62
373.158	1207.62
373.384	1188.62
373.61	1196.62
373.835	1201.62
374.061	1212.62
374.287	1221.62
374.513	1218.62
374.739	1225.62
374.965	1257.62
375.191	1234.62
375.416	1222.62
375.642	1222.62
375.868	1211.62
376.094	1185.62
376.319	1192.62
376.545	1172.62
376.771	1181.62
376.997	1136.62
377.222	1181.62
377.448	1167.62
377.674	1148.62
377.899	1172.62
378.125	1164.62
378.35	1156.62
378.576	1181.62
378.802	1180.62
379.027	1220.62
379.253	1230.62
379.478	1318.62
379.704	1524.62
379.929	2120.62
380.155	3208.62
380.38	3407.62
380.606	2122.62
380.831	1472.62
381.057	1300.62
381.282	1223.62
381.507	1202.62
381.733	1188.62
381.958	1145.62
382.184	1172.62
382.409	1171.62
382.634	1181.62
382.86	1141.62
383.085	1140.62
383.31	1165.62
383.535	1148.62
383.761	1141.62
383.986	1158.62
384.211	1173.62
384.436	1191.62
384.662	1183.62
384.887	1185.62
385.112	1178.62
385.337	1200.62
385.562	1181.62
385.787	1194.62
386.013	1166.62
386.238	1162.62
386.463	1194.62
386.688	1203.62
386.913	1200.62
387.138	1176.62
387.363	1207.62
387.588	1186.62
387.813	1204.62
388.038	1163.62
388.263	1180.62
388.488	1192.62
388.713	1170.62
388.938	1205.62
389.163	1178.62
389.387	1176.62
389.612	1214.62
389.837	1187.62
390.062	1168.62
390.287	1234.62
390.512	1239.62
390.736	1196.62
390.961	1227.62
391.186	1243.62
391.411	1220.62
391.636	1269.62
391.86	1253.62
392.085	1294.62
392.31	1260.62
392.534	1239.62
392.759	1236.62
392.984	1197.62
393.208	1236.62
393.433	1241.62
393.658	1245.62
393.882	1204.62
394.107	1194.62
394.331	1215.62
394.556	1234.62
394.78	1227.62
395.005	1181.62
395.229	1244.62
395.454	1209.62
395.678	1254.62
395.903	1243.62
396.127	1290.62
396.352	1224.62
396.576	1249.62
396.801	1235.62
397.025	1253.62
397.249	1260.62
397.474	1241.62
397.698	1253.62
397.922	1258.62
398.147	1231.62
398.371	1249.62
398.595	1302.62
398.82	1339.62
399.044	1392.62
399.268	1412.62
399.492	1574.62
399.717	1586.62
399.941	1572.62
400.165	1501.62
400.389	1464.62
400.613	1462.62
400.837	1405.62
401.062	1366.62
401.286	1355.62
401.51	1337.62
401.734	1336.62
401.958	1349.62
402.182	1373.62
402.406	1323.62
402.63	1340.62
402.854	1361.62
403.078	1355.62
403.302	1375.62
403.526	1371.62
403.75	1357.62
403.974	1384.62
404.198	1386.62
404.422	1415.62
404.645	1361.62
404.869	1383.62
405.093	1375.62
405.317	1382.62
405.541	1394.62
405.765	1377.62
405.988	1412.62
406.212	1414.62
406.436	1385.62
406.66	1424.62
406.883	1444.62
407.107	1461.62
407.331	1410.62
407.555	1509.62
407.778	1476.62
408.002	1402.62
408.226	1482.62
408.449	1493.62
408.673	1426.62
408.896	1401.62
409.12	1422.62
409.344	1408.62
409.567	1350.62
409.791	1382.62
410.014	1369.62
410.238	1332.62
410.461	1370.62
410.685	1371.62
410.908	1355.62
411.132	1361.62
411.355	1331.62
411.578	1309.62
411.802	1313.62
412.025	1302.62
412.249	1307.62
412.472	1322.62
412.695	1302.62
412.919	1339.62
413.142	1321.62
413.365	1309.62
413.589	1289.62
413.812	1316.62
414.035	1297.62
414.258	1310.62
414.482	1292.62
414.705	1300.62
414.928	1284.62
415.151	1306.62
415.374	1296.62
415.597	1275.62
415.821	1274.62
416.044	1233.62
416.267	1234.62
416.49	1220.62
416.713	1257.62
416.936	1260.62
417.159	1221.62
417.382	1204.62
417.605	1245.62
417.828	1248.62
418.051	1268.62
418.274	1226.62
418.497	1236.62
418.72	1308.62
418.943	1280.62
419.166	1357.62
419.389	1400.62
419.611	1346.62
419.834	1314.62
420.057	1289.62
420.28	1297.62
420.503	1238.62
420.726	1268.62
420.948	1244.62
421.171	1263.62
421.394	1260.62
421.617	1311.62
421.839	1278.62
422.062	1268.62
422.285	1250.62
422.507	1275.62
422.73	1268.62
422.953	1298.62
423.175	1289.62
423.398	1295.62
423.621	1290.62
423.843	1248.62
424.066	1251.62
424.288	1267.62
424.511	1280.62
424.733	1253.62
424.956	1253.62
425.178	1232.62
425.401	1227.62
425.623	1256.62
425.846	1224.62
426.068	1239.62
426.291	1198.62
426.513	1212.62
426.735	1182.62
426.958	1196.62
427.18	1183.62
427.402	1200.62
427.625	1176.62
427.847	1181.62
428.069	1159.62
428.292	1175.62
428.514	1170.62
428.736	1188.62
428.958	1187.62
429.181	1166.62
429.403	1168.62
429.625	1154.62
429.847	1181.62
430.069	1174.62
430.292	1201.62
430.514	1228.62
430.736	1250.62
430.958	1177.62
431.18	1149.62
431.402	1139.62
431.624	1168.62
431.846	1165.62
432.068	1106.62
432.29	1168.62
432.512	1146.62
432.734	1186.62
432.956	1170.62
433.178	1149.62
433.4	1164.62
433.622	1160.62
433.844	1175.62
434.066	1174.62
434.287	1157.62
434.509	1188.62
434.731	1198.62
434.953	1172.62
435.175	1208.62
435.397	1214.62
435.618	1192.62
435.84	1158.62
436.062	1174.62
436.284	1165.62
436.505	1152.62
436.727	1156.62
436.949	1178.62
437.17	1137.62
437.392	1129.62
437.614	1120.62
437.835	1094.62
438.057	1113.62
438.278	1088.62
438.5	1102.62
438.721	1115.62
438.943	1178.62
439.165	1220.62
439.386	1193.62
439.608	1206.62
439.829	1190.62
440.05	1211.62
440.272	1236.62
440.493	1210.62
440.715	1179.62
440.936	1216.62
441.158	1228.62
441.379	1219.62
441.6	1247.62
441.822	1302.62
442.043	1335.62
442.264	1402.62
442.486	1310.62
442.707	1258.62
442.928	1219.62
443.149	1230.62
443.371	1252.62
443.592	1272.62
443.813	1252.62
444.034	1265.62
444.255	1253.62
444.476	1325.62
444.698	1338.62
444.919	1346.62
445.14	1388.62
445.361	1313.62
445.582	1271.62
445.803	1265.62
446.024	1227.62
446.245	1229.62
446.466	1226.62
446.687	1220.62
446.908	1250.62
447.129	1164.62
447.35	1182.62
447.571	1182.62
447.792	1157.62
448.013	1173.62
448.234	1115.62
448.455	1146.62
448.675	1144.62
448.896	1190.62
449.117	1205.62
449.338	1303.62
449.559	1355.62
449.779	1216.62
450	1144.62
450.221	1116.62
450.442	1146.62
450.662	1115.62
450.883	1086.62
451.104	1109.62
451.324	1123.62
451.545	1113.62
451.766	1084.62
451.986	1150.62
452.207	1197.62
452.428	1455.62
452.648	2080.62
452.869	1800.62
453.089	1330.62
453.31	1242.62
453.53	1204.62
453.751	1265.62
453.971	1361.62
454.192	1330.62
454.412	1179.62
454.633	1081.62
454.853	1085.62
455.073	1096.62
455.294	1100.62
455.514	1049.62
455.734	1084.62
455.955	1060.62
456.175	1037.62
456.395	1063.62
456.616	1060.62
456.836	1082.62
457.056	1076.62
457.276	1052.62
457.497	1148.62
457.717	1159.62
457.937	1115.62
458.157	1118.62
458.377	1105.62
458.598	1113.62
458.818	1124.62
459.038	1142.62
459.258	1114.62
459.478	1165.62
459.698	1169.62
459.918	1178.62
460.138	1172.62
460.358	1237.62
460.578	1222.62
460.798	1260.62
461.018	1254.62
461.238	1229.62
461.458	1252.62
461.678	1254.62
461.898	1248.62
462.118	1262.62
462.338	1321.62
462.558	1329.62
462.777	1380.62
462.997	1420.62
463.217	1475.62
463.437	1520.62
463.657	1491.62
463.876	1498.62
464.096	1456.62
464.316	1397.62
464.536	1366.62
464.755	1336.62
464.975	1312.62
465.195	1279.62
465.414	1219.62
465.634	1186.62
465.854	1183.62
466.073	1196.62
466.293	1152.62
466.512	1165.62
466.732	1166.62
466.951	1209.62
467.171	1298.62
467.391	1308.62
467.61	1178.62
467.829	1150.62
468.049	1146.62
468.268	1118.62
468.488	1118.62
468.707	1137.62
468.927	1128.62
469.146	1120.62
469.365	1125.62
469.585	1156.62
469.804	1174.62
470.023	1197.62
470.243	1201.62
470.462	1253.62
470.681	1282.62
470.901	1398.62
471.12	1636.62
471.339	1643.62
471.558	1362.62
471.777	1251.62
471.997	1210.62
472.216	1171.62
472.435	1143.62
472.654	1101.62
472.873	1138.62
473.092	1138.62
473.311	1123.62
473.53	1125.62
473.749	1180.62
473.968	1202.62
474.187	1149.62
474.406	1133.62
474.625	1153.62
474.844	1154.62
475.063	1169.62
475.282	1137.62
475.501	1146.62
475.72	1160.62
475.939	1181.62
476.158	1187.62
476.377	1199.62
476.596	1204.62
476.814	1216.62
477.033	1179.62
477.252	1220.62
477.471	1254.62
477.69	1280.62
477.908	1249.62
478.127	1271.62
478.346	1262.62
478.564	1302.62
478.783	1320.62
479.002	1353.62
479.22	1317.62
479.439	1361.62
479.658	1356.62
479.876	1368.62
480.095	1361.62
480.313	1401.62
480.532	1408.62
480.751	1420.62
480.969	1357.62
481.188	1311.62
481.406	1334.62
481.624	1359.62
481.843	1354.62
482.061	1340.62
482.28	1353.62
482.498	1355.62
482.717	1357.62
482.935	1396.62
483.153	1418.62
483.372	1401.62
483.59	1430.62
483.808	1447.62
484.027	1482.62
484.245	1542.62
484.463	1743.62
484.681	1905.62
484.9	1684.62
485.118	1608.62
485.336	1592.62
485.554	1591.62
485.772	1677.62
485.99	1912.62
486.209	2109.62
486.427	1714.62
486.645	1552.62
486.863	1500.62
487.081	1502.62
487.299	1467.62
487.517	1450.62
487.735	1448.62
487.953	1480.62
488.171	1494.62
488.389	1478.62
488.607	1443.62
488.825	1376.62
489.043	1378.62
489.261	1401.62
489.479	1403.62
489.696	1416.62
489.914	1402.62
490.132	1420.62
490.35	1437.62
490.568	1426.62
490.786	1437.62
491.003	1475.62
491.221	1474.62
491.439	1525.62
491.657	1484.62
491.874	1520.62
492.092	1552.62
492.31	1545.62
492.527	1555.62
492.745	1497.62
492.963	1497.62
493.18	1537.62
493.398	1502.62
493.615	1508.62
493.833	1523.62
494.05	1462.62
494.268	1521.62
494.485	1506.62
494.703	1456.62
494.92	1463.62
495.138	1492.62
495.355	1496.62
495.573	1545.62
495.79	1550.62
496.008	1547.62
496.225	1555.62
496.442	1562.62
496.66	1570.62
496.877	1669.62
497.094	1644.62
497.312	1589.62
497.529	1590.62
497.746	1636.62
497.963	1634.62
498.181	1703.62
498.398	1700.62
498.615	1768.62
498.832	1853.62
499.049	1922.62
499.267	2038.62
499.484	2167.62
499.701	2208.62
499.918	2302.62
500.135	2408.62
500.352	2486.62
500.569	2560.62
500.786	2556.62
501.003	2428.62
501.22	2340.62
501.437	2138.62
501.654	2047.62
501.871	1972.62
502.088	1890.62
502.305	1810.62
502.522	1776.62
502.739	1720.62
502.956	1663.62
503.172	1664.62
503.389	1620.62
503.606	1561.62
503.823	1515.62
504.04	1551.62
504.256	1573.62
504.473	1544.62
504.69	1526.62
504.907	1556.62
505.123	1491.62
505.34	1430.62
505.557	1447.62
505.773	1404.62
505.99	1393.62
506.207	1423.62
506.423	1404.62
506.64	1364.62
506.856	1341.62
507.073	1302.62
507.289	1326.62
507.506	1320.62
507.722	1313.62
507.939	1300.62
508.155	1304.62
508.372	1292.62
508.588	1302.62
508.805	1269.62
509.021	1281.62
509.238	1289.62
509.454	1347.62
509.67	1422.62
509.887	1342.62
510.103	1300.62
510.319	1299.62
510.536	1276.62
510.752	1253.62
510.968	1226.62
511.184	1208.62
511.401	1228.62
511.617	1225.62
511.833	1217.62
512.049	1221.62
512.265	1218.62
512.481	1225.62
512.698	1225.62
512.914	1197.62
513.13	1240.62
513.346	1216.62
513.562	1204.62
513.778	1214.62
513.994	1230.62
514.21	1236.62
514.426	1331.62
514.642	1398.62
514.858	1308.62
515.074	1259.62
515.29	1263.62
515.506	1236.62
515.721	1248.62
515.937	1274.62
516.153	1279.62
516.369	1276.62
516.585	1302.62
516.801	1323.62
517.016	1356.62
517.232	1370.62
517.448	1386.62
517.664	1377.62
517.879	1376.62
518.095	1413.62
518.311	1369.62
518.527	1346.62
518.742	1357.62
518.958	1354.62
519.173	1373.62
519.389	1338.62
519.605	1292.62
519.82	1299.62
520.036	1273.62
520.251	1230.62
520.467	1213.62
520.682	1254.62
520.898	1207.62
521.113	1227.62
521.329	1174.62
521.544	1214.62
521.76	1186.62
521.975	1227.62
522.19	1202.62
522.406	1190.62
522.621	1181.62
522.836	1166.62
523.052	1181.62
523.267	1174.62
523.482	1171.62
523.698	1189.62
523.913	1187.62
524.128	1174.62
524.343	1166.62
524.559	1157.62
524.774	1164.62
524.989	1169.62
525.204	1222.62
525.419	1182.62
525.634	1200.62
525.849	1197.62
526.064	1170.62
526.28	1196.62
526.495	1162.62
526.71	1195.62
526.925	1190.62
527.14	1186.62
527.355	1170.62
527.57	1170.62
527.785	1162.62
527.999	1194.62
528.214	1209.62
528.429	1238.62
528.644	1217.62
528.859	1254.62
529.074	1255.62
529.289	1271.62
529.503	1296.62
529.718	1235.62
529.933	1249.62
530.148	1231.62
530.363	1225.62
530.577	1227.62
530.792	1232.62
531.007	1224.62
531.221	1234.62
531.436	1243.62
531.651	1259.62
531.865	1286.62
532.08	1312.62
532.295	1336.62
532.509	1388.62
532.724	1402.62
532.938	1399.62
533.153	1473.62
533.367	1532.62
533.582	1589.62
533.796	1562.62
534.011	1518.62
534.225	1482.62
534.44	1426.62
534.654	1436.62
534.868	1403.62
535.083	1372.62
535.297	1330.62
535.511	1331.62
535.726	1324.62
535.94	1316.62
536.154	1284.62
536.369	1242.62
536.583	1243.62
536.797	1207.62
537.011	1225.62
537.225	1203.62
537.44	1191.62
537.654	1188.62
537.868	1175.62
538.082	1156.62
538.296	1145.62
538.51	1152.62
538.724	1165.62
538.938	1154.62
539.153	1160.62
539.367	1183.62
539.581	1162.62
539.795	1116.62
540.009	1135.62
540.222	1148.62
540.436	1132.62
540.65	1147.62
540.864	1127.62
541.078	1174.62
541.292	1254.62
541.506	1501.62
541.72	1538.62
541.934	1360.62
542.147	1295.62
542.361	1234.62
542.575	1157.62
542.789	1150.62
543.002	1118.62
543.216	1099.62
543.43	1108.62
543.644	1102.62
543.857	1123.62
544.071	1149.62
544.285	1157.62
544.498	1133.62
544.712	1129.62
544.925	1152.62
545.139	1130.62
545.352	1143.62
545.566	1146.62
545.779	1144.62
545.993	1144.62
546.206	1149.62
546.42	1158.62
546.633	1144.62
546.847	1173.62
547.06	1154.62
547.274	1156.62
547.487	1153.62
547.7	1172.62
547.914	1164.62
548.127	1162.62
548.34	1161.62
548.554	1142.62
548.767	1160.62
548.98	1140.62
549.193	1142.62
549.407	1130.62
549.62	1166.62
549.833	1179.62
550.046	1188.62
550.259	1148.62
550.473	1133.62
550.686	1122.62
550.899	1162.62
551.112	1141.62
551.325	1147.62
551.538	1129.62
551.751	1094.62
551.964	1116.62
552.177	1131.62
552.39	1161.62
552.603	1208.62
552.816	1200.62
553.029	1221.62
553.242	1220.62
553.455	1214.62
553.667	1262.62
553.88	1231.62
554.093	1247.62
554.306	1265.62
554.519	1262.62
554.732	1259.62
554.944	1297.62
555.157	1289.62
555.37	1357.62
555.583	1387.62
555.795	1423.62
556.008	1498.62
556.221	1627.62
556.433	1724.62
556.646	1717.62
556.859	1665.62
557.071	1637.62
557.284	1562.62
557.496	1552.62
557.709	1532.62
557.921	1553.62
558.134	1503.62
558.346	1528.62
558.559	1594.62
558.771	1600.62
558.984	1734.62
559.196	1850.62
559.409	1753.62
559.621	1695.62
559.833	1554.62
560.046	1542.62
560.258	1484.62
560.47	1402.62
560.683	1349.62
560.895	1316.62
561.107	1288.62
561.32	1242.62
561.532	1203.62
561.744	1200.62
561.956	1217.62
562.168	1191.62
562.381	1156.62
562.593	1120.62
562.805	1136.62
563.017	1157.62
563.229	1193.62
563.441	1318.62
563.653	1156.62
563.865	1088.62
564.077	1067.62
564.289	1038.62
564.501	1041.62
564.713	1054.62
564.925	1058.62
565.137	1073.62
565.349	1048.62
565.561	1044.62
565.773	1061.62
565.985	1094.62
566.197	1068.62
566.408	1107.62
566.62	1110.62
566.832	1167.62
567.044	1161.62
567.255	1162.62
567.467	1214.62
567.679	1192.62
567.891	1256.62
568.102	1398.62
568.314	1600.62
568.526	1376.62
568.737	1216.62
568.949	1105.62
569.161	1020.62
569.372	977.62
569.584	973.62
569.795	946.62
570.007	944.62
570.218	957.62
570.43	970.62
570.641	931.62
570.853	915.62
571.064	894.62
571.276	856.62
571.487	870.62
571.698	845.62
571.91	858.62
572.121	839.62
572.333	818.62
572.544	838.62
572.755	885.62
572.966	1073.62
573.178	937.62
573.389	854.62
573.6	830.62
573.811	805.62
574.023	798.62
574.234	770.62
574.445	779.62
574.656	766.62
574.867	760.62
575.078	757.62
575.289	767.62
575.501	752.62
575.712	766.62
575.923	735.62
576.134	764.62
576.345	758.62
576.556	762.62
576.767	760.62
576.978	770.62
577.188	782.62
577.399	747.62
577.61	766.62
577.821	776.62
578.032	778.62
578.243	773.62
578.454	792.62
578.665	807.62
578.875	822.62
579.086	846.62
579.297	877.62
579.508	931.62
579.718	999.62
579.929	1069.62
580.14	1273.62
580.35	1246.62
580.561	1191.62
580.772	1101.62
580.982	1042.62
581.193	950.62
581.403	969.62
581.614	910.62
581.825	857.62
582.035	848.62
582.246	824.62
582.456	806.62
582.667	788.62
582.877	777.62
583.087	755.62
583.298	752.62
583.508	714.62
583.719	729.62
583.929	685.62
584.139	681.62
584.35	665.62
584.56	673.62
584.77	643.62
584.981	638.62
585.191	634.62
585.401	631.62
585.611	627.62
585.821	612.62
586.032	631.62
586.242	637.62
586.452	600.62
586.662	605.62
586.872	600.62
587.082	588.62
587.292	585.62
587.502	604.62
587.713	582.62
587.923	559.62
588.133	577.62
588.343	576.62
588.553	584.62
588.762	579.62
588.972	576.62
589.182	554.62
589.392	574.62
589.602	557.62
589.812	563.62
590.022	562.62
590.232	548.62
590.441	550.62
590.651	561.62
590.861	537.62
591.071	538.62
591.281	574.62
591.49	571.62
591.7	546.62
591.91	526.62
592.119	539.62
592.329	538.62
592.539	564.62
592.748	565.62
592.958	596.62
593.167	564.62
593.377	599.62
593.587	592.62
593.796	581.62
594.006	566.62
594.215	579.62
594.424	563.62
594.634	564.62
594.843	577.62
595.053	567.62
595.262	533.62
595.472	509.62
595.681	520.62
595.89	510.62
596.1	522.62
596.309	488.62
596.518	497.62
596.727	509.62
596.937	510.62
597.146	469.62
597.355	477.62
597.564	496.62
597.774	470.62
597.983	448.62
598.192	458.62
598.401	469.62
598.61	456.62
598.819	455.62
599.028	448.62
599.237	483.62
599.446	441.62
599.655	460.62
599.864	456.62
600.073	444.62
600.282	459.62
600.491	465.62
600.7	451.62
600.909	453.62
601.118	457.62
601.327	434.62
601.536	458.62
601.745	460.62
601.953	517.62
602.162	579.62
602.371	522.62
602.58	472.62
602.789	461.62
602.997	452.62
603.206	467.62
603.415	459.62
603.623	471.62
603.832	454.62
604.041	442.62
604.249	430.62
604.458	414.62
604.666	438.62
604.875	402.62
605.084	418.62
605.292	417.62
605.501	430.62
605.709	423.62
605.918	439.62
606.126	440.62
606.334	436.62
606.543	440.62
606.751	482.62
606.96	538.62
607.168	597.62
607.376	516.62
607.585	480.62
607.793	452.62
608.001	443.62
608.21	445.62
608.418	429.62
608.626	414.62
608.834	433.62
609.043	428.62
609.251	426.62
609.459	413.62
609.667	427.62
609.875	428.62
610.083	391.62
610.291	386.62
610.499	398.62
610.707	398.62
610.916	383.62
611.124	433.62
611.332	414.62
611.54	398.62
611.748	407.62
611.955	414.62
612.163	413.62
612.371	405.62
612.579	416.62
612.787	423.62
612.995	394.62
613.203	402.62
613.411	390.62
613.618	403.62
613.826	399.62
614.034	394.62
614.242	417.62
614.449	392.62
614.657	397.62
614.865	397.62
615.072	402.62
615.28	404.62
615.488	412.62
615.695	438.62
615.903	424.62
616.111	416.62
616.318	391.62
616.526	393.62
616.733	401.62
616.941	399.62
617.148	399.62
617.356	377.62
617.563	372.62
617.771	387.62
617.978	379.62
618.185	383.62
618.393	389.62
618.6	382.62
618.807	385.62
619.015	400.62
619.222	386.62
619.429	373.62
619.637	359.62
619.844	361.62
620.051	365.62
620.258	378.62
620.466	368.62
620.673	347.62
620.88	356.62
621.087	350.62
621.294	345.62
621.501	354.62
621.708	373.62
621.915	357.62
622.122	361.62
622.329	358.62
622.536	356.62
622.743	360.62
622.95	375.62
623.157	340.62
623.364	361.62
623.571	365.62
623.778	350.62
623.985	343.62
624.192	344.62
624.399	354.62
624.606	353.62
624.812	325.62
625.019	348.62
625.226	348.62
625.433	336.62
625.639	355.62
625.846	351.62
626.053	341.62
626.259	320.62
626.466	313.62
626.673	321.62
626.879	311.62
627.086	313.62
627.293	346.62
627.499	336.62
627.706	343.62
627.912	326.62
628.119	326.62
628.325	341.62
628.532	324.62
628.738	335.62
628.945	322.62
629.151	316.62
629.357	310.62
629.564	325.62
629.77	333.62
629.976	314.62
630.183	319.62
630.389	297.62
630.595	306.62
630.802	311.62
631.008	317.62
631.214	330.62
631.42	322.62
631.627	326.62
631.833	301.62
632.039	306.62
632.245	315.62
632.451	302.62
632.657	285.62
632.863	289.62
633.069	302.62
633.275	317.62
633.481	293.62
633.688	301.62
633.893	272.62
634.099	302.62
634.305	308.62
634.511	297.62
634.717	318.62
634.923	325.62
635.129	344.62
635.335	380.62
635.541	349.62
635.747	317.62
635.952	300.62
636.158	319.62
636.364	306.62
636.57	322.62
636.775	330.62
636.981	302.62
637.187	312.62
637.392	304.62
637.598	308.62
637.804	307.62
638.009	318.62
638.215	314.62
638.421	300.62
638.626	300.62
638.832	310.62
639.037	292.62
639.243	323.62
639.448	305.62
639.654	305.62
639.859	327.62
640.065	324.62
640.27	300.62
640.475	329.62
640.681	308.62
640.886	317.62
641.091	329.62
641.297	310.62
641.502	304.62
641.707	328.62
641.913	321.62
642.118	337.62
642.323	338.62
642.528	360.62
642.733	345.62
642.939	359.62
643.144	368.62
643.349	363.62
643.554	403.62
643.759	394.62
643.964	405.62
644.169	421.62
644.374	432.62
644.579	473.62
644.784	538.62
644.989	554.62
645.194	637.62
645.399	756.62
645.604	774.62
645.809	626.62
646.014	478.62
646.219	436.62
646.423	384.62
646.628	366.62
646.833	368.62
647.038	326.62
647.243	345.62
647.447	315.62
647.652	326.62
647.857	328.62
648.062	295.62
648.266	304.62
648.471	287.62
648.676	288.62
648.88	285.62
649.085	299.62
649.289	261.62
649.494	281.62
649.698	269.62
649.903	257.62
650.107	255.62
650.312	253.62
650.516	259.62
650.721	260.62
650.925	247.62
651.13	247.62
651.334	222.62
651.539	241.62
651.743	233.62
651.947	228.62
652.152	247.62
652.356	226.62
652.56	235.62
652.764	297.62
652.969	258.62
653.173	229.62
653.377	235.62
653.581	217.62
653.785	209.62
653.99	205.62
654.194	225.62
654.398	197.62
654.602	210.62
654.806	230.62
655.01	210.62
655.214	203.62
655.418	198.62
655.622	206.62
655.826	206.62
656.03	227.62
656.234	213.62
656.438	236.62
656.642	242.62
656.846	220.62
657.049	218.62
657.253	209.62
657.457	186.62
657.661	175.62
657.865	180.62
658.068	157.62
658.272	147.62
658.476	162.62
658.68	156.62
658.883	148.62
659.087	128.62
659.291	152.62
659.494	137.62
659.698	133.62
659.901	130.62
660.105	137.62
660.309	133.62
660.512	116.62
660.716	122.62
660.919	109.62
661.123	109.62
661.326	102.62
661.53	114.62
661.733	101.62
661.936	94.62
662.14	88.62
662.343	100.62
662.546	98.62
662.75	96.62
662.953	104.62
663.156	76.62
663.36	91.62
663.563	83.62
663.766	87.62
663.969	93.62
664.173	90.62
664.376	95.62
664.579	96.62
664.782	89.62
664.985	82.62
665.188	77.62
665.391	82.62
665.594	91.62
665.797	85.62
666	74.62
666.203	91.62
666.406	81.62
666.609	80.62
666.812	84.62
667.015	88.62
667.218	76.62
667.421	83.62
667.624	88.62
667.827	74.62
668.03	78.62
668.232	98.62
668.435	86.62
668.638	70.62
668.841	78.62
669.043	86.62
669.246	78.62
669.449	91.62
669.651	79.62
669.854	83.62
670.057	90.62
670.259	76.62
670.462	76.62
670.665	85.62
670.867	79.62
671.07	85.62
671.272	77.62
671.475	83.62
671.677	77.62
671.88	90.62
672.082	80.62
672.284	62.62
672.487	78.62
672.689	82.62
672.892	90.62
