Data from SnStandardFlinnAPT0064_LampEnergy10_LIBS07252019.E.O._I.C._HRD10591_15-20-47-493.txt Node
Date: Thu Jul 25 15:20:47 EDT 2019
User: cochatt
Spectrometer: HR+D1059
Trigger mode: 1
Integration Time (sec): 1.000000E-1
Scans to average: 1
Electric dark correction enabled: true
Nonlinearity correction enabled: false
Boxcar width: 0
XAxis mode: Wavelengths
Number of Pixels in Spectrum: 2048
>>>>>Begin Spectral Data<<<<<
223.165	-21.94
223.4	-21.94
223.635	-21.94
223.869	-20.94
224.104	-12.94
224.338	-15.94
224.573	-28.94
224.808	-11.94
225.042	-2.94
225.277	-6.94
225.511	8.06
225.746	6.06
225.98	6.06
226.215	21.06
226.449	13.06
226.683	22.06
226.918	21.06
227.152	25.06
227.387	26.06
227.621	32.06
227.856	34.06
228.09	46.06
228.324	48.06
228.559	58.06
228.793	128.06
229.027	313.06
229.262	350.06
229.496	308.06
229.73	291.06
229.964	313.06
230.199	319.06
230.433	299.06
230.667	313.06
230.901	322.06
231.136	318.06
231.37	356.06
231.604	393.06
231.838	455.06
232.072	526.06
232.306	578.06
232.541	497.06
232.775	427.06
233.009	412.06
233.243	408.06
233.477	443.06
233.711	519.06
233.945	577.06
234.179	519.06
234.413	462.06
234.647	440.06
234.881	470.06
235.115	522.06
235.349	589.06
235.583	772.06
235.817	1000.06
236.051	996.06
236.285	672.06
236.519	534.06
236.753	490.06
236.987	513.06
237.221	556.06
237.455	521.06
237.689	477.06
237.922	474.06
238.156	476.06
238.39	497.06
238.624	480.06
238.858	444.06
239.091	465.06
239.325	469.06
239.559	488.06
239.793	503.06
240.027	522.06
240.26	532.06
240.494	549.06
240.728	588.06
240.961	593.06
241.195	673.06
241.429	640.06
241.662	694.06
241.896	784.06
242.13	994.06
242.363	1239.06
242.597	1631.06
242.83	1579.06
243.064	1536.06
243.298	1820.06
243.531	1505.06
243.765	973.06
243.998	765.06
244.232	712.06
244.465	678.06
244.699	647.06
244.932	638.06
245.166	662.06
245.399	694.06
245.633	662.06
245.866	682.06
246.099	683.06
246.333	667.06
246.566	643.06
246.8	638.06
247.033	628.06
247.266	636.06
247.5	651.06
247.733	675.06
247.966	716.06
248.2	764.06
248.433	874.06
248.666	987.06
248.899	971.06
249.133	834.06
249.366	892.06
249.599	993.06
249.832	1097.06
250.066	1118.06
250.299	876.06
250.532	782.06
250.765	748.06
250.998	753.06
251.231	730.06
251.465	726.06
251.698	716.06
251.931	731.06
252.164	746.06
252.397	760.06
252.63	810.06
252.863	814.06
253.096	779.06
253.329	778.06
253.562	803.06
253.795	798.06
254.028	797.06
254.261	824.06
254.494	876.06
254.727	1019.06
254.96	1245.06
255.193	1214.06
255.426	983.06
255.659	860.06
255.892	854.06
256.124	860.06
256.357	872.06
256.59	909.06
256.823	970.06
257.056	1134.06
257.289	1369.06
257.521	1527.06
257.754	1180.06
257.987	964.06
258.22	930.06
258.452	920.06
258.685	922.06
258.918	944.06
259.151	986.06
259.383	1104.06
259.616	1200.06
259.849	1274.06
260.081	1110.06
260.314	1013.06
260.547	948.06
260.779	934.06
261.012	961.06
261.244	966.06
261.477	969.06
261.71	994.06
261.942	1018.06
262.175	1032.06
262.407	1068.06
262.64	1045.06
262.872	1097.06
263.105	1160.06
263.337	1201.06
263.57	1259.06
263.802	1289.06
264.035	1294.06
264.267	1350.06
264.499	1345.06
264.732	1439.06
264.964	1436.06
265.197	1373.06
265.429	1394.06
265.661	1472.06
265.894	1564.06
266.126	1745.06
266.358	1945.06
266.591	1870.06
266.823	1614.06
267.055	1433.06
267.287	1400.06
267.52	1350.06
267.752	1292.06
267.984	1292.06
268.216	1254.06
268.448	1251.06
268.681	1212.06
268.913	1248.06
269.145	1223.06
269.377	1172.06
269.609	1219.06
269.841	1326.06
270.073	1346.06
270.306	1580.06
270.538	2146.06
270.77	3185.06
271.002	4011.06
271.234	2784.06
271.466	1910.06
271.698	1487.06
271.93	1385.06
272.162	1308.06
272.394	1264.06
272.626	1241.06
272.858	1231.06
273.09	1224.06
273.322	1212.06
273.553	1160.06
273.785	1198.06
274.017	1233.06
274.249	1199.06
274.481	1197.06
274.713	1197.06
274.945	1205.06
275.176	1204.06
275.408	1220.06
275.64	1266.06
275.872	1202.06
276.104	1251.06
276.335	1271.06
276.567	1286.06
276.799	1244.06
277.031	1312.06
277.262	1298.06
277.494	1432.06
277.726	1584.06
277.957	1834.06
278.189	2096.06
278.421	1960.06
278.652	1730.06
278.884	1669.06
279.115	1469.06
279.347	1407.06
279.579	1388.06
279.81	1392.06
280.042	1398.06
280.273	1388.06
280.505	1436.06
280.736	1461.06
280.968	1567.06
281.199	1752.06
281.431	2088.06
281.662	2147.06
281.894	1827.06
282.125	1605.06
282.356	1644.06
282.588	1686.06
282.819	1757.06
283.051	1803.06
283.282	1957.06
283.513	2471.06
283.745	3592.06
283.976	5671.06
284.207	8154.06
284.439	7318.06
284.67	4555.06
284.901	3780.06
285.132	3829.06
285.364	3645.06
285.595	2706.06
285.826	2452.06
286.057	2887.06
286.288	3896.06
286.52	5248.06
286.751	4923.06
286.982	3101.06
287.213	2284.06
287.444	1972.06
287.675	1841.06
287.906	1827.06
288.138	1738.06
288.369	1678.06
288.6	1729.06
288.831	1648.06
289.062	1666.06
289.293	1652.06
289.524	1666.06
289.755	1696.06
289.986	1707.06
290.217	1657.06
290.448	1693.06
290.679	1721.06
290.91	1780.06
291.141	1897.06
291.371	1998.06
291.602	2132.06
291.833	1913.06
292.064	1742.06
292.295	1664.06
292.526	1640.06
292.757	1624.06
292.987	1594.06
293.218	1557.06
293.449	1577.06
293.68	1575.06
293.91	1554.06
294.141	1536.06
294.372	1555.06
294.603	1538.06
294.833	1584.06
295.064	1574.06
295.295	1575.06
295.525	1580.06
295.756	1516.06
295.987	1539.06
296.217	1534.06
296.448	1565.06
296.679	1589.06
296.909	1590.06
297.14	1592.06
297.37	1587.06
297.601	1610.06
297.831	1613.06
298.062	1595.06
298.292	1655.06
298.523	1643.06
298.753	1705.06
298.984	1701.06
299.214	1720.06
299.445	1729.06
299.675	1770.06
299.905	1820.06
300.136	1912.06
300.366	2118.06
300.597	2792.06
300.827	3870.06
301.057	5294.06
301.288	5280.06
301.518	3415.06
301.748	2586.06
301.979	2366.06
302.209	2253.06
302.439	2306.06
302.669	2444.06
302.9	2955.06
303.13	4201.06
303.36	6227.06
303.59	8283.06
303.82	7243.06
304.051	4290.06
304.281	3049.06
304.511	2543.06
304.741	2337.06
304.971	2218.06
305.201	2126.06
305.431	1949.06
305.661	1943.06
305.891	1877.06
306.121	1852.06
306.352	1849.06
306.582	1804.06
306.812	1814.06
307.042	1838.06
307.272	1831.06
307.502	1769.06
307.731	1829.06
307.961	1771.06
308.191	1796.06
308.421	1791.06
308.651	1795.06
308.881	1785.06
309.111	1802.06
309.341	1779.06
309.571	1835.06
309.8	1870.06
310.03	1852.06
310.26	1841.06
310.49	1851.06
310.72	1876.06
310.949	1882.06
311.179	1864.06
311.409	1895.06
311.639	1921.06
311.868	1910.06
312.098	1923.06
312.328	1914.06
312.557	1983.06
312.787	1949.06
313.017	1960.06
313.246	1976.06
313.476	1965.06
313.706	2082.06
313.935	2178.06
314.165	2354.06
314.394	2444.06
314.624	2362.06
314.853	2155.06
315.083	2130.06
315.312	2160.06
315.542	2132.06
315.771	2208.06
316.001	2232.06
316.23	2305.06
316.46	2396.06
316.689	2674.06
316.919	3198.06
317.148	4608.06
317.377	7201.06
317.607	10467.06
317.836	10861.06
318.065	6626.06
318.295	4285.06
318.524	3397.06
318.753	3004.06
318.983	2742.06
319.212	2597.06
319.441	2444.06
319.67	2397.06
319.9	2381.06
320.129	2326.06
320.358	2343.06
320.587	2298.06
320.816	2322.06
321.046	2355.06
321.275	2308.06
321.504	2362.06
321.733	2434.06
321.962	2453.06
322.191	2546.06
322.42	2507.06
322.649	2454.06
322.878	2484.06
323.108	2513.06
323.337	2520.06
323.566	2499.06
323.795	2570.06
324.024	2628.06
324.253	2701.06
324.482	2822.06
324.71	2967.06
324.939	3204.06
325.168	3284.06
325.397	3426.06
325.626	4028.06
325.855	5612.06
326.084	8650.06
326.313	12748.06
326.542	13448.06
326.77	9160.06
326.999	5975.06
327.228	4986.06
327.457	4754.06
327.686	4756.06
327.914	5101.06
328.143	5998.06
328.372	7158.06
328.6	7795.06
328.829	7010.06
329.058	5816.06
329.287	5086.06
329.515	4602.06
329.744	4265.06
329.972	4050.06
330.201	3805.06
330.43	3694.06
330.658	3632.06
330.887	3530.06
331.115	3465.06
331.344	3432.06
331.572	3393.06
331.801	3452.06
332.03	3480.06
332.258	3523.06
332.486	3716.06
332.715	4276.06
332.943	5262.06
333.172	6681.06
333.4	6728.06
333.629	4973.06
333.857	4526.06
334.085	4505.06
334.314	4764.06
334.542	5131.06
334.771	6030.06
334.999	7432.06
335.227	9346.06
335.455	10501.06
335.684	9433.06
335.912	7701.06
336.14	6374.06
336.369	5723.06
336.597	5132.06
336.825	4769.06
337.053	4450.06
337.281	4235.06
337.51	3988.06
337.738	3870.06
337.966	3709.06
338.194	3572.06
338.422	3441.06
338.65	3354.06
338.878	3274.06
339.106	3213.06
339.334	3191.06
339.562	3094.06
339.79	2993.06
340.018	3038.06
340.246	3024.06
340.474	2977.06
340.702	2972.06
340.93	3019.06
341.158	2971.06
341.386	3005.06
341.614	2927.06
341.842	2868.06
342.07	2828.06
342.298	2819.06
342.526	2729.06
342.754	2752.06
342.981	2685.06
343.209	2698.06
343.437	2715.06
343.665	2775.06
343.893	2818.06
344.12	2774.06
344.348	2780.06
344.576	2682.06
344.804	2673.06
345.031	2634.06
345.259	2590.06
345.487	2523.06
345.714	2578.06
345.942	2544.06
346.17	2572.06
346.397	2510.06
346.625	2526.06
346.853	2501.06
347.08	2504.06
347.308	2492.06
347.535	2522.06
347.763	2545.06
347.99	2483.06
348.218	2434.06
348.445	2430.06
348.673	2409.06
348.9	2446.06
349.128	2448.06
349.355	2407.06
349.583	2434.06
349.81	2454.06
350.037	2387.06
350.265	2387.06
350.492	2406.06
350.72	2387.06
350.947	2381.06
351.174	2379.06
351.402	2393.06
351.629	2369.06
351.856	2390.06
352.083	2386.06
352.311	2382.06
352.538	2336.06
352.765	2386.06
352.992	2324.06
353.22	2361.06
353.447	2313.06
353.674	2352.06
353.901	2359.06
354.128	2418.06
354.355	2373.06
354.583	2434.06
354.81	2420.06
355.037	2404.06
355.264	2391.06
355.491	2413.06
355.718	2403.06
355.945	2413.06
356.172	2464.06
356.399	2516.06
356.626	2459.06
356.853	2473.06
357.08	2498.06
357.307	2521.06
357.534	2507.06
357.761	2553.06
357.988	2546.06
358.215	2550.06
358.441	2560.06
358.668	2507.06
358.895	2562.06
359.122	2473.06
359.349	2545.06
359.576	2492.06
359.802	2535.06
360.029	2494.06
360.256	2520.06
360.483	2525.06
360.709	2502.06
360.936	2559.06
361.163	2520.06
361.39	2538.06
361.616	2544.06
361.843	2519.06
362.07	2564.06
362.296	2520.06
362.523	2501.06
362.749	2526.06
362.976	2509.06
363.203	2530.06
363.429	2488.06
363.656	2472.06
363.882	2517.06
364.109	2493.06
364.335	2505.06
364.562	2553.06
364.788	2562.06
365.015	2559.06
365.241	2665.06
365.468	2819.06
365.694	2916.06
365.92	2760.06
366.147	2589.06
366.373	2586.06
366.599	2590.06
366.826	2534.06
367.052	2526.06
367.278	2573.06
367.505	2579.06
367.731	2569.06
367.957	2542.06
368.184	2603.06
368.41	2612.06
368.636	2688.06
368.862	2699.06
369.089	2634.06
369.315	2617.06
369.541	2597.06
369.767	2616.06
369.993	2629.06
370.219	2584.06
370.445	2646.06
370.672	2691.06
370.898	2650.06
371.124	2645.06
371.35	2682.06
371.576	2674.06
371.802	2687.06
372.028	2683.06
372.254	2748.06
372.48	2796.06
372.706	2725.06
372.932	2786.06
373.158	2763.06
373.384	2748.06
373.61	2715.06
373.835	2818.06
374.061	2772.06
374.287	2800.06
374.513	2861.06
374.739	2893.06
374.965	2848.06
375.191	2872.06
375.416	2847.06
375.642	2835.06
375.868	2785.06
376.094	2756.06
376.319	2750.06
376.545	2780.06
376.771	2779.06
376.997	2744.06
377.222	2695.06
377.448	2724.06
377.674	2729.06
377.899	2645.06
378.125	2745.06
378.35	2665.06
378.576	2724.06
378.802	2743.06
379.027	2842.06
379.253	2878.06
379.478	3026.06
379.704	3546.06
379.929	5119.06
380.155	7950.06
380.38	8714.06
380.606	5305.06
380.831	3752.06
381.057	3179.06
381.282	2956.06
381.507	2848.06
381.733	2757.06
381.958	2728.06
382.184	2738.06
382.409	2686.06
382.634	2648.06
382.86	2685.06
383.085	2681.06
383.31	2701.06
383.535	2672.06
383.761	2679.06
383.986	2722.06
384.211	2722.06
384.436	2700.06
384.662	2721.06
384.887	2737.06
385.112	2710.06
385.337	2761.06
385.562	2732.06
385.787	2756.06
386.013	2766.06
386.238	2767.06
386.463	2720.06
386.688	2795.06
386.913	2754.06
387.138	2789.06
387.363	2722.06
387.588	2692.06
387.813	2691.06
388.038	2757.06
388.263	2753.06
388.488	2742.06
388.713	2713.06
388.938	2720.06
389.163	2712.06
389.387	2790.06
389.612	2724.06
389.837	2740.06
390.062	2771.06
390.287	2776.06
390.512	2800.06
390.736	2768.06
390.961	2837.06
391.186	2794.06
391.411	2873.06
391.636	2888.06
391.86	2882.06
392.085	2884.06
392.31	2881.06
392.534	2813.06
392.759	2829.06
392.984	2849.06
393.208	2797.06
393.433	2841.06
393.658	2822.06
393.882	2793.06
394.107	2763.06
394.331	2718.06
394.556	2774.06
394.78	2805.06
395.005	2805.06
395.229	2848.06
395.454	2830.06
395.678	2865.06
395.903	2864.06
396.127	2862.06
396.352	2881.06
396.576	2830.06
396.801	2834.06
397.025	2855.06
397.249	2895.06
397.474	2872.06
397.698	2876.06
397.922	2907.06
398.147	2898.06
398.371	2933.06
398.595	3018.06
398.82	3024.06
399.044	3221.06
399.268	3332.06
399.492	3498.06
399.717	3608.06
399.941	3616.06
400.165	3457.06
400.389	3383.06
400.613	3208.06
400.837	3124.06
401.062	3078.06
401.286	3047.06
401.51	3079.06
401.734	2971.06
401.958	3006.06
402.182	3019.06
402.406	3097.06
402.63	3058.06
402.854	3066.06
403.078	3106.06
403.302	3100.06
403.526	3156.06
403.75	3131.06
403.974	3155.06
404.198	3125.06
404.422	3154.06
404.645	3148.06
404.869	3094.06
405.093	3124.06
405.317	3169.06
405.541	3210.06
405.765	3220.06
405.988	3219.06
406.212	3210.06
406.436	3143.06
406.66	3269.06
406.883	3226.06
407.107	3328.06
407.331	3408.06
407.555	3489.06
407.778	3370.06
408.002	3378.06
408.226	3386.06
408.449	3365.06
408.673	3284.06
408.896	3222.06
409.12	3156.06
409.344	3202.06
409.567	3121.06
409.791	3115.06
410.014	3112.06
410.238	3089.06
410.461	3157.06
410.685	3109.06
410.908	3114.06
411.132	3117.06
411.355	3028.06
411.578	3020.06
411.802	3040.06
412.025	3016.06
412.249	3013.06
412.472	3038.06
412.695	2965.06
412.919	2946.06
413.142	2981.06
413.365	2973.06
413.589	3012.06
413.812	2992.06
414.035	2982.06
414.258	2973.06
414.482	2970.06
414.705	2970.06
414.928	2969.06
415.151	2951.06
415.374	2924.06
415.597	2966.06
415.821	2808.06
416.044	2813.06
416.267	2885.06
416.49	2801.06
416.713	2866.06
416.936	2845.06
417.159	2828.06
417.382	2797.06
417.605	2804.06
417.828	2828.06
418.051	2859.06
418.274	2880.06
418.497	2868.06
418.72	2940.06
418.943	2844.06
419.166	3070.06
419.389	3232.06
419.611	3142.06
419.834	3016.06
420.057	2935.06
420.28	2932.06
420.503	2869.06
420.726	2832.06
420.948	2874.06
421.171	2829.06
421.394	2888.06
421.617	2826.06
421.839	2890.06
422.062	2864.06
422.285	2838.06
422.507	2952.06
422.73	2907.06
422.953	2952.06
423.175	2977.06
423.398	2950.06
423.621	2881.06
423.843	2917.06
424.066	2890.06
424.288	2829.06
424.511	2829.06
424.733	2890.06
424.956	2860.06
425.178	2789.06
425.401	2821.06
425.623	2794.06
425.846	2727.06
426.068	2747.06
426.291	2797.06
426.513	2723.06
426.735	2697.06
426.958	2731.06
427.18	2668.06
427.402	2649.06
427.625	2697.06
427.847	2633.06
428.069	2644.06
428.292	2706.06
428.514	2635.06
428.736	2653.06
428.958	2656.06
429.181	2592.06
429.403	2580.06
429.625	2588.06
429.847	2651.06
430.069	2702.06
430.292	2742.06
430.514	2829.06
430.736	2848.06
430.958	2710.06
431.18	2603.06
431.402	2637.06
431.624	2634.06
431.846	2621.06
432.068	2563.06
432.29	2622.06
432.512	2578.06
432.734	2638.06
432.956	2629.06
433.178	2614.06
433.4	2580.06
433.622	2680.06
433.844	2626.06
434.066	2637.06
434.287	2633.06
434.509	2677.06
434.731	2643.06
434.953	2666.06
435.175	2714.06
435.397	2761.06
435.618	2659.06
435.84	2645.06
436.062	2549.06
436.284	2612.06
436.505	2589.06
436.727	2579.06
436.949	2624.06
437.17	2565.06
437.392	2586.06
437.614	2542.06
437.835	2492.06
438.057	2517.06
438.278	2485.06
438.5	2566.06
438.721	2567.06
438.943	2666.06
439.165	2688.06
439.386	2713.06
439.608	2696.06
439.829	2683.06
440.05	2812.06
440.272	2858.06
440.493	2733.06
440.715	2702.06
440.936	2745.06
441.158	2731.06
441.379	2750.06
441.6	2831.06
441.822	2938.06
442.043	3108.06
442.264	3166.06
442.486	2958.06
442.707	2897.06
442.928	2786.06
443.149	2765.06
443.371	2797.06
443.592	2845.06
443.813	2855.06
444.034	2810.06
444.255	2853.06
444.476	2891.06
444.698	3032.06
444.919	3012.06
445.14	3044.06
445.361	2919.06
445.582	2869.06
445.803	2825.06
446.024	2776.06
446.245	2734.06
446.466	2748.06
446.687	2758.06
446.908	2677.06
447.129	2647.06
447.35	2618.06
447.571	2670.06
447.792	2555.06
448.013	2580.06
448.234	2540.06
448.455	2539.06
448.675	2643.06
448.896	2743.06
449.117	2730.06
449.338	2986.06
449.559	3087.06
449.779	2814.06
450	2628.06
450.221	2575.06
450.442	2569.06
450.662	2529.06
450.883	2530.06
451.104	2528.06
451.324	2495.06
451.545	2514.06
451.766	2533.06
451.986	2568.06
452.207	2808.06
452.428	3648.06
452.648	5468.06
452.869	4644.06
453.089	3144.06
453.31	2948.06
453.53	2946.06
453.751	2996.06
453.971	3175.06
454.192	3120.06
454.412	2715.06
454.633	2523.06
454.853	2536.06
455.073	2481.06
455.294	2435.06
455.514	2413.06
455.734	2452.06
455.955	2390.06
456.175	2356.06
456.395	2420.06
456.616	2428.06
456.836	2458.06
457.056	2482.06
457.276	2453.06
457.497	2622.06
457.717	2644.06
457.937	2584.06
458.157	2560.06
458.377	2506.06
458.598	2612.06
458.818	2619.06
459.038	2562.06
459.258	2568.06
459.478	2593.06
459.698	2655.06
459.918	2688.06
460.138	2786.06
460.358	2824.06
460.578	2781.06
460.798	2807.06
461.018	2841.06
461.238	2839.06
461.458	2875.06
461.678	2858.06
461.898	2992.06
462.118	2956.06
462.338	3020.06
462.558	3011.06
462.777	3155.06
462.997	3244.06
463.217	3374.06
463.437	3476.06
463.657	3552.06
463.876	3636.06
464.096	3356.06
464.316	3208.06
464.536	3203.06
464.755	3057.06
464.975	2987.06
465.195	2885.06
465.414	2828.06
465.634	2696.06
465.854	2732.06
466.073	2683.06
466.293	2621.06
466.512	2626.06
466.732	2698.06
466.951	2820.06
467.171	2908.06
467.391	2935.06
467.61	2670.06
467.829	2615.06
468.049	2583.06
468.268	2565.06
468.488	2559.06
468.707	2532.06
468.927	2568.06
469.146	2514.06
469.365	2650.06
469.585	2611.06
469.804	2637.06
470.023	2685.06
470.243	2748.06
470.462	2837.06
470.681	2936.06
470.901	3218.06
471.12	3835.06
471.339	3753.06
471.558	3156.06
471.777	2918.06
471.997	2728.06
472.216	2676.06
472.435	2605.06
472.654	2604.06
472.873	2594.06
473.092	2616.06
473.311	2579.06
473.53	2592.06
473.749	2711.06
473.968	2810.06
474.187	2625.06
474.406	2587.06
474.625	2640.06
474.844	2580.06
475.063	2606.06
475.282	2605.06
475.501	2615.06
475.72	2601.06
475.939	2653.06
476.158	2693.06
476.377	2772.06
476.596	2690.06
476.814	2765.06
477.033	2715.06
477.252	2768.06
477.471	2756.06
477.69	2862.06
477.908	2902.06
478.127	2909.06
478.346	2949.06
478.564	2978.06
478.783	3027.06
479.002	3049.06
479.22	3072.06
479.439	3136.06
479.658	3140.06
479.876	3065.06
480.095	3087.06
480.313	3220.06
480.532	3209.06
480.751	3184.06
480.969	3136.06
481.188	3137.06
481.406	3062.06
481.624	3123.06
481.843	3152.06
482.061	3189.06
482.28	3129.06
482.498	3112.06
482.717	3084.06
482.935	3197.06
483.153	3194.06
483.372	3242.06
483.59	3317.06
483.808	3294.06
484.027	3392.06
484.245	3620.06
484.463	4034.06
484.681	4476.06
484.9	4127.06
485.118	3738.06
485.336	3680.06
485.554	3738.06
485.772	4029.06
485.99	4561.06
486.209	4875.06
486.427	4131.06
486.645	3627.06
486.863	3494.06
487.081	3428.06
487.299	3385.06
487.517	3343.06
487.735	3344.06
487.953	3371.06
488.171	3308.06
488.389	3214.06
488.607	3269.06
488.825	3242.06
489.043	3228.06
489.261	3196.06
489.479	3191.06
489.696	3243.06
489.914	3181.06
490.132	3236.06
490.35	3291.06
490.568	3243.06
490.786	3280.06
491.003	3335.06
491.221	3305.06
491.439	3399.06
491.657	3342.06
491.874	3368.06
492.092	3346.06
492.31	3387.06
492.527	3428.06
492.745	3377.06
492.963	3422.06
493.18	3438.06
493.398	3397.06
493.615	3386.06
493.833	3412.06
494.05	3380.06
494.268	3382.06
494.485	3383.06
494.703	3384.06
494.92	3398.06
495.138	3390.06
495.355	3380.06
495.573	3402.06
495.79	3436.06
496.008	3385.06
496.225	3485.06
496.442	3535.06
496.66	3636.06
496.877	3900.06
497.094	3828.06
497.312	3685.06
497.529	3704.06
497.746	3716.06
497.963	3738.06
498.181	3819.06
498.398	3945.06
498.615	4054.06
498.832	4246.06
499.049	4433.06
499.267	4813.06
499.484	5024.06
499.701	5029.06
499.918	5157.06
500.135	5426.06
500.352	5676.06
500.569	5768.06
500.786	5592.06
501.003	5563.06
501.22	5249.06
501.437	4974.06
501.654	4715.06
501.871	4509.06
502.088	4316.06
502.305	4206.06
502.522	4078.06
502.739	3985.06
502.956	3820.06
503.172	3767.06
503.389	3725.06
503.606	3633.06
503.823	3524.06
504.04	3537.06
504.256	3491.06
504.473	3553.06
504.69	3573.06
504.907	3480.06
505.123	3410.06
505.34	3364.06
505.557	3241.06
505.773	3266.06
505.99	3220.06
506.207	3162.06
506.423	3129.06
506.64	3089.06
506.856	3084.06
507.073	3036.06
507.289	3075.06
507.506	2996.06
507.722	3025.06
507.939	3040.06
508.155	2941.06
508.372	2928.06
508.588	2916.06
508.805	2891.06
509.021	2933.06
509.238	2973.06
509.454	3144.06
509.67	3372.06
509.887	3136.06
510.103	2992.06
510.319	2955.06
510.536	2885.06
510.752	2926.06
510.968	2913.06
511.184	2819.06
511.401	2856.06
511.617	2859.06
511.833	2826.06
512.049	2846.06
512.265	2817.06
512.481	2817.06
512.698	2769.06
512.914	2766.06
513.13	2772.06
513.346	2818.06
513.562	2792.06
513.778	2842.06
513.994	2870.06
514.21	2973.06
514.426	3129.06
514.642	3267.06
514.858	2956.06
515.074	2872.06
515.29	2820.06
515.506	2844.06
515.721	2886.06
515.937	2882.06
516.153	2901.06
516.369	2934.06
516.585	2976.06
516.801	3048.06
517.016	3042.06
517.232	3114.06
517.448	3156.06
517.664	3212.06
517.879	3188.06
518.095	3199.06
518.311	3179.06
518.527	3144.06
518.742	3125.06
518.958	3201.06
519.173	3266.06
519.389	3070.06
519.605	2985.06
519.82	2908.06
520.036	2903.06
520.251	2846.06
520.467	2761.06
520.682	2781.06
520.898	2773.06
521.113	2751.06
521.329	2783.06
521.544	2777.06
521.76	2768.06
521.975	2750.06
522.19	2738.06
522.406	2749.06
522.621	2698.06
522.836	2737.06
523.052	2744.06
523.267	2685.06
523.482	2690.06
523.698	2718.06
523.913	2677.06
524.128	2661.06
524.343	2637.06
524.559	2716.06
524.774	2656.06
524.989	2663.06
525.204	2649.06
525.419	2664.06
525.634	2644.06
525.849	2708.06
526.064	2675.06
526.28	2692.06
526.495	2702.06
526.71	2706.06
526.925	2701.06
527.14	2707.06
527.355	2732.06
527.57	2732.06
527.785	2756.06
527.999	2773.06
528.214	2770.06
528.429	2773.06
528.644	2749.06
528.859	2789.06
529.074	2827.06
529.289	2910.06
529.503	2891.06
529.718	2918.06
529.933	2850.06
530.148	2894.06
530.363	2899.06
530.577	2870.06
530.792	2897.06
531.007	2887.06
531.221	2911.06
531.436	2930.06
531.651	2990.06
531.865	3014.06
532.08	3115.06
532.295	3148.06
532.509	3354.06
532.724	3346.06
532.938	3422.06
533.153	3526.06
533.367	3778.06
533.582	4008.06
533.796	3916.06
534.011	3751.06
534.225	3659.06
534.44	3467.06
534.654	3412.06
534.868	3350.06
535.083	3245.06
535.297	3214.06
535.511	3157.06
535.726	3081.06
535.94	3060.06
536.154	2986.06
536.369	2931.06
536.583	2893.06
536.797	2886.06
537.011	2805.06
537.225	2862.06
537.44	2793.06
537.654	2780.06
537.868	2709.06
538.082	2696.06
538.296	2707.06
538.51	2710.06
538.724	2722.06
538.938	2692.06
539.153	2646.06
539.367	2656.06
539.581	2651.06
539.795	2572.06
540.009	2623.06
540.222	2576.06
540.436	2590.06
540.65	2584.06
540.864	2607.06
541.078	2699.06
541.292	2885.06
541.506	3362.06
541.72	3478.06
541.934	3000.06
542.147	2829.06
542.361	2709.06
542.575	2599.06
542.789	2618.06
543.002	2586.06
543.216	2492.06
543.43	2526.06
543.644	2462.06
543.857	2484.06
544.071	2508.06
544.285	2466.06
544.498	2467.06
544.712	2550.06
544.925	2514.06
545.139	2511.06
545.352	2467.06
545.566	2501.06
545.779	2530.06
545.993	2509.06
546.206	2558.06
546.42	2497.06
546.633	2493.06
546.847	2575.06
547.06	2506.06
547.274	2529.06
547.487	2600.06
547.7	2521.06
547.914	2528.06
548.127	2490.06
548.34	2527.06
548.554	2506.06
548.767	2529.06
548.98	2561.06
549.193	2519.06
549.407	2473.06
549.62	2570.06
549.833	2529.06
550.046	2520.06
550.259	2540.06
550.473	2509.06
550.686	2560.06
550.899	2586.06
551.112	2538.06
551.325	2556.06
551.538	2532.06
551.751	2490.06
551.964	2525.06
552.177	2557.06
552.39	2604.06
552.603	2690.06
552.816	2707.06
553.029	2698.06
553.242	2754.06
553.455	2820.06
553.667	2755.06
553.88	2840.06
554.093	2829.06
554.306	2818.06
554.519	2890.06
554.732	2936.06
554.944	2949.06
555.157	2998.06
555.37	3141.06
555.583	3242.06
555.795	3450.06
556.008	3722.06
556.221	4197.06
556.433	4457.06
556.646	4504.06
556.859	4287.06
557.071	4046.06
557.284	3960.06
557.496	3800.06
557.709	3773.06
557.921	3702.06
558.134	3692.06
558.346	3746.06
558.559	3889.06
558.771	4142.06
558.984	4516.06
559.196	4986.06
559.409	4661.06
559.621	4288.06
559.833	3995.06
560.046	3690.06
560.258	3553.06
560.47	3373.06
560.683	3210.06
560.895	3126.06
561.107	3006.06
561.32	2869.06
561.532	2797.06
561.744	2776.06
561.956	2737.06
562.168	2714.06
562.381	2634.06
562.593	2602.06
562.805	2698.06
563.017	2675.06
563.229	2710.06
563.441	3185.06
563.653	2698.06
563.865	2469.06
564.077	2425.06
564.289	2364.06
564.501	2348.06
564.713	2353.06
564.925	2345.06
565.137	2348.06
565.349	2349.06
565.561	2353.06
565.773	2383.06
565.985	2407.06
566.197	2408.06
566.408	2473.06
566.62	2516.06
566.832	2599.06
567.044	2607.06
567.255	2596.06
567.467	2625.06
567.679	2678.06
567.891	2808.06
568.102	3147.06
568.314	3576.06
568.526	3114.06
568.737	2755.06
568.949	2468.06
569.161	2334.06
569.372	2202.06
569.584	2185.06
569.795	2139.06
570.007	2143.06
570.218	2189.06
570.43	2216.06
570.641	2069.06
570.853	1992.06
571.064	1966.06
571.276	1953.06
571.487	1904.06
571.698	1886.06
571.91	1824.06
572.121	1859.06
572.333	1861.06
572.544	1887.06
572.755	1986.06
572.966	2310.06
573.178	2087.06
573.389	1932.06
573.6	1815.06
573.811	1753.06
574.023	1722.06
574.234	1719.06
574.445	1727.06
574.656	1708.06
574.867	1691.06
575.078	1702.06
575.289	1702.06
575.501	1692.06
575.712	1671.06
575.923	1699.06
576.134	1702.06
576.345	1700.06
576.556	1688.06
576.767	1686.06
576.978	1688.06
577.188	1704.06
577.399	1764.06
577.61	1728.06
577.821	1747.06
578.032	1753.06
578.243	1761.06
578.454	1833.06
578.665	1853.06
578.875	1893.06
579.086	1982.06
579.297	2084.06
579.508	2222.06
579.718	2437.06
579.929	2768.06
580.14	3299.06
580.35	3350.06
580.561	3075.06
580.772	2705.06
580.982	2528.06
581.193	2326.06
581.403	2212.06
581.614	2087.06
581.825	2008.06
582.035	1964.06
582.246	1830.06
582.456	1778.06
582.667	1772.06
582.877	1795.06
583.087	1711.06
583.298	1643.06
583.508	1640.06
583.719	1591.06
583.929	1541.06
584.139	1484.06
584.35	1461.06
584.56	1432.06
584.77	1444.06
584.981	1431.06
585.191	1434.06
585.401	1405.06
585.611	1355.06
585.821	1361.06
586.032	1374.06
586.242	1341.06
586.452	1284.06
586.662	1303.06
586.872	1286.06
587.082	1243.06
587.292	1284.06
587.502	1252.06
587.713	1247.06
587.923	1252.06
588.133	1226.06
588.343	1221.06
588.553	1216.06
588.762	1203.06
588.972	1217.06
589.182	1224.06
589.392	1192.06
589.602	1192.06
589.812	1209.06
590.022	1187.06
590.232	1192.06
590.441	1195.06
590.651	1156.06
590.861	1148.06
591.071	1176.06
591.281	1142.06
591.49	1175.06
591.7	1156.06
591.91	1165.06
592.119	1184.06
592.329	1190.06
592.539	1185.06
592.748	1216.06
592.958	1200.06
593.167	1214.06
593.377	1224.06
593.587	1245.06
593.796	1214.06
594.006	1246.06
594.215	1227.06
594.424	1197.06
594.634	1197.06
594.843	1160.06
595.053	1156.06
595.262	1142.06
595.472	1130.06
595.681	1098.06
595.89	1080.06
596.1	1078.06
596.309	1043.06
596.518	1036.06
596.727	1048.06
596.937	1049.06
597.146	1056.06
597.355	1019.06
597.564	1026.06
597.774	1007.06
597.983	968.06
598.192	987.06
598.401	946.06
598.61	952.06
598.819	958.06
599.028	963.06
599.237	934.06
599.446	978.06
599.655	909.06
599.864	946.06
600.073	928.06
600.282	952.06
600.491	914.06
600.7	932.06
600.909	923.06
601.118	919.06
601.327	926.06
601.536	930.06
601.745	947.06
601.953	1072.06
602.162	1202.06
602.371	1065.06
602.58	1001.06
602.789	974.06
602.997	944.06
603.206	941.06
603.415	928.06
603.623	928.06
603.832	931.06
604.041	921.06
604.249	895.06
604.458	899.06
604.666	910.06
604.875	892.06
605.084	891.06
605.292	885.06
605.501	875.06
605.709	901.06
605.918	904.06
606.126	902.06
606.334	891.06
606.543	924.06
606.751	1008.06
606.96	1120.06
607.168	1252.06
607.376	1057.06
607.585	974.06
607.793	941.06
608.001	914.06
608.21	895.06
608.418	884.06
608.626	876.06
608.834	856.06
609.043	889.06
609.251	861.06
609.459	852.06
609.667	851.06
609.875	840.06
610.083	854.06
610.291	818.06
610.499	806.06
610.707	828.06
610.916	813.06
611.124	820.06
611.332	807.06
611.54	797.06
611.748	826.06
611.955	837.06
612.163	793.06
612.371	820.06
612.579	785.06
612.787	777.06
612.995	794.06
613.203	787.06
613.411	779.06
613.618	813.06
613.826	783.06
614.034	804.06
614.242	787.06
614.449	762.06
614.657	801.06
614.865	787.06
615.072	832.06
615.28	816.06
615.488	794.06
615.695	800.06
615.903	781.06
616.111	785.06
616.318	793.06
616.526	771.06
616.733	782.06
616.941	773.06
617.148	804.06
617.356	782.06
617.563	774.06
617.771	810.06
617.978	757.06
618.185	744.06
618.393	740.06
618.6	726.06
618.807	772.06
619.015	747.06
619.222	760.06
619.429	720.06
619.637	729.06
619.844	732.06
620.051	751.06
620.258	733.06
620.466	690.06
620.673	696.06
620.88	674.06
621.087	659.06
621.294	697.06
621.501	679.06
621.708	693.06
621.915	688.06
622.122	711.06
622.329	702.06
622.536	687.06
622.743	705.06
622.95	658.06
623.157	694.06
623.364	699.06
623.571	680.06
623.778	678.06
623.985	690.06
624.192	671.06
624.399	663.06
624.606	667.06
624.812	653.06
625.019	662.06
625.226	658.06
625.433	652.06
625.639	654.06
625.846	638.06
626.053	641.06
626.259	610.06
626.466	640.06
626.673	642.06
626.879	608.06
627.086	624.06
627.293	624.06
627.499	637.06
627.706	630.06
627.912	655.06
628.119	651.06
628.325	636.06
628.532	624.06
628.738	654.06
628.945	601.06
629.151	604.06
629.357	572.06
629.564	624.06
629.77	609.06
629.976	597.06
630.183	608.06
630.389	598.06
630.595	614.06
630.802	591.06
631.008	589.06
631.214	598.06
631.42	581.06
631.627	589.06
631.833	586.06
632.039	581.06
632.245	586.06
632.451	586.06
632.657	580.06
632.863	576.06
633.069	600.06
633.275	555.06
633.481	573.06
633.688	580.06
633.893	580.06
634.099	577.06
634.305	564.06
634.511	584.06
634.717	602.06
634.923	601.06
635.129	701.06
635.335	745.06
635.541	673.06
635.747	652.06
635.952	604.06
636.158	603.06
636.364	595.06
636.57	574.06
636.775	585.06
636.981	584.06
637.187	571.06
637.392	571.06
637.598	595.06
637.804	584.06
638.009	573.06
638.215	584.06
638.421	574.06
638.626	567.06
638.832	578.06
639.037	583.06
639.243	560.06
639.448	619.06
639.654	604.06
639.859	586.06
640.065	615.06
640.27	584.06
640.475	589.06
640.681	621.06
640.886	634.06
641.091	602.06
641.297	636.06
641.502	609.06
641.707	663.06
641.913	642.06
642.118	663.06
642.323	674.06
642.528	692.06
642.733	694.06
642.939	720.06
643.144	724.06
643.349	769.06
643.554	772.06
643.759	818.06
643.964	836.06
644.169	889.06
644.374	946.06
644.579	1008.06
644.784	1131.06
644.989	1310.06
645.194	1556.06
645.399	1898.06
645.604	2093.06
645.809	1543.06
646.014	1161.06
646.219	953.06
646.423	834.06
646.628	748.06
646.833	706.06
647.038	678.06
647.243	640.06
647.447	636.06
647.652	611.06
647.857	598.06
648.062	575.06
648.266	561.06
648.471	552.06
648.676	556.06
648.88	521.06
649.085	538.06
649.289	516.06
649.494	507.06
649.698	512.06
649.903	518.06
650.107	471.06
650.312	504.06
650.516	477.06
650.721	447.06
650.925	462.06
651.13	459.06
651.334	441.06
651.539	432.06
651.743	441.06
651.947	436.06
652.152	420.06
652.356	443.06
652.56	457.06
652.764	514.06
652.969	457.06
653.173	407.06
653.377	410.06
653.581	391.06
653.785	378.06
653.99	370.06
654.194	377.06
654.398	364.06
654.602	358.06
654.806	358.06
655.01	332.06
655.214	355.06
655.418	350.06
655.622	354.06
655.826	348.06
656.03	358.06
656.234	363.06
656.438	377.06
656.642	384.06
656.846	384.06
657.049	333.06
657.253	340.06
657.457	321.06
657.661	291.06
657.865	280.06
658.068	267.06
658.272	256.06
658.476	238.06
658.68	216.06
658.883	229.06
659.087	215.06
659.291	203.06
659.494	174.06
659.698	181.06
659.901	174.06
660.105	180.06
660.309	157.06
660.512	159.06
660.716	158.06
660.919	140.06
661.123	150.06
661.326	144.06
661.53	140.06
661.733	124.06
661.936	125.06
662.14	121.06
662.343	144.06
662.546	112.06
662.75	114.06
662.953	118.06
663.156	118.06
663.36	98.06
663.563	104.06
663.766	118.06
663.969	102.06
664.173	108.06
664.376	90.06
664.579	84.06
664.782	94.06
664.985	97.06
665.188	88.06
665.391	86.06
665.594	102.06
665.797	82.06
666	78.06
666.203	96.06
666.406	80.06
666.609	79.06
666.812	89.06
667.015	99.06
667.218	94.06
667.421	83.06
667.624	82.06
667.827	91.06
668.03	86.06
668.232	89.06
668.435	84.06
668.638	75.06
668.841	90.06
669.043	86.06
669.246	75.06
669.449	89.06
669.651	84.06
669.854	68.06
670.057	93.06
670.259	93.06
670.462	92.06
670.665	92.06
670.867	87.06
671.07	93.06
671.272	82.06
671.475	77.06
671.677	86.06
671.88	90.06
672.082	97.06
672.284	89.06
672.487	78.06
672.689	82.06
672.892	91.06
