Data from SnStandardFlinnAPT0064_QswitchEnergy10_LIBS07252019.E.O._I.C._HRD10591_15-26-59-973.txt Node
Date: Thu Jul 25 15:26:59 EDT 2019
User: cochatt
Spectrometer: HR+D1059
Trigger mode: 1
Integration Time (sec): 1.000000E-1
Scans to average: 1
Electric dark correction enabled: true
Nonlinearity correction enabled: false
Boxcar width: 0
XAxis mode: Wavelengths
Number of Pixels in Spectrum: 2048
>>>>>Begin Spectral Data<<<<<
223.165	-21.12
223.4	-21.12
223.635	-21.12
223.869	-28.12
224.104	-22.12
224.338	-1.12
224.573	0.88
224.808	-7.12
225.042	-13.12
225.277	-5.12
225.511	-3.12
225.746	-9.12
225.98	12.88
226.215	5.88
226.449	8.88
226.683	27.88
226.918	33.88
227.152	19.88
227.387	33.88
227.621	40.88
227.856	46.88
228.09	62.88
228.324	51.88
228.559	59.88
228.793	50.88
229.027	71.88
229.262	64.88
229.496	60.88
229.73	81.88
229.964	72.88
230.199	74.88
230.433	71.88
230.667	78.88
230.901	82.88
231.136	77.88
231.37	80.88
231.604	97.88
231.838	103.88
232.072	104.88
232.306	119.88
232.541	100.88
232.775	91.88
233.009	80.88
233.243	93.88
233.477	96.88
233.711	97.88
233.945	104.88
234.179	102.88
234.413	71.88
234.647	96.88
234.881	92.88
235.115	79.88
235.349	96.88
235.583	95.88
235.817	127.88
236.051	120.88
236.285	84.88
236.519	78.88
236.753	81.88
236.987	78.88
237.221	74.88
237.455	78.88
237.689	75.88
237.922	89.88
238.156	90.88
238.39	80.88
238.624	102.88
238.858	86.88
239.091	92.88
239.325	74.88
239.559	75.88
239.793	75.88
240.027	91.88
240.26	82.88
240.494	88.88
240.728	75.88
240.961	90.88
241.195	100.88
241.429	85.88
241.662	96.88
241.896	87.88
242.13	99.88
242.363	110.88
242.597	161.88
242.83	129.88
243.064	137.88
243.298	163.88
243.531	150.88
243.765	100.88
243.998	77.88
244.232	80.88
244.465	79.88
244.699	77.88
244.932	75.88
245.166	87.88
245.399	88.88
245.633	82.88
245.866	95.88
246.099	88.88
246.333	101.88
246.566	90.88
246.8	82.88
247.033	75.88
247.266	77.88
247.5	89.88
247.733	88.88
247.966	63.88
248.2	91.88
248.433	93.88
248.666	116.88
248.899	115.88
249.133	90.88
249.366	98.88
249.599	105.88
249.832	115.88
250.066	112.88
250.299	91.88
250.532	85.88
250.765	76.88
250.998	73.88
251.231	77.88
251.465	77.88
251.698	99.88
251.931	70.88
252.164	88.88
252.397	75.88
252.63	95.88
252.863	99.88
253.096	99.88
253.329	73.88
253.562	95.88
253.795	88.88
254.028	73.88
254.261	81.88
254.494	100.88
254.727	134.88
254.96	155.88
255.193	118.88
255.426	102.88
255.659	97.88
255.892	80.88
256.124	65.88
256.357	91.88
256.59	88.88
256.823	73.88
257.056	114.88
257.289	144.88
257.521	158.88
257.754	119.88
257.987	88.88
258.22	103.88
258.452	87.88
258.685	70.88
258.918	97.88
259.151	94.88
259.383	110.88
259.616	134.88
259.849	130.88
260.081	99.88
260.314	82.88
260.547	91.88
260.779	89.88
261.012	82.88
261.244	78.88
261.477	70.88
261.71	90.88
261.942	80.88
262.175	87.88
262.407	72.88
262.64	88.88
262.872	86.88
263.105	85.88
263.337	83.88
263.57	94.88
263.802	85.88
264.035	81.88
264.267	102.88
264.499	82.88
264.732	101.88
264.964	92.88
265.197	86.88
265.429	87.88
265.661	93.88
265.894	108.88
266.126	110.88
266.358	130.88
266.591	131.88
266.823	106.88
267.055	87.88
267.287	89.88
267.52	88.88
267.752	86.88
267.984	80.88
268.216	87.88
268.448	95.88
268.681	94.88
268.913	91.88
269.145	91.88
269.377	96.88
269.609	95.88
269.841	99.88
270.073	105.88
270.306	119.88
270.538	184.88
270.77	295.88
271.002	337.88
271.234	171.88
271.466	126.88
271.698	93.88
271.93	90.88
272.162	88.88
272.394	89.88
272.626	77.88
272.858	91.88
273.09	83.88
273.322	98.88
273.553	80.88
273.785	98.88
274.017	82.88
274.249	81.88
274.481	87.88
274.713	90.88
274.945	93.88
275.176	94.88
275.408	90.88
275.64	89.88
275.872	89.88
276.104	101.88
276.335	97.88
276.567	113.88
276.799	82.88
277.031	99.88
277.262	88.88
277.494	98.88
277.726	119.88
277.957	181.88
278.189	217.88
278.421	203.88
278.652	161.88
278.884	174.88
279.115	130.88
279.347	112.88
279.579	98.88
279.81	108.88
280.042	90.88
280.273	104.88
280.505	108.88
280.736	100.88
280.968	129.88
281.199	160.88
281.431	210.88
281.662	232.88
281.894	144.88
282.125	121.88
282.356	103.88
282.588	111.88
282.819	104.88
283.051	123.88
283.282	149.88
283.513	176.88
283.745	274.88
283.976	483.88
284.207	692.88
284.439	532.88
284.67	249.88
284.901	234.88
285.132	306.88
285.364	336.88
285.595	213.88
285.826	162.88
286.057	230.88
286.288	387.88
286.52	534.88
286.751	442.88
286.982	189.88
287.213	138.88
287.444	114.88
287.675	105.88
287.906	120.88
288.138	97.88
288.369	94.88
288.6	95.88
288.831	93.88
289.062	95.88
289.293	100.88
289.524	90.88
289.755	102.88
289.986	87.88
290.217	83.88
290.448	90.88
290.679	100.88
290.91	116.88
291.141	151.88
291.371	196.88
291.602	234.88
291.833	168.88
292.064	112.88
292.295	113.88
292.526	98.88
292.757	89.88
292.987	105.88
293.218	90.88
293.449	95.88
293.68	98.88
293.91	95.88
294.141	91.88
294.372	89.88
294.603	89.88
294.833	98.88
295.064	96.88
295.295	89.88
295.525	95.88
295.756	92.88
295.987	84.88
296.217	83.88
296.448	111.88
296.679	96.88
296.909	98.88
297.14	88.88
297.37	99.88
297.601	96.88
297.831	91.88
298.062	89.88
298.292	92.88
298.523	90.88
298.753	86.88
298.984	99.88
299.214	101.88
299.445	111.88
299.675	118.88
299.905	103.88
300.136	132.88
300.366	156.88
300.597	242.88
300.827	407.88
301.057	608.88
301.288	533.88
301.518	226.88
301.748	128.88
301.979	134.88
302.209	128.88
302.439	130.88
302.669	166.88
302.9	242.88
303.13	442.88
303.36	782.88
303.59	1070.88
303.82	748.88
304.051	272.88
304.281	152.88
304.511	124.88
304.741	114.88
304.971	121.88
305.201	118.88
305.431	106.88
305.661	120.88
305.891	99.88
306.121	99.88
306.352	97.88
306.582	104.88
306.812	106.88
307.042	107.88
307.272	99.88
307.502	110.88
307.731	86.88
307.961	97.88
308.191	103.88
308.421	95.88
308.651	103.88
308.881	107.88
309.111	97.88
309.341	116.88
309.571	111.88
309.8	101.88
310.03	122.88
310.26	114.88
310.49	112.88
310.72	107.88
310.949	101.88
311.179	108.88
311.409	118.88
311.639	107.88
311.868	100.88
312.098	109.88
312.328	118.88
312.557	110.88
312.787	116.88
313.017	130.88
313.246	112.88
313.476	102.88
313.706	122.88
313.935	142.88
314.165	170.88
314.394	205.88
314.624	182.88
314.853	134.88
315.083	110.88
315.312	119.88
315.542	125.88
315.771	123.88
316.001	140.88
316.23	126.88
316.46	144.88
316.689	169.88
316.919	224.88
317.148	436.88
317.377	817.88
317.607	1307.88
317.836	1227.88
318.065	471.88
318.295	182.88
318.524	150.88
318.753	128.88
318.983	120.88
319.212	116.88
319.441	117.88
319.67	111.88
319.9	108.88
320.129	116.88
320.358	124.88
320.587	115.88
320.816	128.88
321.046	113.88
321.275	118.88
321.504	126.88
321.733	128.88
321.962	146.88
322.191	144.88
322.42	145.88
322.649	125.88
322.878	120.88
323.108	122.88
323.337	115.88
323.566	116.88
323.795	110.88
324.024	131.88
324.253	143.88
324.482	167.88
324.71	211.88
324.939	241.88
325.168	238.88
325.397	165.88
325.626	219.88
325.855	421.88
326.084	842.88
326.313	1398.88
326.542	1358.88
326.77	541.88
326.999	250.88
327.228	212.88
327.457	200.88
327.686	194.88
327.914	145.88
328.143	134.88
328.372	130.88
328.6	113.88
328.829	126.88
329.058	122.88
329.287	118.88
329.515	120.88
329.744	121.88
329.972	108.88
330.201	105.88
330.43	100.88
330.658	99.88
330.887	114.88
331.115	123.88
331.344	115.88
331.572	111.88
331.801	108.88
332.03	132.88
332.258	138.88
332.486	163.88
332.715	262.88
332.943	455.88
333.172	690.88
333.4	601.88
333.629	227.88
333.857	135.88
334.085	118.88
334.314	116.88
334.542	128.88
334.771	117.88
334.999	123.88
335.227	102.88
335.455	119.88
335.684	127.88
335.912	110.88
336.14	106.88
336.369	129.88
336.597	121.88
336.825	96.88
337.053	112.88
337.281	119.88
337.51	112.88
337.738	113.88
337.966	112.88
338.194	110.88
338.422	116.88
338.65	112.88
338.878	115.88
339.106	120.88
339.334	118.88
339.562	109.88
339.79	120.88
340.018	116.88
340.246	111.88
340.474	110.88
340.702	111.88
340.93	102.88
341.158	113.88
341.386	101.88
341.614	128.88
341.842	107.88
342.07	114.88
342.298	104.88
342.526	112.88
342.754	114.88
342.981	94.88
343.209	114.88
343.437	118.88
343.665	107.88
343.893	98.88
344.12	113.88
344.348	98.88
344.576	105.88
344.804	102.88
345.031	102.88
345.259	121.88
345.487	116.88
345.714	112.88
345.942	103.88
346.17	104.88
346.397	112.88
346.625	106.88
346.853	103.88
347.08	105.88
347.308	98.88
347.535	113.88
347.763	104.88
347.99	107.88
348.218	101.88
348.445	114.88
348.673	122.88
348.9	114.88
349.128	116.88
349.355	123.88
349.583	110.88
349.81	110.88
350.037	108.88
350.265	120.88
350.492	109.88
350.72	102.88
350.947	109.88
351.174	111.88
351.402	111.88
351.629	109.88
351.856	103.88
352.083	90.88
352.311	98.88
352.538	99.88
352.765	103.88
352.992	107.88
353.22	100.88
353.447	90.88
353.674	107.88
353.901	106.88
354.128	89.88
354.355	78.88
354.583	98.88
354.81	100.88
355.037	114.88
355.264	100.88
355.491	111.88
355.718	104.88
355.945	98.88
356.172	106.88
356.399	103.88
356.626	105.88
356.853	114.88
357.08	94.88
357.307	107.88
357.534	99.88
357.761	106.88
357.988	96.88
358.215	109.88
358.441	97.88
358.668	103.88
358.895	117.88
359.122	103.88
359.349	116.88
359.576	119.88
359.802	123.88
360.029	93.88
360.256	123.88
360.483	114.88
360.709	111.88
360.936	106.88
361.163	106.88
361.39	101.88
361.616	103.88
361.843	102.88
362.07	116.88
362.296	96.88
362.523	120.88
362.749	106.88
362.976	107.88
363.203	90.88
363.429	94.88
363.656	110.88
363.882	99.88
364.109	112.88
364.335	117.88
364.562	104.88
364.788	117.88
365.015	105.88
365.241	120.88
365.468	169.88
365.694	216.88
365.92	180.88
366.147	107.88
366.373	88.88
366.599	85.88
366.826	91.88
367.052	97.88
367.278	90.88
367.505	93.88
367.731	103.88
367.957	102.88
368.184	115.88
368.41	130.88
368.636	125.88
368.862	108.88
369.089	104.88
369.315	117.88
369.541	120.88
369.767	101.88
369.993	118.88
370.219	117.88
370.445	110.88
370.672	105.88
370.898	102.88
371.124	95.88
371.35	91.88
371.576	93.88
371.802	100.88
372.028	98.88
372.254	111.88
372.48	106.88
372.706	114.88
372.932	93.88
373.158	96.88
373.384	112.88
373.61	92.88
373.835	115.88
374.061	105.88
374.287	109.88
374.513	98.88
374.739	110.88
374.965	122.88
375.191	113.88
375.416	90.88
375.642	102.88
375.868	106.88
376.094	97.88
376.319	107.88
376.545	110.88
376.771	102.88
376.997	107.88
377.222	94.88
377.448	103.88
377.674	106.88
377.899	117.88
378.125	99.88
378.35	111.88
378.576	106.88
378.802	110.88
379.027	114.88
379.253	133.88
379.478	164.88
379.704	293.88
379.929	680.88
380.155	1347.88
380.38	1411.88
380.606	462.88
380.831	171.88
381.057	124.88
381.282	124.88
381.507	122.88
381.733	101.88
381.958	92.88
382.184	99.88
382.409	104.88
382.634	115.88
382.86	111.88
383.085	107.88
383.31	97.88
383.535	109.88
383.761	92.88
383.986	115.88
384.211	107.88
384.436	101.88
384.662	102.88
384.887	88.88
385.112	92.88
385.337	102.88
385.562	105.88
385.787	99.88
386.013	113.88
386.238	96.88
386.463	101.88
386.688	99.88
386.913	108.88
387.138	103.88
387.363	104.88
387.588	105.88
387.813	101.88
388.038	102.88
388.263	110.88
388.488	98.88
388.713	102.88
388.938	97.88
389.163	103.88
389.387	85.88
389.612	102.88
389.837	115.88
390.062	98.88
390.287	104.88
390.512	101.88
390.736	110.88
390.961	105.88
391.186	82.88
391.411	108.88
391.636	94.88
391.86	103.88
392.085	90.88
392.31	87.88
392.534	102.88
392.759	105.88
392.984	102.88
393.208	118.88
393.433	119.88
393.658	127.88
393.882	95.88
394.107	105.88
394.331	86.88
394.556	90.88
394.78	89.88
395.005	97.88
395.229	99.88
395.454	85.88
395.678	87.88
395.903	87.88
396.127	111.88
396.352	102.88
396.576	99.88
396.801	106.88
397.025	121.88
397.249	106.88
397.474	80.88
397.698	100.88
397.922	93.88
398.147	91.88
398.371	86.88
398.595	94.88
398.82	89.88
399.044	102.88
399.268	101.88
399.492	98.88
399.717	108.88
399.941	96.88
400.165	92.88
400.389	86.88
400.613	97.88
400.837	97.88
401.062	98.88
401.286	102.88
401.51	92.88
401.734	95.88
401.958	93.88
402.182	104.88
402.406	93.88
402.63	92.88
402.854	120.88
403.078	94.88
403.302	101.88
403.526	98.88
403.75	97.88
403.974	85.88
404.198	100.88
404.422	90.88
404.645	109.88
404.869	88.88
405.093	93.88
405.317	102.88
405.541	115.88
405.765	110.88
405.988	140.88
406.212	119.88
406.436	107.88
406.66	106.88
406.883	90.88
407.107	88.88
407.331	92.88
407.555	94.88
407.778	99.88
408.002	95.88
408.226	102.88
408.449	95.88
408.673	91.88
408.896	94.88
409.12	85.88
409.344	105.88
409.567	103.88
409.791	92.88
410.014	90.88
410.238	91.88
410.461	99.88
410.685	91.88
410.908	95.88
411.132	92.88
411.355	99.88
411.578	95.88
411.802	114.88
412.025	88.88
412.249	95.88
412.472	86.88
412.695	103.88
412.919	91.88
413.142	92.88
413.365	99.88
413.589	94.88
413.812	106.88
414.035	108.88
414.258	95.88
414.482	114.88
414.705	100.88
414.928	98.88
415.151	98.88
415.374	96.88
415.597	96.88
415.821	110.88
416.044	86.88
416.267	74.88
416.49	99.88
416.713	99.88
416.936	94.88
417.159	115.88
417.382	92.88
417.605	101.88
417.828	115.88
418.051	98.88
418.274	95.88
418.497	106.88
418.72	107.88
418.943	85.88
419.166	96.88
419.389	115.88
419.611	97.88
419.834	103.88
420.057	96.88
420.28	75.88
420.503	98.88
420.726	101.88
420.948	82.88
421.171	87.88
421.394	92.88
421.617	91.88
421.839	92.88
422.062	90.88
422.285	98.88
422.507	102.88
422.73	114.88
422.953	118.88
423.175	104.88
423.398	104.88
423.621	94.88
423.843	94.88
424.066	94.88
424.288	82.88
424.511	81.88
424.733	100.88
424.956	99.88
425.178	110.88
425.401	94.88
425.623	94.88
425.846	88.88
426.068	90.88
426.291	107.88
426.513	91.88
426.735	92.88
426.958	98.88
427.18	89.88
427.402	85.88
427.625	96.88
427.847	83.88
428.069	96.88
428.292	105.88
428.514	106.88
428.736	104.88
428.958	95.88
429.181	96.88
429.403	98.88
429.625	84.88
429.847	94.88
430.069	89.88
430.292	102.88
430.514	106.88
430.736	105.88
430.958	88.88
431.18	90.88
431.402	96.88
431.624	89.88
431.846	87.88
432.068	85.88
432.29	93.88
432.512	103.88
432.734	95.88
432.956	107.88
433.178	97.88
433.4	99.88
433.622	89.88
433.844	99.88
434.066	95.88
434.287	95.88
434.509	89.88
434.731	91.88
434.953	98.88
435.175	92.88
435.397	89.88
435.618	92.88
435.84	80.88
436.062	81.88
436.284	78.88
436.505	99.88
436.727	101.88
436.949	84.88
437.17	105.88
437.392	90.88
437.614	74.88
437.835	77.88
438.057	80.88
438.278	94.88
438.5	101.88
438.721	90.88
438.943	112.88
439.165	105.88
439.386	110.88
439.608	97.88
439.829	97.88
440.05	115.88
440.272	114.88
440.493	91.88
440.715	87.88
440.936	101.88
441.158	102.88
441.379	94.88
441.6	95.88
441.822	97.88
442.043	112.88
442.264	124.88
442.486	118.88
442.707	110.88
442.928	104.88
443.149	84.88
443.371	101.88
443.592	89.88
443.813	102.88
444.034	104.88
444.255	98.88
444.476	82.88
444.698	87.88
444.919	85.88
445.14	190.88
445.361	141.88
445.582	88.88
445.803	97.88
446.024	91.88
446.245	114.88
446.466	105.88
446.687	95.88
446.908	97.88
447.129	76.88
447.35	91.88
447.571	83.88
447.792	101.88
448.013	115.88
448.234	97.88
448.455	90.88
448.675	91.88
448.896	104.88
449.117	105.88
449.338	122.88
449.559	131.88
449.779	133.88
450	104.88
450.221	94.88
450.442	102.88
450.662	107.88
450.883	99.88
451.104	120.88
451.324	110.88
451.545	95.88
451.766	120.88
451.986	126.88
452.207	180.88
452.428	476.88
452.648	1146.88
452.869	656.88
453.089	189.88
453.31	131.88
453.53	117.88
453.751	142.88
453.971	154.88
454.192	153.88
454.412	101.88
454.633	81.88
454.853	89.88
455.073	95.88
455.294	96.88
455.514	97.88
455.734	88.88
455.955	97.88
456.175	86.88
456.395	90.88
456.616	90.88
456.836	94.88
457.056	81.88
457.276	95.88
457.497	95.88
457.717	126.88
457.937	96.88
458.157	91.88
458.377	99.88
458.598	89.88
458.818	91.88
459.038	75.88
459.258	88.88
459.478	79.88
459.698	96.88
459.918	96.88
460.138	81.88
460.358	75.88
460.578	102.88
460.798	96.88
461.018	82.88
461.238	90.88
461.458	95.88
461.678	83.88
461.898	97.88
462.118	86.88
462.338	83.88
462.558	103.88
462.777	83.88
462.997	102.88
463.217	106.88
463.437	121.88
463.657	176.88
463.876	174.88
464.096	122.88
464.316	101.88
464.536	109.88
464.755	91.88
464.975	82.88
465.195	87.88
465.414	85.88
465.634	85.88
465.854	76.88
466.073	95.88
466.293	94.88
466.512	89.88
466.732	94.88
466.951	97.88
467.171	131.88
467.391	127.88
467.61	106.88
467.829	86.88
468.049	107.88
468.268	82.88
468.488	96.88
468.707	105.88
468.927	100.88
469.146	104.88
469.365	95.88
469.585	89.88
469.804	94.88
470.023	100.88
470.243	83.88
470.462	104.88
470.681	104.88
470.901	118.88
471.12	174.88
471.339	187.88
471.558	141.88
471.777	112.88
471.997	106.88
472.216	86.88
472.435	90.88
472.654	91.88
472.873	95.88
473.092	96.88
473.311	108.88
473.53	104.88
473.749	107.88
473.968	99.88
474.187	91.88
474.406	97.88
474.625	87.88
474.844	91.88
475.063	87.88
475.282	95.88
475.501	90.88
475.72	100.88
475.939	95.88
476.158	101.88
476.377	113.88
476.596	110.88
476.814	94.88
477.033	91.88
477.252	108.88
477.471	96.88
477.69	83.88
477.908	97.88
478.127	102.88
478.346	99.88
478.564	82.88
478.783	94.88
479.002	85.88
479.22	96.88
479.439	104.88
479.658	73.88
479.876	90.88
480.095	94.88
480.313	89.88
480.532	103.88
480.751	104.88
480.969	102.88
481.188	89.88
481.406	103.88
481.624	93.88
481.843	104.88
482.061	98.88
482.28	96.88
482.498	89.88
482.717	104.88
482.935	103.88
483.153	98.88
483.372	113.88
483.59	88.88
483.808	105.88
484.027	101.88
484.245	119.88
484.463	150.88
484.681	215.88
484.9	129.88
485.118	110.88
485.336	105.88
485.554	103.88
485.772	137.88
485.99	174.88
486.209	217.88
486.427	145.88
486.645	122.88
486.863	107.88
487.081	94.88
487.299	98.88
487.517	99.88
487.735	99.88
487.953	91.88
488.171	93.88
488.389	96.88
488.607	79.88
488.825	94.88
489.043	102.88
489.261	95.88
489.479	96.88
489.696	97.88
489.914	79.88
490.132	91.88
490.35	103.88
490.568	111.88
490.786	106.88
491.003	104.88
491.221	108.88
491.439	107.88
491.657	117.88
491.874	114.88
492.092	104.88
492.31	104.88
492.527	106.88
492.745	94.88
492.963	98.88
493.18	95.88
493.398	102.88
493.615	98.88
493.833	87.88
494.05	94.88
494.268	97.88
494.485	89.88
494.703	100.88
494.92	107.88
495.138	98.88
495.355	104.88
495.573	90.88
495.79	102.88
496.008	100.88
496.225	106.88
496.442	105.88
496.66	113.88
496.877	140.88
497.094	144.88
497.312	110.88
497.529	88.88
497.746	94.88
497.963	90.88
498.181	98.88
498.398	110.88
498.615	106.88
498.832	96.88
499.049	110.88
499.267	145.88
499.484	146.88
499.701	136.88
499.918	79.88
500.135	100.88
500.352	86.88
500.569	85.88
500.786	100.88
501.003	108.88
501.22	117.88
501.437	101.88
501.654	104.88
501.871	81.88
502.088	112.88
502.305	97.88
502.522	110.88
502.739	101.88
502.956	96.88
503.172	100.88
503.389	87.88
503.606	103.88
503.823	92.88
504.04	91.88
504.256	91.88
504.473	93.88
504.69	113.88
504.907	102.88
505.123	122.88
505.34	87.88
505.557	106.88
505.773	103.88
505.99	103.88
506.207	100.88
506.423	107.88
506.64	103.88
506.856	118.88
507.073	106.88
507.289	92.88
507.506	78.88
507.722	99.88
507.939	101.88
508.155	111.88
508.372	114.88
508.588	103.88
508.805	106.88
509.021	88.88
509.238	94.88
509.454	117.88
509.67	145.88
509.887	114.88
510.103	102.88
510.319	73.88
510.536	110.88
510.752	114.88
510.968	88.88
511.184	105.88
511.401	103.88
511.617	98.88
511.833	91.88
512.049	107.88
512.265	92.88
512.481	99.88
512.698	94.88
512.914	100.88
513.13	98.88
513.346	96.88
513.562	91.88
513.778	95.88
513.994	100.88
514.21	88.88
514.426	142.88
514.642	164.88
514.858	126.88
515.074	102.88
515.29	101.88
515.506	95.88
515.721	95.88
515.937	98.88
516.153	103.88
516.369	108.88
516.585	95.88
516.801	92.88
517.016	91.88
517.232	91.88
517.448	98.88
517.664	119.88
517.879	106.88
518.095	92.88
518.311	91.88
518.527	91.88
518.742	107.88
518.958	114.88
519.173	144.88
519.389	123.88
519.605	108.88
519.82	103.88
520.036	101.88
520.251	92.88
520.467	98.88
520.682	87.88
520.898	95.88
521.113	91.88
521.329	84.88
521.544	109.88
521.76	106.88
521.975	105.88
522.19	87.88
522.406	97.88
522.621	98.88
522.836	92.88
523.052	103.88
523.267	99.88
523.482	81.88
523.698	93.88
523.913	115.88
524.128	100.88
524.343	88.88
524.559	92.88
524.774	93.88
524.989	94.88
525.204	106.88
525.419	101.88
525.634	115.88
525.849	90.88
526.064	86.88
526.28	107.88
526.495	97.88
526.71	103.88
526.925	111.88
527.14	84.88
527.355	101.88
527.57	99.88
527.785	95.88
527.999	89.88
528.214	103.88
528.429	102.88
528.644	80.88
528.859	97.88
529.074	80.88
529.289	100.88
529.503	104.88
529.718	96.88
529.933	107.88
530.148	105.88
530.363	92.88
530.577	86.88
530.792	88.88
531.007	97.88
531.221	116.88
531.436	82.88
531.651	102.88
531.865	97.88
532.08	96.88
532.295	115.88
532.509	139.88
532.724	116.88
532.938	105.88
533.153	106.88
533.367	103.88
533.582	104.88
533.796	97.88
534.011	105.88
534.225	92.88
534.44	96.88
534.654	114.88
534.868	108.88
535.083	100.88
535.297	83.88
535.511	89.88
535.726	99.88
535.94	86.88
536.154	89.88
536.369	93.88
536.583	97.88
536.797	106.88
537.011	104.88
537.225	83.88
537.44	92.88
537.654	95.88
537.868	95.88
538.082	94.88
538.296	105.88
538.51	83.88
538.724	90.88
538.938	104.88
539.153	110.88
539.367	102.88
539.581	88.88
539.795	95.88
540.009	97.88
540.222	97.88
540.436	112.88
540.65	80.88
540.864	94.88
541.078	103.88
541.292	131.88
541.506	185.88
541.72	186.88
541.934	118.88
542.147	102.88
542.361	101.88
542.575	93.88
542.789	96.88
543.002	110.88
543.216	96.88
543.43	105.88
543.644	103.88
543.857	107.88
544.071	105.88
544.285	114.88
544.498	102.88
544.712	110.88
544.925	100.88
545.139	96.88
545.352	108.88
545.566	106.88
545.779	95.88
545.993	107.88
546.206	102.88
546.42	108.88
546.633	104.88
546.847	114.88
547.06	104.88
547.274	80.88
547.487	94.88
547.7	101.88
547.914	107.88
548.127	98.88
548.34	86.88
548.554	87.88
548.767	107.88
548.98	96.88
549.193	111.88
549.407	105.88
549.62	115.88
549.833	98.88
550.046	92.88
550.259	110.88
550.473	67.88
550.686	103.88
550.899	104.88
551.112	101.88
551.325	98.88
551.538	105.88
551.751	101.88
551.964	97.88
552.177	96.88
552.39	97.88
552.603	105.88
552.816	94.88
553.029	92.88
553.242	90.88
553.455	100.88
553.667	119.88
553.88	96.88
554.093	89.88
554.306	106.88
554.519	96.88
554.732	105.88
554.944	99.88
555.157	104.88
555.37	110.88
555.583	102.88
555.795	94.88
556.008	98.88
556.221	138.88
556.433	118.88
556.646	117.88
556.859	102.88
557.071	114.88
557.284	119.88
557.496	116.88
557.709	105.88
557.921	106.88
558.134	90.88
558.346	96.88
558.559	93.88
558.771	98.88
558.984	112.88
559.196	104.88
559.409	101.88
559.621	96.88
559.833	113.88
560.046	89.88
560.258	91.88
560.47	107.88
560.683	101.88
560.895	102.88
561.107	106.88
561.32	110.88
561.532	85.88
561.744	104.88
561.956	97.88
562.168	100.88
562.381	107.88
562.593	103.88
562.805	132.88
563.017	150.88
563.229	241.88
563.441	524.88
563.653	184.88
563.865	113.88
564.077	92.88
564.289	92.88
564.501	99.88
564.713	98.88
564.925	101.88
565.137	92.88
565.349	98.88
565.561	108.88
565.773	87.88
565.985	99.88
566.197	115.88
566.408	102.88
566.62	103.88
566.832	96.88
567.044	115.88
567.255	107.88
567.467	94.88
567.679	104.88
567.891	111.88
568.102	151.88
568.314	241.88
568.526	144.88
568.737	116.88
568.949	98.88
569.161	97.88
569.372	102.88
569.584	95.88
569.795	99.88
570.007	95.88
570.218	108.88
570.43	149.88
570.641	118.88
570.853	98.88
571.064	90.88
571.276	84.88
571.487	102.88
571.698	110.88
571.91	104.88
572.121	91.88
572.333	107.88
572.544	100.88
572.755	118.88
572.966	178.88
573.178	125.88
573.389	116.88
573.6	94.88
573.811	107.88
574.023	105.88
574.234	100.88
574.445	100.88
574.656	88.88
574.867	98.88
575.078	92.88
575.289	87.88
575.501	100.88
575.712	99.88
575.923	93.88
576.134	93.88
576.345	95.88
576.556	102.88
576.767	85.88
576.978	98.88
577.188	98.88
577.399	86.88
577.61	87.88
577.821	85.88
578.032	79.88
578.243	90.88
578.454	108.88
578.665	98.88
578.875	90.88
579.086	100.88
579.297	86.88
579.508	104.88
579.718	104.88
579.929	95.88
580.14	99.88
580.35	93.88
580.561	84.88
580.772	94.88
580.982	90.88
581.193	91.88
581.403	88.88
581.614	102.88
581.825	100.88
582.035	84.88
582.246	106.88
582.456	98.88
582.667	97.88
582.877	117.88
583.087	114.88
583.298	104.88
583.508	86.88
583.719	96.88
583.929	94.88
584.139	98.88
584.35	101.88
584.56	88.88
584.77	103.88
584.981	93.88
585.191	82.88
585.401	87.88
585.611	98.88
585.821	97.88
586.032	102.88
586.242	105.88
586.452	84.88
586.662	100.88
586.872	96.88
587.082	92.88
587.292	86.88
587.502	73.88
587.713	84.88
587.923	83.88
588.133	87.88
588.343	82.88
588.553	99.88
588.762	95.88
588.972	77.88
589.182	118.88
589.392	98.88
589.602	98.88
589.812	121.88
590.022	114.88
590.232	83.88
590.441	94.88
590.651	89.88
590.861	84.88
591.071	99.88
591.281	101.88
591.49	87.88
591.7	78.88
591.91	88.88
592.119	99.88
592.329	88.88
592.539	86.88
592.748	85.88
592.958	98.88
593.167	107.88
593.377	86.88
593.587	104.88
593.796	112.88
594.006	91.88
594.215	95.88
594.424	111.88
594.634	89.88
594.843	84.88
595.053	90.88
595.262	100.88
595.472	95.88
595.681	92.88
595.89	101.88
596.1	89.88
596.309	98.88
596.518	81.88
596.727	100.88
596.937	96.88
597.146	97.88
597.355	103.88
597.564	113.88
597.774	85.88
597.983	92.88
598.192	84.88
598.401	77.88
598.61	100.88
598.819	104.88
599.028	80.88
599.237	91.88
599.446	86.88
599.655	86.88
599.864	96.88
600.073	78.88
600.282	88.88
600.491	94.88
600.7	96.88
600.909	102.88
601.118	104.88
601.327	98.88
601.536	100.88
601.745	86.88
601.953	127.88
602.162	136.88
602.371	115.88
602.58	98.88
602.789	92.88
602.997	107.88
603.206	92.88
603.415	89.88
603.623	110.88
603.832	84.88
604.041	90.88
604.249	97.88
604.458	80.88
604.666	87.88
604.875	88.88
605.084	97.88
605.292	98.88
605.501	97.88
605.709	98.88
605.918	89.88
606.126	93.88
606.334	91.88
606.543	105.88
606.751	124.88
606.96	169.88
607.168	154.88
607.376	117.88
607.585	103.88
607.793	91.88
608.001	102.88
608.21	100.88
608.418	98.88
608.626	95.88
608.834	101.88
609.043	104.88
609.251	84.88
609.459	82.88
609.667	87.88
609.875	94.88
610.083	84.88
610.291	96.88
610.499	95.88
610.707	102.88
610.916	90.88
611.124	92.88
611.332	94.88
611.54	92.88
611.748	88.88
611.955	101.88
612.163	89.88
612.371	105.88
612.579	95.88
612.787	81.88
612.995	102.88
613.203	91.88
613.411	95.88
613.618	99.88
613.826	87.88
614.034	82.88
614.242	81.88
614.449	92.88
614.657	85.88
614.865	83.88
615.072	104.88
615.28	112.88
615.488	105.88
615.695	106.88
615.903	94.88
616.111	91.88
616.318	105.88
616.526	107.88
616.733	79.88
616.941	100.88
617.148	81.88
617.356	100.88
617.563	108.88
617.771	92.88
617.978	104.88
618.185	93.88
618.393	89.88
618.6	90.88
618.807	89.88
619.015	101.88
619.222	97.88
619.429	91.88
619.637	91.88
619.844	95.88
620.051	92.88
620.258	94.88
620.466	83.88
620.673	94.88
620.88	93.88
621.087	87.88
621.294	75.88
621.501	90.88
621.708	89.88
621.915	96.88
622.122	94.88
622.329	78.88
622.536	104.88
622.743	93.88
622.95	91.88
623.157	96.88
623.364	90.88
623.571	99.88
623.778	82.88
623.985	95.88
624.192	96.88
624.399	86.88
624.606	96.88
624.812	93.88
625.019	105.88
625.226	90.88
625.433	88.88
625.639	86.88
625.846	94.88
626.053	91.88
626.259	97.88
626.466	89.88
626.673	92.88
626.879	75.88
627.086	91.88
627.293	81.88
627.499	82.88
627.706	82.88
627.912	85.88
628.119	88.88
628.325	93.88
628.532	98.88
628.738	90.88
628.945	96.88
629.151	90.88
629.357	82.88
629.564	96.88
629.77	79.88
629.976	90.88
630.183	95.88
630.389	85.88
630.595	90.88
630.802	78.88
631.008	79.88
631.214	99.88
631.42	105.88
631.627	77.88
631.833	86.88
632.039	82.88
632.245	81.88
632.451	82.88
632.657	102.88
632.863	91.88
633.069	96.88
633.275	98.88
633.481	91.88
633.688	80.88
633.893	96.88
634.099	76.88
634.305	83.88
634.511	87.88
634.717	86.88
634.923	93.88
635.129	116.88
635.335	136.88
635.541	96.88
635.747	91.88
635.952	97.88
636.158	86.88
636.364	103.88
636.57	86.88
636.775	83.88
636.981	82.88
637.187	71.88
637.392	87.88
637.598	97.88
637.804	69.88
638.009	80.88
638.215	96.88
638.421	84.88
638.626	84.88
638.832	79.88
639.037	98.88
639.243	92.88
639.448	76.88
639.654	92.88
639.859	89.88
640.065	103.88
640.27	98.88
640.475	86.88
640.681	81.88
640.886	90.88
641.091	84.88
641.297	104.88
641.502	85.88
641.707	88.88
641.913	84.88
642.118	96.88
642.323	81.88
642.528	75.88
642.733	90.88
642.939	87.88
643.144	89.88
643.349	86.88
643.554	99.88
643.759	97.88
643.964	81.88
644.169	84.88
644.374	88.88
644.579	80.88
644.784	84.88
644.989	100.88
645.194	84.88
645.399	82.88
645.604	106.88
645.809	107.88
646.014	96.88
646.219	92.88
646.423	74.88
646.628	77.88
646.833	73.88
647.038	91.88
647.243	81.88
647.447	100.88
647.652	94.88
647.857	87.88
648.062	80.88
648.266	71.88
648.471	72.88
648.676	90.88
648.88	93.88
649.085	86.88
649.289	88.88
649.494	95.88
649.698	83.88
649.903	80.88
650.107	85.88
650.312	78.88
650.516	76.88
650.721	84.88
650.925	86.88
651.13	74.88
651.334	79.88
651.539	85.88
651.743	86.88
651.947	82.88
652.152	80.88
652.356	79.88
652.56	100.88
652.764	113.88
652.969	88.88
653.173	75.88
653.377	79.88
653.581	83.88
653.785	85.88
653.99	90.88
654.194	73.88
654.398	94.88
654.602	80.88
654.806	69.88
655.01	84.88
655.214	89.88
655.418	83.88
655.622	77.88
655.826	89.88
656.03	82.88
656.234	91.88
656.438	81.88
656.642	88.88
656.846	77.88
657.049	90.88
657.253	79.88
657.457	87.88
657.661	87.88
657.865	76.88
658.068	73.88
658.272	70.88
658.476	73.88
658.68	85.88
658.883	67.88
659.087	91.88
659.291	79.88
659.494	93.88
659.698	90.88
659.901	93.88
660.105	80.88
660.309	77.88
660.512	80.88
660.716	77.88
660.919	80.88
661.123	84.88
661.326	72.88
661.53	75.88
661.733	76.88
661.936	89.88
662.14	75.88
662.343	84.88
662.546	79.88
662.75	82.88
662.953	85.88
663.156	87.88
663.36	79.88
663.563	75.88
663.766	74.88
663.969	84.88
664.173	71.88
664.376	78.88
664.579	82.88
664.782	90.88
664.985	70.88
665.188	70.88
665.391	84.88
665.594	82.88
665.797	82.88
666	87.88
666.203	78.88
666.406	76.88
666.609	72.88
666.812	79.88
667.015	74.88
667.218	92.88
667.421	84.88
667.624	66.88
667.827	82.88
668.03	82.88
668.232	89.88
668.435	74.88
668.638	80.88
668.841	75.88
669.043	82.88
669.246	84.88
669.449	97.88
669.651	88.88
669.854	79.88
670.057	80.88
670.259	86.88
670.462	82.88
670.665	82.88
670.867	72.88
671.07	73.88
671.272	56.88
671.475	82.88
671.677	72.88
671.88	90.88
672.082	86.88
672.284	88.88
672.487	93.88
672.689	84.88
672.892	84.88
