Data from SnStandardFlinnAPT0064_LampEnergy5.5_LIBS07252019.E.O._I.C._HRD10591_15-17-32-492.txt Node
Date: Thu Jul 25 15:17:32 EDT 2019
User: cochatt
Spectrometer: HR+D1059
Trigger mode: 1
Integration Time (sec): 1.000000E-1
Scans to average: 1
Electric dark correction enabled: true
Nonlinearity correction enabled: false
Boxcar width: 0
XAxis mode: Wavelengths
Number of Pixels in Spectrum: 2048
>>>>>Begin Spectral Data<<<<<
223.165	-12.75
223.4	-12.75
223.635	-12.75
223.869	-15.75
224.104	-24.75
224.338	-27.75
224.573	1.25
224.808	-4.75
225.042	-15.75
225.277	-10.75
225.511	-12.75
225.746	9.25
225.98	3.25
226.215	15.25
226.449	21.25
226.683	14.25
226.918	24.25
227.152	36.25
227.387	30.25
227.621	23.25
227.856	36.25
228.09	26.25
228.324	44.25
228.559	52.25
228.793	83.25
229.027	140.25
229.262	175.25
229.496	169.25
229.73	159.25
229.964	164.25
230.199	162.25
230.433	193.25
230.667	175.25
230.901	177.25
231.136	182.25
231.37	193.25
231.604	205.25
231.838	224.25
232.072	250.25
232.306	279.25
232.541	234.25
232.775	217.25
233.009	218.25
233.243	214.25
233.477	229.25
233.711	255.25
233.945	280.25
234.179	266.25
234.413	213.25
234.647	227.25
234.881	242.25
235.115	263.25
235.349	306.25
235.583	358.25
235.817	491.25
236.051	495.25
236.285	314.25
236.519	264.25
236.753	242.25
236.987	245.25
237.221	267.25
237.455	259.25
237.689	240.25
237.922	211.25
238.156	233.25
238.39	232.25
238.624	246.25
238.858	250.25
239.091	241.25
239.325	244.25
239.559	234.25
239.793	239.25
240.027	263.25
240.26	265.25
240.494	277.25
240.728	266.25
240.961	282.25
241.195	298.25
241.429	327.25
241.662	328.25
241.896	372.25
242.13	430.25
242.363	568.25
242.597	712.25
242.83	680.25
243.064	701.25
243.298	837.25
243.531	673.25
243.765	441.25
243.998	352.25
244.232	328.25
244.465	312.25
244.699	333.25
244.932	303.25
245.166	321.25
245.399	323.25
245.633	334.25
245.866	317.25
246.099	319.25
246.333	280.25
246.566	297.25
246.8	302.25
247.033	304.25
247.266	302.25
247.5	333.25
247.733	315.25
247.966	320.25
248.2	354.25
248.433	413.25
248.666	441.25
248.899	411.25
249.133	376.25
249.366	401.25
249.599	432.25
249.832	477.25
250.066	509.25
250.299	410.25
250.532	362.25
250.765	357.25
250.998	359.25
251.231	334.25
251.465	352.25
251.698	361.25
251.931	347.25
252.164	360.25
252.397	368.25
252.63	375.25
252.863	374.25
253.096	366.25
253.329	372.25
253.562	356.25
253.795	364.25
254.028	393.25
254.261	383.25
254.494	418.25
254.727	469.25
254.96	573.25
255.193	579.25
255.426	426.25
255.659	397.25
255.892	411.25
256.124	404.25
256.357	414.25
256.59	421.25
256.823	455.25
257.056	496.25
257.289	602.25
257.521	630.25
257.754	537.25
257.987	455.25
258.22	419.25
258.452	420.25
258.685	403.25
258.918	433.25
259.151	443.25
259.383	499.25
259.616	526.25
259.849	564.25
260.081	494.25
260.314	433.25
260.547	434.25
260.779	424.25
261.012	426.25
261.244	440.25
261.477	478.25
261.71	451.25
261.942	463.25
262.175	474.25
262.407	506.25
262.64	509.25
262.872	501.25
263.105	530.25
263.337	562.25
263.57	575.25
263.802	596.25
264.035	618.25
264.267	618.25
264.499	650.25
264.732	655.25
264.964	689.25
265.197	655.25
265.429	651.25
265.661	687.25
265.894	726.25
266.126	792.25
266.358	857.25
266.591	839.25
266.823	738.25
267.055	648.25
267.287	627.25
267.52	631.25
267.752	609.25
267.984	588.25
268.216	591.25
268.448	591.25
268.681	601.25
268.913	586.25
269.145	587.25
269.377	571.25
269.609	585.25
269.841	587.25
270.073	635.25
270.306	731.25
270.538	993.25
270.77	1452.25
271.002	1725.25
271.234	1203.25
271.466	791.25
271.698	654.25
271.93	633.25
272.162	610.25
272.394	576.25
272.626	597.25
272.858	556.25
273.09	555.25
273.322	544.25
273.553	532.25
273.785	554.25
274.017	570.25
274.249	557.25
274.481	563.25
274.713	537.25
274.945	563.25
275.176	548.25
275.408	551.25
275.64	555.25
275.872	557.25
276.104	561.25
276.335	581.25
276.567	590.25
276.799	577.25
277.031	591.25
277.262	608.25
277.494	635.25
277.726	682.25
277.957	771.25
278.189	910.25
278.421	843.25
278.652	760.25
278.884	721.25
279.115	653.25
279.347	637.25
279.579	623.25
279.81	628.25
280.042	622.25
280.273	662.25
280.505	675.25
280.736	643.25
280.968	691.25
281.199	751.25
281.431	843.25
281.662	872.25
281.894	777.25
282.125	721.25
282.356	725.25
282.588	738.25
282.819	738.25
283.051	773.25
283.282	875.25
283.513	1067.25
283.745	1605.25
283.976	2500.25
284.207	3664.25
284.439	3223.25
284.67	1841.25
284.901	1527.25
285.132	1517.25
285.364	1441.25
285.595	1115.25
285.826	1046.25
286.057	1215.25
286.288	1679.25
286.52	2280.25
286.751	2099.25
286.982	1309.25
287.213	962.25
287.444	833.25
287.675	805.25
287.906	766.25
288.138	783.25
288.369	761.25
288.6	762.25
288.831	742.25
289.062	763.25
289.293	726.25
289.524	753.25
289.755	745.25
289.986	767.25
290.217	758.25
290.448	762.25
290.679	759.25
290.91	767.25
291.141	806.25
291.371	841.25
291.602	895.25
291.833	831.25
292.064	762.25
292.295	729.25
292.526	734.25
292.757	734.25
292.987	718.25
293.218	718.25
293.449	702.25
293.68	720.25
293.91	717.25
294.141	711.25
294.372	718.25
294.603	714.25
294.833	691.25
295.064	704.25
295.295	683.25
295.525	695.25
295.756	697.25
295.987	698.25
296.217	687.25
296.448	691.25
296.679	694.25
296.909	702.25
297.14	730.25
297.37	712.25
297.601	732.25
297.831	715.25
298.062	707.25
298.292	737.25
298.523	746.25
298.753	755.25
298.984	774.25
299.214	770.25
299.445	755.25
299.675	767.25
299.905	796.25
300.136	855.25
300.366	957.25
300.597	1184.25
300.827	1667.25
301.057	2302.25
301.288	2225.25
301.518	1434.25
301.748	1087.25
301.979	1001.25
302.209	971.25
302.439	984.25
302.669	1039.25
302.9	1240.25
303.13	1766.25
303.36	2605.25
303.59	3576.25
303.82	3099.25
304.051	1741.25
304.281	1258.25
304.511	1049.25
304.741	998.25
304.971	929.25
305.201	893.25
305.431	879.25
305.661	861.25
305.891	842.25
306.121	821.25
306.352	820.25
306.582	824.25
306.812	814.25
307.042	799.25
307.272	825.25
307.502	817.25
307.731	794.25
307.961	788.25
308.191	816.25
308.421	807.25
308.651	807.25
308.881	803.25
309.111	810.25
309.341	803.25
309.571	827.25
309.8	816.25
310.03	830.25
310.26	823.25
310.49	840.25
310.72	826.25
310.949	807.25
311.179	835.25
311.409	858.25
311.639	889.25
311.868	872.25
312.098	869.25
312.328	874.25
312.557	887.25
312.787	851.25
313.017	884.25
313.246	873.25
313.476	883.25
313.706	898.25
313.935	945.25
314.165	983.25
314.394	1035.25
314.624	1021.25
314.853	939.25
315.083	915.25
315.312	940.25
315.542	1000.25
315.771	953.25
316.001	965.25
316.23	1020.25
316.46	1051.25
316.689	1137.25
316.919	1370.25
317.148	2007.25
317.377	3134.25
317.607	4667.25
317.836	4800.25
318.065	2756.25
318.295	1687.25
318.524	1399.25
318.753	1252.25
318.983	1153.25
319.212	1088.25
319.441	1070.25
319.67	1033.25
319.9	1052.25
320.129	1039.25
320.358	1037.25
320.587	1009.25
320.816	1019.25
321.046	1046.25
321.275	1049.25
321.504	1046.25
321.733	1040.25
321.962	1063.25
322.191	1114.25
322.42	1091.25
322.649	1076.25
322.878	1066.25
323.108	1080.25
323.337	1067.25
323.566	1127.25
323.795	1144.25
324.024	1157.25
324.253	1137.25
324.482	1217.25
324.71	1291.25
324.939	1352.25
325.168	1350.25
325.397	1443.25
325.626	1702.25
325.855	2414.25
326.084	3792.25
326.313	5734.25
326.542	6037.25
326.77	3693.25
326.999	2353.25
327.228	1962.25
327.457	1915.25
327.686	1909.25
327.914	2071.25
328.143	2276.25
328.372	2670.25
328.6	2899.25
328.829	2714.25
329.058	2336.25
329.287	2050.25
329.515	1872.25
329.744	1750.25
329.972	1692.25
330.201	1613.25
330.43	1607.25
330.658	1560.25
330.887	1479.25
331.115	1475.25
331.344	1458.25
331.572	1439.25
331.801	1477.25
332.03	1495.25
332.258	1528.25
332.486	1575.25
332.715	1796.25
332.943	2205.25
333.172	2745.25
333.4	2632.25
333.629	2053.25
333.857	1870.25
334.085	1866.25
334.314	1926.25
334.542	2087.25
334.771	2399.25
334.999	2808.25
335.227	3511.25
335.455	3909.25
335.684	3616.25
335.912	3076.25
336.14	2602.25
336.369	2336.25
336.597	2140.25
336.825	2021.25
337.053	1906.25
337.281	1781.25
337.51	1676.25
337.738	1618.25
337.966	1560.25
338.194	1502.25
338.422	1470.25
338.65	1451.25
338.878	1440.25
339.106	1353.25
339.334	1407.25
339.562	1391.25
339.79	1336.25
340.018	1320.25
340.246	1300.25
340.474	1309.25
340.702	1282.25
340.93	1297.25
341.158	1293.25
341.386	1271.25
341.614	1306.25
341.842	1268.25
342.07	1266.25
342.298	1221.25
342.526	1222.25
342.754	1224.25
342.981	1202.25
343.209	1191.25
343.437	1223.25
343.665	1222.25
343.893	1240.25
344.12	1244.25
344.348	1235.25
344.576	1207.25
344.804	1200.25
345.031	1120.25
345.259	1141.25
345.487	1153.25
345.714	1141.25
345.942	1141.25
346.17	1133.25
346.397	1130.25
346.625	1125.25
346.853	1111.25
347.08	1119.25
347.308	1103.25
347.535	1103.25
347.763	1109.25
347.99	1114.25
348.218	1092.25
348.445	1111.25
348.673	1086.25
348.9	1104.25
349.128	1116.25
349.355	1071.25
349.583	1059.25
349.81	1077.25
350.037	1073.25
350.265	1066.25
350.492	1026.25
350.72	1049.25
350.947	1047.25
351.174	1038.25
351.402	1053.25
351.629	1047.25
351.856	1059.25
352.083	1051.25
352.311	1045.25
352.538	1045.25
352.765	1033.25
352.992	1040.25
353.22	1037.25
353.447	1015.25
353.674	1061.25
353.901	1075.25
354.128	1043.25
354.355	1072.25
354.583	1062.25
354.81	1062.25
355.037	1066.25
355.264	1069.25
355.491	1051.25
355.718	1075.25
355.945	1082.25
356.172	1069.25
356.399	1089.25
356.626	1090.25
356.853	1104.25
357.08	1106.25
357.307	1120.25
357.534	1096.25
357.761	1106.25
357.988	1122.25
358.215	1142.25
358.441	1107.25
358.668	1083.25
358.895	1113.25
359.122	1103.25
359.349	1137.25
359.576	1126.25
359.802	1105.25
360.029	1119.25
360.256	1108.25
360.483	1118.25
360.709	1119.25
360.936	1126.25
361.163	1104.25
361.39	1129.25
361.616	1123.25
361.843	1155.25
362.07	1141.25
362.296	1125.25
362.523	1160.25
362.749	1143.25
362.976	1156.25
363.203	1131.25
363.429	1117.25
363.656	1119.25
363.882	1139.25
364.109	1099.25
364.335	1122.25
364.562	1124.25
364.788	1157.25
365.015	1142.25
365.241	1141.25
365.468	1217.25
365.694	1260.25
365.92	1216.25
366.147	1148.25
366.373	1142.25
366.599	1157.25
366.826	1135.25
367.052	1149.25
367.278	1138.25
367.505	1147.25
367.731	1129.25
367.957	1127.25
368.184	1156.25
368.41	1207.25
368.636	1185.25
368.862	1157.25
369.089	1160.25
369.315	1174.25
369.541	1176.25
369.767	1143.25
369.993	1171.25
370.219	1151.25
370.445	1158.25
370.672	1216.25
370.898	1205.25
371.124	1193.25
371.35	1197.25
371.576	1197.25
371.802	1213.25
372.028	1188.25
372.254	1235.25
372.48	1240.25
372.706	1211.25
372.932	1250.25
373.158	1216.25
373.384	1231.25
373.61	1251.25
373.835	1229.25
374.061	1214.25
374.287	1250.25
374.513	1282.25
374.739	1280.25
374.965	1305.25
375.191	1286.25
375.416	1277.25
375.642	1250.25
375.868	1249.25
376.094	1261.25
376.319	1242.25
376.545	1201.25
376.771	1212.25
376.997	1188.25
377.222	1189.25
377.448	1197.25
377.674	1208.25
377.899	1220.25
378.125	1190.25
378.35	1182.25
378.576	1206.25
378.802	1223.25
379.027	1219.25
379.253	1254.25
379.478	1355.25
379.704	1547.25
379.929	2217.25
380.155	3402.25
380.38	3669.25
380.606	2191.25
380.831	1530.25
381.057	1375.25
381.282	1301.25
381.507	1267.25
381.733	1223.25
381.958	1219.25
382.184	1229.25
382.409	1225.25
382.634	1199.25
382.86	1208.25
383.085	1161.25
383.31	1202.25
383.535	1215.25
383.761	1190.25
383.986	1221.25
384.211	1214.25
384.436	1219.25
384.662	1230.25
384.887	1209.25
385.112	1229.25
385.337	1231.25
385.562	1245.25
385.787	1218.25
386.013	1231.25
386.238	1233.25
386.463	1225.25
386.688	1226.25
386.913	1211.25
387.138	1239.25
387.363	1230.25
387.588	1221.25
387.813	1225.25
388.038	1240.25
388.263	1234.25
388.488	1237.25
388.713	1254.25
388.938	1246.25
389.163	1209.25
389.387	1222.25
389.612	1225.25
389.837	1240.25
390.062	1235.25
390.287	1273.25
390.512	1245.25
390.736	1258.25
390.961	1286.25
391.186	1266.25
391.411	1279.25
391.636	1288.25
391.86	1290.25
392.085	1323.25
392.31	1302.25
392.534	1298.25
392.759	1317.25
392.984	1267.25
393.208	1259.25
393.433	1278.25
393.658	1257.25
393.882	1229.25
394.107	1232.25
394.331	1245.25
394.556	1269.25
394.78	1267.25
395.005	1261.25
395.229	1243.25
395.454	1263.25
395.678	1289.25
395.903	1275.25
396.127	1302.25
396.352	1289.25
396.576	1256.25
396.801	1290.25
397.025	1319.25
397.249	1304.25
397.474	1314.25
397.698	1302.25
397.922	1306.25
398.147	1331.25
398.371	1334.25
398.595	1362.25
398.82	1379.25
399.044	1426.25
399.268	1510.25
399.492	1576.25
399.717	1653.25
399.941	1627.25
400.165	1567.25
400.389	1533.25
400.613	1451.25
400.837	1409.25
401.062	1365.25
401.286	1365.25
401.51	1354.25
401.734	1385.25
401.958	1387.25
402.182	1406.25
402.406	1375.25
402.63	1405.25
402.854	1363.25
403.078	1370.25
403.302	1422.25
403.526	1410.25
403.75	1386.25
403.974	1427.25
404.198	1418.25
404.422	1451.25
404.645	1404.25
404.869	1411.25
405.093	1427.25
405.317	1425.25
405.541	1440.25
405.765	1469.25
405.988	1442.25
406.212	1485.25
406.436	1453.25
406.66	1423.25
406.883	1488.25
407.107	1502.25
407.331	1521.25
407.555	1533.25
407.778	1520.25
408.002	1518.25
408.226	1534.25
408.449	1506.25
408.673	1452.25
408.896	1426.25
409.12	1421.25
409.344	1445.25
409.567	1434.25
409.791	1420.25
410.014	1421.25
410.238	1396.25
410.461	1428.25
410.685	1399.25
410.908	1370.25
411.132	1389.25
411.355	1329.25
411.578	1331.25
411.802	1365.25
412.025	1362.25
412.249	1392.25
412.472	1415.25
412.695	1342.25
412.919	1348.25
413.142	1350.25
413.365	1314.25
413.589	1325.25
413.812	1315.25
414.035	1311.25
414.258	1328.25
414.482	1321.25
414.705	1357.25
414.928	1335.25
415.151	1352.25
415.374	1321.25
415.597	1306.25
415.821	1266.25
416.044	1331.25
416.267	1295.25
416.49	1289.25
416.713	1267.25
416.936	1271.25
417.159	1270.25
417.382	1299.25
417.605	1255.25
417.828	1279.25
418.051	1308.25
418.274	1318.25
418.497	1298.25
418.72	1340.25
418.943	1277.25
419.166	1361.25
419.389	1413.25
419.611	1444.25
419.834	1338.25
420.057	1362.25
420.28	1339.25
420.503	1287.25
420.726	1249.25
420.948	1252.25
421.171	1299.25
421.394	1282.25
421.617	1304.25
421.839	1319.25
422.062	1300.25
422.285	1310.25
422.507	1298.25
422.73	1309.25
422.953	1348.25
423.175	1340.25
423.398	1279.25
423.621	1283.25
423.843	1306.25
424.066	1327.25
424.288	1288.25
424.511	1263.25
424.733	1305.25
424.956	1316.25
425.178	1278.25
425.401	1280.25
425.623	1266.25
425.846	1256.25
426.068	1279.25
426.291	1279.25
426.513	1230.25
426.735	1253.25
426.958	1205.25
427.18	1213.25
427.402	1211.25
427.625	1244.25
427.847	1226.25
428.069	1211.25
428.292	1214.25
428.514	1215.25
428.736	1213.25
428.958	1234.25
429.181	1167.25
429.403	1198.25
429.625	1177.25
429.847	1206.25
430.069	1218.25
430.292	1232.25
430.514	1248.25
430.736	1286.25
430.958	1230.25
431.18	1199.25
431.402	1189.25
431.624	1180.25
431.846	1163.25
432.068	1145.25
432.29	1162.25
432.512	1185.25
432.734	1179.25
432.956	1181.25
433.178	1243.25
433.4	1203.25
433.622	1190.25
433.844	1229.25
434.066	1175.25
434.287	1182.25
434.509	1190.25
434.731	1226.25
434.953	1272.25
435.175	1249.25
435.397	1223.25
435.618	1188.25
435.84	1215.25
436.062	1171.25
436.284	1192.25
436.505	1177.25
436.727	1205.25
436.949	1197.25
437.17	1174.25
437.392	1185.25
437.614	1134.25
437.835	1127.25
438.057	1155.25
438.278	1133.25
438.5	1149.25
438.721	1147.25
438.943	1191.25
439.165	1242.25
439.386	1236.25
439.608	1249.25
439.829	1264.25
440.05	1313.25
440.272	1261.25
440.493	1234.25
440.715	1250.25
440.936	1253.25
441.158	1231.25
441.379	1245.25
441.6	1335.25
441.822	1290.25
442.043	1411.25
442.264	1478.25
442.486	1368.25
442.707	1319.25
442.928	1296.25
443.149	1284.25
443.371	1238.25
443.592	1291.25
443.813	1298.25
444.034	1309.25
444.255	1301.25
444.476	1350.25
444.698	1384.25
444.919	1393.25
445.14	1490.25
445.361	1386.25
445.582	1295.25
445.803	1302.25
446.024	1274.25
446.245	1283.25
446.466	1281.25
446.687	1219.25
446.908	1264.25
447.129	1245.25
447.35	1215.25
447.571	1225.25
447.792	1179.25
448.013	1201.25
448.234	1138.25
448.455	1185.25
448.675	1184.25
448.896	1208.25
449.117	1279.25
449.338	1384.25
449.559	1425.25
449.779	1279.25
450	1151.25
450.221	1158.25
450.442	1161.25
450.662	1164.25
450.883	1123.25
451.104	1157.25
451.324	1135.25
451.545	1169.25
451.766	1165.25
451.986	1176.25
452.207	1277.25
452.428	1521.25
452.648	2139.25
452.869	1845.25
453.089	1373.25
453.31	1306.25
453.53	1264.25
453.751	1297.25
453.971	1390.25
454.192	1399.25
454.412	1191.25
454.633	1172.25
454.853	1105.25
455.073	1098.25
455.294	1091.25
455.514	1099.25
455.734	1080.25
455.955	1075.25
456.175	1096.25
456.395	1077.25
456.616	1098.25
456.836	1127.25
457.056	1086.25
457.276	1115.25
457.497	1147.25
457.717	1157.25
457.937	1143.25
458.157	1130.25
458.377	1161.25
458.598	1174.25
458.818	1189.25
459.038	1161.25
459.258	1177.25
459.478	1191.25
459.698	1204.25
459.918	1217.25
460.138	1241.25
460.358	1280.25
460.578	1256.25
460.798	1280.25
461.018	1273.25
461.238	1271.25
461.458	1331.25
461.678	1313.25
461.898	1345.25
462.118	1320.25
462.338	1329.25
462.558	1393.25
462.777	1397.25
462.997	1477.25
463.217	1498.25
463.437	1582.25
463.657	1535.25
463.876	1605.25
464.096	1473.25
464.316	1459.25
464.536	1382.25
464.755	1366.25
464.975	1375.25
465.195	1315.25
465.414	1268.25
465.634	1234.25
465.854	1229.25
466.073	1230.25
466.293	1229.25
466.512	1190.25
466.732	1211.25
466.951	1265.25
467.171	1356.25
467.391	1322.25
467.61	1203.25
467.829	1162.25
468.049	1197.25
468.268	1149.25
468.488	1188.25
468.707	1177.25
468.927	1198.25
469.146	1148.25
469.365	1175.25
469.585	1195.25
469.804	1218.25
470.023	1265.25
470.243	1271.25
470.462	1304.25
470.681	1350.25
470.901	1437.25
471.12	1701.25
471.339	1709.25
471.558	1425.25
471.777	1295.25
471.997	1249.25
472.216	1189.25
472.435	1201.25
472.654	1191.25
472.873	1176.25
473.092	1185.25
473.311	1181.25
473.53	1175.25
473.749	1190.25
473.968	1246.25
474.187	1177.25
474.406	1188.25
474.625	1190.25
474.844	1203.25
475.063	1178.25
475.282	1206.25
475.501	1142.25
475.72	1187.25
475.939	1199.25
476.158	1205.25
476.377	1256.25
476.596	1238.25
476.814	1246.25
477.033	1232.25
477.252	1253.25
477.471	1300.25
477.69	1284.25
477.908	1322.25
478.127	1346.25
478.346	1359.25
478.564	1338.25
478.783	1361.25
479.002	1378.25
479.22	1374.25
479.439	1385.25
479.658	1369.25
479.876	1378.25
480.095	1392.25
480.313	1417.25
480.532	1470.25
480.751	1415.25
480.969	1404.25
481.188	1400.25
481.406	1383.25
481.624	1369.25
481.843	1409.25
482.061	1373.25
482.28	1389.25
482.498	1409.25
482.717	1388.25
482.935	1417.25
483.153	1448.25
483.372	1475.25
483.59	1469.25
483.808	1468.25
484.027	1503.25
484.245	1649.25
484.463	1779.25
484.681	2001.25
484.9	1795.25
485.118	1643.25
485.336	1606.25
485.554	1664.25
485.772	1726.25
485.99	1993.25
486.209	2221.25
486.427	1825.25
486.645	1595.25
486.863	1597.25
487.081	1533.25
487.299	1529.25
487.517	1521.25
487.735	1510.25
487.953	1567.25
488.171	1527.25
488.389	1511.25
488.607	1453.25
488.825	1483.25
489.043	1429.25
489.261	1456.25
489.479	1443.25
489.696	1448.25
489.914	1471.25
490.132	1446.25
490.35	1488.25
490.568	1476.25
490.786	1502.25
491.003	1487.25
491.221	1536.25
491.439	1535.25
491.657	1498.25
491.874	1559.25
492.092	1603.25
492.31	1609.25
492.527	1594.25
492.745	1612.25
492.963	1564.25
493.18	1520.25
493.398	1539.25
493.615	1528.25
493.833	1589.25
494.05	1571.25
494.268	1536.25
494.485	1541.25
494.703	1574.25
494.92	1510.25
495.138	1521.25
495.355	1557.25
495.573	1568.25
495.79	1626.25
496.008	1557.25
496.225	1589.25
496.442	1642.25
496.66	1646.25
496.877	1715.25
497.094	1727.25
497.312	1672.25
497.529	1668.25
497.746	1680.25
497.963	1736.25
498.181	1724.25
498.398	1765.25
498.615	1838.25
498.832	1883.25
499.049	2002.25
499.267	2130.25
499.484	2266.25
499.701	2260.25
499.918	2291.25
500.135	2472.25
500.352	2581.25
500.569	2565.25
500.786	2589.25
501.003	2502.25
501.22	2365.25
501.437	2269.25
501.654	2148.25
501.871	2034.25
502.088	1950.25
502.305	1903.25
502.522	1853.25
502.739	1763.25
502.956	1737.25
503.172	1651.25
503.389	1653.25
503.606	1596.25
503.823	1590.25
504.04	1571.25
504.256	1610.25
504.473	1577.25
504.69	1584.25
504.907	1605.25
505.123	1510.25
505.34	1510.25
505.557	1481.25
505.773	1468.25
505.99	1439.25
506.207	1427.25
506.423	1434.25
506.64	1397.25
506.856	1390.25
507.073	1382.25
507.289	1407.25
507.506	1375.25
507.722	1363.25
507.939	1327.25
508.155	1336.25
508.372	1346.25
508.588	1343.25
508.805	1336.25
509.021	1322.25
509.238	1324.25
509.454	1441.25
509.67	1496.25
509.887	1394.25
510.103	1368.25
510.319	1319.25
510.536	1286.25
510.752	1295.25
510.968	1301.25
511.184	1296.25
511.401	1281.25
511.617	1289.25
511.833	1264.25
512.049	1217.25
512.265	1225.25
512.481	1285.25
512.698	1273.25
512.914	1238.25
513.13	1258.25
513.346	1279.25
513.562	1271.25
513.778	1266.25
513.994	1273.25
514.21	1336.25
514.426	1357.25
514.642	1407.25
514.858	1331.25
515.074	1289.25
515.29	1306.25
515.506	1279.25
515.721	1283.25
515.937	1279.25
516.153	1302.25
516.369	1339.25
516.585	1334.25
516.801	1343.25
517.016	1379.25
517.232	1409.25
517.448	1397.25
517.664	1445.25
517.879	1440.25
518.095	1416.25
518.311	1420.25
518.527	1417.25
518.742	1386.25
518.958	1417.25
519.173	1405.25
519.389	1392.25
519.605	1338.25
519.82	1291.25
520.036	1302.25
520.251	1282.25
520.467	1305.25
520.682	1304.25
520.898	1269.25
521.113	1266.25
521.329	1247.25
521.544	1226.25
521.76	1255.25
521.975	1254.25
522.19	1265.25
522.406	1246.25
522.621	1205.25
522.836	1236.25
523.052	1281.25
523.267	1220.25
523.482	1230.25
523.698	1226.25
523.913	1199.25
524.128	1215.25
524.343	1215.25
524.559	1207.25
524.774	1252.25
524.989	1225.25
525.204	1214.25
525.419	1238.25
525.634	1216.25
525.849	1209.25
526.064	1225.25
526.28	1197.25
526.495	1200.25
526.71	1217.25
526.925	1208.25
527.14	1223.25
527.355	1243.25
527.57	1200.25
527.785	1203.25
527.999	1224.25
528.214	1242.25
528.429	1234.25
528.644	1215.25
528.859	1286.25
529.074	1284.25
529.289	1304.25
529.503	1291.25
529.718	1315.25
529.933	1260.25
530.148	1279.25
530.363	1288.25
530.577	1277.25
530.792	1284.25
531.007	1310.25
531.221	1289.25
531.436	1306.25
531.651	1291.25
531.865	1330.25
532.08	1346.25
532.295	1361.25
532.509	1454.25
532.724	1429.25
532.938	1444.25
533.153	1484.25
533.367	1562.25
533.582	1673.25
533.796	1614.25
534.011	1607.25
534.225	1538.25
534.44	1455.25
534.654	1482.25
534.868	1430.25
535.083	1403.25
535.297	1390.25
535.511	1393.25
535.726	1342.25
535.94	1337.25
536.154	1336.25
536.369	1347.25
536.583	1284.25
536.797	1265.25
537.011	1274.25
537.225	1226.25
537.44	1222.25
537.654	1216.25
537.868	1210.25
538.082	1231.25
538.296	1201.25
538.51	1214.25
538.724	1255.25
538.938	1205.25
539.153	1234.25
539.367	1203.25
539.581	1224.25
539.795	1189.25
540.009	1191.25
540.222	1127.25
540.436	1169.25
540.65	1184.25
540.864	1189.25
541.078	1232.25
541.292	1293.25
541.506	1529.25
541.72	1589.25
541.934	1403.25
542.147	1328.25
542.361	1270.25
542.575	1222.25
542.789	1182.25
543.002	1157.25
543.216	1144.25
543.43	1121.25
543.644	1161.25
543.857	1174.25
544.071	1161.25
544.285	1176.25
544.498	1166.25
544.712	1155.25
544.925	1154.25
545.139	1173.25
545.352	1186.25
545.566	1189.25
545.779	1163.25
545.993	1177.25
546.206	1171.25
546.42	1187.25
546.633	1183.25
546.847	1141.25
547.06	1151.25
547.274	1213.25
547.487	1174.25
547.7	1181.25
547.914	1203.25
548.127	1153.25
548.34	1187.25
548.554	1180.25
548.767	1168.25
548.98	1189.25
549.193	1167.25
549.407	1195.25
549.62	1169.25
549.833	1197.25
550.046	1176.25
550.259	1173.25
550.473	1192.25
550.686	1155.25
550.899	1167.25
551.112	1189.25
551.325	1175.25
551.538	1129.25
551.751	1149.25
551.964	1145.25
552.177	1193.25
552.39	1181.25
552.603	1237.25
552.816	1270.25
553.029	1262.25
553.242	1275.25
553.455	1280.25
553.667	1305.25
553.88	1277.25
554.093	1291.25
554.306	1258.25
554.519	1296.25
554.732	1298.25
554.944	1351.25
555.157	1347.25
555.37	1398.25
555.583	1413.25
555.795	1475.25
556.008	1561.25
556.221	1699.25
556.433	1767.25
556.646	1800.25
556.859	1759.25
557.071	1691.25
557.284	1661.25
557.496	1585.25
557.709	1609.25
557.921	1609.25
558.134	1582.25
558.346	1610.25
558.559	1644.25
558.771	1715.25
558.984	1885.25
559.196	1954.25
559.409	1831.25
559.621	1777.25
559.833	1650.25
560.046	1603.25
560.258	1515.25
560.47	1450.25
560.683	1409.25
560.895	1366.25
561.107	1313.25
561.32	1305.25
561.532	1269.25
561.744	1257.25
561.956	1213.25
562.168	1199.25
562.381	1197.25
562.593	1191.25
562.805	1201.25
563.017	1205.25
563.229	1244.25
563.441	1352.25
563.653	1217.25
563.865	1085.25
564.077	1093.25
564.289	1075.25
564.501	1090.25
564.713	1086.25
564.925	1058.25
565.137	1101.25
565.349	1083.25
565.561	1086.25
565.773	1106.25
565.985	1096.25
566.197	1108.25
566.408	1136.25
566.62	1138.25
566.832	1191.25
567.044	1205.25
567.255	1201.25
567.467	1191.25
567.679	1222.25
567.891	1288.25
568.102	1433.25
568.314	1703.25
568.526	1420.25
568.737	1242.25
568.949	1117.25
569.161	1094.25
569.372	1009.25
569.584	989.25
569.795	964.25
570.007	949.25
570.218	1001.25
570.43	1018.25
570.641	943.25
570.853	937.25
571.064	919.25
571.276	884.25
571.487	914.25
571.698	864.25
571.91	878.25
572.121	864.25
572.333	850.25
572.544	863.25
572.755	905.25
572.966	1062.25
573.178	973.25
573.389	862.25
573.6	795.25
573.811	818.25
574.023	818.25
574.234	829.25
574.445	799.25
574.656	785.25
574.867	790.25
575.078	789.25
575.289	797.25
575.501	791.25
575.712	772.25
575.923	768.25
576.134	785.25
576.345	786.25
576.556	796.25
576.767	800.25
576.978	806.25
577.188	769.25
577.399	810.25
577.61	793.25
577.821	819.25
578.032	810.25
578.243	834.25
578.454	837.25
578.665	856.25
578.875	851.25
579.086	896.25
579.297	887.25
579.508	950.25
579.718	1028.25
579.929	1153.25
580.14	1328.25
580.35	1313.25
580.561	1237.25
580.772	1159.25
580.982	1111.25
581.193	1035.25
581.403	989.25
581.614	931.25
581.825	929.25
582.035	886.25
582.246	869.25
582.456	825.25
582.667	828.25
582.877	801.25
583.087	773.25
583.298	757.25
583.508	729.25
583.719	731.25
583.929	705.25
584.139	689.25
584.35	682.25
584.56	673.25
584.77	681.25
584.981	652.25
585.191	655.25
585.401	654.25
585.611	673.25
585.821	643.25
586.032	642.25
586.242	631.25
586.452	633.25
586.662	631.25
586.872	601.25
587.082	599.25
587.292	628.25
587.502	607.25
587.713	597.25
587.923	563.25
588.133	579.25
588.343	584.25
588.553	585.25
588.762	581.25
588.972	564.25
589.182	598.25
589.392	587.25
589.602	555.25
589.812	590.25
590.022	566.25
590.232	570.25
590.441	558.25
590.651	558.25
590.861	548.25
591.071	574.25
591.281	563.25
591.49	583.25
591.7	575.25
591.91	554.25
592.119	559.25
592.329	585.25
592.539	576.25
592.748	575.25
592.958	604.25
593.167	576.25
593.377	569.25
593.587	591.25
593.796	587.25
594.006	601.25
594.215	598.25
594.424	594.25
594.634	599.25
594.843	568.25
595.053	587.25
595.262	543.25
595.472	555.25
595.681	539.25
595.89	531.25
596.1	522.25
596.309	512.25
596.518	511.25
596.727	500.25
596.937	490.25
597.146	522.25
597.355	493.25
597.564	513.25
597.774	480.25
597.983	470.25
598.192	485.25
598.401	484.25
598.61	493.25
598.819	457.25
599.028	479.25
599.237	454.25
599.446	470.25
599.655	481.25
599.864	478.25
600.073	470.25
600.282	465.25
600.491	462.25
600.7	479.25
600.909	482.25
601.118	445.25
601.327	471.25
601.536	463.25
601.745	468.25
601.953	525.25
602.162	591.25
602.371	538.25
602.58	473.25
602.789	452.25
602.997	470.25
603.206	465.25
603.415	467.25
603.623	485.25
603.832	460.25
604.041	454.25
604.249	431.25
604.458	437.25
604.666	447.25
604.875	431.25
605.084	449.25
605.292	452.25
605.501	459.25
605.709	445.25
605.918	463.25
606.126	463.25
606.334	441.25
606.543	479.25
606.751	490.25
606.96	554.25
607.168	607.25
607.376	499.25
607.585	493.25
607.793	481.25
608.001	431.25
608.21	425.25
608.418	432.25
608.626	438.25
608.834	430.25
609.043	443.25
609.251	434.25
609.459	429.25
609.667	435.25
609.875	416.25
610.083	419.25
610.291	432.25
610.499	432.25
610.707	411.25
610.916	403.25
611.124	420.25
611.332	416.25
611.54	408.25
611.748	416.25
611.955	415.25
612.163	397.25
612.371	397.25
612.579	401.25
612.787	413.25
612.995	394.25
613.203	410.25
613.411	412.25
613.618	409.25
613.826	402.25
614.034	408.25
614.242	408.25
614.449	437.25
614.657	387.25
614.865	418.25
615.072	405.25
615.28	417.25
615.488	388.25
615.695	405.25
615.903	413.25
616.111	396.25
616.318	423.25
616.526	404.25
616.733	402.25
616.941	402.25
617.148	401.25
617.356	404.25
617.563	425.25
617.771	403.25
617.978	385.25
618.185	383.25
618.393	384.25
618.6	406.25
618.807	383.25
619.015	403.25
619.222	381.25
619.429	377.25
619.637	384.25
619.844	377.25
620.051	375.25
620.258	375.25
620.466	388.25
620.673	368.25
620.88	369.25
621.087	369.25
621.294	385.25
621.501	362.25
621.708	365.25
621.915	370.25
622.122	369.25
622.329	361.25
622.536	373.25
622.743	356.25
622.95	375.25
623.157	371.25
623.364	355.25
623.571	352.25
623.778	385.25
623.985	353.25
624.192	365.25
624.399	366.25
624.606	352.25
624.812	352.25
625.019	349.25
625.226	351.25
625.433	347.25
625.639	343.25
625.846	330.25
626.053	361.25
626.259	332.25
626.466	338.25
626.673	346.25
626.879	345.25
627.086	339.25
627.293	337.25
627.499	349.25
627.706	339.25
627.912	345.25
628.119	347.25
628.325	337.25
628.532	328.25
628.738	329.25
628.945	344.25
629.151	339.25
629.357	337.25
629.564	307.25
629.77	331.25
629.976	313.25
630.183	311.25
630.389	308.25
630.595	306.25
630.802	320.25
631.008	317.25
631.214	327.25
631.42	328.25
631.627	319.25
631.833	309.25
632.039	314.25
632.245	300.25
632.451	317.25
632.657	328.25
632.863	306.25
633.069	314.25
633.275	320.25
633.481	302.25
633.688	311.25
633.893	309.25
634.099	330.25
634.305	307.25
634.511	296.25
634.717	315.25
634.923	319.25
635.129	373.25
635.335	406.25
635.541	341.25
635.747	346.25
635.952	342.25
636.158	318.25
636.364	310.25
636.57	312.25
636.775	325.25
636.981	326.25
637.187	315.25
637.392	304.25
637.598	304.25
637.804	321.25
638.009	310.25
638.215	308.25
638.421	310.25
638.626	327.25
638.832	317.25
639.037	308.25
639.243	310.25
639.448	311.25
639.654	301.25
639.859	305.25
640.065	307.25
640.27	327.25
640.475	316.25
640.681	318.25
640.886	305.25
641.091	319.25
641.297	345.25
641.502	330.25
641.707	335.25
641.913	319.25
642.118	333.25
642.323	309.25
642.528	368.25
642.733	347.25
642.939	371.25
643.144	362.25
643.349	367.25
643.554	389.25
643.759	386.25
643.964	398.25
644.169	433.25
644.374	441.25
644.579	458.25
644.784	538.25
644.989	578.25
645.194	667.25
645.399	809.25
645.604	824.25
645.809	646.25
646.014	514.25
646.219	453.25
646.423	412.25
646.628	365.25
646.833	357.25
647.038	318.25
647.243	313.25
647.447	311.25
647.652	327.25
647.857	297.25
648.062	317.25
648.266	298.25
648.471	313.25
648.676	295.25
648.88	279.25
649.085	287.25
649.289	277.25
649.494	263.25
649.698	268.25
649.903	259.25
650.107	267.25
650.312	273.25
650.516	262.25
650.721	273.25
650.925	251.25
651.13	251.25
651.334	242.25
651.539	246.25
651.743	250.25
651.947	245.25
652.152	250.25
652.356	236.25
652.56	250.25
652.764	301.25
652.969	263.25
653.173	245.25
653.377	240.25
653.581	220.25
653.785	226.25
653.99	210.25
654.194	211.25
654.398	208.25
654.602	196.25
654.806	199.25
655.01	197.25
655.214	199.25
655.418	200.25
655.622	192.25
655.826	207.25
656.03	217.25
656.234	230.25
656.438	217.25
656.642	222.25
656.846	217.25
657.049	209.25
657.253	197.25
657.457	192.25
657.661	183.25
657.865	161.25
658.068	158.25
658.272	159.25
658.476	154.25
658.68	159.25
658.883	144.25
659.087	143.25
659.291	131.25
659.494	130.25
659.698	120.25
659.901	104.25
660.105	129.25
660.309	114.25
660.512	123.25
660.716	106.25
660.919	117.25
661.123	110.25
661.326	112.25
661.53	115.25
661.733	101.25
661.936	92.25
662.14	86.25
662.343	113.25
662.546	100.25
662.75	98.25
662.953	96.25
663.156	90.25
663.36	81.25
663.563	81.25
663.766	96.25
663.969	87.25
664.173	80.25
664.376	91.25
664.579	82.25
664.782	79.25
664.985	80.25
665.188	84.25
665.391	88.25
665.594	92.25
665.797	79.25
666	82.25
666.203	93.25
666.406	87.25
666.609	75.25
666.812	91.25
667.015	70.25
667.218	84.25
667.421	74.25
667.624	93.25
667.827	84.25
668.03	90.25
668.232	88.25
668.435	84.25
668.638	81.25
668.841	73.25
669.043	78.25
669.246	68.25
669.449	95.25
669.651	86.25
669.854	84.25
670.057	94.25
670.259	81.25
670.462	93.25
670.665	75.25
670.867	84.25
671.07	83.25
671.272	98.25
671.475	82.25
671.677	74.25
671.88	76.25
672.082	86.25
672.284	78.25
672.487	81.25
672.689	86.25
672.892	86.25
