Data from SnStandardFlinnAPT0064_LampEnergy10_LIBS07252019.E.O._I.C._HRD10591_15-21-56-494.txt Node
Date: Thu Jul 25 15:21:56 EDT 2019
User: cochatt
Spectrometer: HR+D1059
Trigger mode: 1
Integration Time (sec): 1.000000E-1
Scans to average: 1
Electric dark correction enabled: true
Nonlinearity correction enabled: false
Boxcar width: 0
XAxis mode: Wavelengths
Number of Pixels in Spectrum: 2048
>>>>>Begin Spectral Data<<<<<
223.165	-8.06
223.4	-8.06
223.635	-8.06
223.869	-21.06
224.104	-23.06
224.338	-16.06
224.573	-25.06
224.808	-10.06
225.042	-8.06
225.277	-4.06
225.511	1.94
225.746	-1.06
225.98	1.94
226.215	5.94
226.449	27.94
226.683	32.94
226.918	13.94
227.152	31.94
227.387	39.94
227.621	35.94
227.856	55.94
228.09	39.94
228.324	43.94
228.559	56.94
228.793	123.94
229.027	307.94
229.262	339.94
229.496	315.94
229.73	305.94
229.964	301.94
230.199	310.94
230.433	309.94
230.667	312.94
230.901	319.94
231.136	323.94
231.37	357.94
231.604	373.94
231.838	438.94
232.072	545.94
232.306	579.94
232.541	469.94
232.775	428.94
233.009	416.94
233.243	429.94
233.477	439.94
233.711	502.94
233.945	573.94
234.179	484.94
234.413	446.94
234.647	456.94
234.881	468.94
235.115	513.94
235.349	609.94
235.583	761.94
235.817	975.94
236.051	949.94
236.285	647.94
236.519	526.94
236.753	511.94
236.987	487.94
237.221	541.94
237.455	515.94
237.689	483.94
237.922	451.94
238.156	452.94
238.39	515.94
238.624	502.94
238.858	478.94
239.091	486.94
239.325	496.94
239.559	523.94
239.793	503.94
240.027	494.94
240.26	520.94
240.494	546.94
240.728	580.94
240.961	600.94
241.195	653.94
241.429	665.94
241.662	683.94
241.896	768.94
242.13	918.94
242.363	1270.94
242.597	1589.94
242.83	1539.94
243.064	1551.94
243.298	1768.94
243.531	1488.94
243.765	952.94
243.998	793.94
244.232	694.94
244.465	675.94
244.699	633.94
244.932	647.94
245.166	669.94
245.399	683.94
245.633	665.94
245.866	691.94
246.099	652.94
246.333	631.94
246.566	622.94
246.8	621.94
247.033	641.94
247.266	668.94
247.5	645.94
247.733	655.94
247.966	722.94
248.2	770.94
248.433	863.94
248.666	988.94
248.899	945.94
249.133	845.94
249.366	850.94
249.599	961.94
249.832	1110.94
250.066	1085.94
250.299	872.94
250.532	747.94
250.765	732.94
250.998	757.94
251.231	736.94
251.465	733.94
251.698	752.94
251.931	730.94
252.164	752.94
252.397	747.94
252.63	795.94
252.863	785.94
253.096	750.94
253.329	787.94
253.562	783.94
253.795	791.94
254.028	792.94
254.261	826.94
254.494	861.94
254.727	1029.94
254.96	1197.94
255.193	1226.94
255.426	969.94
255.659	885.94
255.892	868.94
256.124	857.94
256.357	865.94
256.59	912.94
256.823	1003.94
257.056	1111.94
257.289	1341.94
257.521	1481.94
257.754	1214.94
257.987	984.94
258.22	932.94
258.452	905.94
258.685	911.94
258.918	913.94
259.151	999.94
259.383	1079.94
259.616	1199.94
259.849	1282.94
260.081	1097.94
260.314	976.94
260.547	958.94
260.779	952.94
261.012	950.94
261.244	960.94
261.477	976.94
261.71	993.94
261.942	990.94
262.175	1011.94
262.407	1053.94
262.64	1039.94
262.872	1099.94
263.105	1137.94
263.337	1239.94
263.57	1263.94
263.802	1316.94
264.035	1315.94
264.267	1383.94
264.499	1376.94
264.732	1409.94
264.964	1440.94
265.197	1458.94
265.429	1469.94
265.661	1501.94
265.894	1567.94
266.126	1765.94
266.358	1982.94
266.591	1913.94
266.823	1601.94
267.055	1427.94
267.287	1414.94
267.52	1336.94
267.752	1320.94
267.984	1294.94
268.216	1250.94
268.448	1229.94
268.681	1240.94
268.913	1228.94
269.145	1195.94
269.377	1221.94
269.609	1266.94
269.841	1299.94
270.073	1386.94
270.306	1634.94
270.538	2151.94
270.77	3182.94
271.002	3923.94
271.234	2761.94
271.466	1894.94
271.698	1549.94
271.93	1421.94
272.162	1320.94
272.394	1301.94
272.626	1249.94
272.858	1244.94
273.09	1239.94
273.322	1252.94
273.553	1190.94
273.785	1188.94
274.017	1206.94
274.249	1211.94
274.481	1217.94
274.713	1199.94
274.945	1209.94
275.176	1237.94
275.408	1228.94
275.64	1219.94
275.872	1223.94
276.104	1217.94
276.335	1242.94
276.567	1279.94
276.799	1299.94
277.031	1323.94
277.262	1355.94
277.494	1382.94
277.726	1549.94
277.957	1892.94
278.189	2107.94
278.421	1980.94
278.652	1755.94
278.884	1663.94
279.115	1517.94
279.347	1423.94
279.579	1394.94
279.81	1362.94
280.042	1395.94
280.273	1441.94
280.505	1467.94
280.736	1545.94
280.968	1628.94
281.199	1759.94
281.431	2044.94
281.662	2072.94
281.894	1799.94
282.125	1624.94
282.356	1636.94
282.588	1669.94
282.819	1711.94
283.051	1824.94
283.282	2032.94
283.513	2462.94
283.745	3576.94
283.976	5661.94
284.207	7923.94
284.439	7257.94
284.67	4516.94
284.901	3661.94
285.132	3726.94
285.364	3550.94
285.595	2712.94
285.826	2394.94
286.057	2835.94
286.288	3878.94
286.52	5251.94
286.751	4811.94
286.982	2996.94
287.213	2299.94
287.444	1976.94
287.675	1865.94
287.906	1790.94
288.138	1766.94
288.369	1707.94
288.6	1693.94
288.831	1677.94
289.062	1679.94
289.293	1672.94
289.524	1656.94
289.755	1703.94
289.986	1699.94
290.217	1714.94
290.448	1684.94
290.679	1726.94
290.91	1779.94
291.141	1909.94
291.371	2049.94
291.602	2143.94
291.833	1921.94
292.064	1755.94
292.295	1711.94
292.526	1621.94
292.757	1627.94
292.987	1599.94
293.218	1598.94
293.449	1589.94
293.68	1606.94
293.91	1587.94
294.141	1583.94
294.372	1582.94
294.603	1561.94
294.833	1562.94
295.064	1590.94
295.295	1592.94
295.525	1530.94
295.756	1557.94
295.987	1549.94
296.217	1562.94
296.448	1568.94
296.679	1571.94
296.909	1613.94
297.14	1645.94
297.37	1611.94
297.601	1643.94
297.831	1625.94
298.062	1596.94
298.292	1655.94
298.523	1688.94
298.753	1693.94
298.984	1673.94
299.214	1715.94
299.445	1742.94
299.675	1772.94
299.905	1863.94
300.136	1913.94
300.366	2185.94
300.597	2703.94
300.827	3816.94
301.057	5235.94
301.288	5239.94
301.518	3333.94
301.748	2561.94
301.979	2351.94
302.209	2257.94
302.439	2324.94
302.669	2487.94
302.9	2945.94
303.13	4126.94
303.36	6236.94
303.59	8221.94
303.82	7123.94
304.051	4159.94
304.281	3023.94
304.511	2535.94
304.741	2337.94
304.971	2192.94
305.201	2060.94
305.431	2014.94
305.661	2020.94
305.891	1945.94
306.121	1886.94
306.352	1843.94
306.582	1859.94
306.812	1844.94
307.042	1838.94
307.272	1829.94
307.502	1858.94
307.731	1836.94
307.961	1857.94
308.191	1826.94
308.421	1806.94
308.651	1818.94
308.881	1791.94
309.111	1812.94
309.341	1827.94
309.571	1845.94
309.8	1822.94
310.03	1877.94
310.26	1870.94
310.49	1860.94
310.72	1890.94
310.949	1860.94
311.179	1882.94
311.409	1914.94
311.639	1951.94
311.868	1944.94
312.098	1917.94
312.328	1983.94
312.557	1971.94
312.787	1991.94
313.017	1947.94
313.246	1949.94
313.476	1983.94
313.706	2095.94
313.935	2207.94
314.165	2353.94
314.394	2485.94
314.624	2370.94
314.853	2165.94
315.083	2135.94
315.312	2167.94
315.542	2189.94
315.771	2223.94
316.001	2242.94
316.23	2269.94
316.46	2406.94
316.689	2627.94
316.919	3185.94
317.148	4609.94
317.377	7087.94
317.607	10472.94
317.836	10868.94
318.065	6505.94
318.295	4219.94
318.524	3387.94
318.753	2939.94
318.983	2733.94
319.212	2557.94
319.441	2503.94
319.67	2454.94
319.9	2387.94
320.129	2381.94
320.358	2364.94
320.587	2320.94
320.816	2341.94
321.046	2359.94
321.275	2321.94
321.504	2385.94
321.733	2451.94
321.962	2528.94
322.191	2552.94
322.42	2534.94
322.649	2479.94
322.878	2471.94
323.108	2495.94
323.337	2513.94
323.566	2594.94
323.795	2633.94
324.024	2689.94
324.253	2736.94
324.482	2893.94
324.71	2988.94
324.939	3189.94
325.168	3307.94
325.397	3389.94
325.626	3970.94
325.855	5673.94
326.084	8733.94
326.313	12664.94
326.542	13370.94
326.77	9091.94
326.999	5831.94
327.228	4960.94
327.457	4661.94
327.686	4749.94
327.914	5125.94
328.143	5963.94
328.372	7191.94
328.6	7751.94
328.829	6903.94
329.058	5789.94
329.287	5065.94
329.515	4687.94
329.744	4237.94
329.972	4019.94
330.201	3817.94
330.43	3755.94
330.658	3621.94
330.887	3549.94
331.115	3571.94
331.344	3455.94
331.572	3509.94
331.801	3524.94
332.03	3563.94
332.258	3602.94
332.486	3734.94
332.715	4377.94
332.943	5361.94
333.172	6600.94
333.4	6545.94
333.629	4963.94
333.857	4508.94
334.085	4543.94
334.314	4812.94
334.542	5060.94
334.771	5978.94
334.999	7417.94
335.227	9452.94
335.455	10455.94
335.684	9335.94
335.912	7573.94
336.14	6469.94
336.369	5643.94
336.597	5241.94
336.825	4769.94
337.053	4469.94
337.281	4291.94
337.51	4006.94
337.738	3855.94
337.966	3721.94
338.194	3605.94
338.422	3453.94
338.65	3391.94
338.878	3339.94
339.106	3230.94
339.334	3245.94
339.562	3191.94
339.79	3065.94
340.018	3070.94
340.246	3053.94
340.474	3035.94
340.702	3042.94
340.93	3040.94
341.158	3093.94
341.386	3030.94
341.614	2956.94
341.842	2920.94
342.07	2897.94
342.298	2828.94
342.526	2798.94
342.754	2734.94
342.981	2722.94
343.209	2750.94
343.437	2748.94
343.665	2796.94
343.893	2824.94
344.12	2831.94
344.348	2840.94
344.576	2729.94
344.804	2679.94
345.031	2632.94
345.259	2623.94
345.487	2566.94
345.714	2583.94
345.942	2547.94
346.17	2576.94
346.397	2576.94
346.625	2556.94
346.853	2519.94
347.08	2493.94
347.308	2508.94
347.535	2518.94
347.763	2550.94
347.99	2493.94
348.218	2483.94
348.445	2512.94
348.673	2513.94
348.9	2523.94
349.128	2457.94
349.355	2460.94
349.583	2481.94
349.81	2437.94
350.037	2445.94
350.265	2405.94
350.492	2408.94
350.72	2388.94
350.947	2412.94
351.174	2453.94
351.402	2429.94
351.629	2416.94
351.856	2355.94
352.083	2383.94
352.311	2391.94
352.538	2423.94
352.765	2376.94
352.992	2369.94
353.22	2346.94
353.447	2369.94
353.674	2382.94
353.901	2428.94
354.128	2384.94
354.355	2425.94
354.583	2392.94
354.81	2454.94
355.037	2428.94
355.264	2411.94
355.491	2411.94
355.718	2484.94
355.945	2405.94
356.172	2409.94
356.399	2512.94
356.626	2479.94
356.853	2516.94
357.08	2498.94
357.307	2568.94
357.534	2581.94
357.761	2583.94
357.988	2631.94
358.215	2582.94
358.441	2572.94
358.668	2536.94
358.895	2583.94
359.122	2544.94
359.349	2505.94
359.576	2596.94
359.802	2541.94
360.029	2549.94
360.256	2526.94
360.483	2574.94
360.709	2544.94
360.936	2560.94
361.163	2577.94
361.39	2545.94
361.616	2546.94
361.843	2603.94
362.07	2608.94
362.296	2580.94
362.523	2591.94
362.749	2578.94
362.976	2569.94
363.203	2595.94
363.429	2556.94
363.656	2541.94
363.882	2572.94
364.109	2562.94
364.335	2539.94
364.562	2565.94
364.788	2567.94
365.015	2616.94
365.241	2670.94
365.468	2804.94
365.694	2960.94
365.92	2861.94
366.147	2677.94
366.373	2659.94
366.599	2611.94
366.826	2642.94
367.052	2573.94
367.278	2613.94
367.505	2623.94
367.731	2593.94
367.957	2598.94
368.184	2601.94
368.41	2635.94
368.636	2731.94
368.862	2655.94
369.089	2630.94
369.315	2667.94
369.541	2653.94
369.767	2648.94
369.993	2647.94
370.219	2671.94
370.445	2661.94
370.672	2697.94
370.898	2715.94
371.124	2685.94
371.35	2703.94
371.576	2751.94
371.802	2740.94
372.028	2764.94
372.254	2735.94
372.48	2775.94
372.706	2839.94
372.932	2794.94
373.158	2806.94
373.384	2867.94
373.61	2797.94
373.835	2829.94
374.061	2796.94
374.287	2900.94
374.513	2903.94
374.739	2885.94
374.965	2899.94
375.191	2907.94
375.416	2943.94
375.642	2859.94
375.868	2903.94
376.094	2848.94
376.319	2850.94
376.545	2818.94
376.771	2769.94
376.997	2772.94
377.222	2759.94
377.448	2707.94
377.674	2737.94
377.899	2725.94
378.125	2770.94
378.35	2723.94
378.576	2743.94
378.802	2760.94
379.027	2837.94
379.253	2936.94
379.478	3102.94
379.704	3635.94
379.929	5224.94
380.155	7915.94
380.38	8612.94
380.606	5227.94
380.831	3700.94
381.057	3219.94
381.282	2978.94
381.507	2883.94
381.733	2859.94
381.958	2774.94
382.184	2738.94
382.409	2723.94
382.634	2699.94
382.86	2696.94
383.085	2698.94
383.31	2731.94
383.535	2724.94
383.761	2695.94
383.986	2747.94
384.211	2779.94
384.436	2781.94
384.662	2770.94
384.887	2778.94
385.112	2756.94
385.337	2799.94
385.562	2759.94
385.787	2782.94
386.013	2840.94
386.238	2795.94
386.463	2767.94
386.688	2839.94
386.913	2767.94
387.138	2775.94
387.363	2810.94
387.588	2754.94
387.813	2767.94
388.038	2758.94
388.263	2801.94
388.488	2811.94
388.713	2778.94
388.938	2747.94
389.163	2770.94
389.387	2794.94
389.612	2777.94
389.837	2771.94
390.062	2783.94
390.287	2822.94
390.512	2787.94
390.736	2863.94
390.961	2888.94
391.186	2888.94
391.411	2923.94
391.636	2947.94
391.86	2970.94
392.085	2929.94
392.31	2919.94
392.534	2863.94
392.759	2839.94
392.984	2893.94
393.208	2878.94
393.433	2849.94
393.658	2877.94
393.882	2807.94
394.107	2838.94
394.331	2823.94
394.556	2854.94
394.78	2819.94
395.005	2879.94
395.229	2825.94
395.454	2912.94
395.678	2943.94
395.903	2902.94
396.127	2944.94
396.352	2903.94
396.576	2854.94
396.801	2887.94
397.025	2923.94
397.249	2900.94
397.474	2941.94
397.698	2920.94
397.922	2971.94
398.147	2945.94
398.371	2996.94
398.595	3035.94
398.82	3131.94
399.044	3198.94
399.268	3373.94
399.492	3585.94
399.717	3709.94
399.941	3705.94
400.165	3571.94
400.389	3396.94
400.613	3281.94
400.837	3199.94
401.062	3109.94
401.286	3115.94
401.51	3044.94
401.734	3034.94
401.958	3080.94
402.182	3101.94
402.406	3078.94
402.63	3059.94
402.854	3088.94
403.078	3136.94
403.302	3168.94
403.526	3219.94
403.75	3222.94
403.974	3192.94
404.198	3141.94
404.422	3259.94
404.645	3185.94
404.869	3205.94
405.093	3167.94
405.317	3215.94
405.541	3235.94
405.765	3288.94
405.988	3303.94
406.212	3321.94
406.436	3230.94
406.66	3315.94
406.883	3293.94
407.107	3403.94
407.331	3512.94
407.555	3486.94
407.778	3427.94
408.002	3479.94
408.226	3392.94
408.449	3395.94
408.673	3345.94
408.896	3228.94
409.12	3283.94
409.344	3248.94
409.567	3190.94
409.791	3238.94
410.014	3184.94
410.238	3162.94
410.461	3239.94
410.685	3181.94
410.908	3115.94
411.132	3161.94
411.355	3050.94
411.578	3073.94
411.802	3062.94
412.025	3047.94
412.249	3057.94
412.472	3047.94
412.695	3069.94
412.919	2977.94
413.142	3057.94
413.365	3032.94
413.589	3044.94
413.812	2995.94
414.035	3029.94
414.258	3016.94
414.482	2980.94
414.705	2993.94
414.928	2989.94
415.151	3021.94
415.374	2936.94
415.597	2967.94
415.821	2897.94
416.044	2923.94
416.267	2865.94
416.49	2882.94
416.713	2886.94
416.936	2904.94
417.159	2833.94
417.382	2876.94
417.605	2831.94
417.828	2871.94
418.051	2919.94
418.274	2932.94
418.497	2936.94
418.72	3020.94
418.943	2953.94
419.166	3071.94
419.389	3276.94
419.611	3211.94
419.834	3067.94
420.057	2984.94
420.28	2981.94
420.503	2879.94
420.726	2827.94
420.948	2878.94
421.171	2859.94
421.394	2918.94
421.617	2911.94
421.839	2934.94
422.062	2914.94
422.285	2849.94
422.507	2966.94
422.73	2953.94
422.953	2981.94
423.175	3006.94
423.398	2954.94
423.621	2911.94
423.843	2928.94
424.066	2950.94
424.288	2896.94
424.511	2904.94
424.733	2910.94
424.956	2850.94
425.178	2850.94
425.401	2820.94
425.623	2870.94
425.846	2777.94
426.068	2753.94
426.291	2824.94
426.513	2735.94
426.735	2796.94
426.958	2827.94
427.18	2740.94
427.402	2731.94
427.625	2708.94
427.847	2631.94
428.069	2659.94
428.292	2702.94
428.514	2684.94
428.736	2721.94
428.958	2701.94
429.181	2681.94
429.403	2634.94
429.625	2659.94
429.847	2713.94
430.069	2713.94
430.292	2777.94
430.514	2887.94
430.736	2876.94
430.958	2747.94
431.18	2660.94
431.402	2667.94
431.624	2621.94
431.846	2626.94
432.068	2605.94
432.29	2586.94
432.512	2609.94
432.734	2676.94
432.956	2645.94
433.178	2656.94
433.4	2675.94
433.622	2687.94
433.844	2684.94
434.066	2628.94
434.287	2659.94
434.509	2693.94
434.731	2773.94
434.953	2753.94
435.175	2792.94
435.397	2778.94
435.618	2745.94
435.84	2671.94
436.062	2663.94
436.284	2661.94
436.505	2623.94
436.727	2655.94
436.949	2671.94
437.17	2632.94
437.392	2569.94
437.614	2578.94
437.835	2552.94
438.057	2572.94
438.278	2584.94
438.5	2585.94
438.721	2589.94
438.943	2659.94
439.165	2743.94
439.386	2749.94
439.608	2760.94
439.829	2720.94
440.05	2819.94
440.272	2926.94
440.493	2735.94
440.715	2708.94
440.936	2695.94
441.158	2786.94
441.379	2823.94
441.6	2886.94
441.822	2920.94
442.043	3119.94
442.264	3148.94
442.486	2969.94
442.707	2882.94
442.928	2838.94
443.149	2839.94
443.371	2814.94
443.592	2839.94
443.813	2844.94
444.034	2877.94
444.255	2851.94
444.476	2936.94
444.698	2986.94
444.919	3079.94
445.14	3108.94
445.361	3013.94
445.582	2861.94
445.803	2790.94
446.024	2835.94
446.245	2867.94
446.466	2822.94
446.687	2779.94
446.908	2776.94
447.129	2689.94
447.35	2655.94
447.571	2655.94
447.792	2607.94
448.013	2581.94
448.234	2550.94
448.455	2603.94
448.675	2668.94
448.896	2660.94
449.117	2777.94
449.338	3025.94
449.559	3139.94
449.779	2801.94
450	2585.94
450.221	2600.94
450.442	2554.94
450.662	2581.94
450.883	2572.94
451.104	2559.94
451.324	2539.94
451.545	2561.94
451.766	2590.94
451.986	2598.94
452.207	2827.94
452.428	3604.94
452.648	5579.94
452.869	4578.94
453.089	3149.94
453.31	2994.94
453.53	2968.94
453.751	3056.94
453.971	3139.94
454.192	3126.94
454.412	2711.94
454.633	2595.94
454.853	2529.94
455.073	2468.94
455.294	2491.94
455.514	2412.94
455.734	2432.94
455.955	2418.94
456.175	2424.94
456.395	2431.94
456.616	2442.94
456.836	2495.94
457.056	2512.94
457.276	2459.94
457.497	2637.94
457.717	2662.94
457.937	2555.94
458.157	2601.94
458.377	2565.94
458.598	2564.94
458.818	2649.94
459.038	2644.94
459.258	2637.94
459.478	2663.94
459.698	2711.94
459.918	2719.94
460.138	2745.94
460.358	2819.94
460.578	2809.94
460.798	2863.94
461.018	2911.94
461.238	2904.94
461.458	2875.94
461.678	2949.94
461.898	2999.94
462.118	2997.94
462.338	3101.94
462.558	3086.94
462.777	3167.94
462.997	3250.94
463.217	3375.94
463.437	3550.94
463.657	3599.94
463.876	3553.94
464.096	3394.94
464.316	3235.94
464.536	3187.94
464.755	3099.94
464.975	3071.94
465.195	2966.94
465.414	2821.94
465.634	2726.94
465.854	2753.94
466.073	2754.94
466.293	2670.94
466.512	2659.94
466.732	2689.94
466.951	2872.94
467.171	2997.94
467.391	2942.94
467.61	2699.94
467.829	2642.94
468.049	2631.94
468.268	2573.94
468.488	2557.94
468.707	2530.94
468.927	2544.94
469.146	2548.94
469.365	2609.94
469.585	2626.94
469.804	2747.94
470.023	2749.94
470.243	2792.94
470.462	2926.94
470.681	3021.94
470.901	3323.94
471.12	3800.94
471.339	3793.94
471.558	3179.94
471.777	2902.94
471.997	2788.94
472.216	2682.94
472.435	2653.94
472.654	2675.94
472.873	2590.94
473.092	2656.94
473.311	2622.94
473.53	2613.94
473.749	2660.94
473.968	2781.94
474.187	2695.94
474.406	2613.94
474.625	2621.94
474.844	2627.94
475.063	2665.94
475.282	2644.94
475.501	2654.94
475.72	2662.94
475.939	2660.94
476.158	2710.94
476.377	2823.94
476.596	2781.94
476.814	2786.94
477.033	2760.94
477.252	2771.94
477.471	2804.94
477.69	2888.94
477.908	2945.94
478.127	2968.94
478.346	3006.94
478.564	2962.94
478.783	3032.94
479.002	3115.94
479.22	3125.94
479.439	3168.94
479.658	3097.94
479.876	3130.94
480.095	3144.94
480.313	3286.94
480.532	3247.94
480.751	3261.94
480.969	3224.94
481.188	3169.94
481.406	3105.94
481.624	3138.94
481.843	3193.94
482.061	3189.94
482.28	3142.94
482.498	3127.94
482.717	3199.94
482.935	3189.94
483.153	3250.94
483.372	3263.94
483.59	3346.94
483.808	3335.94
484.027	3464.94
484.245	3628.94
484.463	4155.94
484.681	4476.94
484.9	4040.94
485.118	3907.94
485.336	3734.94
485.554	3804.94
485.772	4061.94
485.99	4591.94
486.209	4937.94
486.427	4187.94
486.645	3667.94
486.863	3548.94
487.081	3483.94
487.299	3432.94
487.517	3395.94
487.735	3401.94
487.953	3337.94
488.171	3406.94
488.389	3332.94
488.607	3321.94
488.825	3286.94
489.043	3229.94
489.261	3237.94
489.479	3317.94
489.696	3213.94
489.914	3259.94
490.132	3323.94
490.35	3303.94
490.568	3358.94
490.786	3309.94
491.003	3387.94
491.221	3415.94
491.439	3417.94
491.657	3350.94
491.874	3382.94
492.092	3372.94
492.31	3447.94
492.527	3396.94
492.745	3411.94
492.963	3410.94
493.18	3416.94
493.398	3361.94
493.615	3427.94
493.833	3401.94
494.05	3385.94
494.268	3448.94
494.485	3426.94
494.703	3475.94
494.92	3431.94
495.138	3457.94
495.355	3425.94
495.573	3445.94
495.79	3480.94
496.008	3486.94
496.225	3556.94
496.442	3552.94
496.66	3654.94
496.877	3825.94
497.094	3824.94
497.312	3727.94
497.529	3713.94
497.746	3793.94
497.963	3833.94
498.181	3904.94
498.398	4012.94
498.615	4123.94
498.832	4262.94
499.049	4470.94
499.267	4752.94
499.484	5064.94
499.701	5057.94
499.918	5186.94
500.135	5478.94
500.352	5830.94
500.569	5801.94
500.786	5751.94
501.003	5630.94
501.22	5350.94
501.437	5080.94
501.654	4804.94
501.871	4609.94
502.088	4393.94
502.305	4270.94
502.522	4163.94
502.739	3987.94
502.956	3887.94
503.172	3831.94
503.389	3716.94
503.606	3707.94
503.823	3587.94
504.04	3566.94
504.256	3523.94
504.473	3584.94
504.69	3585.94
504.907	3532.94
505.123	3491.94
505.34	3379.94
505.557	3289.94
505.773	3284.94
505.99	3232.94
506.207	3207.94
506.423	3160.94
506.64	3160.94
506.856	3108.94
507.073	3054.94
507.289	3059.94
507.506	3047.94
507.722	3019.94
507.939	3029.94
508.155	2972.94
508.372	2972.94
508.588	2934.94
508.805	2941.94
509.021	2944.94
509.238	3067.94
509.454	3163.94
509.67	3391.94
509.887	3101.94
510.103	3024.94
510.319	3009.94
510.536	2970.94
510.752	2940.94
510.968	2907.94
511.184	2909.94
511.401	2913.94
511.617	2851.94
511.833	2873.94
512.049	2851.94
512.265	2868.94
512.481	2856.94
512.698	2839.94
512.914	2843.94
513.13	2821.94
513.346	2804.94
513.562	2779.94
513.778	2893.94
513.994	2945.94
514.21	2966.94
514.426	3174.94
514.642	3352.94
514.858	3047.94
515.074	2931.94
515.29	2904.94
515.506	2883.94
515.721	2956.94
515.937	2920.94
516.153	2939.94
516.369	3021.94
516.585	2969.94
516.801	3035.94
517.016	3089.94
517.232	3179.94
517.448	3227.94
517.664	3279.94
517.879	3258.94
518.095	3299.94
518.311	3211.94
518.527	3168.94
518.742	3162.94
518.958	3191.94
519.173	3306.94
519.389	3087.94
519.605	3036.94
519.82	2966.94
520.036	2934.94
520.251	2865.94
520.467	2823.94
520.682	2813.94
520.898	2851.94
521.113	2833.94
521.329	2797.94
521.544	2779.94
521.76	2835.94
521.975	2812.94
522.19	2818.94
522.406	2754.94
522.621	2756.94
522.836	2769.94
523.052	2724.94
523.267	2709.94
523.482	2731.94
523.698	2737.94
523.913	2735.94
524.128	2740.94
524.343	2699.94
524.559	2685.94
524.774	2680.94
524.989	2697.94
525.204	2739.94
525.419	2675.94
525.634	2675.94
525.849	2710.94
526.064	2709.94
526.28	2722.94
526.495	2728.94
526.71	2714.94
526.925	2735.94
527.14	2741.94
527.355	2774.94
527.57	2702.94
527.785	2731.94
527.999	2726.94
528.214	2793.94
528.429	2769.94
528.644	2807.94
528.859	2875.94
529.074	2908.94
529.289	2915.94
529.503	2944.94
529.718	2934.94
529.933	2885.94
530.148	2896.94
530.363	2892.94
530.577	2919.94
530.792	2971.94
531.007	2935.94
531.221	2920.94
531.436	2995.94
531.651	2980.94
531.865	3045.94
532.08	3076.94
532.295	3231.94
532.509	3375.94
532.724	3403.94
532.938	3396.94
533.153	3635.94
533.367	3876.94
533.582	4043.94
533.796	3951.94
534.011	3695.94
534.225	3623.94
534.44	3428.94
534.654	3363.94
534.868	3292.94
535.083	3254.94
535.297	3268.94
535.511	3173.94
535.726	3150.94
535.94	3069.94
536.154	2997.94
536.369	3005.94
536.583	2959.94
536.797	2892.94
537.011	2911.94
537.225	2819.94
537.44	2820.94
537.654	2792.94
537.868	2785.94
538.082	2723.94
538.296	2679.94
538.51	2708.94
538.724	2732.94
538.938	2683.94
539.153	2683.94
539.367	2691.94
539.581	2614.94
539.795	2668.94
540.009	2628.94
540.222	2608.94
540.436	2639.94
540.65	2637.94
540.864	2688.94
541.078	2701.94
541.292	2878.94
541.506	3359.94
541.72	3525.94
541.934	3057.94
542.147	2905.94
542.361	2763.94
542.575	2625.94
542.789	2627.94
543.002	2555.94
543.216	2536.94
543.43	2563.94
543.644	2529.94
543.857	2520.94
544.071	2492.94
544.285	2549.94
544.498	2531.94
544.712	2507.94
544.925	2572.94
545.139	2562.94
545.352	2524.94
545.566	2525.94
545.779	2517.94
545.993	2546.94
546.206	2563.94
546.42	2552.94
546.633	2510.94
546.847	2537.94
547.06	2553.94
547.274	2525.94
547.487	2516.94
547.7	2606.94
547.914	2561.94
548.127	2579.94
548.34	2551.94
548.554	2536.94
548.767	2580.94
548.98	2542.94
549.193	2475.94
549.407	2533.94
549.62	2574.94
549.833	2551.94
550.046	2523.94
550.259	2568.94
550.473	2526.94
550.686	2529.94
550.899	2590.94
551.112	2566.94
551.325	2581.94
551.538	2551.94
551.751	2575.94
551.964	2537.94
552.177	2593.94
552.39	2627.94
552.603	2676.94
552.816	2738.94
553.029	2755.94
553.242	2746.94
553.455	2877.94
553.667	2813.94
553.88	2836.94
554.093	2884.94
554.306	2822.94
554.519	2855.94
554.732	2924.94
554.944	3014.94
555.157	3091.94
555.37	3147.94
555.583	3234.94
555.795	3409.94
556.008	3701.94
556.221	4192.94
556.433	4535.94
556.646	4531.94
556.859	4190.94
557.071	4027.94
557.284	3935.94
557.496	3798.94
557.709	3704.94
557.921	3709.94
558.134	3614.94
558.346	3719.94
558.559	3918.94
558.771	4069.94
558.984	4493.94
559.196	4893.94
559.409	4629.94
559.621	4224.94
559.833	4015.94
560.046	3703.94
560.258	3509.94
560.47	3355.94
560.683	3230.94
560.895	3126.94
561.107	3059.94
561.32	2947.94
561.532	2848.94
561.744	2819.94
561.956	2709.94
562.168	2669.94
562.381	2686.94
562.593	2599.94
562.805	2694.94
563.017	2703.94
563.229	2748.94
563.441	3208.94
563.653	2701.94
563.865	2488.94
564.077	2472.94
564.289	2424.94
564.501	2388.94
564.713	2370.94
564.925	2363.94
565.137	2373.94
565.349	2334.94
565.561	2374.94
565.773	2397.94
565.985	2436.94
566.197	2433.94
566.408	2481.94
566.62	2541.94
566.832	2608.94
567.044	2615.94
567.255	2657.94
567.467	2647.94
567.679	2716.94
567.891	2862.94
568.102	3112.94
568.314	3653.94
568.526	3123.94
568.737	2754.94
568.949	2491.94
569.161	2336.94
569.372	2259.94
569.584	2230.94
569.795	2159.94
570.007	2139.94
570.218	2192.94
570.43	2254.94
570.641	2082.94
570.853	1980.94
571.064	1949.94
571.276	1964.94
571.487	1941.94
571.698	1900.94
571.91	1907.94
572.121	1888.94
572.333	1858.94
572.544	1887.94
572.755	2012.94
572.966	2312.94
573.178	2126.94
573.389	1913.94
573.6	1811.94
573.811	1795.94
574.023	1714.94
574.234	1727.94
574.445	1751.94
574.656	1730.94
574.867	1703.94
575.078	1727.94
575.289	1712.94
575.501	1727.94
575.712	1699.94
575.923	1719.94
576.134	1713.94
576.345	1701.94
576.556	1709.94
576.767	1698.94
576.978	1751.94
577.188	1721.94
577.399	1736.94
577.61	1733.94
577.821	1780.94
578.032	1769.94
578.243	1806.94
578.454	1831.94
578.665	1887.94
578.875	1939.94
579.086	1999.94
579.297	2088.94
579.508	2224.94
579.718	2436.94
579.929	2785.94
580.14	3362.94
580.35	3352.94
580.561	3007.94
580.772	2690.94
580.982	2524.94
581.193	2311.94
581.403	2223.94
581.614	2123.94
581.825	2049.94
582.035	1902.94
582.246	1913.94
582.456	1853.94
582.667	1805.94
582.877	1788.94
583.087	1702.94
583.298	1627.94
583.508	1609.94
583.719	1581.94
583.929	1583.94
584.139	1490.94
584.35	1519.94
584.56	1497.94
584.77	1460.94
584.981	1436.94
585.191	1403.94
585.401	1373.94
585.611	1363.94
585.821	1377.94
586.032	1363.94
586.242	1359.94
586.452	1334.94
586.662	1331.94
586.872	1338.94
587.082	1297.94
587.292	1295.94
587.502	1256.94
587.713	1239.94
587.923	1258.94
588.133	1237.94
588.343	1258.94
588.553	1239.94
588.762	1204.94
588.972	1212.94
589.182	1241.94
589.392	1218.94
589.602	1210.94
589.812	1190.94
590.022	1181.94
590.232	1176.94
590.441	1192.94
590.651	1198.94
590.861	1145.94
591.071	1198.94
591.281	1156.94
591.49	1168.94
591.7	1190.94
591.91	1209.94
592.119	1156.94
592.329	1212.94
592.539	1205.94
592.748	1225.94
592.958	1212.94
593.167	1201.94
593.377	1240.94
593.587	1239.94
593.796	1223.94
594.006	1217.94
594.215	1211.94
594.424	1183.94
594.634	1202.94
594.843	1185.94
595.053	1151.94
595.262	1154.94
595.472	1149.94
595.681	1100.94
595.89	1101.94
596.1	1073.94
596.309	1071.94
596.518	1088.94
596.727	1069.94
596.937	1063.94
597.146	1046.94
597.355	1069.94
597.564	1029.94
597.774	1003.94
597.983	998.94
598.192	998.94
598.401	992.94
598.61	993.94
598.819	976.94
599.028	957.94
599.237	975.94
599.446	980.94
599.655	966.94
599.864	943.94
600.073	977.94
600.282	961.94
600.491	958.94
600.7	951.94
600.909	949.94
601.118	957.94
601.327	946.94
601.536	948.94
601.745	980.94
601.953	1090.94
602.162	1167.94
602.371	1051.94
602.58	980.94
602.789	939.94
602.997	934.94
603.206	923.94
603.415	931.94
603.623	914.94
603.832	932.94
604.041	904.94
604.249	919.94
604.458	879.94
604.666	885.94
604.875	861.94
605.084	887.94
605.292	855.94
605.501	881.94
605.709	913.94
605.918	918.94
606.126	901.94
606.334	892.94
606.543	931.94
606.751	993.94
606.96	1107.94
607.168	1240.94
607.376	1052.94
607.585	979.94
607.793	931.94
608.001	914.94
608.21	888.94
608.418	866.94
608.626	877.94
608.834	851.94
609.043	824.94
609.251	864.94
609.459	840.94
609.667	828.94
609.875	842.94
610.083	841.94
610.291	825.94
610.499	834.94
610.707	830.94
610.916	821.94
611.124	823.94
611.332	852.94
611.54	835.94
611.748	818.94
611.955	824.94
612.163	805.94
612.371	809.94
612.579	807.94
612.787	820.94
612.995	804.94
613.203	779.94
613.411	772.94
613.618	820.94
613.826	784.94
614.034	780.94
614.242	795.94
614.449	795.94
614.657	790.94
614.865	795.94
615.072	816.94
615.28	823.94
615.488	800.94
615.695	807.94
615.903	808.94
616.111	820.94
616.318	801.94
616.526	773.94
616.733	773.94
616.941	779.94
617.148	759.94
617.356	781.94
617.563	776.94
617.771	773.94
617.978	749.94
618.185	763.94
618.393	769.94
618.6	768.94
618.807	783.94
619.015	768.94
619.222	747.94
619.429	727.94
619.637	723.94
619.844	726.94
620.051	706.94
620.258	720.94
620.466	689.94
620.673	692.94
620.88	705.94
621.087	702.94
621.294	713.94
621.501	713.94
621.708	686.94
621.915	725.94
622.122	696.94
622.329	686.94
622.536	725.94
622.743	694.94
622.95	699.94
623.157	704.94
623.364	722.94
623.571	683.94
623.778	699.94
623.985	687.94
624.192	689.94
624.399	675.94
624.606	666.94
624.812	659.94
625.019	652.94
625.226	658.94
625.433	659.94
625.639	643.94
625.846	650.94
626.053	641.94
626.259	656.94
626.466	648.94
626.673	627.94
626.879	607.94
627.086	629.94
627.293	619.94
627.499	637.94
627.706	639.94
627.912	643.94
628.119	630.94
628.325	635.94
628.532	626.94
628.738	633.94
628.945	641.94
629.151	620.94
629.357	617.94
629.564	603.94
629.77	601.94
629.976	597.94
630.183	605.94
630.389	601.94
630.595	582.94
630.802	589.94
631.008	608.94
631.214	592.94
631.42	603.94
631.627	592.94
631.833	592.94
632.039	598.94
632.245	573.94
632.451	583.94
632.657	600.94
632.863	566.94
633.069	576.94
633.275	591.94
633.481	576.94
633.688	568.94
633.893	584.94
634.099	585.94
634.305	592.94
634.511	573.94
634.717	603.94
634.923	609.94
635.129	687.94
635.335	767.94
635.541	689.94
635.747	625.94
635.952	603.94
636.158	602.94
636.364	605.94
636.57	584.94
636.775	582.94
636.981	576.94
637.187	579.94
637.392	567.94
637.598	564.94
637.804	578.94
638.009	607.94
638.215	591.94
638.421	577.94
638.626	594.94
638.832	575.94
639.037	569.94
639.243	587.94
639.448	588.94
639.654	591.94
639.859	590.94
640.065	608.94
640.27	590.94
640.475	621.94
640.681	623.94
640.886	605.94
641.091	615.94
641.297	621.94
641.502	612.94
641.707	621.94
641.913	641.94
642.118	623.94
642.323	677.94
642.528	696.94
642.733	689.94
642.939	696.94
643.144	717.94
643.349	743.94
643.554	791.94
643.759	813.94
643.964	839.94
644.169	882.94
644.374	945.94
644.579	1004.94
644.784	1141.94
644.989	1257.94
645.194	1543.94
645.399	1926.94
645.604	2105.94
645.809	1499.94
646.014	1140.94
646.219	945.94
646.423	879.94
646.628	747.94
646.833	710.94
647.038	668.94
647.243	628.94
647.447	641.94
647.652	607.94
647.857	583.94
648.062	576.94
648.266	569.94
648.471	545.94
648.676	560.94
648.88	542.94
649.085	536.94
649.289	512.94
649.494	515.94
649.698	498.94
649.903	487.94
650.107	499.94
650.312	466.94
650.516	455.94
650.721	478.94
650.925	466.94
651.13	430.94
651.334	456.94
651.539	446.94
651.743	429.94
651.947	429.94
652.152	435.94
652.356	430.94
652.56	465.94
652.764	503.94
652.969	469.94
653.173	429.94
653.377	396.94
653.581	381.94
653.785	368.94
653.99	370.94
654.194	370.94
654.398	327.94
654.602	360.94
654.806	336.94
655.01	347.94
655.214	355.94
655.418	343.94
655.622	316.94
655.826	354.94
656.03	351.94
656.234	366.94
656.438	394.94
656.642	380.94
656.846	355.94
657.049	337.94
657.253	314.94
657.457	316.94
657.661	273.94
657.865	252.94
658.068	267.94
658.272	242.94
658.476	235.94
658.68	207.94
658.883	212.94
659.087	207.94
659.291	200.94
659.494	186.94
659.698	178.94
659.901	166.94
660.105	178.94
660.309	171.94
660.512	175.94
660.716	159.94
660.919	145.94
661.123	154.94
661.326	131.94
661.53	121.94
661.733	119.94
661.936	120.94
662.14	120.94
662.343	124.94
662.546	121.94
662.75	101.94
662.953	92.94
663.156	102.94
663.36	93.94
663.563	93.94
663.766	98.94
663.969	95.94
664.173	91.94
664.376	87.94
664.579	88.94
664.782	90.94
664.985	91.94
665.188	80.94
665.391	91.94
665.594	92.94
665.797	75.94
666	80.94
666.203	72.94
666.406	87.94
666.609	84.94
666.812	77.94
667.015	70.94
667.218	85.94
667.421	79.94
667.624	68.94
667.827	88.94
668.03	79.94
668.232	81.94
668.435	93.94
668.638	91.94
668.841	92.94
669.043	76.94
669.246	83.94
669.449	73.94
669.651	74.94
669.854	85.94
670.057	88.94
670.259	84.94
670.462	70.94
670.665	73.94
670.867	81.94
671.07	76.94
671.272	83.94
671.475	84.94
671.677	81.94
671.88	82.94
672.082	78.94
672.284	79.94
672.487	85.94
672.689	82.94
672.892	86.94
