Data from SnStandardFlinnAPT0064_LampEnergy5.5_LIBS07252019.E.O._I.C._HRD10591_15-15-30-491.txt Node
Date: Thu Jul 25 15:15:30 EDT 2019
User: cochatt
Spectrometer: HR+D1059
Trigger mode: 1
Integration Time (sec): 1.000000E-1
Scans to average: 1
Electric dark correction enabled: true
Nonlinearity correction enabled: false
Boxcar width: 0
XAxis mode: Wavelengths
Number of Pixels in Spectrum: 2048
>>>>>Begin Spectral Data<<<<<
223.165	-11.19
223.4	-11.19
223.635	-11.19
223.869	-16.19
224.104	-3.19
224.338	-8.19
224.573	-20.19
224.808	-17.19
225.042	-10.19
225.277	-5.19
225.511	-0.19
225.746	-7.19
225.98	6.81
226.215	11.81
226.449	16.81
226.683	14.81
226.918	21.81
227.152	26.81
227.387	18.81
227.621	32.81
227.856	43.81
228.09	44.81
228.324	49.81
228.559	59.81
228.793	67.81
229.027	136.81
229.262	150.81
229.496	145.81
229.73	157.81
229.964	136.81
230.199	151.81
230.433	146.81
230.667	164.81
230.901	152.81
231.136	166.81
231.37	163.81
231.604	183.81
231.838	202.81
232.072	217.81
232.306	245.81
232.541	193.81
232.775	186.81
233.009	180.81
233.243	208.81
233.477	207.81
233.711	219.81
233.945	266.81
234.179	238.81
234.413	210.81
234.647	210.81
234.881	220.81
235.115	225.81
235.349	256.81
235.583	320.81
235.817	375.81
236.051	376.81
236.285	274.81
236.519	216.81
236.753	250.81
236.987	228.81
237.221	218.81
237.455	235.81
237.689	215.81
237.922	208.81
238.156	208.81
238.39	206.81
238.624	225.81
238.858	206.81
239.091	227.81
239.325	224.81
239.559	236.81
239.793	227.81
240.027	238.81
240.26	222.81
240.494	224.81
240.728	241.81
240.961	258.81
241.195	259.81
241.429	279.81
241.662	276.81
241.896	298.81
242.13	372.81
242.363	447.81
242.597	556.81
242.83	560.81
243.064	535.81
243.298	643.81
243.531	554.81
243.765	372.81
243.998	322.81
244.232	288.81
244.465	310.81
244.699	279.81
244.932	285.81
245.166	291.81
245.399	280.81
245.633	286.81
245.866	287.81
246.099	293.81
246.333	298.81
246.566	280.81
246.8	279.81
247.033	284.81
247.266	285.81
247.5	291.81
247.733	296.81
247.966	287.81
248.2	331.81
248.433	346.81
248.666	370.81
248.899	351.81
249.133	329.81
249.366	348.81
249.599	383.81
249.832	390.81
250.066	398.81
250.299	352.81
250.532	316.81
250.765	309.81
250.998	315.81
251.231	325.81
251.465	335.81
251.698	318.81
251.931	309.81
252.164	312.81
252.397	335.81
252.63	333.81
252.863	324.81
253.096	323.81
253.329	341.81
253.562	342.81
253.795	334.81
254.028	364.81
254.261	354.81
254.494	380.81
254.727	414.81
254.96	477.81
255.193	466.81
255.426	396.81
255.659	390.81
255.892	372.81
256.124	367.81
256.357	372.81
256.59	370.81
256.823	398.81
257.056	432.81
257.289	491.81
257.521	522.81
257.754	420.81
257.987	395.81
258.22	399.81
258.452	359.81
258.685	388.81
258.918	394.81
259.151	423.81
259.383	433.81
259.616	472.81
259.849	514.81
260.081	420.81
260.314	422.81
260.547	399.81
260.779	400.81
261.012	413.81
261.244	426.81
261.477	410.81
261.71	428.81
261.942	460.81
262.175	448.81
262.407	421.81
262.64	442.81
262.872	464.81
263.105	482.81
263.337	510.81
263.57	512.81
263.802	544.81
264.035	549.81
264.267	552.81
264.499	579.81
264.732	612.81
264.964	621.81
265.197	597.81
265.429	590.81
265.661	622.81
265.894	648.81
266.126	723.81
266.358	767.81
266.591	737.81
266.823	642.81
267.055	611.81
267.287	564.81
267.52	573.81
267.752	540.81
267.984	554.81
268.216	544.81
268.448	534.81
268.681	528.81
268.913	508.81
269.145	518.81
269.377	520.81
269.609	541.81
269.841	528.81
270.073	550.81
270.306	630.81
270.538	816.81
270.77	1137.81
271.002	1320.81
271.234	995.81
271.466	699.81
271.698	618.81
271.93	571.81
272.162	554.81
272.394	528.81
272.626	527.81
272.858	521.81
273.09	529.81
273.322	534.81
273.553	508.81
273.785	509.81
274.017	479.81
274.249	499.81
274.481	516.81
274.713	511.81
274.945	512.81
275.176	522.81
275.408	530.81
275.64	514.81
275.872	527.81
276.104	512.81
276.335	519.81
276.567	528.81
276.799	529.81
277.031	573.81
277.262	560.81
277.494	561.81
277.726	611.81
277.957	673.81
278.189	722.81
278.421	699.81
278.652	629.81
278.884	628.81
279.115	595.81
279.347	576.81
279.579	562.81
279.81	565.81
280.042	580.81
280.273	560.81
280.505	588.81
280.736	618.81
280.968	628.81
281.199	648.81
281.431	748.81
281.662	780.81
281.894	681.81
282.125	629.81
282.356	670.81
282.588	658.81
282.819	662.81
283.051	694.81
283.282	743.81
283.513	927.81
283.745	1281.81
283.976	1960.81
284.207	2690.81
284.439	2458.81
284.67	1559.81
284.901	1250.81
285.132	1206.81
285.364	1194.81
285.595	963.81
285.826	905.81
286.057	1010.81
286.288	1346.81
286.52	1783.81
286.751	1656.81
286.982	1109.81
287.213	867.81
287.444	734.81
287.675	711.81
287.906	698.81
288.138	682.81
288.369	688.81
288.6	686.81
288.831	683.81
289.062	686.81
289.293	685.81
289.524	683.81
289.755	661.81
289.986	701.81
290.217	716.81
290.448	678.81
290.679	689.81
290.91	692.81
291.141	719.81
291.371	751.81
291.602	776.81
291.833	718.81
292.064	700.81
292.295	672.81
292.526	660.81
292.757	652.81
292.987	656.81
293.218	647.81
293.449	666.81
293.68	668.81
293.91	665.81
294.141	655.81
294.372	642.81
294.603	642.81
294.833	640.81
295.064	633.81
295.295	645.81
295.525	626.81
295.756	644.81
295.987	644.81
296.217	643.81
296.448	663.81
296.679	632.81
296.909	640.81
297.14	658.81
297.37	662.81
297.601	661.81
297.831	673.81
298.062	668.81
298.292	688.81
298.523	684.81
298.753	689.81
298.984	677.81
299.214	687.81
299.445	680.81
299.675	702.81
299.905	747.81
300.136	760.81
300.366	811.81
300.597	1001.81
300.827	1300.81
301.057	1735.81
301.288	1736.81
301.518	1173.81
301.748	950.81
301.979	876.81
302.209	865.81
302.439	869.81
302.669	912.81
302.9	1063.81
303.13	1417.81
303.36	1974.81
303.59	2641.81
303.82	2331.81
304.051	1446.81
304.281	1090.81
304.511	912.81
304.741	855.81
304.971	828.81
305.201	806.81
305.431	777.81
305.661	776.81
305.891	753.81
306.121	759.81
306.352	756.81
306.582	716.81
306.812	751.81
307.042	735.81
307.272	760.81
307.502	754.81
307.731	757.81
307.961	743.81
308.191	760.81
308.421	743.81
308.651	764.81
308.881	753.81
309.111	765.81
309.341	751.81
309.571	769.81
309.8	755.81
310.03	751.81
310.26	743.81
310.49	763.81
310.72	779.81
310.949	764.81
311.179	780.81
311.409	763.81
311.639	788.81
311.868	795.81
312.098	797.81
312.328	782.81
312.557	799.81
312.787	806.81
313.017	788.81
313.246	812.81
313.476	824.81
313.706	833.81
313.935	866.81
314.165	894.81
314.394	900.81
314.624	909.81
314.853	861.81
315.083	853.81
315.312	868.81
315.542	845.81
315.771	863.81
316.001	922.81
316.23	908.81
316.46	950.81
316.689	1018.81
316.919	1179.81
317.148	1634.81
317.377	2374.81
317.607	3438.81
317.836	3510.81
318.065	2213.81
318.295	1493.81
318.524	1240.81
318.753	1095.81
318.983	1040.81
319.212	968.81
319.441	983.81
319.67	970.81
319.9	952.81
320.129	919.81
320.358	940.81
320.587	903.81
320.816	955.81
321.046	920.81
321.275	957.81
321.504	951.81
321.733	980.81
321.962	995.81
322.191	1013.81
322.42	979.81
322.649	976.81
322.878	970.81
323.108	986.81
323.337	1010.81
323.566	1039.81
323.795	1018.81
324.024	1061.81
324.253	1088.81
324.482	1112.81
324.71	1165.81
324.939	1180.81
325.168	1242.81
325.397	1275.81
325.626	1448.81
325.855	1973.81
326.084	2964.81
326.313	4277.81
326.542	4492.81
326.77	2977.81
326.999	2088.81
327.228	1798.81
327.457	1681.81
327.686	1727.81
327.914	1832.81
328.143	2081.81
328.372	2355.81
328.6	2502.81
328.829	2388.81
329.058	2117.81
329.287	1923.81
329.515	1759.81
329.744	1672.81
329.972	1547.81
330.201	1489.81
330.43	1474.81
330.658	1418.81
330.887	1426.81
331.115	1338.81
331.344	1355.81
331.572	1350.81
331.801	1356.81
332.03	1383.81
332.258	1376.81
332.486	1417.81
332.715	1578.81
332.943	1835.81
333.172	2231.81
333.4	2174.81
333.629	1814.81
333.857	1708.81
334.085	1711.81
334.314	1775.81
334.542	1865.81
334.771	2174.81
334.999	2542.81
335.227	3041.81
335.455	3347.81
335.684	3188.81
335.912	2721.81
336.14	2419.81
336.369	2141.81
336.597	1974.81
336.825	1879.81
337.053	1758.81
337.281	1666.81
337.51	1575.81
337.738	1488.81
337.966	1461.81
338.194	1407.81
338.422	1350.81
338.65	1320.81
338.878	1315.81
339.106	1301.81
339.334	1267.81
339.562	1268.81
339.79	1243.81
340.018	1226.81
340.246	1216.81
340.474	1219.81
340.702	1200.81
340.93	1209.81
341.158	1235.81
341.386	1193.81
341.614	1196.81
341.842	1193.81
342.07	1136.81
342.298	1133.81
342.526	1167.81
342.754	1123.81
342.981	1126.81
343.209	1131.81
343.437	1150.81
343.665	1142.81
343.893	1172.81
344.12	1160.81
344.348	1128.81
344.576	1082.81
344.804	1111.81
345.031	1063.81
345.259	1068.81
345.487	1033.81
345.714	1041.81
345.942	1022.81
346.17	1006.81
346.397	1045.81
346.625	1035.81
346.853	1023.81
347.08	1030.81
347.308	1039.81
347.535	1024.81
347.763	1040.81
347.99	1021.81
348.218	1033.81
348.445	1008.81
348.673	1003.81
348.9	999.81
349.128	998.81
349.355	993.81
349.583	988.81
349.81	976.81
350.037	988.81
350.265	1000.81
350.492	981.81
350.72	966.81
350.947	972.81
351.174	993.81
351.402	1003.81
351.629	985.81
351.856	991.81
352.083	964.81
352.311	980.81
352.538	974.81
352.765	984.81
352.992	962.81
353.22	959.81
353.447	958.81
353.674	996.81
353.901	995.81
354.128	970.81
354.355	977.81
354.583	1006.81
354.81	1000.81
355.037	1018.81
355.264	1008.81
355.491	1014.81
355.718	993.81
355.945	964.81
356.172	982.81
356.399	1008.81
356.626	1048.81
356.853	987.81
357.08	1011.81
357.307	1020.81
357.534	1023.81
357.761	1035.81
357.988	1034.81
358.215	1064.81
358.441	1061.81
358.668	1022.81
358.895	1026.81
359.122	1044.81
359.349	1036.81
359.576	1042.81
359.802	1011.81
360.029	1015.81
360.256	1054.81
360.483	1050.81
360.709	1059.81
360.936	1030.81
361.163	1032.81
361.39	1005.81
361.616	1042.81
361.843	1060.81
362.07	1045.81
362.296	1030.81
362.523	1034.81
362.749	1053.81
362.976	1051.81
363.203	1050.81
363.429	1038.81
363.656	1071.81
363.882	1044.81
364.109	1042.81
364.335	1013.81
364.562	1050.81
364.788	1068.81
365.015	1076.81
365.241	1083.81
365.468	1106.81
365.694	1123.81
365.92	1108.81
366.147	1069.81
366.373	1076.81
366.599	1084.81
366.826	1117.81
367.052	1058.81
367.278	1082.81
367.505	1070.81
367.731	1102.81
367.957	1063.81
368.184	1115.81
368.41	1079.81
368.636	1078.81
368.862	1086.81
369.089	1083.81
369.315	1088.81
369.541	1087.81
369.767	1065.81
369.993	1061.81
370.219	1100.81
370.445	1067.81
370.672	1085.81
370.898	1118.81
371.124	1123.81
371.35	1119.81
371.576	1141.81
371.802	1126.81
372.028	1108.81
372.254	1115.81
372.48	1128.81
372.706	1146.81
372.932	1180.81
373.158	1168.81
373.384	1149.81
373.61	1144.81
373.835	1188.81
374.061	1146.81
374.287	1152.81
374.513	1174.81
374.739	1170.81
374.965	1212.81
375.191	1151.81
375.416	1168.81
375.642	1149.81
375.868	1168.81
376.094	1144.81
376.319	1142.81
376.545	1127.81
376.771	1134.81
376.997	1128.81
377.222	1130.81
377.448	1110.81
377.674	1111.81
377.899	1137.81
378.125	1134.81
378.35	1136.81
378.576	1095.81
378.802	1134.81
379.027	1123.81
379.253	1148.81
379.478	1195.81
379.704	1332.81
379.929	1816.81
380.155	2580.81
380.38	2727.81
380.606	1846.81
380.831	1382.81
381.057	1240.81
381.282	1185.81
381.507	1127.81
381.733	1148.81
381.958	1136.81
382.184	1136.81
382.409	1123.81
382.634	1120.81
382.86	1113.81
383.085	1134.81
383.31	1103.81
383.535	1146.81
383.761	1140.81
383.986	1149.81
384.211	1174.81
384.436	1130.81
384.662	1150.81
384.887	1147.81
385.112	1147.81
385.337	1171.81
385.562	1172.81
385.787	1152.81
386.013	1179.81
386.238	1171.81
386.463	1146.81
386.688	1172.81
386.913	1117.81
387.138	1132.81
387.363	1142.81
387.588	1144.81
387.813	1169.81
388.038	1158.81
388.263	1159.81
388.488	1183.81
388.713	1171.81
388.938	1175.81
389.163	1154.81
389.387	1180.81
389.612	1154.81
389.837	1141.81
390.062	1153.81
390.287	1179.81
390.512	1184.81
390.736	1176.81
390.961	1199.81
391.186	1199.81
391.411	1205.81
391.636	1198.81
391.86	1220.81
392.085	1224.81
392.31	1216.81
392.534	1176.81
392.759	1205.81
392.984	1154.81
393.208	1206.81
393.433	1166.81
393.658	1180.81
393.882	1167.81
394.107	1182.81
394.331	1179.81
394.556	1148.81
394.78	1153.81
395.005	1174.81
395.229	1188.81
395.454	1213.81
395.678	1180.81
395.903	1213.81
396.127	1223.81
396.352	1198.81
396.576	1189.81
396.801	1182.81
397.025	1192.81
397.249	1221.81
397.474	1227.81
397.698	1219.81
397.922	1249.81
398.147	1232.81
398.371	1274.81
398.595	1269.81
398.82	1304.81
399.044	1346.81
399.268	1429.81
399.492	1506.81
399.717	1564.81
399.941	1547.81
400.165	1494.81
400.389	1407.81
400.613	1359.81
400.837	1324.81
401.062	1296.81
401.286	1334.81
401.51	1294.81
401.734	1305.81
401.958	1278.81
402.182	1276.81
402.406	1311.81
402.63	1327.81
402.854	1301.81
403.078	1328.81
403.302	1306.81
403.526	1338.81
403.75	1312.81
403.974	1379.81
404.198	1338.81
404.422	1331.81
404.645	1323.81
404.869	1309.81
405.093	1335.81
405.317	1346.81
405.541	1355.81
405.765	1340.81
405.988	1379.81
406.212	1367.81
406.436	1363.81
406.66	1396.81
406.883	1351.81
407.107	1414.81
407.331	1439.81
407.555	1506.81
407.778	1428.81
408.002	1422.81
408.226	1448.81
408.449	1390.81
408.673	1396.81
408.896	1350.81
409.12	1334.81
409.344	1336.81
409.567	1342.81
409.791	1345.81
410.014	1332.81
410.238	1328.81
410.461	1309.81
410.685	1374.81
410.908	1335.81
411.132	1331.81
411.355	1287.81
411.578	1312.81
411.802	1309.81
412.025	1286.81
412.249	1300.81
412.472	1297.81
412.695	1229.81
412.919	1284.81
413.142	1264.81
413.365	1291.81
413.589	1302.81
413.812	1253.81
414.035	1274.81
414.258	1260.81
414.482	1260.81
414.705	1292.81
414.928	1251.81
415.151	1232.81
415.374	1278.81
415.597	1227.81
415.821	1206.81
416.044	1219.81
416.267	1174.81
416.49	1227.81
416.713	1221.81
416.936	1213.81
417.159	1200.81
417.382	1192.81
417.605	1149.81
417.828	1230.81
418.051	1240.81
418.274	1254.81
418.497	1244.81
418.72	1280.81
418.943	1229.81
419.166	1320.81
419.389	1344.81
419.611	1335.81
419.834	1287.81
420.057	1261.81
420.28	1222.81
420.503	1198.81
420.726	1197.81
420.948	1199.81
421.171	1221.81
421.394	1225.81
421.617	1235.81
421.839	1229.81
422.062	1252.81
422.285	1189.81
422.507	1228.81
422.73	1208.81
422.953	1270.81
423.175	1301.81
423.398	1280.81
423.621	1232.81
423.843	1281.81
424.066	1244.81
424.288	1256.81
424.511	1245.81
424.733	1244.81
424.956	1238.81
425.178	1210.81
425.401	1219.81
425.623	1209.81
425.846	1173.81
426.068	1188.81
426.291	1207.81
426.513	1186.81
426.735	1186.81
426.958	1196.81
427.18	1155.81
427.402	1164.81
427.625	1160.81
427.847	1116.81
428.069	1090.81
428.292	1146.81
428.514	1152.81
428.736	1170.81
428.958	1127.81
429.181	1106.81
429.403	1108.81
429.625	1137.81
429.847	1122.81
430.069	1131.81
430.292	1186.81
430.514	1192.81
430.736	1184.81
430.958	1155.81
431.18	1116.81
431.402	1133.81
431.624	1082.81
431.846	1127.81
432.068	1125.81
432.29	1117.81
432.512	1125.81
432.734	1152.81
432.956	1132.81
433.178	1132.81
433.4	1127.81
433.622	1114.81
433.844	1128.81
434.066	1135.81
434.287	1130.81
434.509	1158.81
434.731	1155.81
434.953	1184.81
435.175	1172.81
435.397	1186.81
435.618	1160.81
435.84	1100.81
436.062	1114.81
436.284	1122.81
436.505	1122.81
436.727	1142.81
436.949	1091.81
437.17	1140.81
437.392	1100.81
437.614	1079.81
437.835	1038.81
438.057	1104.81
438.278	1094.81
438.5	1082.81
438.721	1113.81
438.943	1116.81
439.165	1159.81
439.386	1138.81
439.608	1125.81
439.829	1136.81
440.05	1170.81
440.272	1202.81
440.493	1166.81
440.715	1157.81
440.936	1182.81
441.158	1171.81
441.379	1213.81
441.6	1300.81
441.822	1230.81
442.043	1285.81
442.264	1282.81
442.486	1234.81
442.707	1228.81
442.928	1211.81
443.149	1158.81
443.371	1184.81
443.592	1223.81
443.813	1239.81
444.034	1244.81
444.255	1274.81
444.476	1240.81
444.698	1266.81
444.919	1333.81
445.14	1406.81
445.361	1294.81
445.582	1236.81
445.803	1247.81
446.024	1196.81
446.245	1210.81
446.466	1191.81
446.687	1170.81
446.908	1186.81
447.129	1168.81
447.35	1154.81
447.571	1138.81
447.792	1114.81
448.013	1128.81
448.234	1101.81
448.455	1102.81
448.675	1089.81
448.896	1141.81
449.117	1170.81
449.338	1254.81
449.559	1263.81
449.779	1162.81
450	1078.81
450.221	1081.81
450.442	1102.81
450.662	1099.81
450.883	1086.81
451.104	1082.81
451.324	1072.81
451.545	1080.81
451.766	1088.81
451.986	1082.81
452.207	1117.81
452.428	1329.81
452.648	1717.81
452.869	1535.81
453.089	1220.81
453.31	1182.81
453.53	1131.81
453.751	1187.81
453.971	1228.81
454.192	1222.81
454.412	1105.81
454.633	1068.81
454.853	1050.81
455.073	1043.81
455.294	1069.81
455.514	1048.81
455.734	1016.81
455.955	1005.81
456.175	1020.81
456.395	1042.81
456.616	1042.81
456.836	1045.81
457.056	1043.81
457.276	1032.81
457.497	1052.81
457.717	1088.81
457.937	1084.81
458.157	1094.81
458.377	1063.81
458.598	1094.81
458.818	1068.81
459.038	1102.81
459.258	1091.81
459.478	1098.81
459.698	1111.81
459.918	1143.81
460.138	1104.81
460.358	1190.81
460.578	1192.81
460.798	1206.81
461.018	1210.81
461.238	1212.81
461.458	1222.81
461.678	1227.81
461.898	1245.81
462.118	1264.81
462.338	1302.81
462.558	1306.81
462.777	1324.81
462.997	1373.81
463.217	1399.81
463.437	1432.81
463.657	1441.81
463.876	1411.81
464.096	1337.81
464.316	1340.81
464.536	1334.81
464.755	1272.81
464.975	1280.81
465.195	1231.81
465.414	1223.81
465.634	1188.81
465.854	1171.81
466.073	1156.81
466.293	1169.81
466.512	1111.81
466.732	1154.81
466.951	1172.81
467.171	1247.81
467.391	1251.81
467.61	1149.81
467.829	1146.81
468.049	1133.81
468.268	1090.81
468.488	1091.81
468.707	1103.81
468.927	1109.81
469.146	1104.81
469.365	1133.81
469.585	1130.81
469.804	1132.81
470.023	1167.81
470.243	1168.81
470.462	1227.81
470.681	1256.81
470.901	1340.81
471.12	1459.81
471.339	1489.81
471.558	1259.81
471.777	1204.81
471.997	1160.81
472.216	1145.81
472.435	1132.81
472.654	1109.81
472.873	1080.81
473.092	1101.81
473.311	1091.81
473.53	1119.81
473.749	1153.81
473.968	1171.81
474.187	1121.81
474.406	1107.81
474.625	1096.81
474.844	1106.81
475.063	1134.81
475.282	1089.81
475.501	1114.81
475.72	1142.81
475.939	1132.81
476.158	1150.81
476.377	1161.81
476.596	1156.81
476.814	1164.81
477.033	1175.81
477.252	1174.81
477.471	1162.81
477.69	1223.81
477.908	1244.81
478.127	1259.81
478.346	1259.81
478.564	1290.81
478.783	1326.81
479.002	1294.81
479.22	1305.81
479.439	1335.81
479.658	1290.81
479.876	1338.81
480.095	1312.81
480.313	1357.81
480.532	1360.81
480.751	1356.81
480.969	1327.81
481.188	1311.81
481.406	1310.81
481.624	1283.81
481.843	1313.81
482.061	1328.81
482.28	1286.81
482.498	1307.81
482.717	1298.81
482.935	1350.81
483.153	1380.81
483.372	1383.81
483.59	1400.81
483.808	1428.81
484.027	1408.81
484.245	1450.81
484.463	1570.81
484.681	1752.81
484.9	1631.81
485.118	1552.81
485.336	1509.81
485.554	1532.81
485.772	1604.81
485.99	1750.81
486.209	1880.81
486.427	1621.81
486.645	1459.81
486.863	1460.81
487.081	1413.81
487.299	1414.81
487.517	1410.81
487.735	1430.81
487.953	1448.81
488.171	1390.81
488.389	1439.81
488.607	1362.81
488.825	1326.81
489.043	1363.81
489.261	1360.81
489.479	1384.81
489.696	1389.81
489.914	1363.81
490.132	1399.81
490.35	1367.81
490.568	1376.81
490.786	1416.81
491.003	1438.81
491.221	1463.81
491.439	1448.81
491.657	1469.81
491.874	1474.81
492.092	1502.81
492.31	1502.81
492.527	1522.81
492.745	1487.81
492.963	1467.81
493.18	1470.81
493.398	1455.81
493.615	1489.81
493.833	1473.81
494.05	1474.81
494.268	1463.81
494.485	1443.81
494.703	1462.81
494.92	1484.81
495.138	1496.81
495.355	1473.81
495.573	1509.81
495.79	1467.81
496.008	1499.81
496.225	1504.81
496.442	1458.81
496.66	1528.81
496.877	1614.81
497.094	1601.81
497.312	1621.81
497.529	1583.81
497.746	1592.81
497.963	1599.81
498.181	1629.81
498.398	1674.81
498.615	1718.81
498.832	1766.81
499.049	1872.81
499.267	1960.81
499.484	2103.81
499.701	2151.81
499.918	2278.81
500.135	2411.81
500.352	2462.81
500.569	2519.81
500.786	2511.81
501.003	2375.81
501.22	2281.81
501.437	2125.81
501.654	2049.81
501.871	1946.81
502.088	1855.81
502.305	1820.81
502.522	1757.81
502.739	1711.81
502.956	1623.81
503.172	1625.81
503.389	1552.81
503.606	1518.81
503.823	1494.81
504.04	1503.81
504.256	1518.81
504.473	1515.81
504.69	1511.81
504.907	1494.81
505.123	1461.81
505.34	1407.81
505.557	1404.81
505.773	1360.81
505.99	1373.81
506.207	1334.81
506.423	1311.81
506.64	1306.81
506.856	1296.81
507.073	1298.81
507.289	1272.81
507.506	1291.81
507.722	1303.81
507.939	1273.81
508.155	1288.81
508.372	1258.81
508.588	1230.81
508.805	1249.81
509.021	1218.81
509.238	1253.81
509.454	1303.81
509.67	1344.81
509.887	1257.81
510.103	1248.81
510.319	1206.81
510.536	1221.81
510.752	1228.81
510.968	1197.81
511.184	1190.81
511.401	1226.81
511.617	1184.81
511.833	1184.81
512.049	1195.81
512.265	1193.81
512.481	1183.81
512.698	1191.81
512.914	1209.81
513.13	1175.81
513.346	1166.81
513.562	1201.81
513.778	1183.81
513.994	1189.81
514.21	1221.81
514.426	1277.81
514.642	1302.81
514.858	1237.81
515.074	1212.81
515.29	1208.81
515.506	1218.81
515.721	1191.81
515.937	1223.81
516.153	1210.81
516.369	1237.81
516.585	1261.81
516.801	1284.81
517.016	1277.81
517.232	1347.81
517.448	1334.81
517.664	1351.81
517.879	1368.81
518.095	1394.81
518.311	1334.81
518.527	1314.81
518.742	1324.81
518.958	1305.81
519.173	1300.81
519.389	1315.81
519.605	1270.81
519.82	1204.81
520.036	1231.81
520.251	1194.81
520.467	1212.81
520.682	1167.81
520.898	1182.81
521.113	1152.81
521.329	1182.81
521.544	1160.81
521.76	1152.81
521.975	1171.81
522.19	1172.81
522.406	1145.81
522.621	1158.81
522.836	1136.81
523.052	1172.81
523.267	1138.81
523.482	1120.81
523.698	1160.81
523.913	1144.81
524.128	1146.81
524.343	1132.81
524.559	1137.81
524.774	1143.81
524.989	1147.81
525.204	1151.81
525.419	1134.81
525.634	1150.81
525.849	1134.81
526.064	1144.81
526.28	1151.81
526.495	1158.81
526.71	1162.81
526.925	1126.81
527.14	1141.81
527.355	1133.81
527.57	1141.81
527.785	1144.81
527.999	1138.81
528.214	1156.81
528.429	1175.81
528.644	1210.81
528.859	1220.81
529.074	1206.81
529.289	1261.81
529.503	1251.81
529.718	1236.81
529.933	1233.81
530.148	1185.81
530.363	1205.81
530.577	1178.81
530.792	1186.81
531.007	1174.81
531.221	1195.81
531.436	1218.81
531.651	1208.81
531.865	1209.81
532.08	1228.81
532.295	1267.81
532.509	1343.81
532.724	1337.81
532.938	1336.81
533.153	1375.81
533.367	1427.81
533.582	1456.81
533.796	1464.81
534.011	1423.81
534.225	1414.81
534.44	1370.81
534.654	1372.81
534.868	1344.81
535.083	1346.81
535.297	1295.81
535.511	1305.81
535.726	1276.81
535.94	1291.81
536.154	1240.81
536.369	1227.81
536.583	1208.81
536.797	1183.81
537.011	1171.81
537.225	1170.81
537.44	1168.81
537.654	1174.81
537.868	1150.81
538.082	1154.81
538.296	1142.81
538.51	1144.81
538.724	1146.81
538.938	1136.81
539.153	1142.81
539.367	1146.81
539.581	1134.81
539.795	1107.81
540.009	1111.81
540.222	1081.81
540.436	1134.81
540.65	1075.81
540.864	1116.81
541.078	1137.81
541.292	1202.81
541.506	1364.81
541.72	1413.81
541.934	1299.81
542.147	1239.81
542.361	1191.81
542.575	1164.81
542.789	1121.81
543.002	1120.81
543.216	1082.81
543.43	1054.81
543.644	1056.81
543.857	1073.81
544.071	1074.81
544.285	1112.81
544.498	1109.81
544.712	1110.81
544.925	1127.81
545.139	1130.81
545.352	1104.81
545.566	1136.81
545.779	1117.81
545.993	1143.81
546.206	1126.81
546.42	1127.81
546.633	1107.81
546.847	1113.81
547.06	1124.81
547.274	1107.81
547.487	1126.81
547.7	1130.81
547.914	1121.81
548.127	1136.81
548.34	1134.81
548.554	1130.81
548.767	1111.81
548.98	1111.81
549.193	1134.81
549.407	1128.81
549.62	1132.81
549.833	1108.81
550.046	1118.81
550.259	1124.81
550.473	1110.81
550.686	1148.81
550.899	1114.81
551.112	1090.81
551.325	1080.81
551.538	1115.81
551.751	1084.81
551.964	1088.81
552.177	1109.81
552.39	1125.81
552.603	1172.81
552.816	1181.81
553.029	1164.81
553.242	1174.81
553.455	1234.81
553.667	1237.81
553.88	1203.81
554.093	1211.81
554.306	1233.81
554.519	1215.81
554.732	1236.81
554.944	1252.81
555.157	1280.81
555.37	1288.81
555.583	1346.81
555.795	1376.81
556.008	1391.81
556.221	1534.81
556.433	1562.81
556.646	1594.81
556.859	1572.81
557.071	1540.81
557.284	1495.81
557.496	1491.81
557.709	1469.81
557.921	1502.81
558.134	1460.81
558.346	1441.81
558.559	1517.81
558.771	1584.81
558.984	1624.81
559.196	1690.81
559.409	1674.81
559.621	1597.81
559.833	1538.81
560.046	1439.81
560.258	1380.81
560.47	1376.81
560.683	1316.81
560.895	1293.81
561.107	1241.81
561.32	1271.81
561.532	1216.81
561.744	1214.81
561.956	1169.81
562.168	1130.81
562.381	1142.81
562.593	1084.81
562.805	1089.81
563.017	1121.81
563.229	1133.81
563.441	1198.81
563.653	1093.81
563.865	1057.81
564.077	991.81
564.289	1011.81
564.501	1030.81
564.713	1042.81
564.925	1030.81
565.137	1018.81
565.349	1029.81
565.561	1029.81
565.773	1032.81
565.985	1048.81
566.197	1066.81
566.408	1086.81
566.62	1089.81
566.832	1119.81
567.044	1141.81
567.255	1130.81
567.467	1150.81
567.679	1168.81
567.891	1222.81
568.102	1352.81
568.314	1481.81
568.526	1298.81
568.737	1141.81
568.949	1070.81
569.161	991.81
569.372	959.81
569.584	940.81
569.795	922.81
570.007	908.81
570.218	934.81
570.43	934.81
570.641	889.81
570.853	886.81
571.064	896.81
571.276	861.81
571.487	829.81
571.698	828.81
571.91	820.81
572.121	827.81
572.333	812.81
572.544	808.81
572.755	856.81
572.966	940.81
573.178	864.81
573.389	799.81
573.6	778.81
573.811	778.81
574.023	757.81
574.234	746.81
574.445	760.81
574.656	758.81
574.867	722.81
575.078	730.81
575.289	735.81
575.501	748.81
575.712	755.81
575.923	754.81
576.134	767.81
576.345	754.81
576.556	739.81
576.767	733.81
576.978	737.81
577.188	751.81
577.399	735.81
577.61	743.81
577.821	772.81
578.032	788.81
578.243	755.81
578.454	783.81
578.665	776.81
578.875	803.81
579.086	836.81
579.297	880.81
579.508	868.81
579.718	949.81
579.929	988.81
580.14	1093.81
580.35	1163.81
580.561	1099.81
580.772	1064.81
580.982	1000.81
581.193	951.81
581.403	872.81
581.614	877.81
581.825	834.81
582.035	811.81
582.246	794.81
582.456	754.81
582.667	742.81
582.877	727.81
583.087	724.81
583.298	696.81
583.508	671.81
583.719	674.81
583.929	664.81
584.139	667.81
584.35	639.81
584.56	670.81
584.77	658.81
584.981	632.81
585.191	635.81
585.401	627.81
585.611	617.81
585.821	609.81
586.032	605.81
586.242	583.81
586.452	588.81
586.662	581.81
586.872	579.81
587.082	567.81
587.292	555.81
587.502	555.81
587.713	557.81
587.923	584.81
588.133	565.81
588.343	575.81
588.553	545.81
588.762	535.81
588.972	559.81
589.182	545.81
589.392	560.81
589.602	543.81
589.812	534.81
590.022	534.81
590.232	551.81
590.441	533.81
590.651	536.81
590.861	539.81
591.071	525.81
591.281	534.81
591.49	528.81
591.7	518.81
591.91	548.81
592.119	526.81
592.329	508.81
592.539	542.81
592.748	554.81
592.958	550.81
593.167	552.81
593.377	564.81
593.587	556.81
593.796	565.81
594.006	560.81
594.215	560.81
594.424	557.81
594.634	567.81
594.843	547.81
595.053	534.81
595.262	530.81
595.472	514.81
595.681	533.81
595.89	506.81
596.1	490.81
596.309	498.81
596.518	510.81
596.727	473.81
596.937	485.81
597.146	469.81
597.355	468.81
597.564	472.81
597.774	466.81
597.983	483.81
598.192	463.81
598.401	476.81
598.61	449.81
598.819	436.81
599.028	445.81
599.237	456.81
599.446	458.81
599.655	445.81
599.864	448.81
600.073	432.81
600.282	436.81
600.491	406.81
600.7	438.81
600.909	434.81
601.118	447.81
601.327	451.81
601.536	430.81
601.745	448.81
601.953	491.81
602.162	500.81
602.371	501.81
602.58	467.81
602.789	432.81
602.997	443.81
603.206	445.81
603.415	436.81
603.623	440.81
603.832	422.81
604.041	432.81
604.249	432.81
604.458	419.81
604.666	430.81
604.875	410.81
605.084	426.81
605.292	431.81
605.501	414.81
605.709	430.81
605.918	416.81
606.126	422.81
606.334	430.81
606.543	440.81
606.751	460.81
606.96	507.81
607.168	547.81
607.376	474.81
607.585	446.81
607.793	460.81
608.001	431.81
608.21	407.81
608.418	414.81
608.626	419.81
608.834	423.81
609.043	414.81
609.251	401.81
609.459	424.81
609.667	404.81
609.875	400.81
610.083	412.81
610.291	416.81
610.499	396.81
610.707	417.81
610.916	423.81
611.124	423.81
611.332	391.81
611.54	399.81
611.748	401.81
611.955	406.81
612.163	391.81
612.371	411.81
612.579	404.81
612.787	385.81
612.995	410.81
613.203	402.81
613.411	382.81
613.618	390.81
613.826	387.81
614.034	356.81
614.242	402.81
614.449	372.81
614.657	405.81
614.865	382.81
615.072	379.81
615.28	385.81
615.488	392.81
615.695	376.81
615.903	410.81
616.111	389.81
616.318	390.81
616.526	356.81
616.733	386.81
616.941	378.81
617.148	381.81
617.356	382.81
617.563	370.81
617.771	375.81
617.978	368.81
618.185	388.81
618.393	352.81
618.6	374.81
618.807	370.81
619.015	362.81
619.222	364.81
619.429	364.81
619.637	359.81
619.844	358.81
620.051	367.81
620.258	367.81
620.466	332.81
620.673	342.81
620.88	353.81
621.087	334.81
621.294	346.81
621.501	328.81
621.708	350.81
621.915	346.81
622.122	356.81
622.329	341.81
622.536	365.81
622.743	352.81
622.95	340.81
623.157	342.81
623.364	354.81
623.571	327.81
623.778	335.81
623.985	336.81
624.192	350.81
624.399	335.81
624.606	352.81
624.812	328.81
625.019	333.81
625.226	327.81
625.433	326.81
625.639	317.81
625.846	311.81
626.053	305.81
626.259	312.81
626.466	309.81
626.673	316.81
626.879	295.81
627.086	327.81
627.293	326.81
627.499	302.81
627.706	323.81
627.912	330.81
628.119	311.81
628.325	308.81
628.532	303.81
628.738	314.81
628.945	304.81
629.151	324.81
629.357	307.81
629.564	310.81
629.77	313.81
629.976	312.81
630.183	317.81
630.389	307.81
630.595	306.81
630.802	306.81
631.008	287.81
631.214	298.81
631.42	302.81
631.627	303.81
631.833	302.81
632.039	308.81
632.245	295.81
632.451	298.81
632.657	316.81
632.863	290.81
633.069	288.81
633.275	297.81
633.481	301.81
633.688	272.81
633.893	308.81
634.099	292.81
634.305	276.81
634.511	282.81
634.717	315.81
634.923	302.81
635.129	323.81
635.335	376.81
635.541	329.81
635.747	326.81
635.952	305.81
636.158	295.81
636.364	286.81
636.57	300.81
636.775	312.81
636.981	308.81
637.187	308.81
637.392	291.81
637.598	279.81
637.804	295.81
638.009	307.81
638.215	296.81
638.421	291.81
638.626	287.81
638.832	315.81
639.037	286.81
639.243	289.81
639.448	322.81
639.654	295.81
639.859	308.81
640.065	333.81
640.27	314.81
640.475	298.81
640.681	309.81
640.886	305.81
641.091	299.81
641.297	318.81
641.502	310.81
641.707	304.81
641.913	325.81
642.118	331.81
642.323	324.81
642.528	327.81
642.733	330.81
642.939	339.81
643.144	360.81
643.349	370.81
643.554	366.81
643.759	372.81
643.964	392.81
644.169	393.81
644.374	412.81
644.579	442.81
644.784	472.81
644.989	532.81
645.194	567.81
645.399	666.81
645.604	696.81
645.809	552.81
646.014	477.81
646.219	427.81
646.423	370.81
646.628	366.81
646.833	328.81
647.038	325.81
647.243	312.81
647.447	306.81
647.652	304.81
647.857	304.81
648.062	279.81
648.266	289.81
648.471	278.81
648.676	291.81
648.88	277.81
649.085	266.81
649.289	284.81
649.494	278.81
649.698	286.81
649.903	257.81
650.107	276.81
650.312	252.81
650.516	239.81
650.721	260.81
650.925	253.81
651.13	216.81
651.334	246.81
651.539	235.81
651.743	216.81
651.947	214.81
652.152	231.81
652.356	229.81
652.56	224.81
652.764	267.81
652.969	228.81
653.173	231.81
653.377	205.81
653.581	208.81
653.785	207.81
653.99	219.81
654.194	198.81
654.398	194.81
654.602	204.81
654.806	209.81
655.01	211.81
655.214	212.81
655.418	199.81
655.622	234.81
655.826	215.81
656.03	201.81
656.234	219.81
656.438	212.81
656.642	234.81
656.846	228.81
657.049	194.81
657.253	200.81
657.457	206.81
657.661	171.81
657.865	157.81
658.068	147.81
658.272	151.81
658.476	139.81
658.68	146.81
658.883	139.81
659.087	130.81
659.291	133.81
659.494	115.81
659.698	118.81
659.901	97.81
660.105	120.81
660.309	132.81
660.512	114.81
660.716	109.81
660.919	95.81
661.123	106.81
661.326	110.81
661.53	100.81
661.733	103.81
661.936	102.81
662.14	98.81
662.343	83.81
662.546	92.81
662.75	89.81
662.953	95.81
663.156	99.81
663.36	89.81
663.563	95.81
663.766	92.81
663.969	94.81
664.173	83.81
664.376	74.81
664.579	64.81
664.782	83.81
664.985	86.81
665.188	100.81
665.391	82.81
665.594	71.81
665.797	65.81
666	71.81
666.203	91.81
666.406	69.81
666.609	73.81
666.812	76.81
667.015	91.81
667.218	93.81
667.421	84.81
667.624	88.81
667.827	78.81
668.03	80.81
668.232	87.81
668.435	84.81
668.638	80.81
668.841	83.81
669.043	71.81
669.246	84.81
669.449	86.81
669.651	90.81
669.854	89.81
670.057	67.81
670.259	77.81
670.462	81.81
670.665	87.81
670.867	81.81
671.07	83.81
671.272	80.81
671.475	70.81
671.677	75.81
671.88	66.81
672.082	81.81
672.284	86.81
672.487	79.81
672.689	63.81
672.892	77.81
