Data from SnStandardFlinnAPT0064_LampEnergy5.5_LIBS07252019.E.O._I.C._HRD10591_15-17-17-491.txt Node
Date: Thu Jul 25 15:17:17 EDT 2019
User: cochatt
Spectrometer: HR+D1059
Trigger mode: 1
Integration Time (sec): 1.000000E-1
Scans to average: 1
Electric dark correction enabled: true
Nonlinearity correction enabled: false
Boxcar width: 0
XAxis mode: Wavelengths
Number of Pixels in Spectrum: 2048
>>>>>Begin Spectral Data<<<<<
223.165	-18.31
223.4	-18.31
223.635	-18.31
223.869	-19.31
224.104	-13.31
224.338	-13.31
224.573	-11.31
224.808	-21.31
225.042	10.69
225.277	4.69
225.511	-5.31
225.746	14.69
225.98	-0.31
226.215	8.69
226.449	9.69
226.683	8.69
226.918	12.69
227.152	32.69
227.387	30.69
227.621	40.69
227.856	58.69
228.09	39.69
228.324	59.69
228.559	43.69
228.793	82.69
229.027	155.69
229.262	164.69
229.496	159.69
229.73	152.69
229.964	148.69
230.199	157.69
230.433	179.69
230.667	171.69
230.901	163.69
231.136	172.69
231.37	178.69
231.604	180.69
231.838	202.69
232.072	253.69
232.306	275.69
232.541	227.69
232.775	232.69
233.009	197.69
233.243	202.69
233.477	221.69
233.711	256.69
233.945	277.69
234.179	256.69
234.413	243.69
234.647	231.69
234.881	231.69
235.115	245.69
235.349	285.69
235.583	349.69
235.817	462.69
236.051	480.69
236.285	311.69
236.519	264.69
236.753	240.69
236.987	227.69
237.221	259.69
237.455	260.69
237.689	237.69
237.922	228.69
238.156	244.69
238.39	256.69
238.624	255.69
238.858	236.69
239.091	235.69
239.325	250.69
239.559	257.69
239.793	237.69
240.027	250.69
240.26	259.69
240.494	262.69
240.728	277.69
240.961	298.69
241.195	300.69
241.429	317.69
241.662	318.69
241.896	357.69
242.13	408.69
242.363	551.69
242.597	692.69
242.83	667.69
243.064	666.69
243.298	821.69
243.531	684.69
243.765	456.69
243.998	351.69
244.232	310.69
244.465	317.69
244.699	289.69
244.932	297.69
245.166	305.69
245.399	325.69
245.633	317.69
245.866	325.69
246.099	314.69
246.333	326.69
246.566	314.69
246.8	300.69
247.033	304.69
247.266	306.69
247.5	298.69
247.733	320.69
247.966	332.69
248.2	348.69
248.433	382.69
248.666	421.69
248.899	408.69
249.133	378.69
249.366	386.69
249.599	425.69
249.832	472.69
250.066	486.69
250.299	406.69
250.532	372.69
250.765	338.69
250.998	352.69
251.231	353.69
251.465	349.69
251.698	334.69
251.931	353.69
252.164	356.69
252.397	350.69
252.63	351.69
252.863	364.69
253.096	383.69
253.329	384.69
253.562	369.69
253.795	387.69
254.028	387.69
254.261	400.69
254.494	403.69
254.727	466.69
254.96	557.69
255.193	530.69
255.426	436.69
255.659	416.69
255.892	398.69
256.124	392.69
256.357	397.69
256.59	422.69
256.823	446.69
257.056	480.69
257.289	558.69
257.521	638.69
257.754	524.69
257.987	454.69
258.22	433.69
258.452	410.69
258.685	420.69
258.918	428.69
259.151	445.69
259.383	478.69
259.616	531.69
259.849	555.69
260.081	476.69
260.314	438.69
260.547	450.69
260.779	427.69
261.012	452.69
261.244	447.69
261.477	460.69
261.71	462.69
261.942	459.69
262.175	477.69
262.407	484.69
262.64	477.69
262.872	495.69
263.105	536.69
263.337	570.69
263.57	576.69
263.802	596.69
264.035	599.69
264.267	598.69
264.499	613.69
264.732	678.69
264.964	649.69
265.197	652.69
265.429	643.69
265.661	652.69
265.894	688.69
266.126	768.69
266.358	872.69
266.591	825.69
266.823	710.69
267.055	658.69
267.287	635.69
267.52	602.69
267.752	588.69
267.984	596.69
268.216	578.69
268.448	552.69
268.681	589.69
268.913	579.69
269.145	565.69
269.377	562.69
269.609	552.69
269.841	588.69
270.073	620.69
270.306	742.69
270.538	930.69
270.77	1366.69
271.002	1699.69
271.234	1184.69
271.466	777.69
271.698	650.69
271.93	616.69
272.162	609.69
272.394	605.69
272.626	555.69
272.858	557.69
273.09	547.69
273.322	565.69
273.553	536.69
273.785	563.69
274.017	561.69
274.249	550.69
274.481	554.69
274.713	554.69
274.945	569.69
275.176	578.69
275.408	552.69
275.64	558.69
275.872	556.69
276.104	558.69
276.335	572.69
276.567	560.69
276.799	556.69
277.031	574.69
277.262	604.69
277.494	626.69
277.726	672.69
277.957	779.69
278.189	855.69
278.421	802.69
278.652	769.69
278.884	724.69
279.115	636.69
279.347	605.69
279.579	612.69
279.81	627.69
280.042	632.69
280.273	644.69
280.505	639.69
280.736	659.69
280.968	703.69
281.199	752.69
281.431	834.69
281.662	871.69
281.894	760.69
282.125	722.69
282.356	711.69
282.588	713.69
282.819	741.69
283.051	756.69
283.282	854.69
283.513	1030.69
283.745	1507.69
283.976	2446.69
284.207	3487.69
284.439	3097.69
284.67	1852.69
284.901	1460.69
285.132	1485.69
285.364	1438.69
285.595	1103.69
285.826	1012.69
286.057	1206.69
286.288	1634.69
286.52	2220.69
286.751	2043.69
286.982	1261.69
287.213	948.69
287.444	852.69
287.675	770.69
287.906	749.69
288.138	734.69
288.369	741.69
288.6	744.69
288.831	753.69
289.062	740.69
289.293	745.69
289.524	754.69
289.755	756.69
289.986	736.69
290.217	776.69
290.448	735.69
290.679	754.69
290.91	751.69
291.141	784.69
291.371	825.69
291.602	880.69
291.833	798.69
292.064	734.69
292.295	761.69
292.526	733.69
292.757	723.69
292.987	696.69
293.218	707.69
293.449	724.69
293.68	714.69
293.91	699.69
294.141	690.69
294.372	691.69
294.603	674.69
294.833	692.69
295.064	681.69
295.295	708.69
295.525	676.69
295.756	708.69
295.987	710.69
296.217	708.69
296.448	721.69
296.679	693.69
296.909	716.69
297.14	712.69
297.37	729.69
297.601	714.69
297.831	714.69
298.062	721.69
298.292	712.69
298.523	740.69
298.753	761.69
298.984	741.69
299.214	766.69
299.445	772.69
299.675	760.69
299.905	813.69
300.136	841.69
300.366	922.69
300.597	1164.69
300.827	1595.69
301.057	2182.69
301.288	2194.69
301.518	1386.69
301.748	1058.69
301.979	970.69
302.209	980.69
302.439	944.69
302.669	1032.69
302.9	1206.69
303.13	1684.69
303.36	2487.69
303.59	3436.69
303.82	2920.69
304.051	1722.69
304.281	1208.69
304.511	1034.69
304.741	946.69
304.971	915.69
305.201	870.69
305.431	845.69
305.661	871.69
305.891	844.69
306.121	825.69
306.352	809.69
306.582	823.69
306.812	781.69
307.042	807.69
307.272	812.69
307.502	778.69
307.731	826.69
307.961	796.69
308.191	779.69
308.421	768.69
308.651	814.69
308.881	802.69
309.111	790.69
309.341	805.69
309.571	820.69
309.8	818.69
310.03	814.69
310.26	814.69
310.49	825.69
310.72	823.69
310.949	836.69
311.179	839.69
311.409	857.69
311.639	826.69
311.868	808.69
312.098	849.69
312.328	847.69
312.557	888.69
312.787	850.69
313.017	862.69
313.246	883.69
313.476	878.69
313.706	908.69
313.935	962.69
314.165	971.69
314.394	1026.69
314.624	980.69
314.853	936.69
315.083	916.69
315.312	934.69
315.542	942.69
315.771	973.69
316.001	978.69
316.23	987.69
316.46	1040.69
316.689	1099.69
316.919	1331.69
317.148	1891.69
317.377	3026.69
317.607	4476.69
317.836	4669.69
318.065	2649.69
318.295	1693.69
318.524	1356.69
318.753	1226.69
318.983	1146.69
319.212	1061.69
319.441	1005.69
319.67	1020.69
319.9	1023.69
320.129	992.69
320.358	998.69
320.587	1056.69
320.816	992.69
321.046	1017.69
321.275	1004.69
321.504	1033.69
321.733	1028.69
321.962	1058.69
322.191	1064.69
322.42	1078.69
322.649	1065.69
322.878	1061.69
323.108	1051.69
323.337	1092.69
323.566	1111.69
323.795	1120.69
324.024	1158.69
324.253	1161.69
324.482	1192.69
324.71	1241.69
324.939	1339.69
325.168	1342.69
325.397	1392.69
325.626	1645.69
325.855	2267.69
326.084	3676.69
326.313	5496.69
326.542	5863.69
326.77	3632.69
326.999	2312.69
327.228	1942.69
327.457	1850.69
327.686	1880.69
327.914	2023.69
328.143	2280.69
328.372	2598.69
328.6	2839.69
328.829	2612.69
329.058	2296.69
329.287	2061.69
329.515	1900.69
329.744	1746.69
329.972	1682.69
330.201	1615.69
330.43	1554.69
330.658	1482.69
330.887	1480.69
331.115	1449.69
331.344	1457.69
331.572	1453.69
331.801	1460.69
332.03	1445.69
332.258	1470.69
332.486	1536.69
332.715	1781.69
332.943	2140.69
333.172	2652.69
333.4	2589.69
333.629	1986.69
333.857	1794.69
334.085	1795.69
334.314	1934.69
334.542	2042.69
334.771	2347.69
334.999	2816.69
335.227	3452.69
335.455	3776.69
335.684	3536.69
335.912	3012.69
336.14	2566.69
336.369	2326.69
336.597	2152.69
336.825	1954.69
337.053	1863.69
337.281	1790.69
337.51	1700.69
337.738	1624.69
337.966	1556.69
338.194	1482.69
338.422	1464.69
338.65	1416.69
338.878	1400.69
339.106	1370.69
339.334	1340.69
339.562	1314.69
339.79	1308.69
340.018	1313.69
340.246	1292.69
340.474	1284.69
340.702	1283.69
340.93	1301.69
341.158	1304.69
341.386	1285.69
341.614	1282.69
341.842	1261.69
342.07	1267.69
342.298	1220.69
342.526	1185.69
342.754	1186.69
342.981	1148.69
343.209	1179.69
343.437	1192.69
343.665	1237.69
343.893	1218.69
344.12	1222.69
344.348	1228.69
344.576	1178.69
344.804	1157.69
345.031	1150.69
345.259	1156.69
345.487	1095.69
345.714	1133.69
345.942	1101.69
346.17	1109.69
346.397	1105.69
346.625	1096.69
346.853	1112.69
347.08	1078.69
347.308	1083.69
347.535	1109.69
347.763	1074.69
347.99	1078.69
348.218	1089.69
348.445	1090.69
348.673	1056.69
348.9	1075.69
349.128	1063.69
349.355	1053.69
349.583	1048.69
349.81	1046.69
350.037	1066.69
350.265	1062.69
350.492	1077.69
350.72	1021.69
350.947	1042.69
351.174	1062.69
351.402	1083.69
351.629	1056.69
351.856	1038.69
352.083	1019.69
352.311	1041.69
352.538	1001.69
352.765	1044.69
352.992	1054.69
353.22	1061.69
353.447	1057.69
353.674	1049.69
353.901	1048.69
354.128	1045.69
354.355	1058.69
354.583	1052.69
354.81	1077.69
355.037	1069.69
355.264	1074.69
355.491	1052.69
355.718	1066.69
355.945	1070.69
356.172	1076.69
356.399	1096.69
356.626	1083.69
356.853	1090.69
357.08	1108.69
357.307	1122.69
357.534	1120.69
357.761	1101.69
357.988	1106.69
358.215	1120.69
358.441	1097.69
358.668	1112.69
358.895	1103.69
359.122	1089.69
359.349	1072.69
359.576	1094.69
359.802	1049.69
360.029	1096.69
360.256	1124.69
360.483	1123.69
360.709	1131.69
360.936	1113.69
361.163	1139.69
361.39	1140.69
361.616	1118.69
361.843	1121.69
362.07	1155.69
362.296	1112.69
362.523	1086.69
362.749	1131.69
362.976	1125.69
363.203	1116.69
363.429	1116.69
363.656	1102.69
363.882	1133.69
364.109	1132.69
364.335	1101.69
364.562	1121.69
364.788	1121.69
365.015	1125.69
365.241	1160.69
365.468	1172.69
365.694	1223.69
365.92	1188.69
366.147	1148.69
366.373	1131.69
366.599	1128.69
366.826	1129.69
367.052	1090.69
367.278	1172.69
367.505	1145.69
367.731	1124.69
367.957	1140.69
368.184	1152.69
368.41	1146.69
368.636	1181.69
368.862	1151.69
369.089	1152.69
369.315	1140.69
369.541	1137.69
369.767	1177.69
369.993	1142.69
370.219	1169.69
370.445	1149.69
370.672	1154.69
370.898	1174.69
371.124	1163.69
371.35	1210.69
371.576	1151.69
371.802	1200.69
372.028	1168.69
372.254	1219.69
372.48	1200.69
372.706	1200.69
372.932	1235.69
373.158	1231.69
373.384	1260.69
373.61	1224.69
373.835	1233.69
374.061	1236.69
374.287	1238.69
374.513	1244.69
374.739	1258.69
374.965	1253.69
375.191	1266.69
375.416	1277.69
375.642	1249.69
375.868	1249.69
376.094	1236.69
376.319	1222.69
376.545	1211.69
376.771	1236.69
376.997	1210.69
377.222	1217.69
377.448	1203.69
377.674	1192.69
377.899	1213.69
378.125	1181.69
378.35	1187.69
378.576	1206.69
378.802	1243.69
379.027	1228.69
379.253	1268.69
379.478	1319.69
379.704	1540.69
379.929	2130.69
380.155	3316.69
380.38	3523.69
380.606	2155.69
380.831	1512.69
381.057	1351.69
381.282	1266.69
381.507	1216.69
381.733	1213.69
381.958	1198.69
382.184	1216.69
382.409	1196.69
382.634	1194.69
382.86	1203.69
383.085	1191.69
383.31	1200.69
383.535	1202.69
383.761	1165.69
383.986	1190.69
384.211	1186.69
384.436	1229.69
384.662	1216.69
384.887	1219.69
385.112	1236.69
385.337	1244.69
385.562	1202.69
385.787	1244.69
386.013	1237.69
386.238	1238.69
386.463	1206.69
386.688	1239.69
386.913	1229.69
387.138	1227.69
387.363	1237.69
387.588	1218.69
387.813	1224.69
388.038	1236.69
388.263	1245.69
388.488	1225.69
388.713	1219.69
388.938	1220.69
389.163	1201.69
389.387	1235.69
389.612	1182.69
389.837	1199.69
390.062	1192.69
390.287	1236.69
390.512	1236.69
390.736	1251.69
390.961	1253.69
391.186	1252.69
391.411	1267.69
391.636	1290.69
391.86	1286.69
392.085	1272.69
392.31	1286.69
392.534	1246.69
392.759	1266.69
392.984	1249.69
393.208	1277.69
393.433	1296.69
393.658	1276.69
393.882	1253.69
394.107	1247.69
394.331	1272.69
394.556	1251.69
394.78	1268.69
395.005	1290.69
395.229	1241.69
395.454	1281.69
395.678	1279.69
395.903	1292.69
396.127	1251.69
396.352	1274.69
396.576	1258.69
396.801	1254.69
397.025	1282.69
397.249	1275.69
397.474	1310.69
397.698	1282.69
397.922	1309.69
398.147	1317.69
398.371	1337.69
398.595	1373.69
398.82	1360.69
399.044	1448.69
399.268	1476.69
399.492	1581.69
399.717	1618.69
399.941	1645.69
400.165	1588.69
400.389	1505.69
400.613	1439.69
400.837	1420.69
401.062	1395.69
401.286	1392.69
401.51	1389.69
401.734	1359.69
401.958	1356.69
402.182	1357.69
402.406	1318.69
402.63	1342.69
402.854	1396.69
403.078	1387.69
403.302	1386.69
403.526	1428.69
403.75	1406.69
403.974	1392.69
404.198	1378.69
404.422	1442.69
404.645	1426.69
404.869	1411.69
405.093	1440.69
405.317	1398.69
405.541	1401.69
405.765	1428.69
405.988	1437.69
406.212	1450.69
406.436	1408.69
406.66	1473.69
406.883	1445.69
407.107	1494.69
407.331	1531.69
407.555	1553.69
407.778	1517.69
408.002	1484.69
408.226	1492.69
408.449	1479.69
408.673	1450.69
408.896	1465.69
409.12	1400.69
409.344	1422.69
409.567	1412.69
409.791	1439.69
410.014	1406.69
410.238	1394.69
410.461	1396.69
410.685	1381.69
410.908	1378.69
411.132	1380.69
411.355	1330.69
411.578	1378.69
411.802	1346.69
412.025	1338.69
412.249	1338.69
412.472	1336.69
412.695	1329.69
412.919	1329.69
413.142	1339.69
413.365	1324.69
413.589	1308.69
413.812	1321.69
414.035	1324.69
414.258	1317.69
414.482	1326.69
414.705	1355.69
414.928	1331.69
415.151	1304.69
415.374	1316.69
415.597	1299.69
415.821	1281.69
416.044	1267.69
416.267	1257.69
416.49	1264.69
416.713	1294.69
416.936	1297.69
417.159	1279.69
417.382	1259.69
417.605	1280.69
417.828	1245.69
418.051	1288.69
418.274	1289.69
418.497	1267.69
418.72	1357.69
418.943	1310.69
419.166	1362.69
419.389	1414.69
419.611	1392.69
419.834	1357.69
420.057	1308.69
420.28	1285.69
420.503	1290.69
420.726	1288.69
420.948	1269.69
421.171	1294.69
421.394	1320.69
421.617	1280.69
421.839	1314.69
422.062	1328.69
422.285	1302.69
422.507	1309.69
422.73	1295.69
422.953	1337.69
423.175	1315.69
423.398	1318.69
423.621	1271.69
423.843	1266.69
424.066	1282.69
424.288	1321.69
424.511	1323.69
424.733	1278.69
424.956	1249.69
425.178	1267.69
425.401	1278.69
425.623	1295.69
425.846	1266.69
426.068	1266.69
426.291	1177.69
426.513	1232.69
426.735	1217.69
426.958	1221.69
427.18	1218.69
427.402	1222.69
427.625	1228.69
427.847	1197.69
428.069	1181.69
428.292	1206.69
428.514	1216.69
428.736	1195.69
428.958	1193.69
429.181	1150.69
429.403	1188.69
429.625	1198.69
429.847	1156.69
430.069	1216.69
430.292	1250.69
430.514	1258.69
430.736	1285.69
430.958	1218.69
431.18	1179.69
431.402	1204.69
431.624	1173.69
431.846	1156.69
432.068	1145.69
432.29	1171.69
432.512	1190.69
432.734	1186.69
432.956	1148.69
433.178	1178.69
433.4	1187.69
433.622	1181.69
433.844	1183.69
434.066	1184.69
434.287	1148.69
434.509	1188.69
434.731	1202.69
434.953	1243.69
435.175	1240.69
435.397	1224.69
435.618	1184.69
435.84	1196.69
436.062	1178.69
436.284	1206.69
436.505	1160.69
436.727	1206.69
436.949	1192.69
437.17	1159.69
437.392	1193.69
437.614	1148.69
437.835	1172.69
438.057	1171.69
438.278	1129.69
438.5	1142.69
438.721	1180.69
438.943	1204.69
439.165	1242.69
439.386	1212.69
439.608	1219.69
439.829	1251.69
440.05	1266.69
440.272	1272.69
440.493	1217.69
440.715	1219.69
440.936	1230.69
441.158	1242.69
441.379	1236.69
441.6	1312.69
441.822	1319.69
442.043	1359.69
442.264	1370.69
442.486	1318.69
442.707	1260.69
442.928	1268.69
443.149	1257.69
443.371	1262.69
443.592	1226.69
443.813	1260.69
444.034	1280.69
444.255	1282.69
444.476	1328.69
444.698	1349.69
444.919	1374.69
445.14	1422.69
445.361	1350.69
445.582	1285.69
445.803	1283.69
446.024	1256.69
446.245	1300.69
446.466	1256.69
446.687	1254.69
446.908	1253.69
447.129	1209.69
447.35	1164.69
447.571	1173.69
447.792	1142.69
448.013	1220.69
448.234	1187.69
448.455	1175.69
448.675	1200.69
448.896	1193.69
449.117	1222.69
449.338	1338.69
449.559	1353.69
449.779	1270.69
450	1158.69
450.221	1149.69
450.442	1167.69
450.662	1140.69
450.883	1145.69
451.104	1143.69
451.324	1127.69
451.545	1122.69
451.766	1111.69
451.986	1165.69
452.207	1197.69
452.428	1478.69
452.648	2148.69
452.869	1812.69
453.089	1324.69
453.31	1266.69
453.53	1243.69
453.751	1289.69
453.971	1380.69
454.192	1364.69
454.412	1197.69
454.633	1143.69
454.853	1106.69
455.073	1094.69
455.294	1127.69
455.514	1081.69
455.734	1089.69
455.955	1080.69
456.175	1092.69
456.395	1056.69
456.616	1078.69
456.836	1090.69
457.056	1069.69
457.276	1107.69
457.497	1154.69
457.717	1154.69
457.937	1146.69
458.157	1111.69
458.377	1130.69
458.598	1163.69
458.818	1125.69
459.038	1130.69
459.258	1129.69
459.478	1178.69
459.698	1157.69
459.918	1236.69
460.138	1217.69
460.358	1272.69
460.578	1229.69
460.798	1282.69
461.018	1251.69
461.238	1276.69
461.458	1278.69
461.678	1315.69
461.898	1334.69
462.118	1325.69
462.338	1374.69
462.558	1355.69
462.777	1390.69
462.997	1397.69
463.217	1498.69
463.437	1540.69
463.657	1567.69
463.876	1517.69
464.096	1471.69
464.316	1364.69
464.536	1397.69
464.755	1364.69
464.975	1342.69
465.195	1318.69
465.414	1250.69
465.634	1234.69
465.854	1218.69
466.073	1211.69
466.293	1190.69
466.512	1185.69
466.732	1184.69
466.951	1267.69
467.171	1311.69
467.391	1324.69
467.61	1217.69
467.829	1165.69
468.049	1175.69
468.268	1141.69
468.488	1126.69
468.707	1152.69
468.927	1145.69
469.146	1125.69
469.365	1162.69
469.585	1166.69
469.804	1227.69
470.023	1234.69
470.243	1231.69
470.462	1287.69
470.681	1332.69
470.901	1444.69
471.12	1643.69
471.339	1678.69
471.558	1436.69
471.777	1301.69
471.997	1228.69
472.216	1222.69
472.435	1186.69
472.654	1158.69
472.873	1158.69
473.092	1148.69
473.311	1156.69
473.53	1185.69
473.749	1206.69
473.968	1242.69
474.187	1208.69
474.406	1142.69
474.625	1177.69
474.844	1180.69
475.063	1163.69
475.282	1176.69
475.501	1179.69
475.72	1157.69
475.939	1212.69
476.158	1188.69
476.377	1245.69
476.596	1211.69
476.814	1219.69
477.033	1238.69
477.252	1245.69
477.471	1256.69
477.69	1294.69
477.908	1294.69
478.127	1300.69
478.346	1322.69
478.564	1332.69
478.783	1335.69
479.002	1369.69
479.22	1368.69
479.439	1382.69
479.658	1370.69
479.876	1378.69
480.095	1385.69
480.313	1417.69
480.532	1423.69
480.751	1425.69
480.969	1381.69
481.188	1374.69
481.406	1352.69
481.624	1384.69
481.843	1387.69
482.061	1394.69
482.28	1373.69
482.498	1360.69
482.717	1394.69
482.935	1397.69
483.153	1450.69
483.372	1472.69
483.59	1476.69
483.808	1511.69
484.027	1512.69
484.245	1532.69
484.463	1772.69
484.681	1986.69
484.9	1814.69
485.118	1659.69
485.336	1609.69
485.554	1632.69
485.772	1726.69
485.99	1927.69
486.209	2145.69
486.427	1816.69
486.645	1608.69
486.863	1554.69
487.081	1544.69
487.299	1490.69
487.517	1494.69
487.735	1521.69
487.953	1508.69
488.171	1496.69
488.389	1491.69
488.607	1482.69
488.825	1469.69
489.043	1424.69
489.261	1422.69
489.479	1407.69
489.696	1440.69
489.914	1448.69
490.132	1462.69
490.35	1462.69
490.568	1466.69
490.786	1509.69
491.003	1522.69
491.221	1520.69
491.439	1524.69
491.657	1520.69
491.874	1544.69
492.092	1567.69
492.31	1560.69
492.527	1572.69
492.745	1565.69
492.963	1547.69
493.18	1540.69
493.398	1557.69
493.615	1538.69
493.833	1544.69
494.05	1545.69
494.268	1568.69
494.485	1515.69
494.703	1569.69
494.92	1560.69
495.138	1529.69
495.355	1540.69
495.573	1546.69
495.79	1523.69
496.008	1564.69
496.225	1538.69
496.442	1563.69
496.66	1649.69
496.877	1696.69
497.094	1676.69
497.312	1616.69
497.529	1634.69
497.746	1659.69
497.963	1694.69
498.181	1737.69
498.398	1788.69
498.615	1799.69
498.832	1830.69
499.049	1941.69
499.267	2054.69
499.484	2208.69
499.701	2224.69
499.918	2265.69
500.135	2427.69
500.352	2561.69
500.569	2599.69
500.786	2528.69
501.003	2471.69
501.22	2366.69
501.437	2219.69
501.654	2106.69
501.871	2018.69
502.088	1901.69
502.305	1854.69
502.522	1824.69
502.739	1805.69
502.956	1740.69
503.172	1645.69
503.389	1630.69
503.606	1594.69
503.823	1615.69
504.04	1600.69
504.256	1605.69
504.473	1585.69
504.69	1607.69
504.907	1566.69
505.123	1531.69
505.34	1517.69
505.557	1421.69
505.773	1427.69
505.99	1442.69
506.207	1416.69
506.423	1400.69
506.64	1416.69
506.856	1363.69
507.073	1352.69
507.289	1365.69
507.506	1322.69
507.722	1333.69
507.939	1347.69
508.155	1297.69
508.372	1318.69
508.588	1321.69
508.805	1298.69
509.021	1300.69
509.238	1340.69
509.454	1384.69
509.67	1469.69
509.887	1369.69
510.103	1338.69
510.319	1271.69
510.536	1299.69
510.752	1270.69
510.968	1282.69
511.184	1249.69
511.401	1264.69
511.617	1257.69
511.833	1245.69
512.049	1217.69
512.265	1229.69
512.481	1247.69
512.698	1226.69
512.914	1232.69
513.13	1240.69
513.346	1206.69
513.562	1250.69
513.778	1270.69
513.994	1300.69
514.21	1298.69
514.426	1351.69
514.642	1378.69
514.858	1319.69
515.074	1249.69
515.29	1295.69
515.506	1250.69
515.721	1284.69
515.937	1280.69
516.153	1283.69
516.369	1304.69
516.585	1330.69
516.801	1337.69
517.016	1348.69
517.232	1396.69
517.448	1426.69
517.664	1395.69
517.879	1401.69
518.095	1425.69
518.311	1408.69
518.527	1394.69
518.742	1403.69
518.958	1379.69
519.173	1392.69
519.389	1349.69
519.605	1321.69
519.82	1302.69
520.036	1295.69
520.251	1274.69
520.467	1273.69
520.682	1224.69
520.898	1218.69
521.113	1264.69
521.329	1227.69
521.544	1235.69
521.76	1238.69
521.975	1225.69
522.19	1224.69
522.406	1186.69
522.621	1206.69
522.836	1214.69
523.052	1237.69
523.267	1219.69
523.482	1209.69
523.698	1207.69
523.913	1215.69
524.128	1190.69
524.343	1213.69
524.559	1222.69
524.774	1210.69
524.989	1193.69
525.204	1211.69
525.419	1223.69
525.634	1194.69
525.849	1213.69
526.064	1195.69
526.28	1206.69
526.495	1202.69
526.71	1172.69
526.925	1197.69
527.14	1195.69
527.355	1202.69
527.57	1193.69
527.785	1212.69
527.999	1206.69
528.214	1220.69
528.429	1250.69
528.644	1265.69
528.859	1256.69
529.074	1298.69
529.289	1328.69
529.503	1286.69
529.718	1266.69
529.933	1292.69
530.148	1277.69
530.363	1267.69
530.577	1267.69
530.792	1265.69
531.007	1284.69
531.221	1273.69
531.436	1276.69
531.651	1300.69
531.865	1288.69
532.08	1329.69
532.295	1350.69
532.509	1438.69
532.724	1438.69
532.938	1444.69
533.153	1480.69
533.367	1555.69
533.582	1596.69
533.796	1609.69
534.011	1535.69
534.225	1486.69
534.44	1439.69
534.654	1408.69
534.868	1408.69
535.083	1430.69
535.297	1400.69
535.511	1382.69
535.726	1340.69
535.94	1322.69
536.154	1344.69
536.369	1300.69
536.583	1304.69
536.797	1265.69
537.011	1234.69
537.225	1249.69
537.44	1231.69
537.654	1229.69
537.868	1214.69
538.082	1219.69
538.296	1188.69
538.51	1171.69
538.724	1197.69
538.938	1198.69
539.153	1181.69
539.367	1176.69
539.581	1166.69
539.795	1156.69
540.009	1186.69
540.222	1143.69
540.436	1152.69
540.65	1180.69
540.864	1193.69
541.078	1213.69
541.292	1285.69
541.506	1529.69
541.72	1595.69
541.934	1418.69
542.147	1320.69
542.361	1282.69
542.575	1227.69
542.789	1168.69
543.002	1153.69
543.216	1140.69
543.43	1165.69
543.644	1128.69
543.857	1133.69
544.071	1152.69
544.285	1174.69
544.498	1158.69
544.712	1138.69
544.925	1162.69
545.139	1158.69
545.352	1149.69
545.566	1163.69
545.779	1172.69
545.993	1202.69
546.206	1172.69
546.42	1165.69
546.633	1194.69
546.847	1195.69
547.06	1164.69
547.274	1193.69
547.487	1191.69
547.7	1210.69
547.914	1159.69
548.127	1196.69
548.34	1172.69
548.554	1176.69
548.767	1177.69
548.98	1176.69
549.193	1180.69
549.407	1176.69
549.62	1193.69
549.833	1166.69
550.046	1162.69
550.259	1186.69
550.473	1181.69
550.686	1159.69
550.899	1192.69
551.112	1174.69
551.325	1157.69
551.538	1166.69
551.751	1152.69
551.964	1150.69
552.177	1141.69
552.39	1174.69
552.603	1214.69
552.816	1249.69
553.029	1235.69
553.242	1243.69
553.455	1282.69
553.667	1289.69
553.88	1284.69
554.093	1283.69
554.306	1269.69
554.519	1321.69
554.732	1324.69
554.944	1313.69
555.157	1339.69
555.37	1395.69
555.583	1396.69
555.795	1446.69
556.008	1515.69
556.221	1692.69
556.433	1738.69
556.646	1747.69
556.859	1693.69
557.071	1666.69
557.284	1666.69
557.496	1567.69
557.709	1589.69
557.921	1565.69
558.134	1572.69
558.346	1585.69
558.559	1565.69
558.771	1731.69
558.984	1808.69
559.196	1896.69
559.409	1826.69
559.621	1738.69
559.833	1661.69
560.046	1549.69
560.258	1493.69
560.47	1469.69
560.683	1441.69
560.895	1318.69
561.107	1272.69
561.32	1294.69
561.532	1255.69
561.744	1212.69
561.956	1182.69
562.168	1196.69
562.381	1194.69
562.593	1181.69
562.805	1191.69
563.017	1204.69
563.229	1231.69
563.441	1323.69
563.653	1154.69
563.865	1114.69
564.077	1100.69
564.289	1082.69
564.501	1087.69
564.713	1058.69
564.925	1088.69
565.137	1077.69
565.349	1093.69
565.561	1091.69
565.773	1084.69
565.985	1083.69
566.197	1113.69
566.408	1147.69
566.62	1141.69
566.832	1194.69
567.044	1209.69
567.255	1176.69
567.467	1184.69
567.679	1237.69
567.891	1281.69
568.102	1434.69
568.314	1658.69
568.526	1400.69
568.737	1242.69
568.949	1104.69
569.161	1028.69
569.372	1028.69
569.584	971.69
569.795	965.69
570.007	965.69
570.218	954.69
570.43	1005.69
570.641	931.69
570.853	891.69
571.064	884.69
571.276	878.69
571.487	876.69
571.698	865.69
571.91	847.69
572.121	841.69
572.333	871.69
572.544	860.69
572.755	914.69
572.966	1074.69
573.178	944.69
573.389	855.69
573.6	826.69
573.811	803.69
574.023	799.69
574.234	807.69
574.445	821.69
574.656	761.69
574.867	790.69
575.078	792.69
575.289	762.69
575.501	772.69
575.712	753.69
575.923	780.69
576.134	749.69
576.345	782.69
576.556	789.69
576.767	796.69
576.978	776.69
577.188	779.69
577.399	804.69
577.61	766.69
577.821	773.69
578.032	809.69
578.243	816.69
578.454	846.69
578.665	825.69
578.875	858.69
579.086	893.69
579.297	900.69
579.508	972.69
579.718	1031.69
579.929	1108.69
580.14	1263.69
580.35	1255.69
580.561	1189.69
580.772	1144.69
580.982	1037.69
581.193	990.69
581.403	963.69
581.614	929.69
581.825	881.69
582.035	869.69
582.246	818.69
582.456	831.69
582.667	814.69
582.877	801.69
583.087	768.69
583.298	717.69
583.508	738.69
583.719	718.69
583.929	713.69
584.139	706.69
584.35	700.69
584.56	685.69
584.77	656.69
584.981	670.69
585.191	674.69
585.401	661.69
585.611	643.69
585.821	621.69
586.032	638.69
586.242	653.69
586.452	620.69
586.662	624.69
586.872	605.69
587.082	589.69
587.292	586.69
587.502	600.69
587.713	586.69
587.923	597.69
588.133	594.69
588.343	577.69
588.553	583.69
588.762	585.69
588.972	549.69
589.182	570.69
589.392	580.69
589.602	569.69
589.812	582.69
590.022	551.69
590.232	576.69
590.441	575.69
590.651	546.69
590.861	564.69
591.071	570.69
591.281	570.69
591.49	549.69
591.7	541.69
591.91	582.69
592.119	564.69
592.329	542.69
592.539	572.69
592.748	595.69
592.958	595.69
593.167	597.69
593.377	585.69
593.587	585.69
593.796	573.69
594.006	580.69
594.215	593.69
594.424	604.69
594.634	591.69
594.843	593.69
595.053	547.69
595.262	555.69
595.472	547.69
595.681	531.69
595.89	549.69
596.1	510.69
596.309	524.69
596.518	507.69
596.727	519.69
596.937	501.69
597.146	504.69
597.355	500.69
597.564	510.69
597.774	505.69
597.983	477.69
598.192	480.69
598.401	478.69
598.61	474.69
598.819	471.69
599.028	467.69
599.237	464.69
599.446	466.69
599.655	485.69
599.864	440.69
600.073	468.69
600.282	445.69
600.491	462.69
600.7	467.69
600.909	467.69
601.118	459.69
601.327	482.69
601.536	469.69
601.745	486.69
601.953	534.69
602.162	605.69
602.371	518.69
602.58	472.69
602.789	466.69
602.997	444.69
603.206	474.69
603.415	466.69
603.623	446.69
603.832	458.69
604.041	442.69
604.249	460.69
604.458	445.69
604.666	422.69
604.875	414.69
605.084	425.69
605.292	444.69
605.501	448.69
605.709	461.69
605.918	454.69
606.126	427.69
606.334	446.69
606.543	438.69
606.751	509.69
606.96	560.69
607.168	612.69
607.376	512.69
607.585	492.69
607.793	458.69
608.001	444.69
608.21	446.69
608.418	428.69
608.626	447.69
608.834	414.69
609.043	426.69
609.251	423.69
609.459	440.69
609.667	454.69
609.875	442.69
610.083	420.69
610.291	429.69
610.499	448.69
610.707	436.69
610.916	416.69
611.124	419.69
611.332	428.69
611.54	401.69
611.748	416.69
611.955	390.69
612.163	422.69
612.371	409.69
612.579	416.69
612.787	408.69
612.995	422.69
613.203	411.69
613.411	394.69
613.618	403.69
613.826	426.69
614.034	392.69
614.242	407.69
614.449	426.69
614.657	409.69
614.865	419.69
615.072	428.69
615.28	414.69
615.488	389.69
615.695	409.69
615.903	404.69
616.111	409.69
616.318	397.69
616.526	411.69
616.733	407.69
616.941	401.69
617.148	384.69
617.356	407.69
617.563	391.69
617.771	392.69
617.978	402.69
618.185	384.69
618.393	377.69
618.6	398.69
618.807	357.69
619.015	380.69
619.222	390.69
619.429	390.69
619.637	383.69
619.844	370.69
620.051	362.69
620.258	356.69
620.466	369.69
620.673	357.69
620.88	354.69
621.087	390.69
621.294	374.69
621.501	377.69
621.708	385.69
621.915	358.69
622.122	341.69
622.329	362.69
622.536	369.69
622.743	382.69
622.95	353.69
623.157	349.69
623.364	369.69
623.571	372.69
623.778	361.69
623.985	358.69
624.192	341.69
624.399	365.69
624.606	360.69
624.812	350.69
625.019	343.69
625.226	363.69
625.433	342.69
625.639	362.69
625.846	329.69
626.053	340.69
626.259	316.69
626.466	333.69
626.673	326.69
626.879	345.69
627.086	335.69
627.293	315.69
627.499	324.69
627.706	340.69
627.912	335.69
628.119	334.69
628.325	333.69
628.532	323.69
628.738	349.69
628.945	329.69
629.151	332.69
629.357	330.69
629.564	339.69
629.77	310.69
629.976	334.69
630.183	330.69
630.389	308.69
630.595	333.69
630.802	327.69
631.008	317.69
631.214	304.69
631.42	314.69
631.627	326.69
631.833	306.69
632.039	303.69
632.245	284.69
632.451	304.69
632.657	299.69
632.863	301.69
633.069	318.69
633.275	313.69
633.481	311.69
633.688	307.69
633.893	278.69
634.099	297.69
634.305	300.69
634.511	308.69
634.717	315.69
634.923	314.69
635.129	357.69
635.335	408.69
635.541	353.69
635.747	333.69
635.952	334.69
636.158	307.69
636.364	326.69
636.57	316.69
636.775	308.69
636.981	297.69
637.187	306.69
637.392	310.69
637.598	308.69
637.804	314.69
638.009	316.69
638.215	315.69
638.421	307.69
638.626	307.69
638.832	304.69
639.037	308.69
639.243	321.69
639.448	299.69
639.654	317.69
639.859	320.69
640.065	304.69
640.27	295.69
640.475	310.69
640.681	323.69
640.886	314.69
641.091	311.69
641.297	312.69
641.502	312.69
641.707	324.69
641.913	338.69
642.118	357.69
642.323	339.69
642.528	359.69
642.733	357.69
642.939	362.69
643.144	349.69
643.349	365.69
643.554	390.69
643.759	399.69
643.964	407.69
644.169	429.69
644.374	456.69
644.579	471.69
644.784	522.69
644.989	601.69
645.194	656.69
645.399	765.69
645.604	799.69
645.809	627.69
646.014	527.69
646.219	450.69
646.423	410.69
646.628	405.69
646.833	357.69
647.038	349.69
647.243	341.69
647.447	315.69
647.652	312.69
647.857	299.69
648.062	324.69
648.266	298.69
648.471	287.69
648.676	301.69
648.88	277.69
649.085	291.69
649.289	281.69
649.494	288.69
649.698	263.69
649.903	268.69
650.107	261.69
650.312	274.69
650.516	262.69
650.721	275.69
650.925	273.69
651.13	242.69
651.334	237.69
651.539	231.69
651.743	256.69
651.947	223.69
652.152	236.69
652.356	248.69
652.56	264.69
652.764	298.69
652.969	254.69
653.173	240.69
653.377	229.69
653.581	216.69
653.785	234.69
653.99	228.69
654.194	201.69
654.398	227.69
654.602	201.69
654.806	205.69
655.01	216.69
655.214	196.69
655.418	204.69
655.622	205.69
655.826	211.69
656.03	235.69
656.234	230.69
656.438	225.69
656.642	228.69
656.846	224.69
657.049	224.69
657.253	202.69
657.457	183.69
657.661	180.69
657.865	176.69
658.068	161.69
658.272	168.69
658.476	153.69
658.68	148.69
658.883	165.69
659.087	132.69
659.291	148.69
659.494	128.69
659.698	126.69
659.901	125.69
660.105	127.69
660.309	126.69
660.512	116.69
660.716	124.69
660.919	108.69
661.123	117.69
661.326	118.69
661.53	102.69
661.733	102.69
661.936	111.69
662.14	103.69
662.343	95.69
662.546	77.69
662.75	102.69
662.953	78.69
663.156	96.69
663.36	97.69
663.563	95.69
663.766	93.69
663.969	100.69
664.173	98.69
664.376	72.69
664.579	83.69
664.782	82.69
664.985	90.69
665.188	85.69
665.391	87.69
665.594	90.69
665.797	91.69
666	84.69
666.203	81.69
666.406	85.69
666.609	82.69
666.812	89.69
667.015	85.69
667.218	92.69
667.421	103.69
667.624	79.69
667.827	80.69
668.03	76.69
668.232	90.69
668.435	82.69
668.638	86.69
668.841	90.69
669.043	76.69
669.246	89.69
669.449	78.69
669.651	83.69
669.854	81.69
670.057	88.69
670.259	74.69
670.462	74.69
670.665	78.69
670.867	76.69
671.07	77.69
671.272	93.69
671.475	94.69
671.677	95.69
671.88	73.69
672.082	87.69
672.284	99.69
672.487	84.69
672.689	70.69
672.892	78.69
