Data from SnStandardFlinnAPT0064_LampEnergy10_LIBS07252019.E.O._I.C._HRD10591_15-22-38-495.txt Node
Date: Thu Jul 25 15:22:38 EDT 2019
User: cochatt
Spectrometer: HR+D1059
Trigger mode: 1
Integration Time (sec): 1.000000E-1
Scans to average: 1
Electric dark correction enabled: true
Nonlinearity correction enabled: false
Boxcar width: 0
XAxis mode: Wavelengths
Number of Pixels in Spectrum: 2048
>>>>>Begin Spectral Data<<<<<
223.165	-14.25
223.4	-14.25
223.635	-14.25
223.869	-22.25
224.104	-18.25
224.338	-26.25
224.573	-6.25
224.808	-22.25
225.042	0.75
225.277	-1.25
225.511	-8.25
225.746	-1.25
225.98	8.75
226.215	3.75
226.449	22.75
226.683	19.75
226.918	30.75
227.152	33.75
227.387	35.75
227.621	49.75
227.856	42.75
228.09	46.75
228.324	49.75
228.559	49.75
228.793	122.75
229.027	280.75
229.262	336.75
229.496	309.75
229.73	288.75
229.964	291.75
230.199	286.75
230.433	315.75
230.667	297.75
230.901	307.75
231.136	306.75
231.37	330.75
231.604	370.75
231.838	431.75
232.072	493.75
232.306	543.75
232.541	458.75
232.775	410.75
233.009	407.75
233.243	404.75
233.477	442.75
233.711	493.75
233.945	573.75
234.179	490.75
234.413	438.75
234.647	466.75
234.881	447.75
235.115	473.75
235.349	570.75
235.583	718.75
235.817	938.75
236.051	929.75
236.285	629.75
236.519	509.75
236.753	462.75
236.987	484.75
237.221	519.75
237.455	504.75
237.689	438.75
237.922	448.75
238.156	473.75
238.39	470.75
238.624	481.75
238.858	472.75
239.091	461.75
239.325	503.75
239.559	500.75
239.793	501.75
240.027	524.75
240.26	517.75
240.494	549.75
240.728	550.75
240.961	595.75
241.195	633.75
241.429	660.75
241.662	661.75
241.896	764.75
242.13	905.75
242.363	1181.75
242.597	1529.75
242.83	1488.75
243.064	1482.75
243.298	1702.75
243.531	1390.75
243.765	909.75
243.998	743.75
244.232	667.75
244.465	645.75
244.699	625.75
244.932	634.75
245.166	642.75
245.399	643.75
245.633	649.75
245.866	646.75
246.099	649.75
246.333	620.75
246.566	630.75
246.8	614.75
247.033	633.75
247.266	653.75
247.5	631.75
247.733	649.75
247.966	673.75
248.2	746.75
248.433	858.75
248.666	952.75
248.899	937.75
249.133	819.75
249.366	833.75
249.599	924.75
249.832	1040.75
250.066	1073.75
250.299	853.75
250.532	778.75
250.765	737.75
250.998	731.75
251.231	702.75
251.465	721.75
251.698	722.75
251.931	720.75
252.164	709.75
252.397	761.75
252.63	756.75
252.863	783.75
253.096	780.75
253.329	748.75
253.562	769.75
253.795	759.75
254.028	795.75
254.261	831.75
254.494	867.75
254.727	1003.75
254.96	1185.75
255.193	1162.75
255.426	918.75
255.659	869.75
255.892	857.75
256.124	869.75
256.357	846.75
256.59	874.75
256.823	939.75
257.056	1062.75
257.289	1276.75
257.521	1409.75
257.754	1169.75
257.987	971.75
258.22	896.75
258.452	904.75
258.685	897.75
258.918	920.75
259.151	969.75
259.383	1093.75
259.616	1172.75
259.849	1231.75
260.081	1070.75
260.314	986.75
260.547	938.75
260.779	932.75
261.012	915.75
261.244	956.75
261.477	979.75
261.71	978.75
261.942	985.75
262.175	1017.75
262.407	1060.75
262.64	1064.75
262.872	1095.75
263.105	1122.75
263.337	1159.75
263.57	1210.75
263.802	1286.75
264.035	1333.75
264.267	1303.75
264.499	1381.75
264.732	1423.75
264.964	1434.75
265.197	1413.75
265.429	1412.75
265.661	1429.75
265.894	1534.75
266.126	1745.75
266.358	1915.75
266.591	1843.75
266.823	1583.75
267.055	1427.75
267.287	1361.75
267.52	1275.75
267.752	1255.75
267.984	1261.75
268.216	1231.75
268.448	1210.75
268.681	1228.75
268.913	1199.75
269.145	1205.75
269.377	1199.75
269.609	1210.75
269.841	1291.75
270.073	1337.75
270.306	1557.75
270.538	2082.75
270.77	3047.75
271.002	3796.75
271.234	2704.75
271.466	1831.75
271.698	1474.75
271.93	1378.75
272.162	1327.75
272.394	1254.75
272.626	1208.75
272.858	1208.75
273.09	1206.75
273.322	1208.75
273.553	1170.75
273.785	1200.75
274.017	1175.75
274.249	1166.75
274.481	1222.75
274.713	1197.75
274.945	1178.75
275.176	1186.75
275.408	1189.75
275.64	1173.75
275.872	1210.75
276.104	1218.75
276.335	1256.75
276.567	1261.75
276.799	1249.75
277.031	1283.75
277.262	1283.75
277.494	1401.75
277.726	1556.75
277.957	1761.75
278.189	2043.75
278.421	1892.75
278.652	1726.75
278.884	1610.75
279.115	1458.75
279.347	1384.75
279.579	1361.75
279.81	1332.75
280.042	1355.75
280.273	1395.75
280.505	1418.75
280.736	1478.75
280.968	1589.75
281.199	1773.75
281.431	1974.75
281.662	2063.75
281.894	1759.75
282.125	1604.75
282.356	1591.75
282.588	1624.75
282.819	1667.75
283.051	1775.75
283.282	1930.75
283.513	2425.75
283.745	3437.75
283.976	5463.75
284.207	7757.75
284.439	6999.75
284.67	4353.75
284.901	3571.75
285.132	3583.75
285.364	3451.75
285.595	2583.75
285.826	2363.75
286.057	2748.75
286.288	3735.75
286.52	4998.75
286.751	4706.75
286.982	2936.75
287.213	2211.75
287.444	1912.75
287.675	1775.75
287.906	1737.75
288.138	1709.75
288.369	1686.75
288.6	1665.75
288.831	1626.75
289.062	1659.75
289.293	1663.75
289.524	1669.75
289.755	1639.75
289.986	1701.75
290.217	1690.75
290.448	1661.75
290.679	1670.75
290.91	1758.75
291.141	1819.75
291.371	1976.75
291.602	2081.75
291.833	1949.75
292.064	1739.75
292.295	1631.75
292.526	1642.75
292.757	1538.75
292.987	1589.75
293.218	1539.75
293.449	1618.75
293.68	1574.75
293.91	1550.75
294.141	1562.75
294.372	1529.75
294.603	1540.75
294.833	1547.75
295.064	1536.75
295.295	1511.75
295.525	1533.75
295.756	1546.75
295.987	1585.75
296.217	1601.75
296.448	1545.75
296.679	1545.75
296.909	1557.75
297.14	1559.75
297.37	1591.75
297.601	1592.75
297.831	1622.75
298.062	1645.75
298.292	1640.75
298.523	1645.75
298.753	1655.75
298.984	1693.75
299.214	1691.75
299.445	1694.75
299.675	1727.75
299.905	1811.75
300.136	1895.75
300.366	2114.75
300.597	2699.75
300.827	3722.75
301.057	4987.75
301.288	5029.75
301.518	3212.75
301.748	2497.75
301.979	2317.75
302.209	2225.75
302.439	2219.75
302.669	2387.75
302.9	2851.75
303.13	4016.75
303.36	5978.75
303.59	7971.75
303.82	6857.75
304.051	4057.75
304.281	2892.75
304.511	2452.75
304.741	2257.75
304.971	2132.75
305.201	1999.75
305.431	1965.75
305.661	1943.75
305.891	1855.75
306.121	1834.75
306.352	1855.75
306.582	1816.75
306.812	1851.75
307.042	1805.75
307.272	1821.75
307.502	1786.75
307.731	1803.75
307.961	1819.75
308.191	1837.75
308.421	1802.75
308.651	1800.75
308.881	1756.75
309.111	1791.75
309.341	1739.75
309.571	1816.75
309.8	1817.75
310.03	1827.75
310.26	1809.75
310.49	1794.75
310.72	1888.75
310.949	1866.75
311.179	1851.75
311.409	1839.75
311.639	1875.75
311.868	1909.75
312.098	1926.75
312.328	1921.75
312.557	1928.75
312.787	1925.75
313.017	1919.75
313.246	1961.75
313.476	1994.75
313.706	2060.75
313.935	2214.75
314.165	2303.75
314.394	2412.75
314.624	2289.75
314.853	2152.75
315.083	2081.75
315.312	2148.75
315.542	2164.75
315.771	2175.75
316.001	2207.75
316.23	2242.75
316.46	2416.75
316.689	2619.75
316.919	3071.75
317.148	4507.75
317.377	6873.75
317.607	10137.75
317.836	10429.75
318.065	6282.75
318.295	4060.75
318.524	3310.75
318.753	2907.75
318.983	2723.75
319.212	2520.75
319.441	2400.75
319.67	2431.75
319.9	2343.75
320.129	2337.75
320.358	2350.75
320.587	2317.75
320.816	2312.75
321.046	2276.75
321.275	2297.75
321.504	2378.75
321.733	2383.75
321.962	2435.75
322.191	2496.75
322.42	2490.75
322.649	2513.75
322.878	2482.75
323.108	2407.75
323.337	2497.75
323.566	2485.75
323.795	2585.75
324.024	2627.75
324.253	2647.75
324.482	2817.75
324.71	2967.75
324.939	3121.75
325.168	3196.75
325.397	3329.75
325.626	3931.75
325.855	5425.75
326.084	8506.75
326.313	12317.75
326.542	13073.75
326.77	8741.75
326.999	5713.75
327.228	4792.75
327.457	4554.75
327.686	4631.75
327.914	4948.75
328.143	5773.75
328.372	6823.75
328.6	7422.75
328.829	6639.75
329.058	5577.75
329.287	4863.75
329.515	4480.75
329.744	4198.75
329.972	3963.75
330.201	3790.75
330.43	3640.75
330.658	3554.75
330.887	3501.75
331.115	3494.75
331.344	3428.75
331.572	3419.75
331.801	3437.75
332.03	3514.75
332.258	3493.75
332.486	3667.75
332.715	4227.75
332.943	5152.75
333.172	6449.75
333.4	6338.75
333.629	4886.75
333.857	4375.75
334.085	4364.75
334.314	4623.75
334.542	4943.75
334.771	5777.75
334.999	7177.75
335.227	8981.75
335.455	9943.75
335.684	8958.75
335.912	7425.75
336.14	6302.75
336.369	5620.75
336.597	5080.75
336.825	4743.75
337.053	4402.75
337.281	4181.75
337.51	3896.75
337.738	3800.75
337.966	3605.75
338.194	3538.75
338.422	3450.75
338.65	3350.75
338.878	3271.75
339.106	3201.75
339.334	3190.75
339.562	3127.75
339.79	3061.75
340.018	3085.75
340.246	3026.75
340.474	2991.75
340.702	3009.75
340.93	2990.75
341.158	2998.75
341.386	2961.75
341.614	2947.75
341.842	2825.75
342.07	2828.75
342.298	2770.75
342.526	2765.75
342.754	2695.75
342.981	2681.75
343.209	2682.75
343.437	2681.75
343.665	2765.75
343.893	2771.75
344.12	2819.75
344.348	2737.75
344.576	2714.75
344.804	2663.75
345.031	2602.75
345.259	2599.75
345.487	2596.75
345.714	2515.75
345.942	2571.75
346.17	2538.75
346.397	2509.75
346.625	2497.75
346.853	2492.75
347.08	2518.75
347.308	2517.75
347.535	2465.75
347.763	2542.75
347.99	2429.75
348.218	2444.75
348.445	2413.75
348.673	2427.75
348.9	2442.75
349.128	2498.75
349.355	2429.75
349.583	2427.75
349.81	2356.75
350.037	2338.75
350.265	2375.75
350.492	2399.75
350.72	2376.75
350.947	2353.75
351.174	2372.75
351.402	2374.75
351.629	2403.75
351.856	2431.75
352.083	2380.75
352.311	2377.75
352.538	2346.75
352.765	2377.75
352.992	2361.75
353.22	2293.75
353.447	2344.75
353.674	2370.75
353.901	2335.75
354.128	2425.75
354.355	2377.75
354.583	2327.75
354.81	2379.75
355.037	2413.75
355.264	2382.75
355.491	2383.75
355.718	2393.75
355.945	2374.75
356.172	2421.75
356.399	2410.75
356.626	2462.75
356.853	2499.75
357.08	2419.75
357.307	2491.75
357.534	2566.75
357.761	2520.75
357.988	2524.75
358.215	2470.75
358.441	2499.75
358.668	2561.75
358.895	2526.75
359.122	2502.75
359.349	2508.75
359.576	2447.75
359.802	2549.75
360.029	2536.75
360.256	2532.75
360.483	2524.75
360.709	2522.75
360.936	2518.75
361.163	2514.75
361.39	2565.75
361.616	2553.75
361.843	2584.75
362.07	2554.75
362.296	2606.75
362.523	2503.75
362.749	2583.75
362.976	2503.75
363.203	2546.75
363.429	2489.75
363.656	2512.75
363.882	2498.75
364.109	2473.75
364.335	2545.75
364.562	2519.75
364.788	2528.75
365.015	2547.75
365.241	2620.75
365.468	2717.75
365.694	2927.75
365.92	2817.75
366.147	2598.75
366.373	2571.75
366.599	2612.75
366.826	2586.75
367.052	2585.75
367.278	2576.75
367.505	2596.75
367.731	2582.75
367.957	2600.75
368.184	2621.75
368.41	2638.75
368.636	2636.75
368.862	2642.75
369.089	2601.75
369.315	2589.75
369.541	2635.75
369.767	2606.75
369.993	2633.75
370.219	2606.75
370.445	2647.75
370.672	2690.75
370.898	2653.75
371.124	2631.75
371.35	2689.75
371.576	2705.75
371.802	2730.75
372.028	2691.75
372.254	2748.75
372.48	2737.75
372.706	2781.75
372.932	2761.75
373.158	2759.75
373.384	2711.75
373.61	2750.75
373.835	2744.75
374.061	2758.75
374.287	2818.75
374.513	2793.75
374.739	2847.75
374.965	2847.75
375.191	2878.75
375.416	2897.75
375.642	2836.75
375.868	2877.75
376.094	2786.75
376.319	2775.75
376.545	2772.75
376.771	2722.75
376.997	2699.75
377.222	2670.75
377.448	2742.75
377.674	2743.75
377.899	2705.75
378.125	2764.75
378.35	2680.75
378.576	2701.75
378.802	2737.75
379.027	2783.75
379.253	2869.75
379.478	2974.75
379.704	3539.75
379.929	5071.75
380.155	7763.75
380.38	8353.75
380.606	5058.75
380.831	3552.75
381.057	3143.75
381.282	2921.75
381.507	2793.75
381.733	2729.75
381.958	2675.75
382.184	2758.75
382.409	2656.75
382.634	2621.75
382.86	2609.75
383.085	2650.75
383.31	2659.75
383.535	2687.75
383.761	2690.75
383.986	2698.75
384.211	2771.75
384.436	2689.75
384.662	2738.75
384.887	2776.75
385.112	2697.75
385.337	2743.75
385.562	2768.75
385.787	2818.75
386.013	2786.75
386.238	2766.75
386.463	2797.75
386.688	2754.75
386.913	2689.75
387.138	2721.75
387.363	2774.75
387.588	2769.75
387.813	2746.75
388.038	2749.75
388.263	2758.75
388.488	2704.75
388.713	2744.75
388.938	2768.75
389.163	2727.75
389.387	2774.75
389.612	2691.75
389.837	2712.75
390.062	2744.75
390.287	2779.75
390.512	2783.75
390.736	2761.75
390.961	2871.75
391.186	2848.75
391.411	2897.75
391.636	2890.75
391.86	2891.75
392.085	2918.75
392.31	2937.75
392.534	2850.75
392.759	2861.75
392.984	2800.75
393.208	2845.75
393.433	2953.75
393.658	2884.75
393.882	2773.75
394.107	2788.75
394.331	2797.75
394.556	2826.75
394.78	2792.75
395.005	2823.75
395.229	2825.75
395.454	2852.75
395.678	2882.75
395.903	2871.75
396.127	2913.75
396.352	2786.75
396.576	2817.75
396.801	2837.75
397.025	2917.75
397.249	2927.75
397.474	2937.75
397.698	2883.75
397.922	2900.75
398.147	2939.75
398.371	2981.75
398.595	3023.75
398.82	3045.75
399.044	3158.75
399.268	3294.75
399.492	3525.75
399.717	3607.75
399.941	3652.75
400.165	3479.75
400.389	3399.75
400.613	3234.75
400.837	3149.75
401.062	3129.75
401.286	3052.75
401.51	3030.75
401.734	3019.75
401.958	3082.75
402.182	3028.75
402.406	3073.75
402.63	3074.75
402.854	3070.75
403.078	3079.75
403.302	3112.75
403.526	3151.75
403.75	3141.75
403.974	3185.75
404.198	3088.75
404.422	3161.75
404.645	3155.75
404.869	3151.75
405.093	3196.75
405.317	3142.75
405.541	3176.75
405.765	3206.75
405.988	3254.75
406.212	3243.75
406.436	3217.75
406.66	3286.75
406.883	3266.75
407.107	3343.75
407.331	3377.75
407.555	3444.75
407.778	3443.75
408.002	3396.75
408.226	3357.75
408.449	3385.75
408.673	3336.75
408.896	3255.75
409.12	3178.75
409.344	3231.75
409.567	3151.75
409.791	3145.75
410.014	3192.75
410.238	3175.75
410.461	3136.75
410.685	3085.75
410.908	3102.75
411.132	3074.75
411.355	2992.75
411.578	3109.75
411.802	3057.75
412.025	3009.75
412.249	3032.75
412.472	3034.75
412.695	3011.75
412.919	3014.75
413.142	3009.75
413.365	2998.75
413.589	2999.75
413.812	2934.75
414.035	2949.75
414.258	2959.75
414.482	2929.75
414.705	3014.75
414.928	2969.75
415.151	2991.75
415.374	2911.75
415.597	2933.75
415.821	2849.75
416.044	2857.75
416.267	2873.75
416.49	2875.75
416.713	2849.75
416.936	2840.75
417.159	2829.75
417.382	2826.75
417.605	2838.75
417.828	2799.75
418.051	2909.75
418.274	2880.75
418.497	2825.75
418.72	2943.75
418.943	2915.75
419.166	2983.75
419.389	3206.75
419.611	3170.75
419.834	3025.75
420.057	2938.75
420.28	2832.75
420.503	2867.75
420.726	2832.75
420.948	2804.75
421.171	2869.75
421.394	2904.75
421.617	2837.75
421.839	2906.75
422.062	2914.75
422.285	2836.75
422.507	2901.75
422.73	2929.75
422.953	2967.75
423.175	2965.75
423.398	2920.75
423.621	2884.75
423.843	2847.75
424.066	2845.75
424.288	2822.75
424.511	2863.75
424.733	2846.75
424.956	2853.75
425.178	2802.75
425.401	2816.75
425.623	2817.75
425.846	2775.75
426.068	2798.75
426.291	2749.75
426.513	2691.75
426.735	2706.75
426.958	2710.75
427.18	2707.75
427.402	2704.75
427.625	2711.75
427.847	2660.75
428.069	2604.75
428.292	2674.75
428.514	2654.75
428.736	2631.75
428.958	2657.75
429.181	2614.75
429.403	2613.75
429.625	2637.75
429.847	2669.75
430.069	2677.75
430.292	2762.75
430.514	2884.75
430.736	2832.75
430.958	2660.75
431.18	2612.75
431.402	2599.75
431.624	2583.75
431.846	2590.75
432.068	2574.75
432.29	2632.75
432.512	2574.75
432.734	2611.75
432.956	2578.75
433.178	2579.75
433.4	2644.75
433.622	2625.75
433.844	2643.75
434.066	2666.75
434.287	2643.75
434.509	2651.75
434.731	2709.75
434.953	2702.75
435.175	2701.75
435.397	2738.75
435.618	2664.75
435.84	2602.75
436.062	2598.75
436.284	2577.75
436.505	2613.75
436.727	2612.75
436.949	2578.75
437.17	2572.75
437.392	2571.75
437.614	2544.75
437.835	2474.75
438.057	2539.75
438.278	2500.75
438.5	2531.75
438.721	2627.75
438.943	2652.75
439.165	2703.75
439.386	2767.75
439.608	2694.75
439.829	2693.75
440.05	2823.75
440.272	2848.75
440.493	2685.75
440.715	2679.75
440.936	2693.75
441.158	2717.75
441.379	2753.75
441.6	2826.75
441.822	2870.75
442.043	3011.75
442.264	3088.75
442.486	2918.75
442.707	2822.75
442.928	2748.75
443.149	2786.75
443.371	2761.75
443.592	2827.75
443.813	2801.75
444.034	2832.75
444.255	2837.75
444.476	2939.75
444.698	2983.75
444.919	3019.75
445.14	3122.75
445.361	2961.75
445.582	2865.75
445.803	2837.75
446.024	2762.75
446.245	2753.75
446.466	2770.75
446.687	2699.75
446.908	2712.75
447.129	2657.75
447.35	2629.75
447.571	2605.75
447.792	2515.75
448.013	2551.75
448.234	2591.75
448.455	2579.75
448.675	2606.75
448.896	2670.75
449.117	2745.75
449.338	2998.75
449.559	3073.75
449.779	2779.75
450	2575.75
450.221	2594.75
450.442	2576.75
450.662	2456.75
450.883	2468.75
451.104	2485.75
451.324	2525.75
451.545	2452.75
451.766	2485.75
451.986	2583.75
452.207	2699.75
452.428	3546.75
452.648	5407.75
452.869	4427.75
453.089	3099.75
453.31	2869.75
453.53	2876.75
453.751	2978.75
453.971	3080.75
454.192	3064.75
454.412	2677.75
454.633	2477.75
454.853	2436.75
455.073	2416.75
455.294	2418.75
455.514	2420.75
455.734	2393.75
455.955	2377.75
456.175	2383.75
456.395	2378.75
456.616	2379.75
456.836	2485.75
457.056	2429.75
457.276	2456.75
457.497	2610.75
457.717	2612.75
457.937	2543.75
458.157	2546.75
458.377	2558.75
458.598	2578.75
458.818	2580.75
459.038	2579.75
459.258	2590.75
459.478	2619.75
459.698	2674.75
459.918	2680.75
460.138	2693.75
460.358	2795.75
460.578	2815.75
460.798	2802.75
461.018	2847.75
461.238	2800.75
461.458	2849.75
461.678	2889.75
461.898	2951.75
462.118	2921.75
462.338	3030.75
462.558	3057.75
462.777	3082.75
462.997	3181.75
463.217	3341.75
463.437	3442.75
463.657	3507.75
463.876	3470.75
464.096	3309.75
464.316	3210.75
464.536	3115.75
464.755	3025.75
464.975	3030.75
465.195	2833.75
465.414	2853.75
465.634	2705.75
465.854	2658.75
466.073	2676.75
466.293	2654.75
466.512	2646.75
466.732	2686.75
466.951	2748.75
467.171	2941.75
467.391	2906.75
467.61	2650.75
467.829	2608.75
468.049	2535.75
468.268	2527.75
468.488	2574.75
468.707	2547.75
468.927	2544.75
469.146	2563.75
469.365	2602.75
469.585	2581.75
469.804	2660.75
470.023	2723.75
470.243	2722.75
470.462	2859.75
470.681	2973.75
470.901	3225.75
471.12	3691.75
471.339	3677.75
471.558	3073.75
471.777	2817.75
471.997	2714.75
472.216	2671.75
472.435	2629.75
472.654	2603.75
472.873	2559.75
473.092	2616.75
473.311	2575.75
473.53	2624.75
473.749	2687.75
473.968	2729.75
474.187	2607.75
474.406	2570.75
474.625	2565.75
474.844	2596.75
475.063	2566.75
475.282	2583.75
475.501	2581.75
475.72	2683.75
475.939	2615.75
476.158	2701.75
476.377	2753.75
476.596	2696.75
476.814	2715.75
477.033	2766.75
477.252	2727.75
477.471	2798.75
477.69	2819.75
477.908	2824.75
478.127	2897.75
478.346	2921.75
478.564	3009.75
478.783	2957.75
479.002	3075.75
479.22	3051.75
479.439	3084.75
479.658	3062.75
479.876	3120.75
480.095	3110.75
480.313	3190.75
480.532	3177.75
480.751	3201.75
480.969	3154.75
481.188	3157.75
481.406	3119.75
481.624	3106.75
481.843	3144.75
482.061	3190.75
482.28	3067.75
482.498	3176.75
482.717	3124.75
482.935	3120.75
483.153	3174.75
483.372	3212.75
483.59	3264.75
483.808	3309.75
484.027	3383.75
484.245	3610.75
484.463	3970.75
484.681	4366.75
484.9	4094.75
485.118	3759.75
485.336	3718.75
485.554	3729.75
485.772	4018.75
485.99	4450.75
486.209	4779.75
486.427	4076.75
486.645	3681.75
486.863	3494.75
487.081	3410.75
487.299	3325.75
487.517	3352.75
487.735	3309.75
487.953	3312.75
488.171	3307.75
488.389	3284.75
488.607	3235.75
488.825	3191.75
489.043	3153.75
489.261	3220.75
489.479	3237.75
489.696	3212.75
489.914	3225.75
490.132	3233.75
490.35	3265.75
490.568	3221.75
490.786	3284.75
491.003	3281.75
491.221	3323.75
491.439	3314.75
491.657	3318.75
491.874	3321.75
492.092	3389.75
492.31	3391.75
492.527	3313.75
492.745	3373.75
492.963	3392.75
493.18	3364.75
493.398	3281.75
493.615	3363.75
493.833	3364.75
494.05	3343.75
494.268	3266.75
494.485	3359.75
494.703	3406.75
494.92	3351.75
495.138	3392.75
495.355	3403.75
495.573	3375.75
495.79	3363.75
496.008	3362.75
496.225	3468.75
496.442	3502.75
496.66	3652.75
496.877	3800.75
497.094	3789.75
497.312	3612.75
497.529	3627.75
497.746	3684.75
497.963	3806.75
498.181	3877.75
498.398	3921.75
498.615	4053.75
498.832	4217.75
499.049	4413.75
499.267	4706.75
499.484	5032.75
499.701	4988.75
499.918	5120.75
500.135	5466.75
500.352	5681.75
500.569	5717.75
500.786	5634.75
501.003	5446.75
501.22	5243.75
501.437	5006.75
501.654	4806.75
501.871	4558.75
502.088	4373.75
502.305	4199.75
502.522	4062.75
502.739	4017.75
502.956	3897.75
503.172	3763.75
503.389	3684.75
503.606	3591.75
503.823	3570.75
504.04	3565.75
504.256	3490.75
504.473	3505.75
504.69	3517.75
504.907	3521.75
505.123	3482.75
505.34	3299.75
505.557	3207.75
505.773	3190.75
505.99	3154.75
506.207	3117.75
506.423	3177.75
506.64	3077.75
506.856	3073.75
507.073	3050.75
507.289	2986.75
507.506	2999.75
507.722	2977.75
507.939	2976.75
508.155	2922.75
508.372	3005.75
508.588	2928.75
508.805	2961.75
509.021	2912.75
509.238	2932.75
509.454	3096.75
509.67	3280.75
509.887	3079.75
510.103	2981.75
510.319	2925.75
510.536	2861.75
510.752	2897.75
510.968	2898.75
511.184	2880.75
511.401	2850.75
511.617	2825.75
511.833	2797.75
512.049	2873.75
512.265	2815.75
512.481	2789.75
512.698	2747.75
512.914	2801.75
513.13	2790.75
513.346	2751.75
513.562	2801.75
513.778	2823.75
513.994	2859.75
514.21	2961.75
514.426	3146.75
514.642	3196.75
514.858	3019.75
515.074	2897.75
515.29	2873.75
515.506	2869.75
515.721	2888.75
515.937	2881.75
516.153	2904.75
516.369	2969.75
516.585	2966.75
516.801	2997.75
517.016	3040.75
517.232	3115.75
517.448	3148.75
517.664	3171.75
517.879	3199.75
518.095	3199.75
518.311	3110.75
518.527	3133.75
518.742	3104.75
518.958	3135.75
519.173	3208.75
519.389	3096.75
519.605	2960.75
519.82	2928.75
520.036	2908.75
520.251	2778.75
520.467	2864.75
520.682	2793.75
520.898	2775.75
521.113	2802.75
521.329	2785.75
521.544	2739.75
521.76	2791.75
521.975	2727.75
522.19	2742.75
522.406	2726.75
522.621	2675.75
522.836	2690.75
523.052	2730.75
523.267	2699.75
523.482	2708.75
523.698	2699.75
523.913	2709.75
524.128	2685.75
524.343	2693.75
524.559	2700.75
524.774	2633.75
524.989	2645.75
525.204	2705.75
525.419	2664.75
525.634	2685.75
525.849	2741.75
526.064	2719.75
526.28	2684.75
526.495	2661.75
526.71	2664.75
526.925	2691.75
527.14	2717.75
527.355	2700.75
527.57	2720.75
527.785	2714.75
527.999	2686.75
528.214	2786.75
528.429	2763.75
528.644	2722.75
528.859	2813.75
529.074	2879.75
529.289	2839.75
529.503	2821.75
529.718	2879.75
529.933	2846.75
530.148	2887.75
530.363	2895.75
530.577	2837.75
530.792	2861.75
531.007	2879.75
531.221	2926.75
531.436	2905.75
531.651	2934.75
531.865	2995.75
532.08	2990.75
532.295	3078.75
532.509	3344.75
532.724	3343.75
532.938	3362.75
533.153	3447.75
533.367	3704.75
533.582	3908.75
533.796	3842.75
534.011	3653.75
534.225	3546.75
534.44	3370.75
534.654	3346.75
534.868	3283.75
535.083	3214.75
535.297	3138.75
535.511	3102.75
535.726	3030.75
535.94	3035.75
536.154	2954.75
536.369	2956.75
536.583	2872.75
536.797	2819.75
537.011	2820.75
537.225	2799.75
537.44	2771.75
537.654	2769.75
537.868	2761.75
538.082	2715.75
538.296	2680.75
538.51	2703.75
538.724	2725.75
538.938	2631.75
539.153	2647.75
539.367	2609.75
539.581	2597.75
539.795	2573.75
540.009	2556.75
540.222	2546.75
540.436	2626.75
540.65	2589.75
540.864	2638.75
541.078	2701.75
541.292	2822.75
541.506	3250.75
541.72	3409.75
541.934	2964.75
542.147	2881.75
542.361	2713.75
542.575	2583.75
542.789	2582.75
543.002	2545.75
543.216	2481.75
543.43	2520.75
543.644	2480.75
543.857	2489.75
544.071	2500.75
544.285	2529.75
544.498	2493.75
544.712	2485.75
544.925	2527.75
545.139	2502.75
545.352	2501.75
545.566	2505.75
545.779	2471.75
545.993	2545.75
546.206	2518.75
546.42	2484.75
546.633	2539.75
546.847	2529.75
547.06	2508.75
547.274	2525.75
547.487	2458.75
547.7	2525.75
547.914	2545.75
548.127	2482.75
548.34	2542.75
548.554	2471.75
548.767	2522.75
548.98	2529.75
549.193	2544.75
549.407	2527.75
549.62	2528.75
549.833	2545.75
550.046	2544.75
550.259	2496.75
550.473	2504.75
550.686	2516.75
550.899	2510.75
551.112	2526.75
551.325	2488.75
551.538	2569.75
551.751	2531.75
551.964	2530.75
552.177	2532.75
552.39	2593.75
552.603	2670.75
552.816	2621.75
553.029	2693.75
553.242	2717.75
553.455	2780.75
553.667	2749.75
553.88	2739.75
554.093	2765.75
554.306	2794.75
554.519	2843.75
554.732	2896.75
554.944	2911.75
555.157	2988.75
555.37	3041.75
555.583	3247.75
555.795	3323.75
556.008	3622.75
556.221	4044.75
556.433	4298.75
556.646	4309.75
556.859	4040.75
557.071	3903.75
557.284	3836.75
557.496	3691.75
557.709	3610.75
557.921	3497.75
558.134	3596.75
558.346	3645.75
558.559	3741.75
558.771	3952.75
558.984	4391.75
559.196	4737.75
559.409	4488.75
559.621	4077.75
559.833	3838.75
560.046	3613.75
560.258	3442.75
560.47	3207.75
560.683	3139.75
560.895	3050.75
561.107	2865.75
561.32	2831.75
561.532	2739.75
561.744	2684.75
561.956	2672.75
562.168	2648.75
562.381	2611.75
562.593	2589.75
562.805	2597.75
563.017	2655.75
563.229	2678.75
563.441	3210.75
563.653	2607.75
563.865	2415.75
564.077	2353.75
564.289	2293.75
564.501	2352.75
564.713	2339.75
564.925	2336.75
565.137	2359.75
565.349	2305.75
565.561	2296.75
565.773	2365.75
565.985	2392.75
566.197	2413.75
566.408	2431.75
566.62	2482.75
566.832	2569.75
567.044	2583.75
567.255	2581.75
567.467	2602.75
567.679	2655.75
567.891	2792.75
568.102	3040.75
568.314	3562.75
568.526	3073.75
568.737	2645.75
568.949	2455.75
569.161	2307.75
569.372	2232.75
569.584	2169.75
569.795	2134.75
570.007	2085.75
570.218	2177.75
570.43	2225.75
570.641	2051.75
570.853	2013.75
571.064	1955.75
571.276	1908.75
571.487	1917.75
571.698	1921.75
571.91	1875.75
572.121	1830.75
572.333	1837.75
572.544	1829.75
572.755	1984.75
572.966	2271.75
573.178	2099.75
573.389	1857.75
573.6	1801.75
573.811	1791.75
574.023	1746.75
574.234	1655.75
574.445	1709.75
574.656	1735.75
574.867	1699.75
575.078	1685.75
575.289	1714.75
575.501	1693.75
575.712	1691.75
575.923	1665.75
576.134	1666.75
576.345	1652.75
576.556	1667.75
576.767	1688.75
576.978	1704.75
577.188	1683.75
577.399	1719.75
577.61	1677.75
577.821	1696.75
578.032	1725.75
578.243	1780.75
578.454	1813.75
578.665	1873.75
578.875	1929.75
579.086	1944.75
579.297	2010.75
579.508	2151.75
579.718	2325.75
579.929	2678.75
580.14	3137.75
580.35	3200.75
580.561	2912.75
580.772	2643.75
580.982	2406.75
581.193	2273.75
581.403	2169.75
581.614	2070.75
581.825	1960.75
582.035	1929.75
582.246	1835.75
582.456	1790.75
582.667	1751.75
582.877	1747.75
583.087	1676.75
583.298	1621.75
583.508	1567.75
583.719	1551.75
583.929	1526.75
584.139	1461.75
584.35	1478.75
584.56	1440.75
584.77	1457.75
584.981	1441.75
585.191	1401.75
585.401	1348.75
585.611	1323.75
585.821	1370.75
586.032	1360.75
586.242	1286.75
586.452	1325.75
586.662	1285.75
586.872	1312.75
587.082	1273.75
587.292	1257.75
587.502	1243.75
587.713	1234.75
587.923	1238.75
588.133	1227.75
588.343	1237.75
588.553	1219.75
588.762	1228.75
588.972	1234.75
589.182	1227.75
589.392	1209.75
589.602	1165.75
589.812	1204.75
590.022	1183.75
590.232	1174.75
590.441	1181.75
590.651	1173.75
590.861	1143.75
591.071	1175.75
591.281	1137.75
591.49	1172.75
591.7	1170.75
591.91	1166.75
592.119	1148.75
592.329	1185.75
592.539	1184.75
592.748	1191.75
592.958	1177.75
593.167	1188.75
593.377	1193.75
593.587	1225.75
593.796	1205.75
594.006	1211.75
594.215	1223.75
594.424	1215.75
594.634	1197.75
594.843	1183.75
595.053	1157.75
595.262	1142.75
595.472	1128.75
595.681	1047.75
595.89	1091.75
596.1	1053.75
596.309	1064.75
596.518	1034.75
596.727	1035.75
596.937	1054.75
597.146	1024.75
597.355	1019.75
597.564	998.75
597.774	998.75
597.983	1015.75
598.192	1010.75
598.401	983.75
598.61	991.75
598.819	938.75
599.028	971.75
599.237	977.75
599.446	941.75
599.655	926.75
599.864	938.75
600.073	935.75
600.282	915.75
600.491	930.75
600.7	922.75
600.909	943.75
601.118	929.75
601.327	919.75
601.536	948.75
601.745	979.75
601.953	1080.75
602.162	1203.75
602.371	1051.75
602.58	987.75
602.789	915.75
602.997	934.75
603.206	905.75
603.415	936.75
603.623	911.75
603.832	915.75
604.041	924.75
604.249	885.75
604.458	905.75
604.666	870.75
604.875	867.75
605.084	881.75
605.292	879.75
605.501	911.75
605.709	901.75
605.918	908.75
606.126	882.75
606.334	905.75
606.543	916.75
606.751	970.75
606.96	1101.75
607.168	1187.75
607.376	1019.75
607.585	950.75
607.793	935.75
608.001	886.75
608.21	884.75
608.418	872.75
608.626	865.75
608.834	868.75
609.043	836.75
609.251	860.75
609.459	833.75
609.667	826.75
609.875	828.75
610.083	840.75
610.291	813.75
610.499	815.75
610.707	824.75
610.916	843.75
611.124	805.75
611.332	791.75
611.54	826.75
611.748	818.75
611.955	815.75
612.163	800.75
612.371	811.75
612.579	820.75
612.787	790.75
612.995	789.75
613.203	788.75
613.411	782.75
613.618	766.75
613.826	769.75
614.034	767.75
614.242	773.75
614.449	774.75
614.657	805.75
614.865	802.75
615.072	774.75
615.28	778.75
615.488	794.75
615.695	814.75
615.903	755.75
616.111	785.75
616.318	768.75
616.526	776.75
616.733	785.75
616.941	768.75
617.148	774.75
617.356	777.75
617.563	775.75
617.771	746.75
617.978	722.75
618.185	745.75
618.393	757.75
618.6	732.75
618.807	752.75
619.015	745.75
619.222	759.75
619.429	727.75
619.637	697.75
619.844	739.75
620.051	715.75
620.258	729.75
620.466	728.75
620.673	705.75
620.88	689.75
621.087	673.75
621.294	706.75
621.501	666.75
621.708	697.75
621.915	694.75
622.122	700.75
622.329	673.75
622.536	687.75
622.743	685.75
622.95	678.75
623.157	693.75
623.364	715.75
623.571	702.75
623.778	678.75
623.985	667.75
624.192	657.75
624.399	674.75
624.606	658.75
624.812	663.75
625.019	660.75
625.226	656.75
625.433	649.75
625.639	639.75
625.846	615.75
626.053	633.75
626.259	628.75
626.466	632.75
626.673	628.75
626.879	634.75
627.086	602.75
627.293	605.75
627.499	643.75
627.706	623.75
627.912	631.75
628.119	645.75
628.325	615.75
628.532	648.75
628.738	633.75
628.945	603.75
629.151	606.75
629.357	614.75
629.564	601.75
629.77	602.75
629.976	621.75
630.183	593.75
630.389	607.75
630.595	598.75
630.802	597.75
631.008	599.75
631.214	571.75
631.42	595.75
631.627	601.75
631.833	597.75
632.039	587.75
632.245	591.75
632.451	591.75
632.657	574.75
632.863	594.75
633.069	577.75
633.275	581.75
633.481	576.75
633.688	591.75
633.893	583.75
634.099	576.75
634.305	590.75
634.511	591.75
634.717	586.75
634.923	618.75
635.129	666.75
635.335	753.75
635.541	683.75
635.747	624.75
635.952	599.75
636.158	583.75
636.364	554.75
636.57	585.75
636.775	573.75
636.981	602.75
637.187	575.75
637.392	559.75
637.598	563.75
637.804	561.75
638.009	592.75
638.215	562.75
638.421	565.75
638.626	584.75
638.832	582.75
639.037	579.75
639.243	599.75
639.448	579.75
639.654	586.75
639.859	594.75
640.065	579.75
640.27	586.75
640.475	599.75
640.681	611.75
640.886	603.75
641.091	623.75
641.297	599.75
641.502	613.75
641.707	601.75
641.913	613.75
642.118	655.75
642.323	646.75
642.528	689.75
642.733	686.75
642.939	700.75
643.144	676.75
643.349	721.75
643.554	741.75
643.759	778.75
643.964	832.75
644.169	872.75
644.374	887.75
644.579	1027.75
644.784	1082.75
644.989	1239.75
645.194	1475.75
645.399	1847.75
645.604	1971.75
645.809	1471.75
646.014	1067.75
646.219	935.75
646.423	845.75
646.628	742.75
646.833	689.75
647.038	653.75
647.243	635.75
647.447	595.75
647.652	574.75
647.857	566.75
648.062	585.75
648.266	568.75
648.471	535.75
648.676	544.75
648.88	512.75
649.085	515.75
649.289	511.75
649.494	515.75
649.698	497.75
649.903	483.75
650.107	466.75
650.312	483.75
650.516	464.75
650.721	449.75
650.925	470.75
651.13	424.75
651.334	445.75
651.539	416.75
651.743	427.75
651.947	399.75
652.152	404.75
652.356	444.75
652.56	427.75
652.764	465.75
652.969	450.75
653.173	420.75
653.377	387.75
653.581	377.75
653.785	376.75
653.99	369.75
654.194	366.75
654.398	378.75
654.602	340.75
654.806	352.75
655.01	337.75
655.214	344.75
655.418	335.75
655.622	325.75
655.826	335.75
656.03	361.75
656.234	357.75
656.438	362.75
656.642	349.75
656.846	361.75
657.049	352.75
657.253	340.75
657.457	298.75
657.661	290.75
657.865	280.75
658.068	265.75
658.272	233.75
658.476	217.75
658.68	219.75
658.883	223.75
659.087	209.75
659.291	203.75
659.494	208.75
659.698	181.75
659.901	201.75
660.105	170.75
660.309	170.75
660.512	163.75
660.716	150.75
660.919	139.75
661.123	146.75
661.326	135.75
661.53	130.75
661.733	130.75
661.936	115.75
662.14	114.75
662.343	119.75
662.546	117.75
662.75	98.75
662.953	96.75
663.156	102.75
663.36	102.75
663.563	111.75
663.766	98.75
663.969	89.75
664.173	93.75
664.376	95.75
664.579	87.75
664.782	75.75
664.985	90.75
665.188	82.75
665.391	95.75
665.594	100.75
665.797	92.75
666	89.75
666.203	88.75
666.406	82.75
666.609	82.75
666.812	85.75
667.015	88.75
667.218	75.75
667.421	79.75
667.624	93.75
667.827	75.75
668.03	85.75
668.232	81.75
668.435	86.75
668.638	89.75
668.841	82.75
669.043	83.75
669.246	89.75
669.449	97.75
669.651	69.75
669.854	85.75
670.057	80.75
670.259	86.75
670.462	82.75
670.665	74.75
670.867	77.75
671.07	94.75
671.272	91.75
671.475	91.75
671.677	90.75
671.88	78.75
672.082	84.75
672.284	78.75
672.487	73.75
672.689	89.75
672.892	83.75
