Data from SnStandardFlinnAPT0064_LampEnergy10_LIBS07252019.E.O._I.C._HRD10591_15-20-05-493.txt Node
Date: Thu Jul 25 15:20:05 EDT 2019
User: cochatt
Spectrometer: HR+D1059
Trigger mode: 1
Integration Time (sec): 1.000000E-1
Scans to average: 1
Electric dark correction enabled: true
Nonlinearity correction enabled: false
Boxcar width: 0
XAxis mode: Wavelengths
Number of Pixels in Spectrum: 2048
>>>>>Begin Spectral Data<<<<<
223.165	-12.5
223.4	-12.5
223.635	-12.5
223.869	-12.5
224.104	-15.5
224.338	-13.5
224.573	-25.5
224.808	-6.5
225.042	-7.5
225.277	-15.5
225.511	-9.5
225.746	-6.5
225.98	9.5
226.215	9.5
226.449	19.5
226.683	25.5
226.918	37.5
227.152	23.5
227.387	36.5
227.621	50.5
227.856	58.5
228.09	49.5
228.324	47.5
228.559	61.5
228.793	122.5
229.027	315.5
229.262	335.5
229.496	317.5
229.73	297.5
229.964	305.5
230.199	302.5
230.433	294.5
230.667	321.5
230.901	335.5
231.136	341.5
231.37	352.5
231.604	380.5
231.838	428.5
232.072	524.5
232.306	560.5
232.541	508.5
232.775	420.5
233.009	400.5
233.243	416.5
233.477	463.5
233.711	541.5
233.945	591.5
234.179	523.5
234.413	465.5
234.647	455.5
234.881	453.5
235.115	550.5
235.349	611.5
235.583	807.5
235.817	1014.5
236.051	975.5
236.285	641.5
236.519	533.5
236.753	499.5
236.987	511.5
237.221	537.5
237.455	513.5
237.689	475.5
237.922	461.5
238.156	496.5
238.39	487.5
238.624	499.5
238.858	489.5
239.091	490.5
239.325	491.5
239.559	483.5
239.793	509.5
240.027	526.5
240.26	548.5
240.494	535.5
240.728	570.5
240.961	599.5
241.195	645.5
241.429	684.5
241.662	692.5
241.896	783.5
242.13	944.5
242.363	1261.5
242.597	1597.5
242.83	1579.5
243.064	1553.5
243.298	1806.5
243.531	1503.5
243.765	991.5
243.998	795.5
244.232	711.5
244.465	673.5
244.699	650.5
244.932	649.5
245.166	671.5
245.399	664.5
245.633	682.5
245.866	686.5
246.099	676.5
246.333	637.5
246.566	628.5
246.8	619.5
247.033	651.5
247.266	629.5
247.5	622.5
247.733	667.5
247.966	667.5
248.2	765.5
248.433	839.5
248.666	971.5
248.899	951.5
249.133	872.5
249.366	872.5
249.599	969.5
249.832	1091.5
250.066	1087.5
250.299	870.5
250.532	772.5
250.765	737.5
250.998	733.5
251.231	727.5
251.465	717.5
251.698	745.5
251.931	742.5
252.164	748.5
252.397	747.5
252.63	789.5
252.863	808.5
253.096	771.5
253.329	773.5
253.562	781.5
253.795	790.5
254.028	785.5
254.261	785.5
254.494	884.5
254.727	1045.5
254.96	1260.5
255.193	1249.5
255.426	972.5
255.659	891.5
255.892	870.5
256.124	864.5
256.357	866.5
256.59	901.5
256.823	943.5
257.056	1107.5
257.289	1344.5
257.521	1498.5
257.754	1179.5
257.987	938.5
258.22	908.5
258.452	892.5
258.685	923.5
258.918	956.5
259.151	995.5
259.383	1100.5
259.616	1216.5
259.849	1289.5
260.081	1092.5
260.314	983.5
260.547	939.5
260.779	911.5
261.012	943.5
261.244	949.5
261.477	956.5
261.71	975.5
261.942	963.5
262.175	968.5
262.407	1004.5
262.64	1059.5
262.872	1095.5
263.105	1117.5
263.337	1190.5
263.57	1223.5
263.802	1258.5
264.035	1264.5
264.267	1328.5
264.499	1358.5
264.732	1351.5
264.964	1374.5
265.197	1397.5
265.429	1385.5
265.661	1457.5
265.894	1487.5
266.126	1735.5
266.358	1935.5
266.591	1861.5
266.823	1581.5
267.055	1418.5
267.287	1357.5
267.52	1279.5
267.752	1272.5
267.984	1275.5
268.216	1210.5
268.448	1223.5
268.681	1223.5
268.913	1236.5
269.145	1220.5
269.377	1207.5
269.609	1231.5
269.841	1283.5
270.073	1375.5
270.306	1579.5
270.538	2131.5
270.77	3264.5
271.002	3969.5
271.234	2809.5
271.466	1891.5
271.698	1501.5
271.93	1372.5
272.162	1319.5
272.394	1264.5
272.626	1219.5
272.858	1206.5
273.09	1186.5
273.322	1196.5
273.553	1189.5
273.785	1205.5
274.017	1173.5
274.249	1162.5
274.481	1200.5
274.713	1164.5
274.945	1188.5
275.176	1195.5
275.408	1170.5
275.64	1227.5
275.872	1235.5
276.104	1228.5
276.335	1251.5
276.567	1261.5
276.799	1249.5
277.031	1287.5
277.262	1323.5
277.494	1423.5
277.726	1558.5
277.957	1831.5
278.189	2102.5
278.421	1968.5
278.652	1764.5
278.884	1661.5
279.115	1476.5
279.347	1427.5
279.579	1361.5
279.81	1365.5
280.042	1387.5
280.273	1401.5
280.505	1441.5
280.736	1473.5
280.968	1569.5
281.199	1769.5
281.431	2025.5
281.662	2088.5
281.894	1815.5
282.125	1616.5
282.356	1648.5
282.588	1647.5
282.819	1674.5
283.051	1819.5
283.282	2030.5
283.513	2488.5
283.745	3593.5
283.976	5587.5
284.207	7988.5
284.439	7331.5
284.67	4681.5
284.901	3816.5
285.132	3791.5
285.364	3615.5
285.595	2709.5
285.826	2401.5
286.057	2885.5
286.288	3889.5
286.52	5187.5
286.751	4910.5
286.982	3117.5
287.213	2291.5
287.444	2033.5
287.675	1873.5
287.906	1742.5
288.138	1696.5
288.369	1689.5
288.6	1665.5
288.831	1645.5
289.062	1655.5
289.293	1653.5
289.524	1669.5
289.755	1656.5
289.986	1641.5
290.217	1669.5
290.448	1709.5
290.679	1696.5
290.91	1757.5
291.141	1831.5
291.371	2039.5
291.602	2115.5
291.833	1918.5
292.064	1723.5
292.295	1661.5
292.526	1642.5
292.757	1569.5
292.987	1585.5
293.218	1592.5
293.449	1583.5
293.68	1594.5
293.91	1579.5
294.141	1551.5
294.372	1533.5
294.603	1553.5
294.833	1559.5
295.064	1546.5
295.295	1531.5
295.525	1522.5
295.756	1530.5
295.987	1548.5
296.217	1524.5
296.448	1537.5
296.679	1519.5
296.909	1543.5
297.14	1543.5
297.37	1604.5
297.601	1600.5
297.831	1620.5
298.062	1606.5
298.292	1625.5
298.523	1671.5
298.753	1685.5
298.984	1659.5
299.214	1700.5
299.445	1693.5
299.675	1788.5
299.905	1823.5
300.136	1861.5
300.366	2179.5
300.597	2719.5
300.827	3857.5
301.057	5185.5
301.288	5297.5
301.518	3437.5
301.748	2607.5
301.979	2352.5
302.209	2268.5
302.439	2304.5
302.669	2437.5
302.9	2971.5
303.13	4088.5
303.36	6161.5
303.59	8214.5
303.82	7173.5
304.051	4286.5
304.281	3110.5
304.511	2560.5
304.741	2323.5
304.971	2191.5
305.201	2041.5
305.431	1958.5
305.661	1940.5
305.891	1905.5
306.121	1882.5
306.352	1837.5
306.582	1841.5
306.812	1843.5
307.042	1855.5
307.272	1829.5
307.502	1807.5
307.731	1802.5
307.961	1771.5
308.191	1784.5
308.421	1785.5
308.651	1776.5
308.881	1737.5
309.111	1792.5
309.341	1791.5
309.571	1824.5
309.8	1846.5
310.03	1840.5
310.26	1817.5
310.49	1799.5
310.72	1864.5
310.949	1830.5
311.179	1878.5
311.409	1847.5
311.639	1901.5
311.868	1879.5
312.098	1879.5
312.328	1909.5
312.557	1913.5
312.787	1934.5
313.017	1937.5
313.246	1974.5
313.476	1977.5
313.706	2077.5
313.935	2134.5
314.165	2310.5
314.394	2464.5
314.624	2346.5
314.853	2153.5
315.083	2078.5
315.312	2115.5
315.542	2131.5
315.771	2207.5
316.001	2216.5
316.23	2327.5
316.46	2428.5
316.689	2628.5
316.919	3199.5
317.148	4631.5
317.377	7099.5
317.607	10367.5
317.836	10878.5
318.065	6682.5
318.295	4317.5
318.524	3433.5
318.753	2955.5
318.983	2693.5
319.212	2577.5
319.441	2468.5
319.67	2436.5
319.9	2364.5
320.129	2368.5
320.358	2366.5
320.587	2316.5
320.816	2312.5
321.046	2337.5
321.275	2309.5
321.504	2415.5
321.733	2435.5
321.962	2467.5
322.191	2479.5
322.42	2516.5
322.649	2483.5
322.878	2475.5
323.108	2441.5
323.337	2484.5
323.566	2515.5
323.795	2547.5
324.024	2533.5
324.253	2651.5
324.482	2871.5
324.71	2975.5
324.939	3157.5
325.168	3255.5
325.397	3391.5
325.626	3969.5
325.855	5545.5
326.084	8597.5
326.313	12606.5
326.542	13365.5
326.77	9199.5
326.999	5971.5
327.228	5037.5
327.457	4795.5
327.686	4851.5
327.914	5116.5
328.143	5965.5
328.372	7111.5
328.6	7705.5
328.829	6987.5
329.058	5860.5
329.287	5086.5
329.515	4588.5
329.744	4208.5
329.972	3960.5
330.201	3838.5
330.43	3741.5
330.658	3598.5
330.887	3477.5
331.115	3457.5
331.344	3456.5
331.572	3399.5
331.801	3414.5
332.03	3434.5
332.258	3526.5
332.486	3701.5
332.715	4252.5
332.943	5275.5
333.172	6562.5
333.4	6541.5
333.629	4952.5
333.857	4482.5
334.085	4381.5
334.314	4622.5
334.542	5056.5
334.771	5874.5
334.999	7411.5
335.227	9241.5
335.455	10378.5
335.684	9388.5
335.912	7671.5
336.14	6447.5
336.369	5695.5
336.597	5178.5
336.825	4698.5
337.053	4439.5
337.281	4221.5
337.51	3985.5
337.738	3825.5
337.966	3671.5
338.194	3538.5
338.422	3372.5
338.65	3319.5
338.878	3253.5
339.106	3207.5
339.334	3163.5
339.562	3060.5
339.79	2995.5
340.018	3025.5
340.246	2981.5
340.474	2959.5
340.702	2951.5
340.93	2971.5
341.158	2980.5
341.386	2927.5
341.614	2937.5
341.842	2839.5
342.07	2749.5
342.298	2725.5
342.526	2679.5
342.754	2675.5
342.981	2613.5
343.209	2636.5
343.437	2692.5
343.665	2764.5
343.893	2729.5
344.12	2783.5
344.348	2719.5
344.576	2683.5
344.804	2629.5
345.031	2595.5
345.259	2587.5
345.487	2549.5
345.714	2543.5
345.942	2485.5
346.17	2517.5
346.397	2518.5
346.625	2510.5
346.853	2453.5
347.08	2442.5
347.308	2451.5
347.535	2463.5
347.763	2418.5
347.99	2435.5
348.218	2409.5
348.445	2428.5
348.673	2432.5
348.9	2455.5
349.128	2381.5
349.355	2390.5
349.583	2381.5
349.81	2349.5
350.037	2336.5
350.265	2348.5
350.492	2398.5
350.72	2388.5
350.947	2375.5
351.174	2297.5
351.402	2357.5
351.629	2327.5
351.856	2320.5
352.083	2296.5
352.311	2320.5
352.538	2331.5
352.765	2331.5
352.992	2332.5
353.22	2320.5
353.447	2293.5
353.674	2331.5
353.901	2364.5
354.128	2334.5
354.355	2310.5
354.583	2349.5
354.81	2349.5
355.037	2377.5
355.264	2377.5
355.491	2373.5
355.718	2426.5
355.945	2396.5
356.172	2404.5
356.399	2382.5
356.626	2383.5
356.853	2453.5
357.08	2437.5
357.307	2454.5
357.534	2532.5
357.761	2520.5
357.988	2572.5
358.215	2520.5
358.441	2568.5
358.668	2460.5
358.895	2448.5
359.122	2502.5
359.349	2489.5
359.576	2499.5
359.802	2471.5
360.029	2414.5
360.256	2476.5
360.483	2507.5
360.709	2502.5
360.936	2499.5
361.163	2506.5
361.39	2483.5
361.616	2503.5
361.843	2523.5
362.07	2497.5
362.296	2496.5
362.523	2516.5
362.749	2516.5
362.976	2455.5
363.203	2489.5
363.429	2433.5
363.656	2465.5
363.882	2440.5
364.109	2493.5
364.335	2468.5
364.562	2508.5
364.788	2503.5
365.015	2537.5
365.241	2592.5
365.468	2709.5
365.694	2928.5
365.92	2760.5
366.147	2550.5
366.373	2547.5
366.599	2540.5
366.826	2536.5
367.052	2519.5
367.278	2563.5
367.505	2602.5
367.731	2596.5
367.957	2559.5
368.184	2589.5
368.41	2571.5
368.636	2622.5
368.862	2614.5
369.089	2585.5
369.315	2563.5
369.541	2602.5
369.767	2533.5
369.993	2588.5
370.219	2548.5
370.445	2559.5
370.672	2589.5
370.898	2613.5
371.124	2664.5
371.35	2616.5
371.576	2697.5
371.802	2633.5
372.028	2637.5
372.254	2690.5
372.48	2655.5
372.706	2718.5
372.932	2707.5
373.158	2680.5
373.384	2704.5
373.61	2702.5
373.835	2690.5
374.061	2730.5
374.287	2776.5
374.513	2757.5
374.739	2780.5
374.965	2841.5
375.191	2830.5
375.416	2853.5
375.642	2776.5
375.868	2700.5
376.094	2724.5
376.319	2697.5
376.545	2667.5
376.771	2675.5
376.997	2623.5
377.222	2668.5
377.448	2680.5
377.674	2648.5
377.899	2647.5
378.125	2608.5
378.35	2660.5
378.576	2694.5
378.802	2686.5
379.027	2748.5
379.253	2842.5
379.478	2990.5
379.704	3501.5
379.929	5023.5
380.155	7882.5
380.38	8585.5
380.606	5291.5
380.831	3697.5
381.057	3170.5
381.282	2939.5
381.507	2780.5
381.733	2735.5
381.958	2677.5
382.184	2671.5
382.409	2650.5
382.634	2629.5
382.86	2628.5
383.085	2548.5
383.31	2619.5
383.535	2639.5
383.761	2638.5
383.986	2636.5
384.211	2684.5
384.436	2698.5
384.662	2651.5
384.887	2724.5
385.112	2680.5
385.337	2727.5
385.562	2701.5
385.787	2713.5
386.013	2749.5
386.238	2695.5
386.463	2724.5
386.688	2723.5
386.913	2732.5
387.138	2665.5
387.363	2679.5
387.588	2690.5
387.813	2649.5
388.038	2701.5
388.263	2731.5
388.488	2718.5
388.713	2675.5
388.938	2684.5
389.163	2657.5
389.387	2683.5
389.612	2673.5
389.837	2695.5
390.062	2751.5
390.287	2691.5
390.512	2686.5
390.736	2757.5
390.961	2865.5
391.186	2772.5
391.411	2807.5
391.636	2803.5
391.86	2868.5
392.085	2833.5
392.31	2790.5
392.534	2793.5
392.759	2756.5
392.984	2743.5
393.208	2705.5
393.433	2739.5
393.658	2788.5
393.882	2674.5
394.107	2724.5
394.331	2750.5
394.556	2720.5
394.78	2740.5
395.005	2773.5
395.229	2807.5
395.454	2847.5
395.678	2764.5
395.903	2811.5
396.127	2748.5
396.352	2781.5
396.576	2750.5
396.801	2795.5
397.025	2845.5
397.249	2781.5
397.474	2811.5
397.698	2825.5
397.922	2841.5
398.147	2885.5
398.371	2851.5
398.595	2885.5
398.82	2992.5
399.044	3125.5
399.268	3231.5
399.492	3417.5
399.717	3529.5
399.941	3472.5
400.165	3379.5
400.389	3296.5
400.613	3153.5
400.837	3043.5
401.062	3031.5
401.286	2956.5
401.51	2952.5
401.734	2929.5
401.958	2985.5
402.182	2951.5
402.406	2927.5
402.63	2958.5
402.854	2974.5
403.078	3030.5
403.302	3041.5
403.526	3026.5
403.75	3042.5
403.974	3080.5
404.198	3011.5
404.422	3083.5
404.645	3073.5
404.869	3031.5
405.093	3103.5
405.317	3046.5
405.541	3167.5
405.765	3183.5
405.988	3202.5
406.212	3158.5
406.436	3121.5
406.66	3227.5
406.883	3199.5
407.107	3251.5
407.331	3275.5
407.555	3420.5
407.778	3322.5
408.002	3315.5
408.226	3301.5
408.449	3249.5
408.673	3221.5
408.896	3118.5
409.12	3123.5
409.344	3166.5
409.567	3071.5
409.791	3151.5
410.014	3053.5
410.238	3093.5
410.461	3117.5
410.685	3051.5
410.908	3086.5
411.132	3039.5
411.355	2962.5
411.578	3013.5
411.802	2918.5
412.025	2977.5
412.249	2972.5
412.472	2973.5
412.695	2880.5
412.919	2879.5
413.142	2923.5
413.365	2894.5
413.589	2928.5
413.812	2911.5
414.035	2947.5
414.258	2923.5
414.482	2902.5
414.705	2935.5
414.928	2933.5
415.151	2888.5
415.374	2850.5
415.597	2855.5
415.821	2814.5
416.044	2791.5
416.267	2777.5
416.49	2776.5
416.713	2828.5
416.936	2807.5
417.159	2822.5
417.382	2731.5
417.605	2711.5
417.828	2747.5
418.051	2860.5
418.274	2824.5
418.497	2812.5
418.72	2944.5
418.943	2865.5
419.166	2959.5
419.389	3081.5
419.611	3070.5
419.834	2961.5
420.057	2933.5
420.28	2858.5
420.503	2796.5
420.726	2794.5
420.948	2756.5
421.171	2770.5
421.394	2803.5
421.617	2776.5
421.839	2803.5
422.062	2867.5
422.285	2796.5
422.507	2850.5
422.73	2855.5
422.953	2838.5
423.175	2918.5
423.398	2875.5
423.621	2807.5
423.843	2788.5
424.066	2740.5
424.288	2787.5
424.511	2778.5
424.733	2780.5
424.956	2760.5
425.178	2717.5
425.401	2730.5
425.623	2772.5
425.846	2720.5
426.068	2700.5
426.291	2679.5
426.513	2684.5
426.735	2689.5
426.958	2681.5
427.18	2620.5
427.402	2685.5
427.625	2670.5
427.847	2593.5
428.069	2581.5
428.292	2639.5
428.514	2593.5
428.736	2573.5
428.958	2631.5
429.181	2562.5
429.403	2530.5
429.625	2542.5
429.847	2604.5
430.069	2686.5
430.292	2725.5
430.514	2740.5
430.736	2759.5
430.958	2647.5
431.18	2611.5
431.402	2576.5
431.624	2575.5
431.846	2514.5
432.068	2517.5
432.29	2567.5
432.512	2515.5
432.734	2558.5
432.956	2535.5
433.178	2590.5
433.4	2592.5
433.622	2569.5
433.844	2628.5
434.066	2527.5
434.287	2579.5
434.509	2625.5
434.731	2640.5
434.953	2672.5
435.175	2729.5
435.397	2706.5
435.618	2618.5
435.84	2620.5
436.062	2577.5
436.284	2552.5
436.505	2547.5
436.727	2528.5
436.949	2560.5
437.17	2582.5
437.392	2499.5
437.614	2491.5
437.835	2436.5
438.057	2475.5
438.278	2454.5
438.5	2475.5
438.721	2554.5
438.943	2612.5
439.165	2666.5
439.386	2698.5
439.608	2645.5
439.829	2705.5
440.05	2727.5
440.272	2768.5
440.493	2698.5
440.715	2670.5
440.936	2623.5
441.158	2733.5
441.379	2721.5
441.6	2807.5
441.822	2867.5
442.043	3027.5
442.264	3157.5
442.486	2881.5
442.707	2864.5
442.928	2731.5
443.149	2701.5
443.371	2763.5
443.592	2758.5
443.813	2759.5
444.034	2741.5
444.255	2775.5
444.476	2897.5
444.698	2886.5
444.919	2916.5
445.14	2949.5
445.361	2875.5
445.582	2804.5
445.803	2739.5
446.024	2733.5
446.245	2721.5
446.466	2784.5
446.687	2695.5
446.908	2645.5
447.129	2654.5
447.35	2577.5
447.571	2615.5
447.792	2494.5
448.013	2571.5
448.234	2526.5
448.455	2554.5
448.675	2613.5
448.896	2645.5
449.117	2716.5
449.338	2956.5
449.559	3032.5
449.779	2745.5
450	2574.5
450.221	2542.5
450.442	2497.5
450.662	2542.5
450.883	2480.5
451.104	2507.5
451.324	2475.5
451.545	2444.5
451.766	2516.5
451.986	2561.5
452.207	2777.5
452.428	3543.5
452.648	5472.5
452.869	4620.5
453.089	3160.5
453.31	2917.5
453.53	2864.5
453.751	2985.5
453.971	3113.5
454.192	3076.5
454.412	2693.5
454.633	2469.5
454.853	2463.5
455.073	2395.5
455.294	2407.5
455.514	2368.5
455.734	2348.5
455.955	2336.5
456.175	2392.5
456.395	2353.5
456.616	2371.5
456.836	2419.5
457.056	2423.5
457.276	2468.5
457.497	2571.5
457.717	2611.5
457.937	2514.5
458.157	2493.5
458.377	2508.5
458.598	2548.5
458.818	2580.5
459.038	2543.5
459.258	2517.5
459.478	2556.5
459.698	2629.5
459.918	2608.5
460.138	2649.5
460.358	2676.5
460.578	2775.5
460.798	2744.5
461.018	2773.5
461.238	2779.5
461.458	2864.5
461.678	2833.5
461.898	2890.5
462.118	2931.5
462.338	2943.5
462.558	3019.5
462.777	3049.5
462.997	3148.5
463.217	3285.5
463.437	3357.5
463.657	3441.5
463.876	3461.5
464.096	3255.5
464.316	3136.5
464.536	3065.5
464.755	2971.5
464.975	2957.5
465.195	2830.5
465.414	2773.5
465.634	2654.5
465.854	2647.5
466.073	2603.5
466.293	2634.5
466.512	2575.5
466.732	2635.5
466.951	2760.5
467.171	2923.5
467.391	2858.5
467.61	2634.5
467.829	2524.5
468.049	2579.5
468.268	2503.5
468.488	2514.5
468.707	2521.5
468.927	2499.5
469.146	2517.5
469.365	2538.5
469.585	2581.5
469.804	2664.5
470.023	2669.5
470.243	2705.5
470.462	2792.5
470.681	2948.5
470.901	3240.5
471.12	3726.5
471.339	3658.5
471.558	3092.5
471.777	2855.5
471.997	2709.5
472.216	2659.5
472.435	2573.5
472.654	2556.5
472.873	2494.5
473.092	2523.5
473.311	2571.5
473.53	2592.5
473.749	2654.5
473.968	2705.5
474.187	2592.5
474.406	2527.5
474.625	2561.5
474.844	2584.5
475.063	2561.5
475.282	2596.5
475.501	2615.5
475.72	2591.5
475.939	2601.5
476.158	2644.5
476.377	2737.5
476.596	2687.5
476.814	2703.5
477.033	2670.5
477.252	2703.5
477.471	2776.5
477.69	2837.5
477.908	2869.5
478.127	2917.5
478.346	2906.5
478.564	2941.5
478.783	2950.5
479.002	2996.5
479.22	3025.5
479.439	3028.5
479.658	3075.5
479.876	3039.5
480.095	3082.5
480.313	3129.5
480.532	3140.5
480.751	3113.5
480.969	3095.5
481.188	3087.5
481.406	3043.5
481.624	3096.5
481.843	3123.5
482.061	3116.5
482.28	3089.5
482.498	3105.5
482.717	3093.5
482.935	3127.5
483.153	3143.5
483.372	3191.5
483.59	3232.5
483.808	3328.5
484.027	3368.5
484.245	3501.5
484.463	3950.5
484.681	4409.5
484.9	4035.5
485.118	3756.5
485.336	3639.5
485.554	3697.5
485.772	3979.5
485.99	4418.5
486.209	4738.5
486.427	4009.5
486.645	3571.5
486.863	3449.5
487.081	3370.5
487.299	3323.5
487.517	3287.5
487.735	3248.5
487.953	3309.5
488.171	3273.5
488.389	3232.5
488.607	3175.5
488.825	3189.5
489.043	3151.5
489.261	3163.5
489.479	3162.5
489.696	3166.5
489.914	3137.5
490.132	3176.5
490.35	3230.5
490.568	3236.5
490.786	3289.5
491.003	3308.5
491.221	3382.5
491.439	3305.5
491.657	3292.5
491.874	3296.5
492.092	3313.5
492.31	3403.5
492.527	3337.5
492.745	3356.5
492.963	3339.5
493.18	3331.5
493.398	3310.5
493.615	3344.5
493.833	3338.5
494.05	3370.5
494.268	3385.5
494.485	3375.5
494.703	3342.5
494.92	3353.5
495.138	3328.5
495.355	3334.5
495.573	3404.5
495.79	3349.5
496.008	3437.5
496.225	3428.5
496.442	3541.5
496.66	3624.5
496.877	3787.5
497.094	3775.5
497.312	3630.5
497.529	3636.5
497.746	3662.5
497.963	3719.5
498.181	3811.5
498.398	3899.5
498.615	4015.5
498.832	4154.5
499.049	4315.5
499.267	4661.5
499.484	4967.5
499.701	4920.5
499.918	5030.5
500.135	5268.5
500.352	5441.5
500.569	5506.5
500.786	5460.5
501.003	5345.5
501.22	5164.5
501.437	4924.5
501.654	4608.5
501.871	4406.5
502.088	4219.5
502.305	4097.5
502.522	3925.5
502.739	3909.5
502.956	3730.5
503.172	3694.5
503.389	3599.5
503.606	3555.5
503.823	3531.5
504.04	3452.5
504.256	3495.5
504.473	3501.5
504.69	3443.5
504.907	3475.5
505.123	3338.5
505.34	3312.5
505.557	3227.5
505.773	3140.5
505.99	3139.5
506.207	3085.5
506.423	3051.5
506.64	3045.5
506.856	3014.5
507.073	2942.5
507.289	2998.5
507.506	2955.5
507.722	2997.5
507.939	2905.5
508.155	2891.5
508.372	2912.5
508.588	2875.5
508.805	2898.5
509.021	2861.5
509.238	2963.5
509.454	3081.5
509.67	3318.5
509.887	3063.5
510.103	2933.5
510.319	2877.5
510.536	2869.5
510.752	2883.5
510.968	2841.5
511.184	2837.5
511.401	2815.5
511.617	2727.5
511.833	2777.5
512.049	2760.5
512.265	2723.5
512.481	2810.5
512.698	2730.5
512.914	2784.5
513.13	2762.5
513.346	2766.5
513.562	2733.5
513.778	2773.5
513.994	2844.5
514.21	2877.5
514.426	3071.5
514.642	3239.5
514.858	2927.5
515.074	2895.5
515.29	2862.5
515.506	2832.5
515.721	2820.5
515.937	2843.5
516.153	2872.5
516.369	2880.5
516.585	2916.5
516.801	2928.5
517.016	2990.5
517.232	3052.5
517.448	3116.5
517.664	3149.5
517.879	3099.5
518.095	3116.5
518.311	3153.5
518.527	3115.5
518.742	3066.5
518.958	3104.5
519.173	3151.5
519.389	3036.5
519.605	2925.5
519.82	2908.5
520.036	2832.5
520.251	2838.5
520.467	2773.5
520.682	2778.5
520.898	2678.5
521.113	2723.5
521.329	2687.5
521.544	2695.5
521.76	2731.5
521.975	2743.5
522.19	2740.5
522.406	2663.5
522.621	2675.5
522.836	2666.5
523.052	2673.5
523.267	2634.5
523.482	2659.5
523.698	2665.5
523.913	2623.5
524.128	2652.5
524.343	2626.5
524.559	2649.5
524.774	2638.5
524.989	2562.5
525.204	2631.5
525.419	2640.5
525.634	2620.5
525.849	2633.5
526.064	2656.5
526.28	2668.5
526.495	2655.5
526.71	2713.5
526.925	2680.5
527.14	2697.5
527.355	2736.5
527.57	2656.5
527.785	2705.5
527.999	2666.5
528.214	2706.5
528.429	2696.5
528.644	2751.5
528.859	2809.5
529.074	2761.5
529.289	2838.5
529.503	2833.5
529.718	2853.5
529.933	2823.5
530.148	2808.5
530.363	2861.5
530.577	2817.5
530.792	2791.5
531.007	2856.5
531.221	2888.5
531.436	2902.5
531.651	2951.5
531.865	3003.5
532.08	3015.5
532.295	3123.5
532.509	3316.5
532.724	3297.5
532.938	3295.5
533.153	3515.5
533.367	3733.5
533.582	3944.5
533.796	3912.5
534.011	3752.5
534.225	3601.5
534.44	3466.5
534.654	3354.5
534.868	3271.5
535.083	3175.5
535.297	3168.5
535.511	3104.5
535.726	3075.5
535.94	3053.5
536.154	2958.5
536.369	2949.5
536.583	2890.5
536.797	2886.5
537.011	2852.5
537.225	2815.5
537.44	2736.5
537.654	2797.5
537.868	2723.5
538.082	2661.5
538.296	2695.5
538.51	2660.5
538.724	2705.5
538.938	2649.5
539.153	2623.5
539.367	2622.5
539.581	2612.5
539.795	2600.5
540.009	2556.5
540.222	2555.5
540.436	2534.5
540.65	2553.5
540.864	2611.5
541.078	2655.5
541.292	2785.5
541.506	3206.5
541.72	3429.5
541.934	2983.5
542.147	2797.5
542.361	2739.5
542.575	2593.5
542.789	2572.5
543.002	2504.5
543.216	2526.5
543.43	2483.5
543.644	2447.5
543.857	2483.5
544.071	2468.5
544.285	2506.5
544.498	2477.5
544.712	2476.5
544.925	2503.5
545.139	2487.5
545.352	2524.5
545.566	2480.5
545.779	2485.5
545.993	2506.5
546.206	2513.5
546.42	2484.5
546.633	2492.5
546.847	2517.5
547.06	2500.5
547.274	2488.5
547.487	2524.5
547.7	2478.5
547.914	2468.5
548.127	2562.5
548.34	2502.5
548.554	2505.5
548.767	2499.5
548.98	2529.5
549.193	2501.5
549.407	2472.5
549.62	2517.5
549.833	2543.5
550.046	2522.5
550.259	2536.5
550.473	2473.5
550.686	2499.5
550.899	2518.5
551.112	2488.5
551.325	2500.5
551.538	2476.5
551.751	2504.5
551.964	2539.5
552.177	2571.5
552.39	2598.5
552.603	2654.5
552.816	2687.5
553.029	2653.5
553.242	2780.5
553.455	2773.5
553.667	2781.5
553.88	2811.5
554.093	2813.5
554.306	2832.5
554.519	2810.5
554.732	2855.5
554.944	2940.5
555.157	2983.5
555.37	3142.5
555.583	3242.5
555.795	3395.5
556.008	3654.5
556.221	4077.5
556.433	4475.5
556.646	4415.5
556.859	4216.5
557.071	4021.5
557.284	4022.5
557.496	3792.5
557.709	3719.5
557.921	3718.5
558.134	3700.5
558.346	3751.5
558.559	3931.5
558.771	4058.5
558.984	4455.5
559.196	4896.5
559.409	4605.5
559.621	4224.5
559.833	3978.5
560.046	3722.5
560.258	3551.5
560.47	3355.5
560.683	3217.5
560.895	3150.5
561.107	3015.5
561.32	2893.5
561.532	2835.5
561.744	2775.5
561.956	2757.5
562.168	2733.5
562.381	2622.5
562.593	2656.5
562.805	2639.5
563.017	2655.5
563.229	2742.5
563.441	3207.5
563.653	2639.5
563.865	2485.5
564.077	2400.5
564.289	2346.5
564.501	2373.5
564.713	2348.5
564.925	2312.5
565.137	2295.5
565.349	2295.5
565.561	2329.5
565.773	2335.5
565.985	2328.5
566.197	2381.5
566.408	2425.5
566.62	2541.5
566.832	2509.5
567.044	2516.5
567.255	2534.5
567.467	2565.5
567.679	2611.5
567.891	2755.5
568.102	3087.5
568.314	3501.5
568.526	3105.5
568.737	2683.5
568.949	2429.5
569.161	2286.5
569.372	2197.5
569.584	2112.5
569.795	2134.5
570.007	2095.5
570.218	2183.5
570.43	2214.5
570.641	2026.5
570.853	1970.5
571.064	1927.5
571.276	1932.5
571.487	1885.5
571.698	1880.5
571.91	1844.5
572.121	1832.5
572.333	1832.5
572.544	1823.5
572.755	1960.5
572.966	2285.5
573.178	2066.5
573.389	1895.5
573.6	1800.5
573.811	1739.5
574.023	1719.5
574.234	1718.5
574.445	1709.5
574.656	1697.5
574.867	1680.5
575.078	1683.5
575.289	1702.5
575.501	1711.5
575.712	1678.5
575.923	1677.5
576.134	1676.5
576.345	1672.5
576.556	1720.5
576.767	1674.5
576.978	1692.5
577.188	1713.5
577.399	1708.5
577.61	1720.5
577.821	1756.5
578.032	1748.5
578.243	1816.5
578.454	1829.5
578.665	1829.5
578.875	1917.5
579.086	1949.5
579.297	2066.5
579.508	2230.5
579.718	2395.5
579.929	2747.5
580.14	3246.5
580.35	3305.5
580.561	3059.5
580.772	2739.5
580.982	2529.5
581.193	2357.5
581.403	2236.5
581.614	2104.5
581.825	2032.5
582.035	1965.5
582.246	1881.5
582.456	1823.5
582.667	1740.5
582.877	1737.5
583.087	1757.5
583.298	1641.5
583.508	1570.5
583.719	1557.5
583.929	1569.5
584.139	1498.5
584.35	1466.5
584.56	1448.5
584.77	1447.5
584.981	1426.5
585.191	1410.5
585.401	1388.5
585.611	1360.5
585.821	1360.5
586.032	1341.5
586.242	1335.5
586.452	1361.5
586.662	1306.5
586.872	1291.5
587.082	1289.5
587.292	1253.5
587.502	1256.5
587.713	1255.5
587.923	1241.5
588.133	1230.5
588.343	1225.5
588.553	1206.5
588.762	1209.5
588.972	1201.5
589.182	1230.5
589.392	1199.5
589.602	1159.5
589.812	1194.5
590.022	1183.5
590.232	1188.5
590.441	1190.5
590.651	1141.5
590.861	1162.5
591.071	1152.5
591.281	1139.5
591.49	1154.5
591.7	1150.5
591.91	1139.5
592.119	1195.5
592.329	1152.5
592.539	1156.5
592.748	1187.5
592.958	1182.5
593.167	1225.5
593.377	1169.5
593.587	1188.5
593.796	1180.5
594.006	1191.5
594.215	1172.5
594.424	1196.5
594.634	1167.5
594.843	1149.5
595.053	1135.5
595.262	1143.5
595.472	1121.5
595.681	1083.5
595.89	1082.5
596.1	1056.5
596.309	1047.5
596.518	1036.5
596.727	1004.5
596.937	1029.5
597.146	1010.5
597.355	1027.5
597.564	994.5
597.774	975.5
597.983	1006.5
598.192	963.5
598.401	954.5
598.61	958.5
598.819	976.5
599.028	931.5
599.237	943.5
599.446	935.5
599.655	944.5
599.864	929.5
600.073	910.5
600.282	932.5
600.491	910.5
600.7	943.5
600.909	936.5
601.118	929.5
601.327	913.5
601.536	929.5
601.745	952.5
601.953	1055.5
602.162	1203.5
602.371	1031.5
602.58	970.5
602.789	949.5
602.997	951.5
603.206	914.5
603.415	895.5
603.623	895.5
603.832	885.5
604.041	887.5
604.249	866.5
604.458	877.5
604.666	884.5
604.875	867.5
605.084	869.5
605.292	901.5
605.501	895.5
605.709	875.5
605.918	894.5
606.126	885.5
606.334	883.5
606.543	924.5
606.751	1007.5
606.96	1129.5
607.168	1228.5
607.376	1055.5
607.585	943.5
607.793	918.5
608.001	915.5
608.21	921.5
608.418	885.5
608.626	878.5
608.834	855.5
609.043	880.5
609.251	847.5
609.459	822.5
609.667	845.5
609.875	815.5
610.083	823.5
610.291	840.5
610.499	829.5
610.707	805.5
610.916	807.5
611.124	801.5
611.332	806.5
611.54	832.5
611.748	765.5
611.955	798.5
612.163	800.5
612.371	788.5
612.579	788.5
612.787	810.5
612.995	807.5
613.203	803.5
613.411	783.5
613.618	783.5
613.826	779.5
614.034	770.5
614.242	774.5
614.449	778.5
614.657	759.5
614.865	771.5
615.072	765.5
615.28	823.5
615.488	752.5
615.695	793.5
615.903	777.5
616.111	766.5
616.318	764.5
616.526	744.5
616.733	781.5
616.941	747.5
617.148	761.5
617.356	741.5
617.563	762.5
617.771	771.5
617.978	744.5
618.185	734.5
618.393	752.5
618.6	743.5
618.807	747.5
619.015	740.5
619.222	721.5
619.429	729.5
619.637	720.5
619.844	720.5
620.051	719.5
620.258	715.5
620.466	697.5
620.673	699.5
620.88	684.5
621.087	672.5
621.294	661.5
621.501	697.5
621.708	679.5
621.915	705.5
622.122	686.5
622.329	702.5
622.536	696.5
622.743	678.5
622.95	673.5
623.157	654.5
623.364	688.5
623.571	718.5
623.778	693.5
623.985	686.5
624.192	685.5
624.399	662.5
624.606	647.5
624.812	675.5
625.019	675.5
625.226	652.5
625.433	652.5
625.639	650.5
625.846	646.5
626.053	631.5
626.259	619.5
626.466	628.5
626.673	619.5
626.879	607.5
627.086	630.5
627.293	635.5
627.499	653.5
627.706	618.5
627.912	608.5
628.119	620.5
628.325	623.5
628.532	639.5
628.738	632.5
628.945	576.5
629.151	601.5
629.357	597.5
629.564	614.5
629.77	607.5
629.976	615.5
630.183	594.5
630.389	587.5
630.595	604.5
630.802	591.5
631.008	592.5
631.214	588.5
631.42	583.5
631.627	600.5
631.833	584.5
632.039	593.5
632.245	563.5
632.451	593.5
632.657	572.5
632.863	584.5
633.069	582.5
633.275	583.5
633.481	581.5
633.688	546.5
633.893	573.5
634.099	589.5
634.305	593.5
634.511	586.5
634.717	587.5
634.923	609.5
635.129	667.5
635.335	783.5
635.541	680.5
635.747	655.5
635.952	603.5
636.158	603.5
636.364	590.5
636.57	600.5
636.775	587.5
636.981	597.5
637.187	569.5
637.392	576.5
637.598	576.5
637.804	576.5
638.009	573.5
638.215	568.5
638.421	597.5
638.626	580.5
638.832	568.5
639.037	584.5
639.243	572.5
639.448	600.5
639.654	603.5
639.859	610.5
640.065	593.5
640.27	600.5
640.475	627.5
640.681	609.5
640.886	633.5
641.091	613.5
641.297	627.5
641.502	635.5
641.707	651.5
641.913	672.5
642.118	648.5
642.323	663.5
642.528	680.5
642.733	696.5
642.939	693.5
643.144	726.5
643.349	742.5
643.554	775.5
643.759	805.5
643.964	838.5
644.169	903.5
644.374	963.5
644.579	1082.5
644.784	1144.5
644.989	1296.5
645.194	1548.5
645.399	1915.5
645.604	2021.5
645.809	1508.5
646.014	1173.5
646.219	976.5
646.423	861.5
646.628	785.5
646.833	700.5
647.038	679.5
647.243	641.5
647.447	615.5
647.652	620.5
647.857	573.5
648.062	581.5
648.266	573.5
648.471	564.5
648.676	553.5
648.88	535.5
649.085	539.5
649.289	510.5
649.494	529.5
649.698	538.5
649.903	490.5
650.107	472.5
650.312	481.5
650.516	463.5
650.721	452.5
650.925	465.5
651.13	452.5
651.334	447.5
651.539	443.5
651.743	430.5
651.947	415.5
652.152	415.5
652.356	409.5
652.56	440.5
652.764	504.5
652.969	439.5
653.173	412.5
653.377	410.5
653.581	397.5
653.785	365.5
653.99	352.5
654.194	358.5
654.398	362.5
654.602	337.5
654.806	348.5
655.01	359.5
655.214	342.5
655.418	347.5
655.622	340.5
655.826	340.5
656.03	349.5
656.234	372.5
656.438	374.5
656.642	375.5
656.846	366.5
657.049	348.5
657.253	307.5
657.457	312.5
657.661	308.5
657.865	293.5
658.068	266.5
658.272	259.5
658.476	238.5
658.68	223.5
658.883	217.5
659.087	212.5
659.291	212.5
659.494	190.5
659.698	200.5
659.901	174.5
660.105	167.5
660.309	161.5
660.512	172.5
660.716	178.5
660.919	155.5
661.123	148.5
661.326	145.5
661.53	143.5
661.733	133.5
661.936	140.5
662.14	138.5
662.343	120.5
662.546	113.5
662.75	119.5
662.953	126.5
663.156	110.5
663.36	107.5
663.563	91.5
663.766	112.5
663.969	86.5
664.173	77.5
664.376	96.5
664.579	91.5
664.782	101.5
664.985	101.5
665.188	94.5
665.391	103.5
665.594	93.5
665.797	79.5
666	91.5
666.203	96.5
666.406	102.5
666.609	90.5
666.812	74.5
667.015	83.5
667.218	82.5
667.421	91.5
667.624	95.5
667.827	98.5
668.03	98.5
668.232	90.5
668.435	84.5
668.638	103.5
668.841	94.5
669.043	85.5
669.246	93.5
669.449	84.5
669.651	103.5
669.854	86.5
670.057	87.5
670.259	98.5
670.462	77.5
670.665	86.5
670.867	83.5
671.07	86.5
671.272	89.5
671.475	95.5
671.677	95.5
671.88	96.5
672.082	80.5
672.284	91.5
672.487	99.5
672.689	95.5
672.892	83.5
