Data from SnStandardFlinnAPT0064_LampEnergy10_LIBS07252019.E.O._I.C._HRD10591_15-21-58-494.txt Node
Date: Thu Jul 25 15:21:58 EDT 2019
User: cochatt
Spectrometer: HR+D1059
Trigger mode: 1
Integration Time (sec): 1.000000E-1
Scans to average: 1
Electric dark correction enabled: true
Nonlinearity correction enabled: false
Boxcar width: 0
XAxis mode: Wavelengths
Number of Pixels in Spectrum: 2048
>>>>>Begin Spectral Data<<<<<
223.165	-10.31
223.4	-10.31
223.635	-10.31
223.869	-17.31
224.104	-24.31
224.338	-10.31
224.573	-19.31
224.808	-0.31
225.042	-23.31
225.277	-11.31
225.511	1.69
225.746	2.69
225.98	0.69
226.215	5.69
226.449	18.69
226.683	17.69
226.918	34.69
227.152	34.69
227.387	30.69
227.621	43.69
227.856	45.69
228.09	52.69
228.324	51.69
228.559	46.69
228.793	124.69
229.027	300.69
229.262	343.69
229.496	300.69
229.73	311.69
229.964	292.69
230.199	290.69
230.433	307.69
230.667	309.69
230.901	310.69
231.136	328.69
231.37	341.69
231.604	385.69
231.838	449.69
232.072	516.69
232.306	587.69
232.541	490.69
232.775	416.69
233.009	398.69
233.243	414.69
233.477	463.69
233.711	526.69
233.945	580.69
234.179	526.69
234.413	444.69
234.647	470.69
234.881	463.69
235.115	518.69
235.349	628.69
235.583	800.69
235.817	1034.69
236.051	986.69
236.285	638.69
236.519	512.69
236.753	504.69
236.987	519.69
237.221	515.69
237.455	514.69
237.689	459.69
237.922	458.69
238.156	468.69
238.39	489.69
238.624	504.69
238.858	478.69
239.091	479.69
239.325	511.69
239.559	491.69
239.793	528.69
240.027	516.69
240.26	523.69
240.494	544.69
240.728	589.69
240.961	640.69
241.195	660.69
241.429	665.69
241.662	693.69
241.896	803.69
242.13	940.69
242.363	1282.69
242.597	1628.69
242.83	1566.69
243.064	1551.69
243.298	1840.69
243.531	1514.69
243.765	982.69
243.998	743.69
244.232	704.69
244.465	655.69
244.699	643.69
244.932	630.69
245.166	669.69
245.399	651.69
245.633	658.69
245.866	701.69
246.099	651.69
246.333	634.69
246.566	620.69
246.8	669.69
247.033	644.69
247.266	630.69
247.5	654.69
247.733	648.69
247.966	702.69
248.2	749.69
248.433	890.69
248.666	988.69
248.899	988.69
249.133	854.69
249.366	856.69
249.599	940.69
249.832	1104.69
250.066	1084.69
250.299	862.69
250.532	780.69
250.765	755.69
250.998	746.69
251.231	718.69
251.465	713.69
251.698	785.69
251.931	733.69
252.164	792.69
252.397	771.69
252.63	776.69
252.863	799.69
253.096	801.69
253.329	784.69
253.562	788.69
253.795	796.69
254.028	806.69
254.261	794.69
254.494	877.69
254.727	1068.69
254.96	1254.69
255.193	1209.69
255.426	961.69
255.659	892.69
255.892	880.69
256.124	861.69
256.357	881.69
256.59	929.69
256.823	970.69
257.056	1119.69
257.289	1341.69
257.521	1493.69
257.754	1226.69
257.987	972.69
258.22	918.69
258.452	913.69
258.685	925.69
258.918	971.69
259.151	1009.69
259.383	1089.69
259.616	1208.69
259.849	1312.69
260.081	1082.69
260.314	988.69
260.547	961.69
260.779	954.69
261.012	976.69
261.244	964.69
261.477	971.69
261.71	999.69
261.942	989.69
262.175	1017.69
262.407	1060.69
262.64	1089.69
262.872	1131.69
263.105	1140.69
263.337	1225.69
263.57	1272.69
263.802	1317.69
264.035	1308.69
264.267	1357.69
264.499	1392.69
264.732	1448.69
264.964	1432.69
265.197	1459.69
265.429	1447.69
265.661	1491.69
265.894	1575.69
266.126	1714.69
266.358	1936.69
266.591	1941.69
266.823	1604.69
267.055	1458.69
267.287	1376.69
267.52	1314.69
267.752	1281.69
267.984	1278.69
268.216	1269.69
268.448	1232.69
268.681	1244.69
268.913	1237.69
269.145	1249.69
269.377	1239.69
269.609	1269.69
269.841	1341.69
270.073	1342.69
270.306	1589.69
270.538	2177.69
270.77	3208.69
271.002	3984.69
271.234	2732.69
271.466	1878.69
271.698	1500.69
271.93	1420.69
272.162	1327.69
272.394	1271.69
272.626	1282.69
272.858	1264.69
273.09	1253.69
273.322	1215.69
273.553	1214.69
273.785	1193.69
274.017	1188.69
274.249	1218.69
274.481	1212.69
274.713	1190.69
274.945	1241.69
275.176	1215.69
275.408	1203.69
275.64	1204.69
275.872	1217.69
276.104	1249.69
276.335	1252.69
276.567	1282.69
276.799	1269.69
277.031	1302.69
277.262	1324.69
277.494	1396.69
277.726	1568.69
277.957	1864.69
278.189	2144.69
278.421	2004.69
278.652	1737.69
278.884	1664.69
279.115	1487.69
279.347	1427.69
279.579	1404.69
279.81	1402.69
280.042	1366.69
280.273	1424.69
280.505	1442.69
280.736	1459.69
280.968	1593.69
281.199	1764.69
281.431	2050.69
281.662	2072.69
281.894	1764.69
282.125	1612.69
282.356	1632.69
282.588	1664.69
282.819	1720.69
283.051	1803.69
283.282	1972.69
283.513	2490.69
283.745	3598.69
283.976	5729.69
284.207	8044.69
284.439	7380.69
284.67	4476.69
284.901	3708.69
285.132	3741.69
285.364	3616.69
285.595	2713.69
285.826	2404.69
286.057	2891.69
286.288	3875.69
286.52	5264.69
286.751	4961.69
286.982	3036.69
287.213	2252.69
287.444	1979.69
287.675	1891.69
287.906	1737.69
288.138	1747.69
288.369	1689.69
288.6	1706.69
288.831	1673.69
289.062	1672.69
289.293	1709.69
289.524	1692.69
289.755	1684.69
289.986	1711.69
290.217	1689.69
290.448	1726.69
290.679	1741.69
290.91	1802.69
291.141	1892.69
291.371	2068.69
291.602	2113.69
291.833	1941.69
292.064	1756.69
292.295	1704.69
292.526	1673.69
292.757	1606.69
292.987	1592.69
293.218	1592.69
293.449	1617.69
293.68	1581.69
293.91	1605.69
294.141	1621.69
294.372	1588.69
294.603	1587.69
294.833	1542.69
295.064	1580.69
295.295	1574.69
295.525	1574.69
295.756	1564.69
295.987	1566.69
296.217	1560.69
296.448	1583.69
296.679	1582.69
296.909	1557.69
297.14	1587.69
297.37	1644.69
297.601	1658.69
297.831	1652.69
298.062	1638.69
298.292	1630.69
298.523	1686.69
298.753	1693.69
298.984	1688.69
299.214	1766.69
299.445	1760.69
299.675	1775.69
299.905	1870.69
300.136	1939.69
300.366	2151.69
300.597	2767.69
300.827	3875.69
301.057	5286.69
301.288	5279.69
301.518	3338.69
301.748	2522.69
301.979	2325.69
302.209	2272.69
302.439	2377.69
302.669	2462.69
302.9	2955.69
303.13	4199.69
303.36	6232.69
303.59	8412.69
303.82	7221.69
304.051	4215.69
304.281	3004.69
304.511	2531.69
304.741	2354.69
304.971	2198.69
305.201	2089.69
305.431	2018.69
305.661	1973.69
305.891	1900.69
306.121	1893.69
306.352	1846.69
306.582	1804.69
306.812	1842.69
307.042	1805.69
307.272	1840.69
307.502	1850.69
307.731	1821.69
307.961	1800.69
308.191	1806.69
308.421	1802.69
308.651	1785.69
308.881	1818.69
309.111	1805.69
309.341	1845.69
309.571	1831.69
309.8	1880.69
310.03	1841.69
310.26	1894.69
310.49	1868.69
310.72	1882.69
310.949	1896.69
311.179	1950.69
311.409	1924.69
311.639	1931.69
311.868	1966.69
312.098	1946.69
312.328	1964.69
312.557	1981.69
312.787	2004.69
313.017	1960.69
313.246	1993.69
313.476	1981.69
313.706	2090.69
313.935	2212.69
314.165	2384.69
314.394	2510.69
314.624	2384.69
314.853	2204.69
315.083	2166.69
315.312	2141.69
315.542	2185.69
315.771	2207.69
316.001	2228.69
316.23	2352.69
316.46	2433.69
316.689	2676.69
316.919	3272.69
317.148	4623.69
317.377	7166.69
317.607	10458.69
317.836	10938.69
318.065	6549.69
318.295	4201.69
318.524	3418.69
318.753	2960.69
318.983	2736.69
319.212	2570.69
319.441	2502.69
319.67	2443.69
319.9	2387.69
320.129	2395.69
320.358	2356.69
320.587	2359.69
320.816	2357.69
321.046	2340.69
321.275	2374.69
321.504	2413.69
321.733	2440.69
321.962	2535.69
322.191	2564.69
322.42	2492.69
322.649	2518.69
322.878	2487.69
323.108	2462.69
323.337	2528.69
323.566	2566.69
323.795	2637.69
324.024	2745.69
324.253	2759.69
324.482	2854.69
324.71	3028.69
324.939	3146.69
325.168	3306.69
325.397	3385.69
325.626	4050.69
325.855	5608.69
326.084	8828.69
326.313	12820.69
326.542	13438.69
326.77	9148.69
326.999	5798.69
327.228	4934.69
327.457	4743.69
327.686	4740.69
327.914	5092.69
328.143	6016.69
328.372	7248.69
328.6	7769.69
328.829	6949.69
329.058	5768.69
329.287	5084.69
329.515	4637.69
329.744	4227.69
329.972	4068.69
330.201	3850.69
330.43	3730.69
330.658	3648.69
330.887	3658.69
331.115	3539.69
331.344	3500.69
331.572	3456.69
331.801	3467.69
332.03	3515.69
332.258	3595.69
332.486	3783.69
332.715	4293.69
332.943	5368.69
333.172	6712.69
333.4	6542.69
333.629	4972.69
333.857	4547.69
334.085	4488.69
334.314	4746.69
334.542	5132.69
334.771	6113.69
334.999	7476.69
335.227	9383.69
335.455	10444.69
335.684	9338.69
335.912	7645.69
336.14	6432.69
336.369	5670.69
336.597	5211.69
336.825	4790.69
337.053	4551.69
337.281	4246.69
337.51	4047.69
337.738	3894.69
337.966	3762.69
338.194	3583.69
338.422	3493.69
338.65	3439.69
338.878	3305.69
339.106	3302.69
339.334	3256.69
339.562	3157.69
339.79	3123.69
340.018	3083.69
340.246	3041.69
340.474	3038.69
340.702	3040.69
340.93	3057.69
341.158	3047.69
341.386	3049.69
341.614	2983.69
341.842	2943.69
342.07	2857.69
342.298	2879.69
342.526	2775.69
342.754	2789.69
342.981	2745.69
343.209	2733.69
343.437	2799.69
343.665	2850.69
343.893	2863.69
344.12	2847.69
344.348	2762.69
344.576	2761.69
344.804	2748.69
345.031	2696.69
345.259	2670.69
345.487	2591.69
345.714	2598.69
345.942	2600.69
346.17	2535.69
346.397	2578.69
346.625	2530.69
346.853	2496.69
347.08	2554.69
347.308	2568.69
347.535	2554.69
347.763	2566.69
347.99	2529.69
348.218	2459.69
348.445	2505.69
348.673	2525.69
348.9	2497.69
349.128	2487.69
349.355	2453.69
349.583	2500.69
349.81	2434.69
350.037	2470.69
350.265	2466.69
350.492	2415.69
350.72	2433.69
350.947	2404.69
351.174	2462.69
351.402	2414.69
351.629	2450.69
351.856	2380.69
352.083	2409.69
352.311	2419.69
352.538	2400.69
352.765	2354.69
352.992	2413.69
353.22	2369.69
353.447	2365.69
353.674	2392.69
353.901	2407.69
354.128	2405.69
354.355	2413.69
354.583	2453.69
354.81	2460.69
355.037	2442.69
355.264	2440.69
355.491	2462.69
355.718	2476.69
355.945	2471.69
356.172	2515.69
356.399	2506.69
356.626	2551.69
356.853	2493.69
357.08	2548.69
357.307	2576.69
357.534	2597.69
357.761	2616.69
357.988	2597.69
358.215	2583.69
358.441	2546.69
358.668	2569.69
358.895	2604.69
359.122	2558.69
359.349	2576.69
359.576	2545.69
359.802	2556.69
360.029	2559.69
360.256	2553.69
360.483	2570.69
360.709	2613.69
360.936	2587.69
361.163	2568.69
361.39	2592.69
361.616	2582.69
361.843	2572.69
362.07	2565.69
362.296	2574.69
362.523	2602.69
362.749	2623.69
362.976	2544.69
363.203	2556.69
363.429	2495.69
363.656	2572.69
363.882	2548.69
364.109	2618.69
364.335	2565.69
364.562	2585.69
364.788	2546.69
365.015	2640.69
365.241	2633.69
365.468	2813.69
365.694	2975.69
365.92	2824.69
366.147	2657.69
366.373	2613.69
366.599	2638.69
366.826	2621.69
367.052	2590.69
367.278	2653.69
367.505	2655.69
367.731	2642.69
367.957	2628.69
368.184	2616.69
368.41	2675.69
368.636	2697.69
368.862	2686.69
369.089	2665.69
369.315	2648.69
369.541	2621.69
369.767	2680.69
369.993	2678.69
370.219	2672.69
370.445	2738.69
370.672	2722.69
370.898	2664.69
371.124	2702.69
371.35	2751.69
371.576	2732.69
371.802	2749.69
372.028	2742.69
372.254	2775.69
372.48	2740.69
372.706	2844.69
372.932	2814.69
373.158	2810.69
373.384	2808.69
373.61	2813.69
373.835	2924.69
374.061	2862.69
374.287	2868.69
374.513	2884.69
374.739	2928.69
374.965	2958.69
375.191	2959.69
375.416	2902.69
375.642	2897.69
375.868	2868.69
376.094	2848.69
376.319	2807.69
376.545	2766.69
376.771	2814.69
376.997	2818.69
377.222	2778.69
377.448	2770.69
377.674	2744.69
377.899	2765.69
378.125	2775.69
378.35	2746.69
378.576	2804.69
378.802	2798.69
379.027	2826.69
379.253	2941.69
379.478	3065.69
379.704	3590.69
379.929	5246.69
380.155	8050.69
380.38	8705.69
380.606	5272.69
380.831	3695.69
381.057	3210.69
381.282	3021.69
381.507	2885.69
381.733	2849.69
381.958	2772.69
382.184	2754.69
382.409	2789.69
382.634	2763.69
382.86	2713.69
383.085	2699.69
383.31	2701.69
383.535	2755.69
383.761	2722.69
383.986	2763.69
384.211	2726.69
384.436	2810.69
384.662	2785.69
384.887	2788.69
385.112	2818.69
385.337	2775.69
385.562	2789.69
385.787	2839.69
386.013	2772.69
386.238	2762.69
386.463	2798.69
386.688	2799.69
386.913	2775.69
387.138	2769.69
387.363	2796.69
387.588	2746.69
387.813	2824.69
388.038	2790.69
388.263	2804.69
388.488	2790.69
388.713	2799.69
388.938	2753.69
389.163	2744.69
389.387	2801.69
389.612	2770.69
389.837	2766.69
390.062	2827.69
390.287	2815.69
390.512	2876.69
390.736	2824.69
390.961	2911.69
391.186	2934.69
391.411	2940.69
391.636	2985.69
391.86	2977.69
392.085	2962.69
392.31	2978.69
392.534	2914.69
392.759	2906.69
392.984	2866.69
393.208	2876.69
393.433	2868.69
393.658	2887.69
393.882	2811.69
394.107	2873.69
394.331	2833.69
394.556	2838.69
394.78	2881.69
395.005	2905.69
395.229	2839.69
395.454	2911.69
395.678	2883.69
395.903	2886.69
396.127	2936.69
396.352	2888.69
396.576	2860.69
396.801	2952.69
397.025	2933.69
397.249	2936.69
397.474	2937.69
397.698	2917.69
397.922	2931.69
398.147	2988.69
398.371	3003.69
398.595	3085.69
398.82	3128.69
399.044	3222.69
399.268	3405.69
399.492	3600.69
399.717	3665.69
399.941	3669.69
400.165	3555.69
400.389	3449.69
400.613	3328.69
400.837	3241.69
401.062	3185.69
401.286	3152.69
401.51	3113.69
401.734	3075.69
401.958	3110.69
402.182	3107.69
402.406	3092.69
402.63	3137.69
402.854	3156.69
403.078	3126.69
403.302	3160.69
403.526	3201.69
403.75	3182.69
403.974	3180.69
404.198	3221.69
404.422	3229.69
404.645	3200.69
404.869	3185.69
405.093	3261.69
405.317	3196.69
405.541	3197.69
405.765	3252.69
405.988	3273.69
406.212	3296.69
406.436	3312.69
406.66	3301.69
406.883	3290.69
407.107	3410.69
407.331	3460.69
407.555	3529.69
407.778	3474.69
408.002	3424.69
408.226	3472.69
408.449	3455.69
408.673	3358.69
408.896	3299.69
409.12	3310.69
409.344	3265.69
409.567	3182.69
409.791	3212.69
410.014	3192.69
410.238	3208.69
410.461	3151.69
410.685	3148.69
410.908	3156.69
411.132	3177.69
411.355	3118.69
411.578	3074.69
411.802	3104.69
412.025	3078.69
412.249	3094.69
412.472	3126.69
412.695	3008.69
412.919	3046.69
413.142	3112.69
413.365	3034.69
413.589	3073.69
413.812	2988.69
414.035	2992.69
414.258	3017.69
414.482	3060.69
414.705	2997.69
414.928	2999.69
415.151	2990.69
415.374	3013.69
415.597	2972.69
415.821	2909.69
416.044	2926.69
416.267	2916.69
416.49	2864.69
416.713	2879.69
416.936	2897.69
417.159	2831.69
417.382	2848.69
417.605	2816.69
417.828	2904.69
418.051	2948.69
418.274	2950.69
418.497	2899.69
418.72	2982.69
418.943	2955.69
419.166	3064.69
419.389	3238.69
419.611	3200.69
419.834	3072.69
420.057	3006.69
420.28	2929.69
420.503	2896.69
420.726	2893.69
420.948	2865.69
421.171	2856.69
421.394	2908.69
421.617	2900.69
421.839	2903.69
422.062	2935.69
422.285	2904.69
422.507	2972.69
422.73	2948.69
422.953	3056.69
423.175	3010.69
423.398	2969.69
423.621	2894.69
423.843	2947.69
424.066	2906.69
424.288	2953.69
424.511	2905.69
424.733	2877.69
424.956	2905.69
425.178	2832.69
425.401	2862.69
425.623	2870.69
425.846	2828.69
426.068	2850.69
426.291	2808.69
426.513	2779.69
426.735	2734.69
426.958	2744.69
427.18	2756.69
427.402	2736.69
427.625	2730.69
427.847	2666.69
428.069	2727.69
428.292	2716.69
428.514	2733.69
428.736	2638.69
428.958	2686.69
429.181	2680.69
429.403	2677.69
429.625	2691.69
429.847	2669.69
430.069	2766.69
430.292	2786.69
430.514	2898.69
430.736	2930.69
430.958	2756.69
431.18	2682.69
431.402	2634.69
431.624	2589.69
431.846	2627.69
432.068	2607.69
432.29	2651.69
432.512	2590.69
432.734	2683.69
432.956	2655.69
433.178	2661.69
433.4	2690.69
433.622	2648.69
433.844	2686.69
434.066	2684.69
434.287	2618.69
434.509	2761.69
434.731	2763.69
434.953	2767.69
435.175	2781.69
435.397	2791.69
435.618	2698.69
435.84	2655.69
436.062	2658.69
436.284	2649.69
436.505	2596.69
436.727	2628.69
436.949	2586.69
437.17	2621.69
437.392	2578.69
437.614	2583.69
437.835	2522.69
438.057	2564.69
438.278	2565.69
438.5	2606.69
438.721	2642.69
438.943	2762.69
439.165	2742.69
439.386	2774.69
439.608	2753.69
439.829	2770.69
440.05	2850.69
440.272	2834.69
440.493	2787.69
440.715	2722.69
440.936	2729.69
441.158	2762.69
441.379	2816.69
441.6	2888.69
441.822	2988.69
442.043	3136.69
442.264	3228.69
442.486	3022.69
442.707	2881.69
442.928	2807.69
443.149	2827.69
443.371	2800.69
443.592	2897.69
443.813	2879.69
444.034	2846.69
444.255	2932.69
444.476	2977.69
444.698	3001.69
444.919	3064.69
445.14	3086.69
445.361	2994.69
445.582	2935.69
445.803	2853.69
446.024	2846.69
446.245	2843.69
446.466	2805.69
446.687	2731.69
446.908	2783.69
447.129	2672.69
447.35	2679.69
447.571	2690.69
447.792	2583.69
448.013	2581.69
448.234	2593.69
448.455	2596.69
448.675	2676.69
448.896	2693.69
449.117	2794.69
449.338	3019.69
449.559	3164.69
449.779	2844.69
450	2618.69
450.221	2580.69
450.442	2609.69
450.662	2541.69
450.883	2579.69
451.104	2576.69
451.324	2560.69
451.545	2564.69
451.766	2521.69
451.986	2601.69
452.207	2856.69
452.428	3632.69
452.648	5555.69
452.869	4567.69
453.089	3185.69
453.31	2956.69
453.53	3016.69
453.751	3078.69
453.971	3223.69
454.192	3140.69
454.412	2730.69
454.633	2606.69
454.853	2509.69
455.073	2485.69
455.294	2505.69
455.514	2448.69
455.734	2442.69
455.955	2386.69
456.175	2438.69
456.395	2432.69
456.616	2429.69
456.836	2453.69
457.056	2519.69
457.276	2519.69
457.497	2649.69
457.717	2668.69
457.937	2558.69
458.157	2566.69
458.377	2535.69
458.598	2633.69
458.818	2652.69
459.038	2662.69
459.258	2657.69
459.478	2671.69
459.698	2679.69
459.918	2693.69
460.138	2754.69
460.358	2790.69
460.578	2822.69
460.798	2852.69
461.018	2889.69
461.238	2918.69
461.458	2914.69
461.678	2950.69
461.898	2999.69
462.118	3045.69
462.338	3089.69
462.558	3123.69
462.777	3155.69
462.997	3248.69
463.217	3416.69
463.437	3527.69
463.657	3580.69
463.876	3633.69
464.096	3405.69
464.316	3271.69
464.536	3194.69
464.755	3130.69
464.975	3055.69
465.195	2910.69
465.414	2866.69
465.634	2804.69
465.854	2778.69
466.073	2702.69
466.293	2712.69
466.512	2677.69
466.732	2718.69
466.951	2847.69
467.171	3034.69
467.391	2970.69
467.61	2707.69
467.829	2679.69
468.049	2580.69
468.268	2570.69
468.488	2553.69
468.707	2574.69
468.927	2576.69
469.146	2580.69
469.365	2605.69
469.585	2669.69
469.804	2697.69
470.023	2733.69
470.243	2826.69
470.462	2880.69
470.681	3033.69
470.901	3332.69
471.12	3820.69
471.339	3849.69
471.558	3207.69
471.777	2927.69
471.997	2781.69
472.216	2726.69
472.435	2633.69
472.654	2639.69
472.873	2622.69
473.092	2665.69
473.311	2630.69
473.53	2670.69
473.749	2719.69
473.968	2844.69
474.187	2637.69
474.406	2608.69
474.625	2595.69
474.844	2630.69
475.063	2610.69
475.282	2617.69
475.501	2588.69
475.72	2653.69
475.939	2658.69
476.158	2732.69
476.377	2863.69
476.596	2840.69
476.814	2784.69
477.033	2764.69
477.252	2840.69
477.471	2876.69
477.69	2878.69
477.908	2990.69
478.127	2963.69
478.346	2976.69
478.564	3032.69
478.783	3027.69
479.002	3075.69
479.22	3121.69
479.439	3157.69
479.658	3095.69
479.876	3164.69
480.095	3176.69
480.313	3222.69
480.532	3220.69
480.751	3265.69
480.969	3217.69
481.188	3142.69
481.406	3186.69
481.624	3152.69
481.843	3221.69
482.061	3235.69
482.28	3194.69
482.498	3158.69
482.717	3221.69
482.935	3233.69
483.153	3222.69
483.372	3289.69
483.59	3310.69
483.808	3391.69
484.027	3480.69
484.245	3650.69
484.463	4116.69
484.681	4596.69
484.9	4144.69
485.118	3826.69
485.336	3746.69
485.554	3899.69
485.772	4077.69
485.99	4651.69
486.209	4944.69
486.427	4156.69
486.645	3774.69
486.863	3559.69
487.081	3523.69
487.299	3399.69
487.517	3370.69
487.735	3393.69
487.953	3492.69
488.171	3378.69
488.389	3356.69
488.607	3271.69
488.825	3252.69
489.043	3265.69
489.261	3279.69
489.479	3273.69
489.696	3300.69
489.914	3252.69
490.132	3305.69
490.35	3304.69
490.568	3283.69
490.786	3316.69
491.003	3383.69
491.221	3399.69
491.439	3449.69
491.657	3360.69
491.874	3404.69
492.092	3427.69
492.31	3495.69
492.527	3478.69
492.745	3426.69
492.963	3436.69
493.18	3378.69
493.398	3448.69
493.615	3417.69
493.833	3414.69
494.05	3431.69
494.268	3440.69
494.485	3500.69
494.703	3442.69
494.92	3490.69
495.138	3383.69
495.355	3461.69
495.573	3465.69
495.79	3376.69
496.008	3500.69
496.225	3540.69
496.442	3615.69
496.66	3703.69
496.877	3826.69
497.094	3843.69
497.312	3667.69
497.529	3738.69
497.746	3777.69
497.963	3832.69
498.181	3911.69
498.398	4001.69
498.615	4122.69
498.832	4290.69
499.049	4449.69
499.267	4795.69
499.484	5074.69
499.701	5076.69
499.918	5245.69
500.135	5498.69
500.352	5788.69
500.569	5856.69
500.786	5752.69
501.003	5614.69
501.22	5298.69
501.437	5062.69
501.654	4826.69
501.871	4583.69
502.088	4455.69
502.305	4257.69
502.522	4179.69
502.739	4116.69
502.956	3930.69
503.172	3855.69
503.389	3726.69
503.606	3722.69
503.823	3649.69
504.04	3634.69
504.256	3617.69
504.473	3632.69
504.69	3558.69
504.907	3531.69
505.123	3522.69
505.34	3372.69
505.557	3296.69
505.773	3257.69
505.99	3234.69
506.207	3208.69
506.423	3180.69
506.64	3192.69
506.856	3157.69
507.073	3084.69
507.289	3062.69
507.506	3064.69
507.722	3041.69
507.939	3027.69
508.155	2982.69
508.372	2982.69
508.588	3001.69
508.805	2975.69
509.021	2942.69
509.238	3040.69
509.454	3226.69
509.67	3380.69
509.887	3143.69
510.103	3016.69
510.319	2949.69
510.536	2977.69
510.752	2957.69
510.968	2888.69
511.184	2878.69
511.401	2901.69
511.617	2848.69
511.833	2881.69
512.049	2852.69
512.265	2853.69
512.481	2865.69
512.698	2870.69
512.914	2948.69
513.13	2793.69
513.346	2881.69
513.562	2841.69
513.778	2912.69
513.994	2939.69
514.21	2985.69
514.426	3181.69
514.642	3273.69
514.858	3040.69
515.074	2944.69
515.29	2912.69
515.506	2927.69
515.721	2971.69
515.937	2924.69
516.153	2980.69
516.369	2975.69
516.585	3008.69
516.801	3100.69
517.016	3127.69
517.232	3128.69
517.448	3220.69
517.664	3296.69
517.879	3246.69
518.095	3209.69
518.311	3262.69
518.527	3166.69
518.742	3186.69
518.958	3194.69
519.173	3247.69
519.389	3138.69
519.605	2983.69
519.82	2982.69
520.036	2878.69
520.251	2903.69
520.467	2861.69
520.682	2844.69
520.898	2825.69
521.113	2814.69
521.329	2823.69
521.544	2802.69
521.76	2752.69
521.975	2814.69
522.19	2728.69
522.406	2789.69
522.621	2738.69
522.836	2816.69
523.052	2773.69
523.267	2694.69
523.482	2736.69
523.698	2762.69
523.913	2726.69
524.128	2715.69
524.343	2704.69
524.559	2716.69
524.774	2744.69
524.989	2712.69
525.204	2734.69
525.419	2743.69
525.634	2686.69
525.849	2729.69
526.064	2718.69
526.28	2701.69
526.495	2743.69
526.71	2670.69
526.925	2737.69
527.14	2736.69
527.355	2757.69
527.57	2748.69
527.785	2773.69
527.999	2785.69
528.214	2781.69
528.429	2869.69
528.644	2853.69
528.859	2814.69
529.074	2908.69
529.289	2946.69
529.503	2972.69
529.718	2940.69
529.933	2918.69
530.148	2872.69
530.363	2974.69
530.577	2922.69
530.792	2879.69
531.007	2935.69
531.221	2966.69
531.436	2990.69
531.651	2979.69
531.865	3024.69
532.08	3018.69
532.295	3202.69
532.509	3426.69
532.724	3411.69
532.938	3466.69
533.153	3588.69
533.367	3848.69
533.582	4036.69
533.796	3907.69
534.011	3764.69
534.225	3638.69
534.44	3564.69
534.654	3378.69
534.868	3357.69
535.083	3299.69
535.297	3242.69
535.511	3193.69
535.726	3081.69
535.94	3104.69
536.154	3052.69
536.369	3032.69
536.583	2960.69
536.797	2899.69
537.011	2892.69
537.225	2826.69
537.44	2817.69
537.654	2823.69
537.868	2733.69
538.082	2750.69
538.296	2726.69
538.51	2727.69
538.724	2730.69
538.938	2744.69
539.153	2660.69
539.367	2734.69
539.581	2618.69
539.795	2616.69
540.009	2605.69
540.222	2625.69
540.436	2608.69
540.65	2623.69
540.864	2625.69
541.078	2706.69
541.292	2830.69
541.506	3369.69
541.72	3515.69
541.934	3039.69
542.147	2876.69
542.361	2746.69
542.575	2672.69
542.789	2622.69
543.002	2564.69
543.216	2582.69
543.43	2546.69
543.644	2504.69
543.857	2508.69
544.071	2570.69
544.285	2562.69
544.498	2570.69
544.712	2556.69
544.925	2571.69
545.139	2581.69
545.352	2560.69
545.566	2509.69
545.779	2614.69
545.993	2547.69
546.206	2548.69
546.42	2513.69
546.633	2574.69
546.847	2574.69
547.06	2564.69
547.274	2570.69
547.487	2515.69
547.7	2537.69
547.914	2551.69
548.127	2532.69
548.34	2590.69
548.554	2560.69
548.767	2566.69
548.98	2524.69
549.193	2558.69
549.407	2548.69
549.62	2506.69
549.833	2521.69
550.046	2594.69
550.259	2553.69
550.473	2543.69
550.686	2579.69
550.899	2579.69
551.112	2553.69
551.325	2504.69
551.538	2521.69
551.751	2579.69
551.964	2568.69
552.177	2601.69
552.39	2681.69
552.603	2659.69
552.816	2706.69
553.029	2774.69
553.242	2793.69
553.455	2861.69
553.667	2821.69
553.88	2825.69
554.093	2890.69
554.306	2834.69
554.519	2855.69
554.732	2953.69
554.944	2962.69
555.157	3089.69
555.37	3127.69
555.583	3257.69
555.795	3459.69
556.008	3706.69
556.221	4161.69
556.433	4470.69
556.646	4506.69
556.859	4222.69
557.071	4029.69
557.284	3992.69
557.496	3872.69
557.709	3751.69
557.921	3680.69
558.134	3658.69
558.346	3771.69
558.559	3870.69
558.771	4092.69
558.984	4560.69
559.196	4899.69
559.409	4708.69
559.621	4221.69
559.833	3930.69
560.046	3705.69
560.258	3541.69
560.47	3378.69
560.683	3254.69
560.895	3133.69
561.107	3041.69
561.32	2942.69
561.532	2843.69
561.744	2763.69
561.956	2700.69
562.168	2717.69
562.381	2640.69
562.593	2628.69
562.805	2675.69
563.017	2711.69
563.229	2785.69
563.441	3191.69
563.653	2663.69
563.865	2544.69
564.077	2424.69
564.289	2399.69
564.501	2376.69
564.713	2364.69
564.925	2406.69
565.137	2375.69
565.349	2356.69
565.561	2385.69
565.773	2377.69
565.985	2430.69
566.197	2460.69
566.408	2505.69
566.62	2533.69
566.832	2644.69
567.044	2608.69
567.255	2632.69
567.467	2666.69
567.679	2679.69
567.891	2848.69
568.102	3124.69
568.314	3598.69
568.526	3145.69
568.737	2738.69
568.949	2471.69
569.161	2366.69
569.372	2245.69
569.584	2234.69
569.795	2150.69
570.007	2190.69
570.218	2206.69
570.43	2335.69
570.641	2093.69
570.853	2026.69
571.064	2030.69
571.276	1966.69
571.487	1923.69
571.698	1926.69
571.91	1905.69
572.121	1875.69
572.333	1892.69
572.544	1893.69
572.755	2009.69
572.966	2402.69
573.178	2138.69
573.389	1879.69
573.6	1873.69
573.811	1816.69
574.023	1768.69
574.234	1719.69
574.445	1726.69
574.656	1774.69
574.867	1694.69
575.078	1724.69
575.289	1694.69
575.501	1718.69
575.712	1714.69
575.923	1722.69
576.134	1717.69
576.345	1736.69
576.556	1691.69
576.767	1704.69
576.978	1733.69
577.188	1737.69
577.399	1720.69
577.61	1730.69
577.821	1779.69
578.032	1786.69
578.243	1798.69
578.454	1837.69
578.665	1920.69
578.875	1936.69
579.086	2028.69
579.297	2094.69
579.508	2249.69
579.718	2397.69
579.929	2775.69
580.14	3292.69
580.35	3346.69
580.561	3055.69
580.772	2688.69
580.982	2536.69
581.193	2361.69
581.403	2239.69
581.614	2085.69
581.825	2013.69
582.035	1988.69
582.246	1828.69
582.456	1842.69
582.667	1795.69
582.877	1765.69
583.087	1737.69
583.298	1646.69
583.508	1636.69
583.719	1614.69
583.929	1578.69
584.139	1523.69
584.35	1493.69
584.56	1464.69
584.77	1461.69
584.981	1438.69
585.191	1394.69
585.401	1393.69
585.611	1391.69
585.821	1346.69
586.032	1350.69
586.242	1375.69
586.452	1312.69
586.662	1326.69
586.872	1288.69
587.082	1280.69
587.292	1309.69
587.502	1298.69
587.713	1280.69
587.923	1263.69
588.133	1264.69
588.343	1241.69
588.553	1242.69
588.762	1239.69
588.972	1206.69
589.182	1264.69
589.392	1243.69
589.602	1200.69
589.812	1204.69
590.022	1191.69
590.232	1190.69
590.441	1226.69
590.651	1216.69
590.861	1176.69
591.071	1185.69
591.281	1191.69
591.49	1176.69
591.7	1193.69
591.91	1200.69
592.119	1218.69
592.329	1192.69
592.539	1201.69
592.748	1214.69
592.958	1209.69
593.167	1206.69
593.377	1229.69
593.587	1250.69
593.796	1255.69
594.006	1237.69
594.215	1222.69
594.424	1208.69
594.634	1185.69
594.843	1159.69
595.053	1174.69
595.262	1156.69
595.472	1161.69
595.681	1100.69
595.89	1110.69
596.1	1102.69
596.309	1054.69
596.518	1076.69
596.727	1093.69
596.937	1030.69
597.146	1061.69
597.355	1030.69
597.564	1043.69
597.774	993.69
597.983	955.69
598.192	957.69
598.401	952.69
598.61	970.69
598.819	963.69
599.028	943.69
599.237	985.69
599.446	971.69
599.655	946.69
599.864	969.69
600.073	955.69
600.282	957.69
600.491	936.69
600.7	931.69
600.909	906.69
601.118	956.69
601.327	942.69
601.536	966.69
601.745	977.69
601.953	1080.69
602.162	1198.69
602.371	1081.69
602.58	968.69
602.789	958.69
602.997	967.69
603.206	937.69
603.415	918.69
603.623	911.69
603.832	896.69
604.041	896.69
604.249	890.69
604.458	905.69
604.666	886.69
604.875	896.69
605.084	898.69
605.292	910.69
605.501	878.69
605.709	905.69
605.918	902.69
606.126	903.69
606.334	916.69
606.543	940.69
606.751	1020.69
606.96	1153.69
607.168	1241.69
607.376	1032.69
607.585	954.69
607.793	906.69
608.001	905.69
608.21	869.69
608.418	902.69
608.626	871.69
608.834	871.69
609.043	851.69
609.251	859.69
609.459	850.69
609.667	838.69
609.875	852.69
610.083	814.69
610.291	828.69
610.499	829.69
610.707	830.69
610.916	831.69
611.124	803.69
611.332	812.69
611.54	800.69
611.748	813.69
611.955	822.69
612.163	802.69
612.371	801.69
612.579	814.69
612.787	842.69
612.995	788.69
613.203	802.69
613.411	784.69
613.618	797.69
613.826	798.69
614.034	803.69
614.242	760.69
614.449	786.69
614.657	800.69
614.865	800.69
615.072	798.69
615.28	799.69
615.488	785.69
615.695	789.69
615.903	770.69
616.111	780.69
616.318	816.69
616.526	793.69
616.733	789.69
616.941	785.69
617.148	775.69
617.356	770.69
617.563	805.69
617.771	768.69
617.978	755.69
618.185	776.69
618.393	761.69
618.6	782.69
618.807	745.69
619.015	749.69
619.222	750.69
619.429	765.69
619.637	754.69
619.844	733.69
620.051	731.69
620.258	728.69
620.466	712.69
620.673	699.69
620.88	689.69
621.087	681.69
621.294	673.69
621.501	689.69
621.708	695.69
621.915	724.69
622.122	721.69
622.329	676.69
622.536	698.69
622.743	713.69
622.95	694.69
623.157	686.69
623.364	698.69
623.571	666.69
623.778	662.69
623.985	681.69
624.192	663.69
624.399	690.69
624.606	686.69
624.812	682.69
625.019	671.69
625.226	655.69
625.433	648.69
625.639	657.69
625.846	615.69
626.053	647.69
626.259	622.69
626.466	632.69
626.673	648.69
626.879	625.69
627.086	632.69
627.293	634.69
627.499	629.69
627.706	658.69
627.912	624.69
628.119	625.69
628.325	633.69
628.532	627.69
628.738	626.69
628.945	607.69
629.151	623.69
629.357	608.69
629.564	597.69
629.77	609.69
629.976	597.69
630.183	583.69
630.389	593.69
630.595	606.69
630.802	602.69
631.008	585.69
631.214	583.69
631.42	598.69
631.627	596.69
631.833	589.69
632.039	628.69
632.245	568.69
632.451	570.69
632.657	580.69
632.863	597.69
633.069	580.69
633.275	585.69
633.481	571.69
633.688	572.69
633.893	609.69
634.099	600.69
634.305	585.69
634.511	586.69
634.717	605.69
634.923	597.69
635.129	658.69
635.335	750.69
635.541	685.69
635.747	627.69
635.952	606.69
636.158	585.69
636.364	576.69
636.57	582.69
636.775	580.69
636.981	608.69
637.187	578.69
637.392	593.69
637.598	578.69
637.804	577.69
638.009	591.69
638.215	590.69
638.421	590.69
638.626	577.69
638.832	585.69
639.037	592.69
639.243	597.69
639.448	592.69
639.654	586.69
639.859	583.69
640.065	602.69
640.27	615.69
640.475	623.69
640.681	599.69
640.886	608.69
641.091	610.69
641.297	625.69
641.502	632.69
641.707	646.69
641.913	645.69
642.118	644.69
642.323	681.69
642.528	700.69
642.733	696.69
642.939	708.69
643.144	717.69
643.349	752.69
643.554	784.69
643.759	824.69
643.964	838.69
644.169	894.69
644.374	970.69
644.579	1047.69
644.784	1151.69
644.989	1276.69
645.194	1575.69
645.399	1937.69
645.604	2090.69
645.809	1546.69
646.014	1193.69
646.219	971.69
646.423	862.69
646.628	780.69
646.833	717.69
647.038	684.69
647.243	649.69
647.447	618.69
647.652	575.69
647.857	594.69
648.062	567.69
648.266	574.69
648.471	561.69
648.676	566.69
648.88	536.69
649.085	539.69
649.289	514.69
649.494	503.69
649.698	518.69
649.903	488.69
650.107	494.69
650.312	492.69
650.516	476.69
650.721	468.69
650.925	476.69
651.13	468.69
651.334	435.69
651.539	421.69
651.743	429.69
651.947	414.69
652.152	439.69
652.356	434.69
652.56	461.69
652.764	510.69
652.969	475.69
653.173	438.69
653.377	384.69
653.581	376.69
653.785	386.69
653.99	369.69
654.194	382.69
654.398	373.69
654.602	358.69
654.806	350.69
655.01	337.69
655.214	345.69
655.418	353.69
655.622	360.69
655.826	348.69
656.03	365.69
656.234	386.69
656.438	382.69
656.642	373.69
656.846	353.69
657.049	352.69
657.253	338.69
657.457	309.69
657.661	290.69
657.865	284.69
658.068	270.69
658.272	265.69
658.476	230.69
658.68	247.69
658.883	200.69
659.087	201.69
659.291	202.69
659.494	178.69
659.698	184.69
659.901	188.69
660.105	179.69
660.309	160.69
660.512	156.69
660.716	138.69
660.919	158.69
661.123	142.69
661.326	151.69
661.53	130.69
661.733	123.69
661.936	134.69
662.14	106.69
662.343	113.69
662.546	114.69
662.75	116.69
662.953	102.69
663.156	98.69
663.36	85.69
663.563	98.69
663.766	85.69
663.969	81.69
664.173	101.69
664.376	86.69
664.579	86.69
664.782	78.69
664.985	86.69
665.188	94.69
665.391	96.69
665.594	87.69
665.797	71.69
666	84.69
666.203	83.69
666.406	89.69
666.609	84.69
666.812	90.69
667.015	94.69
667.218	82.69
667.421	82.69
667.624	86.69
667.827	79.69
668.03	89.69
668.232	89.69
668.435	88.69
668.638	81.69
668.841	74.69
669.043	82.69
669.246	71.69
669.449	81.69
669.651	90.69
669.854	89.69
670.057	90.69
670.259	83.69
670.462	77.69
670.665	80.69
670.867	82.69
671.07	90.69
671.272	74.69
671.475	94.69
671.677	101.69
671.88	84.69
672.082	82.69
672.284	84.69
672.487	79.69
672.689	81.69
672.892	75.69
