Data from SnStandardFlinnAPT0064_LampEnergy5.5_LIBS07252019.E.O._I.C._HRD10591_15-15-15-491.txt Node
Date: Thu Jul 25 15:15:15 EDT 2019
User: cochatt
Spectrometer: HR+D1059
Trigger mode: 1
Integration Time (sec): 1.000000E-1
Scans to average: 1
Electric dark correction enabled: true
Nonlinearity correction enabled: false
Boxcar width: 0
XAxis mode: Wavelengths
Number of Pixels in Spectrum: 2048
>>>>>Begin Spectral Data<<<<<
223.165	-20.62
223.4	-20.62
223.635	-20.62
223.869	-20.62
224.104	-21.62
224.338	-20.62
224.573	-27.62
224.808	-11.62
225.042	-10.62
225.277	6.38
225.511	3.38
225.746	11.38
225.98	11.38
226.215	17.38
226.449	4.38
226.683	21.38
226.918	37.38
227.152	20.38
227.387	45.38
227.621	44.38
227.856	43.38
228.09	45.38
228.324	42.38
228.559	57.38
228.793	69.38
229.027	140.38
229.262	147.38
229.496	149.38
229.73	142.38
229.964	154.38
230.199	144.38
230.433	166.38
230.667	147.38
230.901	173.38
231.136	167.38
231.37	177.38
231.604	181.38
231.838	206.38
232.072	214.38
232.306	215.38
232.541	220.38
232.775	198.38
233.009	187.38
233.243	194.38
233.477	219.38
233.711	220.38
233.945	273.38
234.179	225.38
234.413	228.38
234.647	224.38
234.881	214.38
235.115	234.38
235.349	244.38
235.583	313.38
235.817	379.38
236.051	386.38
236.285	279.38
236.519	244.38
236.753	219.38
236.987	238.38
237.221	228.38
237.455	248.38
237.689	221.38
237.922	236.38
238.156	235.38
238.39	204.38
238.624	233.38
238.858	223.38
239.091	211.38
239.325	217.38
239.559	233.38
239.793	234.38
240.027	241.38
240.26	251.38
240.494	262.38
240.728	250.38
240.961	272.38
241.195	267.38
241.429	277.38
241.662	281.38
241.896	314.38
242.13	358.38
242.363	440.38
242.597	551.38
242.83	555.38
243.064	565.38
243.298	649.38
243.531	532.38
243.765	360.38
243.998	313.38
244.232	295.38
244.465	298.38
244.699	296.38
244.932	280.38
245.166	299.38
245.399	301.38
245.633	284.38
245.866	292.38
246.099	308.38
246.333	300.38
246.566	281.38
246.8	278.38
247.033	290.38
247.266	284.38
247.5	283.38
247.733	298.38
247.966	307.38
248.2	330.38
248.433	343.38
248.666	397.38
248.899	357.38
249.133	337.38
249.366	336.38
249.599	390.38
249.832	408.38
250.066	419.38
250.299	356.38
250.532	334.38
250.765	334.38
250.998	340.38
251.231	321.38
251.465	323.38
251.698	321.38
251.931	326.38
252.164	307.38
252.397	321.38
252.63	335.38
252.863	323.38
253.096	326.38
253.329	350.38
253.562	322.38
253.795	341.38
254.028	370.38
254.261	350.38
254.494	357.38
254.727	417.38
254.96	463.38
255.193	461.38
255.426	391.38
255.659	375.38
255.892	366.38
256.124	358.38
256.357	372.38
256.59	397.38
256.823	402.38
257.056	446.38
257.289	503.38
257.521	536.38
257.754	457.38
257.987	415.38
258.22	395.38
258.452	392.38
258.685	400.38
258.918	374.38
259.151	409.38
259.383	423.38
259.616	484.38
259.849	503.38
260.081	431.38
260.314	420.38
260.547	409.38
260.779	417.38
261.012	433.38
261.244	414.38
261.477	411.38
261.71	414.38
261.942	440.38
262.175	452.38
262.407	468.38
262.64	459.38
262.872	479.38
263.105	486.38
263.337	526.38
263.57	550.38
263.802	552.38
264.035	557.38
264.267	575.38
264.499	603.38
264.732	630.38
264.964	626.38
265.197	602.38
265.429	632.38
265.661	652.38
265.894	659.38
266.126	704.38
266.358	745.38
266.591	745.38
266.823	670.38
267.055	612.38
267.287	599.38
267.52	586.38
267.752	552.38
267.984	554.38
268.216	552.38
268.448	537.38
268.681	537.38
268.913	526.38
269.145	516.38
269.377	521.38
269.609	533.38
269.841	536.38
270.073	558.38
270.306	660.38
270.538	808.38
270.77	1124.38
271.002	1314.38
271.234	972.38
271.466	705.38
271.698	612.38
271.93	577.38
272.162	554.38
272.394	536.38
272.626	530.38
272.858	526.38
273.09	533.38
273.322	500.38
273.553	522.38
273.785	523.38
274.017	501.38
274.249	537.38
274.481	505.38
274.713	520.38
274.945	518.38
275.176	533.38
275.408	519.38
275.64	521.38
275.872	536.38
276.104	524.38
276.335	539.38
276.567	529.38
276.799	518.38
277.031	528.38
277.262	541.38
277.494	582.38
277.726	605.38
277.957	663.38
278.189	717.38
278.421	709.38
278.652	638.38
278.884	633.38
279.115	591.38
279.347	574.38
279.579	562.38
279.81	578.38
280.042	566.38
280.273	609.38
280.505	592.38
280.736	605.38
280.968	617.38
281.199	667.38
281.431	718.38
281.662	741.38
281.894	669.38
282.125	646.38
282.356	642.38
282.588	637.38
282.819	663.38
283.051	695.38
283.282	764.38
283.513	873.38
283.745	1244.38
283.976	1961.38
284.207	2664.38
284.439	2481.38
284.67	1529.38
284.901	1242.38
285.132	1214.38
285.364	1187.38
285.595	967.38
285.826	884.38
286.057	1031.38
286.288	1308.38
286.52	1711.38
286.751	1628.38
286.982	1091.38
287.213	865.38
287.444	758.38
287.675	755.38
287.906	735.38
288.138	714.38
288.369	689.38
288.6	677.38
288.831	683.38
289.062	712.38
289.293	685.38
289.524	682.38
289.755	685.38
289.986	698.38
290.217	689.38
290.448	689.38
290.679	698.38
290.91	676.38
291.141	701.38
291.371	742.38
291.602	779.38
291.833	718.38
292.064	695.38
292.295	680.38
292.526	656.38
292.757	649.38
292.987	663.38
293.218	644.38
293.449	649.38
293.68	636.38
293.91	644.38
294.141	643.38
294.372	635.38
294.603	659.38
294.833	644.38
295.064	630.38
295.295	614.38
295.525	634.38
295.756	636.38
295.987	638.38
296.217	637.38
296.448	667.38
296.679	649.38
296.909	673.38
297.14	670.38
297.37	670.38
297.601	658.38
297.831	683.38
298.062	669.38
298.292	656.38
298.523	686.38
298.753	715.38
298.984	689.38
299.214	725.38
299.445	707.38
299.675	713.38
299.905	721.38
300.136	739.38
300.366	826.38
300.597	1006.38
300.827	1286.38
301.057	1736.38
301.288	1715.38
301.518	1179.38
301.748	964.38
301.979	886.38
302.209	859.38
302.439	864.38
302.669	891.38
302.9	1064.38
303.13	1370.38
303.36	1963.38
303.59	2569.38
303.82	2262.38
304.051	1443.38
304.281	1084.38
304.511	935.38
304.741	862.38
304.971	802.38
305.201	813.38
305.431	812.38
305.661	781.38
305.891	778.38
306.121	784.38
306.352	777.38
306.582	744.38
306.812	753.38
307.042	776.38
307.272	745.38
307.502	738.38
307.731	744.38
307.961	766.38
308.191	739.38
308.421	749.38
308.651	765.38
308.881	736.38
309.111	739.38
309.341	709.38
309.571	767.38
309.8	754.38
310.03	763.38
310.26	795.38
310.49	750.38
310.72	774.38
310.949	759.38
311.179	761.38
311.409	785.38
311.639	803.38
311.868	772.38
312.098	773.38
312.328	792.38
312.557	811.38
312.787	818.38
313.017	785.38
313.246	837.38
313.476	801.38
313.706	818.38
313.935	852.38
314.165	894.38
314.394	896.38
314.624	899.38
314.853	894.38
315.083	851.38
315.312	885.38
315.542	875.38
315.771	867.38
316.001	896.38
316.23	913.38
316.46	969.38
316.689	1041.38
316.919	1153.38
317.148	1598.38
317.377	2345.38
317.607	3389.38
317.836	3449.38
318.065	2190.38
318.295	1506.38
318.524	1215.38
318.753	1087.38
318.983	1041.38
319.212	987.38
319.441	993.38
319.67	941.38
319.9	950.38
320.129	952.38
320.358	937.38
320.587	934.38
320.816	939.38
321.046	954.38
321.275	925.38
321.504	959.38
321.733	939.38
321.962	975.38
322.191	974.38
322.42	990.38
322.649	983.38
322.878	999.38
323.108	999.38
323.337	1000.38
323.566	1000.38
323.795	1034.38
324.024	1075.38
324.253	1043.38
324.482	1123.38
324.71	1149.38
324.939	1183.38
325.168	1206.38
325.397	1213.38
325.626	1416.38
325.855	1905.38
326.084	2885.38
326.313	4191.38
326.542	4387.38
326.77	2973.38
326.999	2010.38
327.228	1754.38
327.457	1677.38
327.686	1737.38
327.914	1814.38
328.143	2063.38
328.372	2340.38
328.6	2489.38
328.829	2316.38
329.058	2075.38
329.287	1876.38
329.515	1761.38
329.744	1645.38
329.972	1563.38
330.201	1477.38
330.43	1443.38
330.658	1399.38
330.887	1390.38
331.115	1394.38
331.344	1373.38
331.572	1345.38
331.801	1371.38
332.03	1349.38
332.258	1390.38
332.486	1446.38
332.715	1566.38
332.943	1819.38
333.172	2211.38
333.4	2114.38
333.629	1814.38
333.857	1710.38
334.085	1677.38
334.314	1740.38
334.542	1870.38
334.771	2180.38
334.999	2514.38
335.227	3057.38
335.455	3294.38
335.684	3119.38
335.912	2725.38
336.14	2425.38
336.369	2148.38
336.597	1996.38
336.825	1845.38
337.053	1729.38
337.281	1675.38
337.51	1516.38
337.738	1527.38
337.966	1467.38
338.194	1430.38
338.422	1353.38
338.65	1340.38
338.878	1316.38
339.106	1300.38
339.334	1253.38
339.562	1252.38
339.79	1212.38
340.018	1227.38
340.246	1216.38
340.474	1223.38
340.702	1214.38
340.93	1173.38
341.158	1238.38
341.386	1201.38
341.614	1185.38
341.842	1176.38
342.07	1149.38
342.298	1145.38
342.526	1121.38
342.754	1110.38
342.981	1127.38
343.209	1090.38
343.437	1104.38
343.665	1110.38
343.893	1142.38
344.12	1154.38
344.348	1097.38
344.576	1111.38
344.804	1105.38
345.031	1094.38
345.259	1059.38
345.487	1032.38
345.714	1058.38
345.942	1009.38
346.17	1034.38
346.397	1036.38
346.625	1024.38
346.853	1034.38
347.08	1031.38
347.308	1018.38
347.535	1054.38
347.763	1012.38
347.99	1002.38
348.218	1000.38
348.445	989.38
348.673	987.38
348.9	1045.38
349.128	1000.38
349.355	1010.38
349.583	1002.38
349.81	971.38
350.037	983.38
350.265	981.38
350.492	981.38
350.72	994.38
350.947	1026.38
351.174	1000.38
351.402	990.38
351.629	995.38
351.856	997.38
352.083	970.38
352.311	955.38
352.538	967.38
352.765	969.38
352.992	987.38
353.22	987.38
353.447	969.38
353.674	992.38
353.901	964.38
354.128	966.38
354.355	986.38
354.583	991.38
354.81	998.38
355.037	980.38
355.264	1014.38
355.491	987.38
355.718	998.38
355.945	1003.38
356.172	977.38
356.399	1005.38
356.626	1002.38
356.853	1009.38
357.08	1025.38
357.307	1066.38
357.534	1025.38
357.761	1036.38
357.988	1031.38
358.215	1009.38
358.441	1018.38
358.668	1033.38
358.895	1010.38
359.122	1044.38
359.349	1032.38
359.576	1002.38
359.802	1041.38
360.029	993.38
360.256	1063.38
360.483	1027.38
360.709	1038.38
360.936	1050.38
361.163	1050.38
361.39	1047.38
361.616	1033.38
361.843	1041.38
362.07	1065.38
362.296	1064.38
362.523	1058.38
362.749	1070.38
362.976	1042.38
363.203	1036.38
363.429	1038.38
363.656	1052.38
363.882	1036.38
364.109	1058.38
364.335	1035.38
364.562	1039.38
364.788	1050.38
365.015	1061.38
365.241	1085.38
365.468	1091.38
365.694	1123.38
365.92	1129.38
366.147	1061.38
366.373	1029.38
366.599	1077.38
366.826	1070.38
367.052	1050.38
367.278	1062.38
367.505	1059.38
367.731	1079.38
367.957	1091.38
368.184	1079.38
368.41	1100.38
368.636	1095.38
368.862	1113.38
369.089	1085.38
369.315	1099.38
369.541	1079.38
369.767	1095.38
369.993	1075.38
370.219	1101.38
370.445	1080.38
370.672	1097.38
370.898	1058.38
371.124	1085.38
371.35	1111.38
371.576	1122.38
371.802	1146.38
372.028	1116.38
372.254	1119.38
372.48	1143.38
372.706	1145.38
372.932	1177.38
373.158	1162.38
373.384	1183.38
373.61	1157.38
373.835	1140.38
374.061	1119.38
374.287	1161.38
374.513	1192.38
374.739	1157.38
374.965	1181.38
375.191	1197.38
375.416	1178.38
375.642	1193.38
375.868	1155.38
376.094	1147.38
376.319	1128.38
376.545	1163.38
376.771	1155.38
376.997	1132.38
377.222	1159.38
377.448	1158.38
377.674	1124.38
377.899	1110.38
378.125	1111.38
378.35	1146.38
378.576	1111.38
378.802	1144.38
379.027	1148.38
379.253	1167.38
379.478	1182.38
379.704	1362.38
379.929	1807.38
380.155	2473.38
380.38	2691.38
380.606	1820.38
380.831	1414.38
381.057	1274.38
381.282	1166.38
381.507	1096.38
381.733	1109.38
381.958	1154.38
382.184	1117.38
382.409	1082.38
382.634	1120.38
382.86	1125.38
383.085	1113.38
383.31	1119.38
383.535	1142.38
383.761	1109.38
383.986	1131.38
384.211	1115.38
384.436	1143.38
384.662	1151.38
384.887	1144.38
385.112	1163.38
385.337	1179.38
385.562	1119.38
385.787	1123.38
386.013	1185.38
386.238	1150.38
386.463	1171.38
386.688	1166.38
386.913	1173.38
387.138	1173.38
387.363	1160.38
387.588	1139.38
387.813	1133.38
388.038	1141.38
388.263	1141.38
388.488	1134.38
388.713	1157.38
388.938	1133.38
389.163	1139.38
389.387	1163.38
389.612	1145.38
389.837	1167.38
390.062	1145.38
390.287	1180.38
390.512	1177.38
390.736	1158.38
390.961	1183.38
391.186	1208.38
391.411	1201.38
391.636	1227.38
391.86	1218.38
392.085	1196.38
392.31	1207.38
392.534	1174.38
392.759	1210.38
392.984	1161.38
393.208	1162.38
393.433	1164.38
393.658	1155.38
393.882	1166.38
394.107	1177.38
394.331	1203.38
394.556	1144.38
394.78	1151.38
395.005	1183.38
395.229	1160.38
395.454	1193.38
395.678	1207.38
395.903	1227.38
396.127	1181.38
396.352	1197.38
396.576	1181.38
396.801	1195.38
397.025	1189.38
397.249	1185.38
397.474	1220.38
397.698	1196.38
397.922	1195.38
398.147	1252.38
398.371	1260.38
398.595	1274.38
398.82	1277.38
399.044	1336.38
399.268	1385.38
399.492	1483.38
399.717	1526.38
399.941	1539.38
400.165	1449.38
400.389	1405.38
400.613	1382.38
400.837	1322.38
401.062	1350.38
401.286	1311.38
401.51	1286.38
401.734	1258.38
401.958	1294.38
402.182	1277.38
402.406	1299.38
402.63	1312.38
402.854	1313.38
403.078	1294.38
403.302	1290.38
403.526	1326.38
403.75	1339.38
403.974	1331.38
404.198	1320.38
404.422	1339.38
404.645	1346.38
404.869	1331.38
405.093	1345.38
405.317	1296.38
405.541	1354.38
405.765	1342.38
405.988	1322.38
406.212	1363.38
406.436	1344.38
406.66	1358.38
406.883	1368.38
407.107	1416.38
407.331	1457.38
407.555	1475.38
407.778	1423.38
408.002	1374.38
408.226	1405.38
408.449	1420.38
408.673	1345.38
408.896	1370.38
409.12	1358.38
409.344	1347.38
409.567	1346.38
409.791	1305.38
410.014	1310.38
410.238	1305.38
410.461	1303.38
410.685	1289.38
410.908	1305.38
411.132	1300.38
411.355	1251.38
411.578	1286.38
411.802	1274.38
412.025	1243.38
412.249	1310.38
412.472	1280.38
412.695	1253.38
412.919	1245.38
413.142	1281.38
413.365	1271.38
413.589	1228.38
413.812	1250.38
414.035	1231.38
414.258	1298.38
414.482	1237.38
414.705	1273.38
414.928	1262.38
415.151	1221.38
415.374	1264.38
415.597	1225.38
415.821	1242.38
416.044	1217.38
416.267	1185.38
416.49	1215.38
416.713	1191.38
416.936	1231.38
417.159	1229.38
417.382	1176.38
417.605	1186.38
417.828	1208.38
418.051	1221.38
418.274	1229.38
418.497	1227.38
418.72	1221.38
418.943	1231.38
419.166	1292.38
419.389	1346.38
419.611	1316.38
419.834	1288.38
420.057	1246.38
420.28	1213.38
420.503	1225.38
420.726	1206.38
420.948	1191.38
421.171	1196.38
421.394	1206.38
421.617	1230.38
421.839	1244.38
422.062	1236.38
422.285	1207.38
422.507	1222.38
422.73	1237.38
422.953	1266.38
423.175	1261.38
423.398	1246.38
423.621	1240.38
423.843	1251.38
424.066	1219.38
424.288	1229.38
424.511	1235.38
424.733	1224.38
424.956	1237.38
425.178	1182.38
425.401	1212.38
425.623	1243.38
425.846	1185.38
426.068	1190.38
426.291	1214.38
426.513	1205.38
426.735	1181.38
426.958	1181.38
427.18	1149.38
427.402	1147.38
427.625	1149.38
427.847	1153.38
428.069	1146.38
428.292	1155.38
428.514	1114.38
428.736	1114.38
428.958	1118.38
429.181	1100.38
429.403	1127.38
429.625	1122.38
429.847	1145.38
430.069	1171.38
430.292	1146.38
430.514	1166.38
430.736	1215.38
430.958	1155.38
431.18	1121.38
431.402	1121.38
431.624	1105.38
431.846	1125.38
432.068	1122.38
432.29	1124.38
432.512	1110.38
432.734	1153.38
432.956	1107.38
433.178	1118.38
433.4	1152.38
433.622	1095.38
433.844	1167.38
434.066	1107.38
434.287	1129.38
434.509	1123.38
434.731	1150.38
434.953	1130.38
435.175	1174.38
435.397	1179.38
435.618	1155.38
435.84	1137.38
436.062	1102.38
436.284	1124.38
436.505	1138.38
436.727	1133.38
436.949	1116.38
437.17	1103.38
437.392	1092.38
437.614	1091.38
437.835	1064.38
438.057	1070.38
438.278	1066.38
438.5	1076.38
438.721	1089.38
438.943	1133.38
439.165	1136.38
439.386	1170.38
439.608	1122.38
439.829	1156.38
440.05	1182.38
440.272	1197.38
440.493	1147.38
440.715	1131.38
440.936	1154.38
441.158	1158.38
441.379	1190.38
441.6	1238.38
441.822	1240.38
442.043	1270.38
442.264	1292.38
442.486	1228.38
442.707	1202.38
442.928	1193.38
443.149	1194.38
443.371	1184.38
443.592	1214.38
443.813	1212.38
444.034	1218.38
444.255	1202.38
444.476	1261.38
444.698	1275.38
444.919	1290.38
445.14	1329.38
445.361	1293.38
445.582	1209.38
445.803	1217.38
446.024	1183.38
446.245	1190.38
446.466	1163.38
446.687	1166.38
446.908	1158.38
447.129	1163.38
447.35	1152.38
447.571	1127.38
447.792	1113.38
448.013	1125.38
448.234	1122.38
448.455	1098.38
448.675	1109.38
448.896	1156.38
449.117	1141.38
449.338	1229.38
449.559	1298.38
449.779	1132.38
450	1116.38
450.221	1111.38
450.442	1077.38
450.662	1077.38
450.883	1096.38
451.104	1066.38
451.324	1077.38
451.545	1066.38
451.766	1067.38
451.986	1106.38
452.207	1159.38
452.428	1333.38
452.648	1723.38
452.869	1509.38
453.089	1203.38
453.31	1195.38
453.53	1159.38
453.751	1179.38
453.971	1213.38
454.192	1222.38
454.412	1073.38
454.633	1080.38
454.853	1033.38
455.073	1041.38
455.294	1013.38
455.514	1035.38
455.734	1055.38
455.955	1036.38
456.175	999.38
456.395	1008.38
456.616	1028.38
456.836	1044.38
457.056	1046.38
457.276	1007.38
457.497	1074.38
457.717	1084.38
457.937	1062.38
458.157	1065.38
458.377	1089.38
458.598	1074.38
458.818	1096.38
459.038	1086.38
459.258	1108.38
459.478	1124.38
459.698	1115.38
459.918	1121.38
460.138	1167.38
460.358	1193.38
460.578	1204.38
460.798	1203.38
461.018	1191.38
461.238	1217.38
461.458	1228.38
461.678	1199.38
461.898	1231.38
462.118	1231.38
462.338	1300.38
462.558	1265.38
462.777	1286.38
462.997	1339.38
463.217	1429.38
463.437	1426.38
463.657	1431.38
463.876	1415.38
464.096	1326.38
464.316	1299.38
464.536	1329.38
464.755	1310.38
464.975	1260.38
465.195	1210.38
465.414	1197.38
465.634	1163.38
465.854	1150.38
466.073	1130.38
466.293	1163.38
466.512	1161.38
466.732	1129.38
466.951	1173.38
467.171	1259.38
467.391	1200.38
467.61	1107.38
467.829	1120.38
468.049	1117.38
468.268	1088.38
468.488	1093.38
468.707	1103.38
468.927	1111.38
469.146	1106.38
469.365	1117.38
469.585	1102.38
469.804	1149.38
470.023	1165.38
470.243	1182.38
470.462	1181.38
470.681	1256.38
470.901	1308.38
471.12	1465.38
471.339	1452.38
471.558	1290.38
471.777	1205.38
471.997	1153.38
472.216	1114.38
472.435	1117.38
472.654	1084.38
472.873	1068.38
473.092	1116.38
473.311	1111.38
473.53	1089.38
473.749	1121.38
473.968	1206.38
474.187	1118.38
474.406	1118.38
474.625	1120.38
474.844	1100.38
475.063	1123.38
475.282	1102.38
475.501	1094.38
475.72	1107.38
475.939	1149.38
476.158	1178.38
476.377	1157.38
476.596	1159.38
476.814	1147.38
477.033	1143.38
477.252	1210.38
477.471	1196.38
477.69	1228.38
477.908	1231.38
478.127	1257.38
478.346	1255.38
478.564	1246.38
478.783	1261.38
479.002	1319.38
479.22	1290.38
479.439	1316.38
479.658	1313.38
479.876	1289.38
480.095	1288.38
480.313	1327.38
480.532	1351.38
480.751	1338.38
480.969	1313.38
481.188	1281.38
481.406	1292.38
481.624	1305.38
481.843	1294.38
482.061	1300.38
482.28	1306.38
482.498	1310.38
482.717	1297.38
482.935	1317.38
483.153	1385.38
483.372	1349.38
483.59	1381.38
483.808	1394.38
484.027	1396.38
484.245	1431.38
484.463	1577.38
484.681	1728.38
484.9	1604.38
485.118	1558.38
485.336	1516.38
485.554	1511.38
485.772	1579.38
485.99	1755.38
486.209	1862.38
486.427	1607.38
486.645	1498.38
486.863	1431.38
487.081	1448.38
487.299	1413.38
487.517	1414.38
487.735	1427.38
487.953	1419.38
488.171	1425.38
488.389	1430.38
488.607	1323.38
488.825	1403.38
489.043	1346.38
489.261	1333.38
489.479	1363.38
489.696	1360.38
489.914	1343.38
490.132	1364.38
490.35	1378.38
490.568	1405.38
490.786	1397.38
491.003	1437.38
491.221	1458.38
491.439	1452.38
491.657	1474.38
491.874	1459.38
492.092	1485.38
492.31	1521.38
492.527	1518.38
492.745	1490.38
492.963	1449.38
493.18	1477.38
493.398	1441.38
493.615	1458.38
493.833	1450.38
494.05	1421.38
494.268	1450.38
494.485	1464.38
494.703	1463.38
494.92	1477.38
495.138	1452.38
495.355	1462.38
495.573	1466.38
495.79	1470.38
496.008	1483.38
496.225	1503.38
496.442	1500.38
496.66	1546.38
496.877	1631.38
497.094	1581.38
497.312	1555.38
497.529	1547.38
497.746	1577.38
497.963	1616.38
498.181	1593.38
498.398	1660.38
498.615	1682.38
498.832	1760.38
499.049	1837.38
499.267	1985.38
499.484	2076.38
499.701	2133.38
499.918	2163.38
500.135	2332.38
500.352	2406.38
500.569	2488.38
500.786	2515.38
501.003	2373.38
501.22	2261.38
501.437	2145.38
501.654	2010.38
501.871	1957.38
502.088	1868.38
502.305	1770.38
502.522	1727.38
502.739	1701.38
502.956	1649.38
503.172	1577.38
503.389	1575.38
503.606	1547.38
503.823	1516.38
504.04	1507.38
504.256	1483.38
504.473	1494.38
504.69	1500.38
504.907	1466.38
505.123	1452.38
505.34	1416.38
505.557	1387.38
505.773	1359.38
505.99	1347.38
506.207	1326.38
506.423	1307.38
506.64	1296.38
506.856	1275.38
507.073	1298.38
507.289	1315.38
507.506	1303.38
507.722	1261.38
507.939	1269.38
508.155	1235.38
508.372	1258.38
508.588	1247.38
508.805	1225.38
509.021	1248.38
509.238	1233.38
509.454	1286.38
509.67	1319.38
509.887	1288.38
510.103	1250.38
510.319	1250.38
510.536	1251.38
510.752	1210.38
510.968	1205.38
511.184	1182.38
511.401	1184.38
511.617	1140.38
511.833	1175.38
512.049	1166.38
512.265	1150.38
512.481	1173.38
512.698	1165.38
512.914	1164.38
513.13	1181.38
513.346	1202.38
513.562	1228.38
513.778	1195.38
513.994	1211.38
514.21	1236.38
514.426	1244.38
514.642	1299.38
514.858	1215.38
515.074	1225.38
515.29	1210.38
515.506	1223.38
515.721	1211.38
515.937	1240.38
516.153	1196.38
516.369	1220.38
516.585	1247.38
516.801	1263.38
517.016	1307.38
517.232	1343.38
517.448	1341.38
517.664	1342.38
517.879	1323.38
518.095	1346.38
518.311	1334.38
518.527	1290.38
518.742	1304.38
518.958	1302.38
519.173	1323.38
519.389	1260.38
519.605	1238.38
519.82	1230.38
520.036	1193.38
520.251	1212.38
520.467	1203.38
520.682	1199.38
520.898	1179.38
521.113	1176.38
521.329	1155.38
521.544	1187.38
521.76	1206.38
521.975	1201.38
522.19	1126.38
522.406	1141.38
522.621	1167.38
522.836	1157.38
523.052	1155.38
523.267	1157.38
523.482	1147.38
523.698	1139.38
523.913	1156.38
524.128	1164.38
524.343	1171.38
524.559	1168.38
524.774	1147.38
524.989	1142.38
525.204	1151.38
525.419	1141.38
525.634	1115.38
525.849	1170.38
526.064	1156.38
526.28	1127.38
526.495	1142.38
526.71	1143.38
526.925	1147.38
527.14	1177.38
527.355	1156.38
527.57	1147.38
527.785	1124.38
527.999	1159.38
528.214	1177.38
528.429	1174.38
528.644	1221.38
528.859	1205.38
529.074	1206.38
529.289	1258.38
529.503	1261.38
529.718	1201.38
529.933	1217.38
530.148	1179.38
530.363	1177.38
530.577	1177.38
530.792	1217.38
531.007	1186.38
531.221	1182.38
531.436	1228.38
531.651	1224.38
531.865	1249.38
532.08	1221.38
532.295	1290.38
532.509	1357.38
532.724	1320.38
532.938	1323.38
533.153	1345.38
533.367	1419.38
533.582	1486.38
533.796	1445.38
534.011	1409.38
534.225	1379.38
534.44	1385.38
534.654	1356.38
534.868	1303.38
535.083	1357.38
535.297	1313.38
535.511	1253.38
535.726	1267.38
535.94	1285.38
536.154	1215.38
536.369	1217.38
536.583	1203.38
536.797	1192.38
537.011	1166.38
537.225	1171.38
537.44	1156.38
537.654	1178.38
537.868	1148.38
538.082	1143.38
538.296	1119.38
538.51	1129.38
538.724	1166.38
538.938	1134.38
539.153	1141.38
539.367	1155.38
539.581	1121.38
539.795	1091.38
540.009	1089.38
540.222	1097.38
540.436	1105.38
540.65	1112.38
540.864	1123.38
541.078	1140.38
541.292	1194.38
541.506	1360.38
541.72	1390.38
541.934	1265.38
542.147	1233.38
542.361	1216.38
542.575	1166.38
542.789	1137.38
543.002	1102.38
543.216	1067.38
543.43	1080.38
543.644	1091.38
543.857	1065.38
544.071	1109.38
544.285	1097.38
544.498	1098.38
544.712	1152.38
544.925	1122.38
545.139	1127.38
545.352	1132.38
545.566	1124.38
545.779	1124.38
545.993	1107.38
546.206	1115.38
546.42	1129.38
546.633	1114.38
546.847	1109.38
547.06	1143.38
547.274	1142.38
547.487	1128.38
547.7	1131.38
547.914	1138.38
548.127	1124.38
548.34	1123.38
548.554	1109.38
548.767	1128.38
548.98	1151.38
549.193	1079.38
549.407	1105.38
549.62	1118.38
549.833	1138.38
550.046	1137.38
550.259	1106.38
550.473	1102.38
550.686	1112.38
550.899	1112.38
551.112	1110.38
551.325	1085.38
551.538	1105.38
551.751	1093.38
551.964	1091.38
552.177	1110.38
552.39	1128.38
552.603	1194.38
552.816	1158.38
553.029	1197.38
553.242	1194.38
553.455	1225.38
553.667	1251.38
553.88	1196.38
554.093	1208.38
554.306	1224.38
554.519	1223.38
554.732	1252.38
554.944	1237.38
555.157	1252.38
555.37	1281.38
555.583	1285.38
555.795	1346.38
556.008	1415.38
556.221	1481.38
556.433	1555.38
556.646	1553.38
556.859	1529.38
557.071	1489.38
557.284	1512.38
557.496	1447.38
557.709	1466.38
557.921	1435.38
558.134	1467.38
558.346	1451.38
558.559	1500.38
558.771	1533.38
558.984	1616.38
559.196	1703.38
559.409	1654.38
559.621	1567.38
559.833	1505.38
560.046	1453.38
560.258	1402.38
560.47	1361.38
560.683	1295.38
560.895	1274.38
561.107	1256.38
561.32	1217.38
561.532	1179.38
561.744	1185.38
561.956	1155.38
562.168	1138.38
562.381	1114.38
562.593	1109.38
562.805	1109.38
563.017	1123.38
563.229	1119.38
563.441	1218.38
563.653	1089.38
563.865	1052.38
564.077	1067.38
564.289	1020.38
564.501	1025.38
564.713	1031.38
564.925	1042.38
565.137	1020.38
565.349	998.38
565.561	1023.38
565.773	1049.38
565.985	1069.38
566.197	1045.38
566.408	1083.38
566.62	1114.38
566.832	1135.38
567.044	1131.38
567.255	1103.38
567.467	1153.38
567.679	1165.38
567.891	1221.38
568.102	1301.38
568.314	1473.38
568.526	1285.38
568.737	1141.38
568.949	1064.38
569.161	983.38
569.372	953.38
569.584	923.38
569.795	919.38
570.007	903.38
570.218	924.38
570.43	938.38
570.641	887.38
570.853	910.38
571.064	864.38
571.276	864.38
571.487	862.38
571.698	847.38
571.91	839.38
572.121	835.38
572.333	826.38
572.544	804.38
572.755	877.38
572.966	919.38
573.178	851.38
573.389	813.38
573.6	804.38
573.811	745.38
574.023	749.38
574.234	727.38
574.445	746.38
574.656	764.38
574.867	756.38
575.078	740.38
575.289	740.38
575.501	745.38
575.712	742.38
575.923	708.38
576.134	722.38
576.345	730.38
576.556	734.38
576.767	731.38
576.978	760.38
577.188	729.38
577.399	754.38
577.61	761.38
577.821	746.38
578.032	775.38
578.243	779.38
578.454	782.38
578.665	791.38
578.875	807.38
579.086	810.38
579.297	882.38
579.508	880.38
579.718	922.38
579.929	1017.38
580.14	1079.38
580.35	1126.38
580.561	1080.38
580.772	1041.38
580.982	981.38
581.193	899.38
581.403	894.38
581.614	869.38
581.825	819.38
582.035	835.38
582.246	795.38
582.456	776.38
582.667	765.38
582.877	746.38
583.087	716.38
583.298	723.38
583.508	681.38
583.719	686.38
583.929	678.38
584.139	682.38
584.35	638.38
584.56	667.38
584.77	651.38
584.981	631.38
585.191	633.38
585.401	620.38
585.611	601.38
585.821	622.38
586.032	596.38
586.242	609.38
586.452	604.38
586.662	603.38
586.872	576.38
587.082	584.38
587.292	602.38
587.502	582.38
587.713	573.38
587.923	577.38
588.133	562.38
588.343	555.38
588.553	565.38
588.762	545.38
588.972	511.38
589.182	551.38
589.392	563.38
589.602	534.38
589.812	541.38
590.022	546.38
590.232	531.38
590.441	534.38
590.651	522.38
590.861	539.38
591.071	528.38
591.281	506.38
591.49	545.38
591.7	543.38
591.91	524.38
592.119	546.38
592.329	544.38
592.539	546.38
592.748	538.38
592.958	552.38
593.167	551.38
593.377	537.38
593.587	550.38
593.796	568.38
594.006	583.38
594.215	550.38
594.424	548.38
594.634	557.38
594.843	549.38
595.053	534.38
595.262	540.38
595.472	541.38
595.681	521.38
595.89	500.38
596.1	532.38
596.309	480.38
596.518	513.38
596.727	496.38
596.937	472.38
597.146	462.38
597.355	471.38
597.564	480.38
597.774	480.38
597.983	470.38
598.192	445.38
598.401	469.38
598.61	443.38
598.819	465.38
599.028	459.38
599.237	435.38
599.446	465.38
599.655	456.38
599.864	442.38
600.073	431.38
600.282	445.38
600.491	462.38
600.7	456.38
600.909	470.38
601.118	438.38
601.327	443.38
601.536	446.38
601.745	487.38
601.953	498.38
602.162	547.38
602.371	486.38
602.58	453.38
602.789	441.38
602.997	442.38
603.206	433.38
603.415	416.38
603.623	438.38
603.832	451.38
604.041	424.38
604.249	427.38
604.458	436.38
604.666	440.38
604.875	434.38
605.084	416.38
605.292	418.38
605.501	422.38
605.709	455.38
605.918	422.38
606.126	414.38
606.334	451.38
606.543	441.38
606.751	486.38
606.96	501.38
607.168	561.38
607.376	471.38
607.585	438.38
607.793	441.38
608.001	439.38
608.21	428.38
608.418	399.38
608.626	412.38
608.834	422.38
609.043	431.38
609.251	418.38
609.459	420.38
609.667	417.38
609.875	403.38
610.083	407.38
610.291	421.38
610.499	395.38
610.707	407.38
610.916	422.38
611.124	393.38
611.332	426.38
611.54	415.38
611.748	404.38
611.955	413.38
612.163	404.38
612.371	395.38
612.579	396.38
612.787	400.38
612.995	382.38
613.203	413.38
613.411	395.38
613.618	392.38
613.826	385.38
614.034	386.38
614.242	399.38
614.449	391.38
614.657	386.38
614.865	398.38
615.072	392.38
615.28	397.38
615.488	389.38
615.695	385.38
615.903	387.38
616.111	398.38
616.318	407.38
616.526	384.38
616.733	390.38
616.941	388.38
617.148	387.38
617.356	381.38
617.563	375.38
617.771	391.38
617.978	381.38
618.185	381.38
618.393	378.38
618.6	379.38
618.807	404.38
619.015	393.38
619.222	370.38
619.429	379.38
619.637	375.38
619.844	371.38
620.051	369.38
620.258	374.38
620.466	341.38
620.673	347.38
620.88	358.38
621.087	325.38
621.294	337.38
621.501	373.38
621.708	342.38
621.915	350.38
622.122	346.38
622.329	361.38
622.536	339.38
622.743	344.38
622.95	334.38
623.157	350.38
623.364	358.38
623.571	347.38
623.778	347.38
623.985	344.38
624.192	335.38
624.399	338.38
624.606	345.38
624.812	351.38
625.019	334.38
625.226	323.38
625.433	316.38
625.639	313.38
625.846	330.38
626.053	316.38
626.259	332.38
626.466	316.38
626.673	305.38
626.879	302.38
627.086	344.38
627.293	337.38
627.499	329.38
627.706	333.38
627.912	308.38
628.119	325.38
628.325	335.38
628.532	327.38
628.738	319.38
628.945	314.38
629.151	316.38
629.357	309.38
629.564	316.38
629.77	323.38
629.976	307.38
630.183	309.38
630.389	303.38
630.595	301.38
630.802	313.38
631.008	327.38
631.214	321.38
631.42	302.38
631.627	315.38
631.833	295.38
632.039	287.38
632.245	302.38
632.451	309.38
632.657	311.38
632.863	295.38
633.069	305.38
633.275	283.38
633.481	303.38
633.688	293.38
633.893	293.38
634.099	308.38
634.305	281.38
634.511	305.38
634.717	287.38
634.923	307.38
635.129	325.38
635.335	348.38
635.541	341.38
635.747	317.38
635.952	293.38
636.158	306.38
636.364	307.38
636.57	317.38
636.775	322.38
636.981	293.38
637.187	293.38
637.392	290.38
637.598	302.38
637.804	302.38
638.009	306.38
638.215	279.38
638.421	294.38
638.626	295.38
638.832	301.38
639.037	322.38
639.243	298.38
639.448	318.38
639.654	317.38
639.859	305.38
640.065	311.38
640.27	323.38
640.475	317.38
640.681	308.38
640.886	308.38
641.091	321.38
641.297	322.38
641.502	306.38
641.707	315.38
641.913	312.38
642.118	319.38
642.323	332.38
642.528	340.38
642.733	341.38
642.939	354.38
643.144	365.38
643.349	359.38
643.554	368.38
643.759	391.38
643.964	407.38
644.169	414.38
644.374	429.38
644.579	454.38
644.784	471.38
644.989	511.38
645.194	582.38
645.399	635.38
645.604	673.38
645.809	539.38
646.014	450.38
646.219	411.38
646.423	369.38
646.628	346.38
646.833	357.38
647.038	332.38
647.243	309.38
647.447	307.38
647.652	307.38
647.857	276.38
648.062	307.38
648.266	299.38
648.471	275.38
648.676	269.38
648.88	289.38
649.085	285.38
649.289	267.38
649.494	274.38
649.698	267.38
649.903	268.38
650.107	265.38
650.312	260.38
650.516	257.38
650.721	272.38
650.925	243.38
651.13	238.38
651.334	241.38
651.539	235.38
651.743	226.38
651.947	224.38
652.152	235.38
652.356	227.38
652.56	228.38
652.764	258.38
652.969	245.38
653.173	251.38
653.377	249.38
653.581	224.38
653.785	211.38
653.99	217.38
654.194	212.38
654.398	209.38
654.602	199.38
654.806	196.38
655.01	212.38
655.214	205.38
655.418	221.38
655.622	215.38
655.826	214.38
656.03	234.38
656.234	228.38
656.438	229.38
656.642	213.38
656.846	220.38
657.049	214.38
657.253	198.38
657.457	195.38
657.661	164.38
657.865	170.38
658.068	152.38
658.272	173.38
658.476	147.38
658.68	147.38
658.883	136.38
659.087	137.38
659.291	141.38
659.494	137.38
659.698	124.38
659.901	132.38
660.105	135.38
660.309	118.38
660.512	125.38
660.716	124.38
660.919	115.38
661.123	108.38
661.326	104.38
661.53	104.38
661.733	100.38
661.936	105.38
662.14	91.38
662.343	98.38
662.546	98.38
662.75	82.38
662.953	94.38
663.156	97.38
663.36	87.38
663.563	85.38
663.766	90.38
663.969	91.38
664.173	92.38
664.376	82.38
664.579	91.38
664.782	102.38
664.985	88.38
665.188	80.38
665.391	92.38
665.594	83.38
665.797	84.38
666	77.38
666.203	78.38
666.406	86.38
666.609	75.38
666.812	101.38
667.015	79.38
667.218	87.38
667.421	81.38
667.624	71.38
667.827	81.38
668.03	69.38
668.232	87.38
668.435	87.38
668.638	72.38
668.841	92.38
669.043	87.38
669.246	81.38
669.449	79.38
669.651	74.38
669.854	77.38
670.057	81.38
670.259	72.38
670.462	84.38
670.665	92.38
670.867	94.38
671.07	92.38
671.272	87.38
671.475	86.38
671.677	72.38
671.88	80.38
672.082	81.38
672.284	89.38
672.487	83.38
672.689	85.38
672.892	81.38
