Data from SnStandardFlinnAPT0064_QswitchEnergy10_LIBS07252019.E.O._I.C._HRD10591_15-27-05-973.txt Node
Date: Thu Jul 25 15:27:05 EDT 2019
User: cochatt
Spectrometer: HR+D1059
Trigger mode: 1
Integration Time (sec): 1.000000E-1
Scans to average: 1
Electric dark correction enabled: true
Nonlinearity correction enabled: false
Boxcar width: 0
XAxis mode: Wavelengths
Number of Pixels in Spectrum: 2048
>>>>>Begin Spectral Data<<<<<
223.165	-15.94
223.4	-15.94
223.635	-15.94
223.869	-24.94
224.104	-21.94
224.338	-19.94
224.573	-14.94
224.808	-1.94
225.042	-10.94
225.277	6.06
225.511	5.06
225.746	-5.94
225.98	7.06
226.215	5.06
226.449	14.06
226.683	25.06
226.918	19.06
227.152	35.06
227.387	33.06
227.621	41.06
227.856	38.06
228.09	29.06
228.324	41.06
228.559	55.06
228.793	60.06
229.027	63.06
229.262	62.06
229.496	62.06
229.73	64.06
229.964	74.06
230.199	57.06
230.433	82.06
230.667	88.06
230.901	88.06
231.136	81.06
231.37	87.06
231.604	72.06
231.838	78.06
232.072	103.06
232.306	113.06
232.541	83.06
232.775	95.06
233.009	87.06
233.243	78.06
233.477	85.06
233.711	91.06
233.945	94.06
234.179	90.06
234.413	90.06
234.647	74.06
234.881	79.06
235.115	82.06
235.349	96.06
235.583	84.06
235.817	117.06
236.051	129.06
236.285	98.06
236.519	79.06
236.753	91.06
236.987	66.06
237.221	70.06
237.455	79.06
237.689	92.06
237.922	81.06
238.156	81.06
238.39	88.06
238.624	82.06
238.858	82.06
239.091	84.06
239.325	81.06
239.559	71.06
239.793	72.06
240.027	93.06
240.26	87.06
240.494	83.06
240.728	89.06
240.961	93.06
241.195	82.06
241.429	85.06
241.662	84.06
241.896	102.06
242.13	102.06
242.363	132.06
242.597	141.06
242.83	136.06
243.064	129.06
243.298	158.06
243.531	141.06
243.765	95.06
243.998	91.06
244.232	75.06
244.465	78.06
244.699	62.06
244.932	62.06
245.166	88.06
245.399	81.06
245.633	69.06
245.866	86.06
246.099	93.06
246.333	85.06
246.566	90.06
246.8	82.06
247.033	72.06
247.266	64.06
247.5	75.06
247.733	67.06
247.966	81.06
248.2	98.06
248.433	96.06
248.666	122.06
248.899	95.06
249.133	95.06
249.366	91.06
249.599	106.06
249.832	101.06
250.066	121.06
250.299	77.06
250.532	74.06
250.765	80.06
250.998	64.06
251.231	75.06
251.465	82.06
251.698	89.06
251.931	96.06
252.164	78.06
252.397	75.06
252.63	81.06
252.863	85.06
253.096	74.06
253.329	88.06
253.562	94.06
253.795	79.06
254.028	86.06
254.261	98.06
254.494	99.06
254.727	122.06
254.96	141.06
255.193	111.06
255.426	94.06
255.659	84.06
255.892	83.06
256.124	92.06
256.357	85.06
256.59	84.06
256.823	85.06
257.056	100.06
257.289	130.06
257.521	178.06
257.754	116.06
257.987	82.06
258.22	85.06
258.452	100.06
258.685	72.06
258.918	83.06
259.151	109.06
259.383	112.06
259.616	151.06
259.849	141.06
260.081	106.06
260.314	70.06
260.547	86.06
260.779	68.06
261.012	87.06
261.244	93.06
261.477	80.06
261.71	83.06
261.942	82.06
262.175	85.06
262.407	81.06
262.64	70.06
262.872	80.06
263.105	85.06
263.337	95.06
263.57	85.06
263.802	85.06
264.035	101.06
264.267	96.06
264.499	83.06
264.732	92.06
264.964	83.06
265.197	83.06
265.429	89.06
265.661	91.06
265.894	80.06
266.126	125.06
266.358	154.06
266.591	133.06
266.823	90.06
267.055	73.06
267.287	83.06
267.52	88.06
267.752	105.06
267.984	81.06
268.216	83.06
268.448	84.06
268.681	89.06
268.913	69.06
269.145	104.06
269.377	77.06
269.609	93.06
269.841	96.06
270.073	95.06
270.306	119.06
270.538	198.06
270.77	297.06
271.002	343.06
271.234	183.06
271.466	110.06
271.698	88.06
271.93	96.06
272.162	88.06
272.394	98.06
272.626	91.06
272.858	98.06
273.09	86.06
273.322	97.06
273.553	74.06
273.785	98.06
274.017	88.06
274.249	89.06
274.481	90.06
274.713	73.06
274.945	98.06
275.176	86.06
275.408	94.06
275.64	74.06
275.872	97.06
276.104	104.06
276.335	102.06
276.567	93.06
276.799	78.06
277.031	76.06
277.262	87.06
277.494	115.06
277.726	106.06
277.957	181.06
278.189	225.06
278.421	213.06
278.652	169.06
278.884	165.06
279.115	122.06
279.347	102.06
279.579	91.06
279.81	91.06
280.042	86.06
280.273	90.06
280.505	90.06
280.736	102.06
280.968	124.06
281.199	150.06
281.431	222.06
281.662	231.06
281.894	138.06
282.125	110.06
282.356	122.06
282.588	113.06
282.819	103.06
283.051	114.06
283.282	119.06
283.513	170.06
283.745	291.06
283.976	479.06
284.207	719.06
284.439	558.06
284.67	250.06
284.901	230.06
285.132	321.06
285.364	361.06
285.595	191.06
285.826	155.06
286.057	208.06
286.288	361.06
286.52	550.06
286.751	485.06
286.982	177.06
287.213	115.06
287.444	104.06
287.675	98.06
287.906	88.06
288.138	94.06
288.369	82.06
288.6	82.06
288.831	92.06
289.062	83.06
289.293	95.06
289.524	94.06
289.755	90.06
289.986	97.06
290.217	94.06
290.448	100.06
290.679	99.06
290.91	127.06
291.141	159.06
291.371	198.06
291.602	241.06
291.833	165.06
292.064	106.06
292.295	96.06
292.526	87.06
292.757	99.06
292.987	80.06
293.218	77.06
293.449	88.06
293.68	87.06
293.91	73.06
294.141	95.06
294.372	83.06
294.603	86.06
294.833	97.06
295.064	85.06
295.295	93.06
295.525	95.06
295.756	92.06
295.987	82.06
296.217	101.06
296.448	87.06
296.679	94.06
296.909	95.06
297.14	101.06
297.37	82.06
297.601	107.06
297.831	81.06
298.062	88.06
298.292	93.06
298.523	101.06
298.753	96.06
298.984	125.06
299.214	109.06
299.445	88.06
299.675	106.06
299.905	127.06
300.136	117.06
300.366	146.06
300.597	240.06
300.827	415.06
301.057	607.06
301.288	558.06
301.518	234.06
301.748	125.06
301.979	127.06
302.209	126.06
302.439	132.06
302.669	144.06
302.9	221.06
303.13	444.06
303.36	802.06
303.59	1092.06
303.82	777.06
304.051	258.06
304.281	139.06
304.511	129.06
304.741	111.06
304.971	100.06
305.201	87.06
305.431	91.06
305.661	105.06
305.891	101.06
306.121	102.06
306.352	94.06
306.582	103.06
306.812	108.06
307.042	97.06
307.272	100.06
307.502	110.06
307.731	105.06
307.961	111.06
308.191	90.06
308.421	96.06
308.651	115.06
308.881	105.06
309.111	87.06
309.341	97.06
309.571	94.06
309.8	103.06
310.03	112.06
310.26	103.06
310.49	109.06
310.72	105.06
310.949	102.06
311.179	98.06
311.409	95.06
311.639	114.06
311.868	102.06
312.098	100.06
312.328	110.06
312.557	105.06
312.787	98.06
313.017	109.06
313.246	111.06
313.476	110.06
313.706	129.06
313.935	159.06
314.165	201.06
314.394	213.06
314.624	159.06
314.853	126.06
315.083	108.06
315.312	121.06
315.542	121.06
315.771	116.06
316.001	130.06
316.23	143.06
316.46	158.06
316.689	148.06
316.919	232.06
317.148	445.06
317.377	818.06
317.607	1330.06
317.836	1258.06
318.065	462.06
318.295	203.06
318.524	137.06
318.753	146.06
318.983	129.06
319.212	120.06
319.441	121.06
319.67	114.06
319.9	110.06
320.129	107.06
320.358	114.06
320.587	122.06
320.816	119.06
321.046	121.06
321.275	117.06
321.504	122.06
321.733	123.06
321.962	126.06
322.191	141.06
322.42	101.06
322.649	116.06
322.878	114.06
323.108	110.06
323.337	130.06
323.566	110.06
323.795	111.06
324.024	120.06
324.253	134.06
324.482	155.06
324.71	197.06
324.939	256.06
325.168	218.06
325.397	179.06
325.626	244.06
325.855	413.06
326.084	843.06
326.313	1407.06
326.542	1422.06
326.77	545.06
326.999	233.06
327.228	193.06
327.457	221.06
327.686	209.06
327.914	155.06
328.143	135.06
328.372	106.06
328.6	126.06
328.829	131.06
329.058	101.06
329.287	99.06
329.515	110.06
329.744	110.06
329.972	119.06
330.201	126.06
330.43	94.06
330.658	92.06
330.887	106.06
331.115	96.06
331.344	107.06
331.572	116.06
331.801	120.06
332.03	120.06
332.258	137.06
332.486	155.06
332.715	270.06
332.943	459.06
333.172	669.06
333.4	582.06
333.629	235.06
333.857	139.06
334.085	133.06
334.314	119.06
334.542	113.06
334.771	106.06
334.999	109.06
335.227	129.06
335.455	111.06
335.684	115.06
335.912	101.06
336.14	103.06
336.369	114.06
336.597	122.06
336.825	112.06
337.053	125.06
337.281	112.06
337.51	101.06
337.738	111.06
337.966	105.06
338.194	102.06
338.422	101.06
338.65	106.06
338.878	96.06
339.106	119.06
339.334	115.06
339.562	112.06
339.79	126.06
340.018	115.06
340.246	112.06
340.474	109.06
340.702	112.06
340.93	126.06
341.158	115.06
341.386	114.06
341.614	120.06
341.842	105.06
342.07	116.06
342.298	136.06
342.526	113.06
342.754	95.06
342.981	102.06
343.209	107.06
343.437	113.06
343.665	106.06
343.893	116.06
344.12	103.06
344.348	103.06
344.576	99.06
344.804	99.06
345.031	100.06
345.259	115.06
345.487	91.06
345.714	114.06
345.942	103.06
346.17	99.06
346.397	104.06
346.625	110.06
346.853	106.06
347.08	103.06
347.308	113.06
347.535	90.06
347.763	99.06
347.99	97.06
348.218	88.06
348.445	109.06
348.673	116.06
348.9	109.06
349.128	93.06
349.355	109.06
349.583	115.06
349.81	109.06
350.037	114.06
350.265	105.06
350.492	99.06
350.72	100.06
350.947	112.06
351.174	105.06
351.402	99.06
351.629	114.06
351.856	102.06
352.083	94.06
352.311	102.06
352.538	105.06
352.765	96.06
352.992	103.06
353.22	95.06
353.447	114.06
353.674	101.06
353.901	109.06
354.128	103.06
354.355	83.06
354.583	104.06
354.81	97.06
355.037	97.06
355.264	109.06
355.491	99.06
355.718	98.06
355.945	110.06
356.172	104.06
356.399	101.06
356.626	96.06
356.853	102.06
357.08	92.06
357.307	105.06
357.534	113.06
357.761	106.06
357.988	91.06
358.215	110.06
358.441	113.06
358.668	99.06
358.895	114.06
359.122	118.06
359.349	113.06
359.576	113.06
359.802	105.06
360.029	113.06
360.256	115.06
360.483	106.06
360.709	103.06
360.936	115.06
361.163	111.06
361.39	104.06
361.616	97.06
361.843	111.06
362.07	117.06
362.296	113.06
362.523	109.06
362.749	96.06
362.976	118.06
363.203	124.06
363.429	110.06
363.656	97.06
363.882	119.06
364.109	132.06
364.335	117.06
364.562	114.06
364.788	102.06
365.015	103.06
365.241	123.06
365.468	171.06
365.694	222.06
365.92	178.06
366.147	113.06
366.373	96.06
366.599	102.06
366.826	90.06
367.052	85.06
367.278	91.06
367.505	102.06
367.731	94.06
367.957	104.06
368.184	98.06
368.41	102.06
368.636	108.06
368.862	102.06
369.089	99.06
369.315	104.06
369.541	100.06
369.767	103.06
369.993	111.06
370.219	87.06
370.445	120.06
370.672	97.06
370.898	112.06
371.124	99.06
371.35	86.06
371.576	90.06
371.802	93.06
372.028	107.06
372.254	109.06
372.48	107.06
372.706	109.06
372.932	119.06
373.158	88.06
373.384	112.06
373.61	121.06
373.835	118.06
374.061	109.06
374.287	116.06
374.513	111.06
374.739	97.06
374.965	109.06
375.191	107.06
375.416	115.06
375.642	112.06
375.868	94.06
376.094	115.06
376.319	103.06
376.545	93.06
376.771	111.06
376.997	110.06
377.222	106.06
377.448	102.06
377.674	101.06
377.899	101.06
378.125	95.06
378.35	98.06
378.576	98.06
378.802	113.06
379.027	115.06
379.253	142.06
379.478	165.06
379.704	282.06
379.929	703.06
380.155	1405.06
380.38	1480.06
380.606	453.06
380.831	169.06
381.057	125.06
381.282	106.06
381.507	123.06
381.733	101.06
381.958	89.06
382.184	104.06
382.409	111.06
382.634	109.06
382.86	97.06
383.085	104.06
383.31	96.06
383.535	115.06
383.761	114.06
383.986	105.06
384.211	119.06
384.436	104.06
384.662	97.06
384.887	95.06
385.112	106.06
385.337	106.06
385.562	95.06
385.787	83.06
386.013	100.06
386.238	114.06
386.463	99.06
386.688	103.06
386.913	104.06
387.138	107.06
387.363	119.06
387.588	94.06
387.813	114.06
388.038	106.06
388.263	98.06
388.488	102.06
388.713	96.06
388.938	101.06
389.163	96.06
389.387	97.06
389.612	107.06
389.837	95.06
390.062	100.06
390.287	98.06
390.512	101.06
390.736	95.06
390.961	95.06
391.186	104.06
391.411	105.06
391.636	81.06
391.86	90.06
392.085	82.06
392.31	85.06
392.534	108.06
392.759	98.06
392.984	99.06
393.208	105.06
393.433	127.06
393.658	123.06
393.882	82.06
394.107	93.06
394.331	95.06
394.556	97.06
394.78	103.06
395.005	84.06
395.229	109.06
395.454	109.06
395.678	102.06
395.903	103.06
396.127	108.06
396.352	104.06
396.576	93.06
396.801	119.06
397.025	109.06
397.249	106.06
397.474	104.06
397.698	88.06
397.922	97.06
398.147	97.06
398.371	106.06
398.595	96.06
398.82	97.06
399.044	94.06
399.268	115.06
399.492	84.06
399.717	94.06
399.941	100.06
400.165	102.06
400.389	95.06
400.613	94.06
400.837	81.06
401.062	103.06
401.286	103.06
401.51	109.06
401.734	90.06
401.958	95.06
402.182	92.06
402.406	101.06
402.63	95.06
402.854	90.06
403.078	97.06
403.302	106.06
403.526	95.06
403.75	104.06
403.974	97.06
404.198	83.06
404.422	98.06
404.645	91.06
404.869	87.06
405.093	105.06
405.317	95.06
405.541	114.06
405.765	121.06
405.988	132.06
406.212	114.06
406.436	101.06
406.66	103.06
406.883	86.06
407.107	94.06
407.331	96.06
407.555	97.06
407.778	101.06
408.002	97.06
408.226	96.06
408.449	93.06
408.673	96.06
408.896	104.06
409.12	94.06
409.344	99.06
409.567	98.06
409.791	96.06
410.014	95.06
410.238	121.06
410.461	113.06
410.685	101.06
410.908	103.06
411.132	97.06
411.355	94.06
411.578	97.06
411.802	101.06
412.025	95.06
412.249	106.06
412.472	90.06
412.695	108.06
412.919	95.06
413.142	105.06
413.365	102.06
413.589	94.06
413.812	82.06
414.035	105.06
414.258	93.06
414.482	93.06
414.705	99.06
414.928	111.06
415.151	106.06
415.374	98.06
415.597	93.06
415.821	104.06
416.044	106.06
416.267	84.06
416.49	86.06
416.713	98.06
416.936	97.06
417.159	99.06
417.382	104.06
417.605	87.06
417.828	89.06
418.051	94.06
418.274	94.06
418.497	103.06
418.72	93.06
418.943	96.06
419.166	101.06
419.389	104.06
419.611	109.06
419.834	109.06
420.057	107.06
420.28	101.06
420.503	109.06
420.726	111.06
420.948	96.06
421.171	87.06
421.394	83.06
421.617	93.06
421.839	89.06
422.062	99.06
422.285	96.06
422.507	95.06
422.73	117.06
422.953	119.06
423.175	114.06
423.398	103.06
423.621	83.06
423.843	80.06
424.066	91.06
424.288	97.06
424.511	94.06
424.733	92.06
424.956	88.06
425.178	78.06
425.401	83.06
425.623	97.06
425.846	90.06
426.068	78.06
426.291	94.06
426.513	89.06
426.735	92.06
426.958	103.06
427.18	103.06
427.402	91.06
427.625	81.06
427.847	86.06
428.069	85.06
428.292	90.06
428.514	86.06
428.736	82.06
428.958	81.06
429.181	93.06
429.403	86.06
429.625	101.06
429.847	104.06
430.069	93.06
430.292	117.06
430.514	83.06
430.736	101.06
430.958	101.06
431.18	89.06
431.402	79.06
431.624	93.06
431.846	89.06
432.068	87.06
432.29	100.06
432.512	94.06
432.734	90.06
432.956	86.06
433.178	103.06
433.4	104.06
433.622	100.06
433.844	99.06
434.066	94.06
434.287	93.06
434.509	97.06
434.731	108.06
434.953	93.06
435.175	88.06
435.397	101.06
435.618	83.06
435.84	90.06
436.062	90.06
436.284	79.06
436.505	92.06
436.727	101.06
436.949	82.06
437.17	69.06
437.392	95.06
437.614	94.06
437.835	89.06
438.057	96.06
438.278	74.06
438.5	89.06
438.721	99.06
438.943	94.06
439.165	125.06
439.386	112.06
439.608	102.06
439.829	85.06
440.05	113.06
440.272	115.06
440.493	97.06
440.715	95.06
440.936	99.06
441.158	91.06
441.379	84.06
441.6	103.06
441.822	107.06
442.043	115.06
442.264	127.06
442.486	106.06
442.707	97.06
442.928	93.06
443.149	109.06
443.371	82.06
443.592	93.06
443.813	102.06
444.034	85.06
444.255	86.06
444.476	94.06
444.698	95.06
444.919	90.06
445.14	205.06
445.361	145.06
445.582	97.06
445.803	94.06
446.024	100.06
446.245	115.06
446.466	118.06
446.687	113.06
446.908	89.06
447.129	93.06
447.35	102.06
447.571	103.06
447.792	97.06
448.013	86.06
448.234	91.06
448.455	99.06
448.675	96.06
448.896	99.06
449.117	99.06
449.338	125.06
449.559	134.06
449.779	128.06
450	103.06
450.221	83.06
450.442	90.06
450.662	102.06
450.883	102.06
451.104	123.06
451.324	125.06
451.545	98.06
451.766	97.06
451.986	130.06
452.207	189.06
452.428	476.06
452.648	1183.06
452.869	685.06
453.089	181.06
453.31	104.06
453.53	113.06
453.751	133.06
453.971	157.06
454.192	150.06
454.412	115.06
454.633	92.06
454.853	111.06
455.073	98.06
455.294	103.06
455.514	98.06
455.734	91.06
455.955	92.06
456.175	96.06
456.395	88.06
456.616	92.06
456.836	95.06
457.056	93.06
457.276	102.06
457.497	118.06
457.717	118.06
457.937	102.06
458.157	88.06
458.377	101.06
458.598	87.06
458.818	81.06
459.038	78.06
459.258	88.06
459.478	82.06
459.698	83.06
459.918	101.06
460.138	99.06
460.358	83.06
460.578	90.06
460.798	83.06
461.018	78.06
461.238	88.06
461.458	95.06
461.678	86.06
461.898	94.06
462.118	91.06
462.338	93.06
462.558	87.06
462.777	90.06
462.997	105.06
463.217	103.06
463.437	117.06
463.657	159.06
463.876	179.06
464.096	111.06
464.316	90.06
464.536	108.06
464.755	99.06
464.975	92.06
465.195	88.06
465.414	82.06
465.634	92.06
465.854	103.06
466.073	86.06
466.293	99.06
466.512	89.06
466.732	82.06
466.951	109.06
467.171	133.06
467.391	121.06
467.61	99.06
467.829	85.06
468.049	96.06
468.268	111.06
468.488	87.06
468.707	97.06
468.927	100.06
469.146	83.06
469.365	86.06
469.585	86.06
469.804	88.06
470.023	91.06
470.243	82.06
470.462	103.06
470.681	102.06
470.901	121.06
471.12	187.06
471.339	198.06
471.558	126.06
471.777	112.06
471.997	104.06
472.216	92.06
472.435	94.06
472.654	87.06
472.873	83.06
473.092	91.06
473.311	100.06
473.53	84.06
473.749	91.06
473.968	91.06
474.187	92.06
474.406	85.06
474.625	94.06
474.844	101.06
475.063	103.06
475.282	96.06
475.501	85.06
475.72	95.06
475.939	99.06
476.158	86.06
476.377	109.06
476.596	111.06
476.814	100.06
477.033	105.06
477.252	91.06
477.471	96.06
477.69	91.06
477.908	117.06
478.127	93.06
478.346	101.06
478.564	89.06
478.783	95.06
479.002	81.06
479.22	104.06
479.439	72.06
479.658	83.06
479.876	95.06
480.095	93.06
480.313	100.06
480.532	94.06
480.751	87.06
480.969	68.06
481.188	86.06
481.406	87.06
481.624	97.06
481.843	118.06
482.061	111.06
482.28	97.06
482.498	90.06
482.717	95.06
482.935	102.06
483.153	106.06
483.372	84.06
483.59	92.06
483.808	107.06
484.027	105.06
484.245	117.06
484.463	175.06
484.681	213.06
484.9	128.06
485.118	107.06
485.336	111.06
485.554	93.06
485.772	113.06
485.99	177.06
486.209	241.06
486.427	162.06
486.645	116.06
486.863	103.06
487.081	107.06
487.299	101.06
487.517	107.06
487.735	96.06
487.953	108.06
488.171	102.06
488.389	105.06
488.607	100.06
488.825	94.06
489.043	79.06
489.261	98.06
489.479	98.06
489.696	107.06
489.914	81.06
490.132	103.06
490.35	90.06
490.568	103.06
490.786	89.06
491.003	103.06
491.221	105.06
491.439	109.06
491.657	101.06
491.874	114.06
492.092	115.06
492.31	123.06
492.527	104.06
492.745	106.06
492.963	100.06
493.18	103.06
493.398	118.06
493.615	88.06
493.833	112.06
494.05	83.06
494.268	110.06
494.485	109.06
494.703	97.06
494.92	100.06
495.138	102.06
495.355	90.06
495.573	102.06
495.79	95.06
496.008	99.06
496.225	103.06
496.442	102.06
496.66	105.06
496.877	137.06
497.094	169.06
497.312	109.06
497.529	101.06
497.746	104.06
497.963	91.06
498.181	99.06
498.398	86.06
498.615	99.06
498.832	88.06
499.049	105.06
499.267	130.06
499.484	155.06
499.701	105.06
499.918	105.06
500.135	92.06
500.352	104.06
500.569	87.06
500.786	93.06
501.003	102.06
501.22	96.06
501.437	101.06
501.654	85.06
501.871	109.06
502.088	107.06
502.305	104.06
502.522	87.06
502.739	98.06
502.956	78.06
503.172	98.06
503.389	91.06
503.606	97.06
503.823	94.06
504.04	91.06
504.256	96.06
504.473	84.06
504.69	96.06
504.907	118.06
505.123	121.06
505.34	96.06
505.557	98.06
505.773	94.06
505.99	96.06
506.207	99.06
506.423	90.06
506.64	107.06
506.856	95.06
507.073	102.06
507.289	102.06
507.506	106.06
507.722	98.06
507.939	84.06
508.155	93.06
508.372	96.06
508.588	104.06
508.805	103.06
509.021	101.06
509.238	113.06
509.454	112.06
509.67	164.06
509.887	102.06
510.103	105.06
510.319	93.06
510.536	102.06
510.752	117.06
510.968	93.06
511.184	107.06
511.401	97.06
511.617	94.06
511.833	81.06
512.049	86.06
512.265	83.06
512.481	99.06
512.698	95.06
512.914	80.06
513.13	86.06
513.346	86.06
513.562	102.06
513.778	99.06
513.994	97.06
514.21	94.06
514.426	133.06
514.642	173.06
514.858	108.06
515.074	109.06
515.29	112.06
515.506	95.06
515.721	98.06
515.937	95.06
516.153	90.06
516.369	73.06
516.585	101.06
516.801	87.06
517.016	92.06
517.232	105.06
517.448	90.06
517.664	86.06
517.879	105.06
518.095	95.06
518.311	101.06
518.527	94.06
518.742	97.06
518.958	116.06
519.173	159.06
519.389	131.06
519.605	109.06
519.82	92.06
520.036	89.06
520.251	100.06
520.467	89.06
520.682	92.06
520.898	103.06
521.113	99.06
521.329	94.06
521.544	99.06
521.76	94.06
521.975	93.06
522.19	97.06
522.406	91.06
522.621	84.06
522.836	106.06
523.052	111.06
523.267	105.06
523.482	98.06
523.698	95.06
523.913	94.06
524.128	100.06
524.343	93.06
524.559	96.06
524.774	89.06
524.989	90.06
525.204	95.06
525.419	112.06
525.634	82.06
525.849	81.06
526.064	94.06
526.28	94.06
526.495	92.06
526.71	81.06
526.925	84.06
527.14	94.06
527.355	91.06
527.57	90.06
527.785	95.06
527.999	89.06
528.214	98.06
528.429	103.06
528.644	102.06
528.859	97.06
529.074	103.06
529.289	90.06
529.503	98.06
529.718	95.06
529.933	95.06
530.148	95.06
530.363	86.06
530.577	79.06
530.792	92.06
531.007	98.06
531.221	87.06
531.436	92.06
531.651	98.06
531.865	92.06
532.08	90.06
532.295	94.06
532.509	137.06
532.724	113.06
532.938	98.06
533.153	104.06
533.367	91.06
533.582	98.06
533.796	108.06
534.011	92.06
534.225	90.06
534.44	89.06
534.654	109.06
534.868	109.06
535.083	95.06
535.297	95.06
535.511	95.06
535.726	90.06
535.94	91.06
536.154	103.06
536.369	96.06
536.583	101.06
536.797	96.06
537.011	83.06
537.225	91.06
537.44	79.06
537.654	89.06
537.868	88.06
538.082	97.06
538.296	91.06
538.51	87.06
538.724	104.06
538.938	94.06
539.153	109.06
539.367	89.06
539.581	103.06
539.795	102.06
540.009	110.06
540.222	91.06
540.436	87.06
540.65	109.06
540.864	93.06
541.078	88.06
541.292	122.06
541.506	197.06
541.72	197.06
541.934	123.06
542.147	92.06
542.361	88.06
542.575	86.06
542.789	99.06
543.002	91.06
543.216	88.06
543.43	82.06
543.644	95.06
543.857	93.06
544.071	92.06
544.285	101.06
544.498	106.06
544.712	93.06
544.925	102.06
545.139	101.06
545.352	91.06
545.566	90.06
545.779	102.06
545.993	90.06
546.206	95.06
546.42	97.06
546.633	97.06
546.847	102.06
547.06	84.06
547.274	102.06
547.487	98.06
547.7	99.06
547.914	104.06
548.127	105.06
548.34	96.06
548.554	98.06
548.767	94.06
548.98	110.06
549.193	95.06
549.407	113.06
549.62	106.06
549.833	106.06
550.046	98.06
550.259	98.06
550.473	97.06
550.686	104.06
550.899	90.06
551.112	90.06
551.325	98.06
551.538	104.06
551.751	99.06
551.964	85.06
552.177	100.06
552.39	97.06
552.603	91.06
552.816	100.06
553.029	116.06
553.242	101.06
553.455	102.06
553.667	104.06
553.88	86.06
554.093	111.06
554.306	100.06
554.519	118.06
554.732	97.06
554.944	97.06
555.157	86.06
555.37	97.06
555.583	97.06
555.795	104.06
556.008	118.06
556.221	141.06
556.433	112.06
556.646	112.06
556.859	102.06
557.071	97.06
557.284	129.06
557.496	113.06
557.709	97.06
557.921	95.06
558.134	94.06
558.346	101.06
558.559	113.06
558.771	91.06
558.984	93.06
559.196	99.06
559.409	88.06
559.621	87.06
559.833	94.06
560.046	96.06
560.258	96.06
560.47	92.06
560.683	84.06
560.895	98.06
561.107	99.06
561.32	79.06
561.532	76.06
561.744	92.06
561.956	94.06
562.168	102.06
562.381	115.06
562.593	113.06
562.805	135.06
563.017	154.06
563.229	222.06
563.441	527.06
563.653	181.06
563.865	111.06
564.077	107.06
564.289	100.06
564.501	87.06
564.713	97.06
564.925	94.06
565.137	105.06
565.349	88.06
565.561	87.06
565.773	99.06
565.985	85.06
566.197	88.06
566.408	92.06
566.62	91.06
566.832	92.06
567.044	89.06
567.255	93.06
567.467	101.06
567.679	111.06
567.891	105.06
568.102	149.06
568.314	216.06
568.526	138.06
568.737	114.06
568.949	98.06
569.161	93.06
569.372	99.06
569.584	91.06
569.795	99.06
570.007	98.06
570.218	118.06
570.43	137.06
570.641	112.06
570.853	97.06
571.064	85.06
571.276	97.06
571.487	94.06
571.698	93.06
571.91	94.06
572.121	89.06
572.333	101.06
572.544	116.06
572.755	138.06
572.966	173.06
573.178	120.06
573.389	103.06
573.6	99.06
573.811	103.06
574.023	105.06
574.234	98.06
574.445	94.06
574.656	99.06
574.867	95.06
575.078	87.06
575.289	98.06
575.501	106.06
575.712	89.06
575.923	90.06
576.134	96.06
576.345	92.06
576.556	105.06
576.767	102.06
576.978	106.06
577.188	84.06
577.399	92.06
577.61	89.06
577.821	90.06
578.032	94.06
578.243	91.06
578.454	97.06
578.665	91.06
578.875	83.06
579.086	93.06
579.297	96.06
579.508	100.06
579.718	94.06
579.929	92.06
580.14	87.06
580.35	91.06
580.561	95.06
580.772	90.06
580.982	97.06
581.193	91.06
581.403	86.06
581.614	91.06
581.825	80.06
582.035	90.06
582.246	97.06
582.456	86.06
582.667	106.06
582.877	122.06
583.087	113.06
583.298	96.06
583.508	80.06
583.719	90.06
583.929	86.06
584.139	85.06
584.35	76.06
584.56	98.06
584.77	93.06
584.981	76.06
585.191	93.06
585.401	87.06
585.611	77.06
585.821	90.06
586.032	82.06
586.242	93.06
586.452	79.06
586.662	98.06
586.872	94.06
587.082	88.06
587.292	76.06
587.502	75.06
587.713	77.06
587.923	80.06
588.133	88.06
588.343	89.06
588.553	80.06
588.762	90.06
588.972	97.06
589.182	119.06
589.392	117.06
589.602	76.06
589.812	91.06
590.022	89.06
590.232	94.06
590.441	106.06
590.651	72.06
590.861	100.06
591.071	84.06
591.281	88.06
591.49	88.06
591.7	78.06
591.91	93.06
592.119	84.06
592.329	88.06
592.539	85.06
592.748	104.06
592.958	76.06
593.167	93.06
593.377	75.06
593.587	98.06
593.796	95.06
594.006	88.06
594.215	77.06
594.424	86.06
594.634	84.06
594.843	95.06
595.053	91.06
595.262	95.06
595.472	103.06
595.681	95.06
595.89	98.06
596.1	95.06
596.309	96.06
596.518	90.06
596.727	90.06
596.937	101.06
597.146	86.06
597.355	99.06
597.564	87.06
597.774	78.06
597.983	91.06
598.192	87.06
598.401	86.06
598.61	76.06
598.819	73.06
599.028	84.06
599.237	84.06
599.446	86.06
599.655	95.06
599.864	101.06
600.073	100.06
600.282	98.06
600.491	89.06
600.7	85.06
600.909	82.06
601.118	98.06
601.327	93.06
601.536	104.06
601.745	105.06
601.953	127.06
602.162	142.06
602.371	111.06
602.58	94.06
602.789	98.06
602.997	102.06
603.206	97.06
603.415	88.06
603.623	93.06
603.832	102.06
604.041	104.06
604.249	80.06
604.458	93.06
604.666	101.06
604.875	107.06
605.084	92.06
605.292	100.06
605.501	98.06
605.709	92.06
605.918	93.06
606.126	95.06
606.334	96.06
606.543	114.06
606.751	117.06
606.96	143.06
607.168	152.06
607.376	113.06
607.585	109.06
607.793	89.06
608.001	92.06
608.21	100.06
608.418	91.06
608.626	93.06
608.834	100.06
609.043	84.06
609.251	95.06
609.459	93.06
609.667	95.06
609.875	96.06
610.083	89.06
610.291	96.06
610.499	87.06
610.707	73.06
610.916	83.06
611.124	83.06
611.332	90.06
611.54	96.06
611.748	97.06
611.955	80.06
612.163	85.06
612.371	88.06
612.579	91.06
612.787	84.06
612.995	96.06
613.203	99.06
613.411	103.06
613.618	92.06
613.826	100.06
614.034	110.06
614.242	102.06
614.449	95.06
614.657	98.06
614.865	104.06
615.072	99.06
615.28	109.06
615.488	112.06
615.695	112.06
615.903	90.06
616.111	96.06
616.318	96.06
616.526	84.06
616.733	101.06
616.941	89.06
617.148	90.06
617.356	78.06
617.563	95.06
617.771	96.06
617.978	97.06
618.185	85.06
618.393	94.06
618.6	74.06
618.807	99.06
619.015	87.06
619.222	93.06
619.429	98.06
619.637	87.06
619.844	88.06
620.051	93.06
620.258	86.06
620.466	87.06
620.673	82.06
620.88	79.06
621.087	66.06
621.294	83.06
621.501	87.06
621.708	100.06
621.915	75.06
622.122	88.06
622.329	102.06
622.536	88.06
622.743	78.06
622.95	83.06
623.157	96.06
623.364	94.06
623.571	90.06
623.778	81.06
623.985	89.06
624.192	85.06
624.399	86.06
624.606	79.06
624.812	76.06
625.019	78.06
625.226	82.06
625.433	74.06
625.639	79.06
625.846	83.06
626.053	98.06
626.259	82.06
626.466	94.06
626.673	86.06
626.879	85.06
627.086	84.06
627.293	82.06
627.499	85.06
627.706	88.06
627.912	90.06
628.119	103.06
628.325	93.06
628.532	89.06
628.738	84.06
628.945	90.06
629.151	82.06
629.357	93.06
629.564	70.06
629.77	84.06
629.976	83.06
630.183	89.06
630.389	95.06
630.595	74.06
630.802	85.06
631.008	89.06
631.214	88.06
631.42	88.06
631.627	84.06
631.833	81.06
632.039	87.06
632.245	96.06
632.451	107.06
632.657	88.06
632.863	86.06
633.069	73.06
633.275	91.06
633.481	89.06
633.688	73.06
633.893	105.06
634.099	82.06
634.305	93.06
634.511	81.06
634.717	81.06
634.923	96.06
635.129	118.06
635.335	135.06
635.541	107.06
635.747	96.06
635.952	86.06
636.158	93.06
636.364	80.06
636.57	89.06
636.775	103.06
636.981	84.06
637.187	81.06
637.392	81.06
637.598	73.06
637.804	80.06
638.009	87.06
638.215	89.06
638.421	89.06
638.626	83.06
638.832	78.06
639.037	81.06
639.243	79.06
639.448	94.06
639.654	94.06
639.859	87.06
640.065	89.06
640.27	85.06
640.475	79.06
640.681	90.06
640.886	75.06
641.091	79.06
641.297	98.06
641.502	88.06
641.707	89.06
641.913	92.06
642.118	91.06
642.323	78.06
642.528	85.06
642.733	102.06
642.939	94.06
643.144	85.06
643.349	81.06
643.554	93.06
643.759	97.06
643.964	94.06
644.169	78.06
644.374	77.06
644.579	85.06
644.784	99.06
644.989	86.06
645.194	85.06
645.399	98.06
645.604	95.06
645.809	94.06
646.014	90.06
646.219	80.06
646.423	85.06
646.628	78.06
646.833	93.06
647.038	77.06
647.243	98.06
647.447	81.06
647.652	83.06
647.857	93.06
648.062	101.06
648.266	76.06
648.471	80.06
648.676	82.06
648.88	88.06
649.085	84.06
649.289	94.06
649.494	81.06
649.698	97.06
649.903	88.06
650.107	80.06
650.312	98.06
650.516	90.06
650.721	87.06
650.925	86.06
651.13	81.06
651.334	83.06
651.539	78.06
651.743	94.06
651.947	99.06
652.152	94.06
652.356	82.06
652.56	111.06
652.764	96.06
652.969	93.06
653.173	104.06
653.377	74.06
653.581	77.06
653.785	81.06
653.99	71.06
654.194	73.06
654.398	73.06
654.602	90.06
654.806	85.06
655.01	97.06
655.214	90.06
655.418	75.06
655.622	86.06
655.826	96.06
656.03	88.06
656.234	87.06
656.438	74.06
656.642	96.06
656.846	88.06
657.049	85.06
657.253	77.06
657.457	93.06
657.661	74.06
657.865	87.06
658.068	80.06
658.272	86.06
658.476	84.06
658.68	99.06
658.883	81.06
659.087	74.06
659.291	87.06
659.494	74.06
659.698	79.06
659.901	92.06
660.105	80.06
660.309	68.06
660.512	85.06
660.716	82.06
660.919	85.06
661.123	84.06
661.326	74.06
661.53	81.06
661.733	82.06
661.936	79.06
662.14	78.06
662.343	82.06
662.546	89.06
662.75	77.06
662.953	74.06
663.156	81.06
663.36	80.06
663.563	91.06
663.766	73.06
663.969	82.06
664.173	88.06
664.376	87.06
664.579	78.06
664.782	86.06
664.985	78.06
665.188	76.06
665.391	70.06
665.594	90.06
665.797	72.06
666	77.06
666.203	80.06
666.406	80.06
666.609	64.06
666.812	82.06
667.015	91.06
667.218	83.06
667.421	71.06
667.624	89.06
667.827	93.06
668.03	96.06
668.232	79.06
668.435	90.06
668.638	92.06
668.841	79.06
669.043	86.06
669.246	67.06
669.449	91.06
669.651	79.06
669.854	88.06
670.057	97.06
670.259	71.06
670.462	72.06
670.665	73.06
670.867	101.06
671.07	83.06
671.272	85.06
671.475	83.06
671.677	74.06
671.88	64.06
672.082	82.06
672.284	93.06
672.487	73.06
672.689	85.06
672.892	80.06
