Data from SnStandardFlinnAPT0064_QswitchEnergy10_LIBS07252019.E.O._I.C._HRD10591_15-26-06-972.txt Node
Date: Thu Jul 25 15:26:06 EDT 2019
User: cochatt
Spectrometer: HR+D1059
Trigger mode: 1
Integration Time (sec): 1.000000E-1
Scans to average: 1
Electric dark correction enabled: true
Nonlinearity correction enabled: false
Boxcar width: 0
XAxis mode: Wavelengths
Number of Pixels in Spectrum: 2048
>>>>>Begin Spectral Data<<<<<
223.165	-24.94
223.4	-24.94
223.635	-24.94
223.869	-16.94
224.104	1.06
224.338	-11.94
224.573	-10.94
224.808	-0.94
225.042	10.06
225.277	-9.94
225.511	-3.94
225.746	1.06
225.98	-7.94
226.215	10.06
226.449	16.06
226.683	12.06
226.918	17.06
227.152	20.06
227.387	38.06
227.621	24.06
227.856	34.06
228.09	34.06
228.324	52.06
228.559	65.06
228.793	54.06
229.027	83.06
229.262	75.06
229.496	67.06
229.73	77.06
229.964	75.06
230.199	72.06
230.433	84.06
230.667	82.06
230.901	76.06
231.136	96.06
231.37	90.06
231.604	86.06
231.838	94.06
232.072	118.06
232.306	107.06
232.541	91.06
232.775	105.06
233.009	87.06
233.243	85.06
233.477	92.06
233.711	99.06
233.945	93.06
234.179	93.06
234.413	85.06
234.647	85.06
234.881	81.06
235.115	78.06
235.349	78.06
235.583	96.06
235.817	124.06
236.051	128.06
236.285	88.06
236.519	79.06
236.753	70.06
236.987	86.06
237.221	90.06
237.455	83.06
237.689	85.06
237.922	91.06
238.156	92.06
238.39	90.06
238.624	78.06
238.858	86.06
239.091	85.06
239.325	85.06
239.559	77.06
239.793	86.06
240.027	86.06
240.26	83.06
240.494	83.06
240.728	91.06
240.961	93.06
241.195	107.06
241.429	100.06
241.662	77.06
241.896	91.06
242.13	103.06
242.363	130.06
242.597	162.06
242.83	132.06
243.064	126.06
243.298	188.06
243.531	153.06
243.765	100.06
243.998	88.06
244.232	67.06
244.465	73.06
244.699	67.06
244.932	84.06
245.166	79.06
245.399	94.06
245.633	77.06
245.866	89.06
246.099	85.06
246.333	71.06
246.566	84.06
246.8	79.06
247.033	77.06
247.266	89.06
247.5	98.06
247.733	78.06
247.966	91.06
248.2	88.06
248.433	96.06
248.666	124.06
248.899	102.06
249.133	93.06
249.366	97.06
249.599	102.06
249.832	124.06
250.066	136.06
250.299	104.06
250.532	89.06
250.765	84.06
250.998	91.06
251.231	85.06
251.465	77.06
251.698	85.06
251.931	73.06
252.164	88.06
252.397	86.06
252.63	82.06
252.863	88.06
253.096	89.06
253.329	95.06
253.562	86.06
253.795	93.06
254.028	95.06
254.261	98.06
254.494	103.06
254.727	121.06
254.96	142.06
255.193	133.06
255.426	97.06
255.659	78.06
255.892	120.06
256.124	106.06
256.357	98.06
256.59	93.06
256.823	104.06
257.056	89.06
257.289	134.06
257.521	187.06
257.754	135.06
257.987	91.06
258.22	93.06
258.452	79.06
258.685	96.06
258.918	89.06
259.151	80.06
259.383	101.06
259.616	146.06
259.849	150.06
260.081	108.06
260.314	93.06
260.547	89.06
260.779	78.06
261.012	98.06
261.244	79.06
261.477	85.06
261.71	92.06
261.942	99.06
262.175	88.06
262.407	81.06
262.64	77.06
262.872	90.06
263.105	100.06
263.337	82.06
263.57	92.06
263.802	95.06
264.035	85.06
264.267	92.06
264.499	79.06
264.732	83.06
264.964	89.06
265.197	85.06
265.429	84.06
265.661	95.06
265.894	101.06
266.126	128.06
266.358	165.06
266.591	158.06
266.823	87.06
267.055	84.06
267.287	93.06
267.52	82.06
267.752	84.06
267.984	101.06
268.216	93.06
268.448	92.06
268.681	102.06
268.913	105.06
269.145	93.06
269.377	83.06
269.609	92.06
269.841	95.06
270.073	112.06
270.306	117.06
270.538	202.06
270.77	299.06
271.002	359.06
271.234	189.06
271.466	107.06
271.698	98.06
271.93	98.06
272.162	93.06
272.394	84.06
272.626	89.06
272.858	95.06
273.09	92.06
273.322	92.06
273.553	82.06
273.785	98.06
274.017	106.06
274.249	98.06
274.481	88.06
274.713	87.06
274.945	93.06
275.176	88.06
275.408	90.06
275.64	90.06
275.872	97.06
276.104	106.06
276.335	95.06
276.567	104.06
276.799	96.06
277.031	102.06
277.262	96.06
277.494	110.06
277.726	126.06
277.957	187.06
278.189	262.06
278.421	248.06
278.652	206.06
278.884	178.06
279.115	149.06
279.347	121.06
279.579	106.06
279.81	101.06
280.042	89.06
280.273	88.06
280.505	105.06
280.736	113.06
280.968	127.06
281.199	181.06
281.431	234.06
281.662	248.06
281.894	142.06
282.125	90.06
282.356	109.06
282.588	108.06
282.819	111.06
283.051	123.06
283.282	135.06
283.513	184.06
283.745	294.06
283.976	526.06
284.207	752.06
284.439	585.06
284.67	283.06
284.901	232.06
285.132	327.06
285.364	373.06
285.595	226.06
285.826	170.06
286.057	254.06
286.288	371.06
286.52	589.06
286.751	501.06
286.982	207.06
287.213	109.06
287.444	119.06
287.675	104.06
287.906	120.06
288.138	100.06
288.369	90.06
288.6	85.06
288.831	98.06
289.062	96.06
289.293	84.06
289.524	101.06
289.755	95.06
289.986	83.06
290.217	99.06
290.448	85.06
290.679	107.06
290.91	134.06
291.141	168.06
291.371	231.06
291.602	296.06
291.833	201.06
292.064	113.06
292.295	106.06
292.526	102.06
292.757	104.06
292.987	94.06
293.218	79.06
293.449	91.06
293.68	100.06
293.91	93.06
294.141	99.06
294.372	82.06
294.603	90.06
294.833	112.06
295.064	107.06
295.295	88.06
295.525	105.06
295.756	101.06
295.987	109.06
296.217	77.06
296.448	81.06
296.679	81.06
296.909	88.06
297.14	108.06
297.37	101.06
297.601	86.06
297.831	107.06
298.062	98.06
298.292	104.06
298.523	100.06
298.753	102.06
298.984	105.06
299.214	113.06
299.445	124.06
299.675	114.06
299.905	105.06
300.136	132.06
300.366	158.06
300.597	262.06
300.827	425.06
301.057	653.06
301.288	620.06
301.518	230.06
301.748	152.06
301.979	137.06
302.209	128.06
302.439	138.06
302.669	161.06
302.9	256.06
303.13	468.06
303.36	842.06
303.59	1180.06
303.82	819.06
304.051	296.06
304.281	147.06
304.511	129.06
304.741	125.06
304.971	104.06
305.201	115.06
305.431	118.06
305.661	118.06
305.891	104.06
306.121	109.06
306.352	123.06
306.582	102.06
306.812	111.06
307.042	106.06
307.272	101.06
307.502	111.06
307.731	103.06
307.961	121.06
308.191	103.06
308.421	105.06
308.651	105.06
308.881	107.06
309.111	113.06
309.341	114.06
309.571	106.06
309.8	108.06
310.03	112.06
310.26	112.06
310.49	99.06
310.72	96.06
310.949	114.06
311.179	109.06
311.409	117.06
311.639	123.06
311.868	129.06
312.098	111.06
312.328	115.06
312.557	106.06
312.787	117.06
313.017	94.06
313.246	120.06
313.476	117.06
313.706	134.06
313.935	161.06
314.165	185.06
314.394	233.06
314.624	184.06
314.853	132.06
315.083	125.06
315.312	117.06
315.542	125.06
315.771	155.06
316.001	141.06
316.23	129.06
316.46	132.06
316.689	175.06
316.919	244.06
317.148	461.06
317.377	858.06
317.607	1416.06
317.836	1284.06
318.065	523.06
318.295	229.06
318.524	147.06
318.753	149.06
318.983	146.06
319.212	124.06
319.441	113.06
319.67	123.06
319.9	121.06
320.129	121.06
320.358	123.06
320.587	136.06
320.816	114.06
321.046	124.06
321.275	127.06
321.504	133.06
321.733	134.06
321.962	161.06
322.191	166.06
322.42	132.06
322.649	112.06
322.878	127.06
323.108	124.06
323.337	132.06
323.566	127.06
323.795	124.06
324.024	132.06
324.253	141.06
324.482	172.06
324.71	218.06
324.939	270.06
325.168	229.06
325.397	182.06
325.626	242.06
325.855	452.06
326.084	882.06
326.313	1494.06
326.542	1500.06
326.77	578.06
326.999	253.06
327.228	216.06
327.457	241.06
327.686	226.06
327.914	158.06
328.143	134.06
328.372	130.06
328.6	132.06
328.829	116.06
329.058	121.06
329.287	112.06
329.515	117.06
329.744	116.06
329.972	110.06
330.201	128.06
330.43	113.06
330.658	109.06
330.887	116.06
331.115	105.06
331.344	130.06
331.572	128.06
331.801	121.06
332.03	128.06
332.258	132.06
332.486	157.06
332.715	275.06
332.943	477.06
333.172	742.06
333.4	640.06
333.629	261.06
333.857	148.06
334.085	142.06
334.314	121.06
334.542	115.06
334.771	112.06
334.999	124.06
335.227	125.06
335.455	134.06
335.684	128.06
335.912	128.06
336.14	116.06
336.369	117.06
336.597	107.06
336.825	107.06
337.053	124.06
337.281	114.06
337.51	110.06
337.738	96.06
337.966	108.06
338.194	112.06
338.422	114.06
338.65	114.06
338.878	115.06
339.106	119.06
339.334	121.06
339.562	107.06
339.79	109.06
340.018	131.06
340.246	113.06
340.474	112.06
340.702	116.06
340.93	118.06
341.158	117.06
341.386	102.06
341.614	112.06
341.842	120.06
342.07	119.06
342.298	129.06
342.526	109.06
342.754	116.06
342.981	107.06
343.209	112.06
343.437	120.06
343.665	116.06
343.893	108.06
344.12	109.06
344.348	104.06
344.576	110.06
344.804	100.06
345.031	118.06
345.259	103.06
345.487	118.06
345.714	89.06
345.942	109.06
346.17	105.06
346.397	98.06
346.625	102.06
346.853	102.06
347.08	116.06
347.308	112.06
347.535	112.06
347.763	109.06
347.99	91.06
348.218	93.06
348.445	115.06
348.673	116.06
348.9	121.06
349.128	133.06
349.355	123.06
349.583	117.06
349.81	131.06
350.037	115.06
350.265	135.06
350.492	119.06
350.72	125.06
350.947	122.06
351.174	119.06
351.402	104.06
351.629	112.06
351.856	104.06
352.083	110.06
352.311	111.06
352.538	96.06
352.765	113.06
352.992	103.06
353.22	104.06
353.447	112.06
353.674	99.06
353.901	100.06
354.128	104.06
354.355	102.06
354.583	115.06
354.81	114.06
355.037	107.06
355.264	94.06
355.491	109.06
355.718	103.06
355.945	115.06
356.172	115.06
356.399	103.06
356.626	109.06
356.853	104.06
357.08	123.06
357.307	118.06
357.534	103.06
357.761	106.06
357.988	107.06
358.215	104.06
358.441	106.06
358.668	116.06
358.895	113.06
359.122	121.06
359.349	110.06
359.576	116.06
359.802	100.06
360.029	112.06
360.256	104.06
360.483	110.06
360.709	110.06
360.936	113.06
361.163	109.06
361.39	102.06
361.616	105.06
361.843	108.06
362.07	115.06
362.296	126.06
362.523	84.06
362.749	109.06
362.976	117.06
363.203	110.06
363.429	107.06
363.656	119.06
363.882	108.06
364.109	119.06
364.335	104.06
364.562	105.06
364.788	118.06
365.015	99.06
365.241	132.06
365.468	178.06
365.694	235.06
365.92	203.06
366.147	118.06
366.373	105.06
366.599	106.06
366.826	103.06
367.052	96.06
367.278	100.06
367.505	101.06
367.731	107.06
367.957	115.06
368.184	118.06
368.41	118.06
368.636	123.06
368.862	97.06
369.089	109.06
369.315	115.06
369.541	114.06
369.767	114.06
369.993	109.06
370.219	105.06
370.445	109.06
370.672	116.06
370.898	102.06
371.124	111.06
371.35	95.06
371.576	100.06
371.802	106.06
372.028	106.06
372.254	117.06
372.48	114.06
372.706	113.06
372.932	117.06
373.158	113.06
373.384	116.06
373.61	128.06
373.835	108.06
374.061	115.06
374.287	102.06
374.513	114.06
374.739	123.06
374.965	107.06
375.191	104.06
375.416	98.06
375.642	104.06
375.868	110.06
376.094	112.06
376.319	106.06
376.545	122.06
376.771	109.06
376.997	104.06
377.222	108.06
377.448	101.06
377.674	103.06
377.899	97.06
378.125	112.06
378.35	114.06
378.576	135.06
378.802	120.06
379.027	118.06
379.253	129.06
379.478	176.06
379.704	289.06
379.929	723.06
380.155	1512.06
380.38	1553.06
380.606	499.06
380.831	201.06
381.057	138.06
381.282	120.06
381.507	108.06
381.733	116.06
381.958	117.06
382.184	113.06
382.409	112.06
382.634	113.06
382.86	92.06
383.085	105.06
383.31	104.06
383.535	121.06
383.761	104.06
383.986	106.06
384.211	117.06
384.436	104.06
384.662	100.06
384.887	106.06
385.112	107.06
385.337	100.06
385.562	98.06
385.787	97.06
386.013	106.06
386.238	101.06
386.463	99.06
386.688	101.06
386.913	112.06
387.138	106.06
387.363	104.06
387.588	107.06
387.813	98.06
388.038	98.06
388.263	98.06
388.488	108.06
388.713	97.06
388.938	103.06
389.163	104.06
389.387	96.06
389.612	108.06
389.837	91.06
390.062	90.06
390.287	106.06
390.512	101.06
390.736	110.06
390.961	95.06
391.186	91.06
391.411	114.06
391.636	105.06
391.86	103.06
392.085	109.06
392.31	105.06
392.534	104.06
392.759	88.06
392.984	94.06
393.208	116.06
393.433	124.06
393.658	145.06
393.882	114.06
394.107	97.06
394.331	106.06
394.556	97.06
394.78	93.06
395.005	107.06
395.229	97.06
395.454	105.06
395.678	104.06
395.903	115.06
396.127	103.06
396.352	94.06
396.576	97.06
396.801	122.06
397.025	120.06
397.249	101.06
397.474	103.06
397.698	87.06
397.922	100.06
398.147	96.06
398.371	104.06
398.595	121.06
398.82	101.06
399.044	98.06
399.268	100.06
399.492	99.06
399.717	96.06
399.941	93.06
400.165	89.06
400.389	102.06
400.613	89.06
400.837	107.06
401.062	93.06
401.286	87.06
401.51	113.06
401.734	88.06
401.958	100.06
402.182	98.06
402.406	96.06
402.63	92.06
402.854	113.06
403.078	97.06
403.302	90.06
403.526	96.06
403.75	105.06
403.974	94.06
404.198	106.06
404.422	101.06
404.645	100.06
404.869	99.06
405.093	93.06
405.317	108.06
405.541	113.06
405.765	132.06
405.988	144.06
406.212	109.06
406.436	103.06
406.66	92.06
406.883	93.06
407.107	105.06
407.331	103.06
407.555	103.06
407.778	108.06
408.002	87.06
408.226	116.06
408.449	133.06
408.673	102.06
408.896	110.06
409.12	93.06
409.344	106.06
409.567	123.06
409.791	102.06
410.014	98.06
410.238	111.06
410.461	113.06
410.685	107.06
410.908	110.06
411.132	113.06
411.355	105.06
411.578	105.06
411.802	110.06
412.025	114.06
412.249	98.06
412.472	105.06
412.695	94.06
412.919	90.06
413.142	118.06
413.365	106.06
413.589	109.06
413.812	108.06
414.035	114.06
414.258	99.06
414.482	97.06
414.705	104.06
414.928	103.06
415.151	111.06
415.374	107.06
415.597	112.06
415.821	110.06
416.044	112.06
416.267	107.06
416.49	108.06
416.713	103.06
416.936	85.06
417.159	106.06
417.382	98.06
417.605	104.06
417.828	96.06
418.051	99.06
418.274	96.06
418.497	93.06
418.72	117.06
418.943	106.06
419.166	108.06
419.389	103.06
419.611	101.06
419.834	106.06
420.057	100.06
420.28	106.06
420.503	102.06
420.726	114.06
420.948	87.06
421.171	103.06
421.394	97.06
421.617	92.06
421.839	90.06
422.062	115.06
422.285	102.06
422.507	105.06
422.73	126.06
422.953	116.06
423.175	125.06
423.398	114.06
423.621	109.06
423.843	93.06
424.066	84.06
424.288	94.06
424.511	97.06
424.733	113.06
424.956	90.06
425.178	118.06
425.401	100.06
425.623	105.06
425.846	100.06
426.068	96.06
426.291	94.06
426.513	92.06
426.735	89.06
426.958	97.06
427.18	98.06
427.402	109.06
427.625	111.06
427.847	90.06
428.069	107.06
428.292	85.06
428.514	108.06
428.736	102.06
428.958	90.06
429.181	107.06
429.403	95.06
429.625	98.06
429.847	100.06
430.069	110.06
430.292	107.06
430.514	94.06
430.736	100.06
430.958	104.06
431.18	107.06
431.402	93.06
431.624	85.06
431.846	98.06
432.068	109.06
432.29	89.06
432.512	96.06
432.734	105.06
432.956	92.06
433.178	104.06
433.4	101.06
433.622	105.06
433.844	98.06
434.066	105.06
434.287	80.06
434.509	93.06
434.731	93.06
434.953	83.06
435.175	105.06
435.397	101.06
435.618	92.06
435.84	85.06
436.062	106.06
436.284	86.06
436.505	100.06
436.727	98.06
436.949	90.06
437.17	85.06
437.392	97.06
437.614	102.06
437.835	93.06
438.057	87.06
438.278	81.06
438.5	87.06
438.721	102.06
438.943	102.06
439.165	105.06
439.386	108.06
439.608	109.06
439.829	102.06
440.05	109.06
440.272	128.06
440.493	96.06
440.715	102.06
440.936	103.06
441.158	100.06
441.379	115.06
441.6	86.06
441.822	104.06
442.043	120.06
442.264	136.06
442.486	108.06
442.707	109.06
442.928	102.06
443.149	103.06
443.371	108.06
443.592	101.06
443.813	85.06
444.034	101.06
444.255	109.06
444.476	100.06
444.698	89.06
444.919	105.06
445.14	216.06
445.361	168.06
445.582	109.06
445.803	95.06
446.024	92.06
446.245	108.06
446.466	103.06
446.687	100.06
446.908	112.06
447.129	110.06
447.35	104.06
447.571	99.06
447.792	95.06
448.013	102.06
448.234	87.06
448.455	118.06
448.675	96.06
448.896	102.06
449.117	115.06
449.338	136.06
449.559	146.06
449.779	124.06
450	110.06
450.221	88.06
450.442	99.06
450.662	123.06
450.883	98.06
451.104	107.06
451.324	130.06
451.545	110.06
451.766	100.06
451.986	144.06
452.207	215.06
452.428	523.06
452.648	1268.06
452.869	740.06
453.089	194.06
453.31	136.06
453.53	115.06
453.751	139.06
453.971	160.06
454.192	147.06
454.412	108.06
454.633	94.06
454.853	104.06
455.073	89.06
455.294	107.06
455.514	97.06
455.734	92.06
455.955	87.06
456.175	109.06
456.395	100.06
456.616	101.06
456.836	116.06
457.056	100.06
457.276	99.06
457.497	115.06
457.717	126.06
457.937	105.06
458.157	89.06
458.377	89.06
458.598	77.06
458.818	86.06
459.038	95.06
459.258	88.06
459.478	95.06
459.698	83.06
459.918	85.06
460.138	96.06
460.358	100.06
460.578	100.06
460.798	98.06
461.018	88.06
461.238	94.06
461.458	94.06
461.678	89.06
461.898	92.06
462.118	116.06
462.338	89.06
462.558	101.06
462.777	100.06
462.997	102.06
463.217	114.06
463.437	141.06
463.657	200.06
463.876	187.06
464.096	132.06
464.316	110.06
464.536	100.06
464.755	110.06
464.975	91.06
465.195	95.06
465.414	109.06
465.634	95.06
465.854	100.06
466.073	98.06
466.293	91.06
466.512	102.06
466.732	96.06
466.951	104.06
467.171	128.06
467.391	128.06
467.61	112.06
467.829	105.06
468.049	100.06
468.268	93.06
468.488	97.06
468.707	101.06
468.927	108.06
469.146	112.06
469.365	122.06
469.585	106.06
469.804	104.06
470.023	94.06
470.243	105.06
470.462	100.06
470.681	98.06
470.901	136.06
471.12	180.06
471.339	224.06
471.558	136.06
471.777	113.06
471.997	109.06
472.216	87.06
472.435	88.06
472.654	89.06
472.873	104.06
473.092	92.06
473.311	96.06
473.53	102.06
473.749	106.06
473.968	105.06
474.187	92.06
474.406	88.06
474.625	99.06
474.844	112.06
475.063	86.06
475.282	96.06
475.501	97.06
475.72	98.06
475.939	90.06
476.158	103.06
476.377	118.06
476.596	112.06
476.814	97.06
477.033	100.06
477.252	94.06
477.471	88.06
477.69	101.06
477.908	106.06
478.127	112.06
478.346	92.06
478.564	103.06
478.783	106.06
479.002	91.06
479.22	102.06
479.439	110.06
479.658	104.06
479.876	85.06
480.095	107.06
480.313	101.06
480.532	104.06
480.751	97.06
480.969	96.06
481.188	94.06
481.406	83.06
481.624	104.06
481.843	121.06
482.061	114.06
482.28	94.06
482.498	104.06
482.717	92.06
482.935	101.06
483.153	98.06
483.372	109.06
483.59	91.06
483.808	109.06
484.027	112.06
484.245	136.06
484.463	164.06
484.681	235.06
484.9	141.06
485.118	116.06
485.336	110.06
485.554	108.06
485.772	118.06
485.99	193.06
486.209	248.06
486.427	167.06
486.645	118.06
486.863	113.06
487.081	103.06
487.299	98.06
487.517	114.06
487.735	102.06
487.953	95.06
488.171	101.06
488.389	101.06
488.607	104.06
488.825	77.06
489.043	96.06
489.261	96.06
489.479	97.06
489.696	112.06
489.914	90.06
490.132	93.06
490.35	104.06
490.568	99.06
490.786	107.06
491.003	107.06
491.221	112.06
491.439	105.06
491.657	106.06
491.874	102.06
492.092	106.06
492.31	114.06
492.527	104.06
492.745	96.06
492.963	124.06
493.18	120.06
493.398	114.06
493.615	100.06
493.833	105.06
494.05	103.06
494.268	102.06
494.485	106.06
494.703	109.06
494.92	113.06
495.138	112.06
495.355	103.06
495.573	98.06
495.79	103.06
496.008	121.06
496.225	112.06
496.442	117.06
496.66	115.06
496.877	159.06
497.094	156.06
497.312	125.06
497.529	100.06
497.746	104.06
497.963	107.06
498.181	106.06
498.398	101.06
498.615	98.06
498.832	104.06
499.049	116.06
499.267	130.06
499.484	154.06
499.701	113.06
499.918	108.06
500.135	106.06
500.352	106.06
500.569	101.06
500.786	86.06
501.003	104.06
501.22	99.06
501.437	103.06
501.654	86.06
501.871	105.06
502.088	101.06
502.305	100.06
502.522	95.06
502.739	109.06
502.956	97.06
503.172	94.06
503.389	87.06
503.606	102.06
503.823	96.06
504.04	112.06
504.256	101.06
504.473	86.06
504.69	96.06
504.907	106.06
505.123	119.06
505.34	103.06
505.557	104.06
505.773	105.06
505.99	106.06
506.207	100.06
506.423	93.06
506.64	107.06
506.856	93.06
507.073	96.06
507.289	106.06
507.506	104.06
507.722	90.06
507.939	105.06
508.155	104.06
508.372	93.06
508.588	98.06
508.805	103.06
509.021	111.06
509.238	102.06
509.454	141.06
509.67	154.06
509.887	112.06
510.103	123.06
510.319	92.06
510.536	96.06
510.752	119.06
510.968	112.06
511.184	103.06
511.401	112.06
511.617	107.06
511.833	105.06
512.049	93.06
512.265	87.06
512.481	72.06
512.698	93.06
512.914	98.06
513.13	96.06
513.346	110.06
513.562	108.06
513.778	119.06
513.994	100.06
514.21	113.06
514.426	134.06
514.642	197.06
514.858	125.06
515.074	113.06
515.29	105.06
515.506	116.06
515.721	102.06
515.937	95.06
516.153	104.06
516.369	88.06
516.585	99.06
516.801	98.06
517.016	106.06
517.232	88.06
517.448	107.06
517.664	114.06
517.879	97.06
518.095	114.06
518.311	99.06
518.527	97.06
518.742	106.06
518.958	117.06
519.173	158.06
519.389	132.06
519.605	96.06
519.82	91.06
520.036	97.06
520.251	99.06
520.467	99.06
520.682	88.06
520.898	95.06
521.113	83.06
521.329	93.06
521.544	105.06
521.76	85.06
521.975	106.06
522.19	101.06
522.406	91.06
522.621	103.06
522.836	93.06
523.052	100.06
523.267	97.06
523.482	85.06
523.698	91.06
523.913	87.06
524.128	96.06
524.343	111.06
524.559	102.06
524.774	97.06
524.989	97.06
525.204	96.06
525.419	87.06
525.634	109.06
525.849	93.06
526.064	97.06
526.28	87.06
526.495	101.06
526.71	100.06
526.925	89.06
527.14	94.06
527.355	93.06
527.57	86.06
527.785	110.06
527.999	100.06
528.214	101.06
528.429	102.06
528.644	93.06
528.859	111.06
529.074	115.06
529.289	91.06
529.503	81.06
529.718	86.06
529.933	102.06
530.148	97.06
530.363	98.06
530.577	96.06
530.792	92.06
531.007	106.06
531.221	104.06
531.436	109.06
531.651	113.06
531.865	99.06
532.08	99.06
532.295	112.06
532.509	138.06
532.724	103.06
532.938	114.06
533.153	106.06
533.367	105.06
533.582	109.06
533.796	118.06
534.011	117.06
534.225	102.06
534.44	95.06
534.654	87.06
534.868	103.06
535.083	96.06
535.297	103.06
535.511	98.06
535.726	123.06
535.94	101.06
536.154	103.06
536.369	109.06
536.583	111.06
536.797	109.06
537.011	100.06
537.225	86.06
537.44	100.06
537.654	98.06
537.868	109.06
538.082	111.06
538.296	96.06
538.51	101.06
538.724	93.06
538.938	107.06
539.153	94.06
539.367	98.06
539.581	104.06
539.795	105.06
540.009	90.06
540.222	100.06
540.436	105.06
540.65	101.06
540.864	109.06
541.078	91.06
541.292	129.06
541.506	194.06
541.72	190.06
541.934	135.06
542.147	104.06
542.361	100.06
542.575	120.06
542.789	100.06
543.002	97.06
543.216	120.06
543.43	91.06
543.644	110.06
543.857	97.06
544.071	105.06
544.285	102.06
544.498	101.06
544.712	86.06
544.925	96.06
545.139	100.06
545.352	107.06
545.566	107.06
545.779	104.06
545.993	118.06
546.206	104.06
546.42	102.06
546.633	113.06
546.847	106.06
547.06	98.06
547.274	115.06
547.487	109.06
547.7	101.06
547.914	124.06
548.127	102.06
548.34	116.06
548.554	121.06
548.767	100.06
548.98	97.06
549.193	105.06
549.407	106.06
549.62	92.06
549.833	93.06
550.046	97.06
550.259	106.06
550.473	112.06
550.686	88.06
550.899	98.06
551.112	104.06
551.325	113.06
551.538	93.06
551.751	89.06
551.964	110.06
552.177	92.06
552.39	94.06
552.603	101.06
552.816	104.06
553.029	115.06
553.242	118.06
553.455	108.06
553.667	119.06
553.88	112.06
554.093	105.06
554.306	106.06
554.519	111.06
554.732	105.06
554.944	113.06
555.157	109.06
555.37	106.06
555.583	102.06
555.795	112.06
556.008	112.06
556.221	163.06
556.433	145.06
556.646	102.06
556.859	103.06
557.071	117.06
557.284	124.06
557.496	100.06
557.709	100.06
557.921	102.06
558.134	110.06
558.346	112.06
558.559	116.06
558.771	109.06
558.984	126.06
559.196	99.06
559.409	94.06
559.621	100.06
559.833	102.06
560.046	101.06
560.258	102.06
560.47	108.06
560.683	118.06
560.895	96.06
561.107	106.06
561.32	89.06
561.532	108.06
561.744	103.06
561.956	107.06
562.168	102.06
562.381	121.06
562.593	109.06
562.805	132.06
563.017	171.06
563.229	242.06
563.441	568.06
563.653	217.06
563.865	114.06
564.077	100.06
564.289	97.06
564.501	104.06
564.713	109.06
564.925	99.06
565.137	115.06
565.349	98.06
565.561	104.06
565.773	97.06
565.985	104.06
566.197	109.06
566.408	106.06
566.62	101.06
566.832	106.06
567.044	109.06
567.255	115.06
567.467	109.06
567.679	105.06
567.891	132.06
568.102	173.06
568.314	248.06
568.526	157.06
568.737	125.06
568.949	102.06
569.161	101.06
569.372	93.06
569.584	87.06
569.795	92.06
570.007	91.06
570.218	143.06
570.43	160.06
570.641	98.06
570.853	86.06
571.064	82.06
571.276	109.06
571.487	108.06
571.698	101.06
571.91	102.06
572.121	103.06
572.333	90.06
572.544	96.06
572.755	125.06
572.966	202.06
573.178	142.06
573.389	122.06
573.6	90.06
573.811	87.06
574.023	83.06
574.234	105.06
574.445	86.06
574.656	97.06
574.867	109.06
575.078	98.06
575.289	98.06
575.501	95.06
575.712	95.06
575.923	88.06
576.134	82.06
576.345	102.06
576.556	88.06
576.767	103.06
576.978	86.06
577.188	105.06
577.399	89.06
577.61	85.06
577.821	83.06
578.032	101.06
578.243	106.06
578.454	97.06
578.665	100.06
578.875	96.06
579.086	97.06
579.297	88.06
579.508	100.06
579.718	90.06
579.929	93.06
580.14	97.06
580.35	94.06
580.561	102.06
580.772	101.06
580.982	98.06
581.193	91.06
581.403	103.06
581.614	88.06
581.825	83.06
582.035	95.06
582.246	92.06
582.456	96.06
582.667	99.06
582.877	120.06
583.087	121.06
583.298	98.06
583.508	96.06
583.719	84.06
583.929	102.06
584.139	90.06
584.35	90.06
584.56	97.06
584.77	100.06
584.981	92.06
585.191	76.06
585.401	96.06
585.611	106.06
585.821	100.06
586.032	113.06
586.242	96.06
586.452	99.06
586.662	93.06
586.872	113.06
587.082	97.06
587.292	94.06
587.502	96.06
587.713	99.06
587.923	97.06
588.133	103.06
588.343	101.06
588.553	103.06
588.762	105.06
588.972	115.06
589.182	112.06
589.392	114.06
589.602	98.06
589.812	104.06
590.022	88.06
590.232	79.06
590.441	96.06
590.651	103.06
590.861	89.06
591.071	82.06
591.281	106.06
591.49	98.06
591.7	98.06
591.91	96.06
592.119	101.06
592.329	88.06
592.539	102.06
592.748	84.06
592.958	100.06
593.167	90.06
593.377	100.06
593.587	87.06
593.796	94.06
594.006	105.06
594.215	90.06
594.424	92.06
594.634	88.06
594.843	96.06
595.053	99.06
595.262	93.06
595.472	113.06
595.681	101.06
595.89	85.06
596.1	85.06
596.309	90.06
596.518	92.06
596.727	97.06
596.937	85.06
597.146	98.06
597.355	102.06
597.564	86.06
597.774	107.06
597.983	86.06
598.192	82.06
598.401	101.06
598.61	96.06
598.819	99.06
599.028	97.06
599.237	110.06
599.446	89.06
599.655	85.06
599.864	96.06
600.073	85.06
600.282	110.06
600.491	78.06
600.7	95.06
600.909	90.06
601.118	97.06
601.327	96.06
601.536	105.06
601.745	99.06
601.953	131.06
602.162	157.06
602.371	113.06
602.58	88.06
602.789	106.06
602.997	101.06
603.206	96.06
603.415	95.06
603.623	112.06
603.832	96.06
604.041	107.06
604.249	98.06
604.458	103.06
604.666	101.06
604.875	93.06
605.084	92.06
605.292	98.06
605.501	97.06
605.709	98.06
605.918	112.06
606.126	99.06
606.334	100.06
606.543	125.06
606.751	128.06
606.96	164.06
607.168	173.06
607.376	129.06
607.585	104.06
607.793	107.06
608.001	99.06
608.21	105.06
608.418	85.06
608.626	77.06
608.834	86.06
609.043	93.06
609.251	88.06
609.459	80.06
609.667	105.06
609.875	100.06
610.083	102.06
610.291	93.06
610.499	92.06
610.707	101.06
610.916	95.06
611.124	99.06
611.332	109.06
611.54	86.06
611.748	113.06
611.955	96.06
612.163	99.06
612.371	92.06
612.579	93.06
612.787	100.06
612.995	99.06
613.203	103.06
613.411	102.06
613.618	93.06
613.826	89.06
614.034	96.06
614.242	92.06
614.449	92.06
614.657	94.06
614.865	100.06
615.072	106.06
615.28	127.06
615.488	93.06
615.695	107.06
615.903	119.06
616.111	107.06
616.318	92.06
616.526	109.06
616.733	111.06
616.941	102.06
617.148	96.06
617.356	113.06
617.563	89.06
617.771	94.06
617.978	98.06
618.185	97.06
618.393	92.06
618.6	87.06
618.807	71.06
619.015	93.06
619.222	80.06
619.429	75.06
619.637	90.06
619.844	90.06
620.051	91.06
620.258	90.06
620.466	102.06
620.673	87.06
620.88	102.06
621.087	91.06
621.294	87.06
621.501	98.06
621.708	98.06
621.915	97.06
622.122	101.06
622.329	85.06
622.536	101.06
622.743	83.06
622.95	80.06
623.157	94.06
623.364	83.06
623.571	91.06
623.778	93.06
623.985	103.06
624.192	112.06
624.399	85.06
624.606	98.06
624.812	95.06
625.019	100.06
625.226	113.06
625.433	86.06
625.639	88.06
625.846	85.06
626.053	99.06
626.259	90.06
626.466	88.06
626.673	85.06
626.879	86.06
627.086	83.06
627.293	93.06
627.499	84.06
627.706	81.06
627.912	89.06
628.119	85.06
628.325	75.06
628.532	93.06
628.738	96.06
628.945	84.06
629.151	96.06
629.357	89.06
629.564	93.06
629.77	96.06
629.976	89.06
630.183	78.06
630.389	81.06
630.595	104.06
630.802	89.06
631.008	98.06
631.214	90.06
631.42	99.06
631.627	107.06
631.833	79.06
632.039	85.06
632.245	108.06
632.451	88.06
632.657	94.06
632.863	85.06
633.069	97.06
633.275	100.06
633.481	82.06
633.688	87.06
633.893	86.06
634.099	84.06
634.305	91.06
634.511	92.06
634.717	97.06
634.923	88.06
635.129	117.06
635.335	124.06
635.541	91.06
635.747	99.06
635.952	106.06
636.158	93.06
636.364	91.06
636.57	86.06
636.775	85.06
636.981	93.06
637.187	105.06
637.392	86.06
637.598	90.06
637.804	79.06
638.009	97.06
638.215	87.06
638.421	76.06
638.626	80.06
638.832	93.06
639.037	83.06
639.243	81.06
639.448	88.06
639.654	107.06
639.859	75.06
640.065	91.06
640.27	100.06
640.475	92.06
640.681	84.06
640.886	91.06
641.091	87.06
641.297	90.06
641.502	97.06
641.707	82.06
641.913	84.06
642.118	97.06
642.323	98.06
642.528	85.06
642.733	97.06
642.939	98.06
643.144	97.06
643.349	91.06
643.554	90.06
643.759	83.06
643.964	93.06
644.169	89.06
644.374	105.06
644.579	98.06
644.784	88.06
644.989	87.06
645.194	84.06
645.399	88.06
645.604	99.06
645.809	91.06
646.014	89.06
646.219	86.06
646.423	98.06
646.628	92.06
646.833	86.06
647.038	88.06
647.243	96.06
647.447	87.06
647.652	89.06
647.857	96.06
648.062	106.06
648.266	93.06
648.471	95.06
648.676	75.06
648.88	88.06
649.085	91.06
649.289	107.06
649.494	98.06
649.698	90.06
649.903	96.06
650.107	93.06
650.312	86.06
650.516	90.06
650.721	90.06
650.925	93.06
651.13	90.06
651.334	77.06
651.539	78.06
651.743	84.06
651.947	97.06
652.152	104.06
652.356	101.06
652.56	105.06
652.764	118.06
652.969	98.06
653.173	91.06
653.377	89.06
653.581	93.06
653.785	75.06
653.99	93.06
654.194	89.06
654.398	95.06
654.602	74.06
654.806	91.06
655.01	82.06
655.214	99.06
655.418	87.06
655.622	88.06
655.826	76.06
656.03	81.06
656.234	68.06
656.438	86.06
656.642	86.06
656.846	88.06
657.049	90.06
657.253	76.06
657.457	93.06
657.661	84.06
657.865	85.06
658.068	90.06
658.272	89.06
658.476	72.06
658.68	84.06
658.883	93.06
659.087	100.06
659.291	82.06
659.494	89.06
659.698	98.06
659.901	86.06
660.105	84.06
660.309	98.06
660.512	73.06
660.716	101.06
660.919	86.06
661.123	99.06
661.326	78.06
661.53	76.06
661.733	81.06
661.936	74.06
662.14	85.06
662.343	70.06
662.546	84.06
662.75	85.06
662.953	73.06
663.156	85.06
663.36	78.06
663.563	96.06
663.766	80.06
663.969	84.06
664.173	100.06
664.376	79.06
664.579	85.06
664.782	86.06
664.985	91.06
665.188	90.06
665.391	105.06
665.594	95.06
665.797	86.06
666	87.06
666.203	73.06
666.406	88.06
666.609	72.06
666.812	72.06
667.015	80.06
667.218	82.06
667.421	98.06
667.624	72.06
667.827	80.06
668.03	87.06
668.232	81.06
668.435	91.06
668.638	77.06
668.841	83.06
669.043	75.06
669.246	74.06
669.449	85.06
669.651	78.06
669.854	66.06
670.057	88.06
670.259	78.06
670.462	75.06
670.665	81.06
670.867	84.06
671.07	79.06
671.272	96.06
671.475	92.06
671.677	90.06
671.88	90.06
672.082	84.06
672.284	91.06
672.487	79.06
672.689	85.06
672.892	85.06
