Data from SnStandardFlinnAPT0064_QswitchEnergy10_LIBS07252019.E.O._I.C._HRD10591_15-26-14-972.txt Node
Date: Thu Jul 25 15:26:14 EDT 2019
User: cochatt
Spectrometer: HR+D1059
Trigger mode: 1
Integration Time (sec): 1.000000E-1
Scans to average: 1
Electric dark correction enabled: true
Nonlinearity correction enabled: false
Boxcar width: 0
XAxis mode: Wavelengths
Number of Pixels in Spectrum: 2048
>>>>>Begin Spectral Data<<<<<
223.165	-22.31
223.4	-22.31
223.635	-22.31
223.869	-26.31
224.104	-11.31
224.338	-4.31
224.573	-5.31
224.808	-10.31
225.042	-13.31
225.277	-2.31
225.511	-6.31
225.746	4.69
225.98	6.69
226.215	1.69
226.449	10.69
226.683	18.69
226.918	21.69
227.152	37.69
227.387	26.69
227.621	40.69
227.856	48.69
228.09	42.69
228.324	52.69
228.559	67.69
228.793	75.69
229.027	84.69
229.262	76.69
229.496	79.69
229.73	60.69
229.964	86.69
230.199	76.69
230.433	74.69
230.667	72.69
230.901	80.69
231.136	74.69
231.37	76.69
231.604	83.69
231.838	101.69
232.072	106.69
232.306	136.69
232.541	107.69
232.775	88.69
233.009	91.69
233.243	89.69
233.477	87.69
233.711	103.69
233.945	110.69
234.179	97.69
234.413	83.69
234.647	85.69
234.881	89.69
235.115	97.69
235.349	89.69
235.583	119.69
235.817	136.69
236.051	146.69
236.285	101.69
236.519	76.69
236.753	96.69
236.987	81.69
237.221	90.69
237.455	89.69
237.689	93.69
237.922	85.69
238.156	88.69
238.39	80.69
238.624	76.69
238.858	80.69
239.091	65.69
239.325	83.69
239.559	74.69
239.793	70.69
240.027	90.69
240.26	89.69
240.494	78.69
240.728	85.69
240.961	90.69
241.195	112.69
241.429	92.69
241.662	96.69
241.896	98.69
242.13	115.69
242.363	136.69
242.597	170.69
242.83	148.69
243.064	146.69
243.298	185.69
243.531	166.69
243.765	97.69
243.998	74.69
244.232	86.69
244.465	81.69
244.699	81.69
244.932	82.69
245.166	81.69
245.399	68.69
245.633	77.69
245.866	86.69
246.099	92.69
246.333	81.69
246.566	87.69
246.8	69.69
247.033	83.69
247.266	88.69
247.5	83.69
247.733	75.69
247.966	95.69
248.2	80.69
248.433	120.69
248.666	136.69
248.899	137.69
249.133	98.69
249.366	96.69
249.599	97.69
249.832	133.69
250.066	153.69
250.299	111.69
250.532	97.69
250.765	100.69
250.998	76.69
251.231	89.69
251.465	73.69
251.698	86.69
251.931	77.69
252.164	86.69
252.397	98.69
252.63	73.69
252.863	99.69
253.096	90.69
253.329	89.69
253.562	103.69
253.795	105.69
254.028	102.69
254.261	93.69
254.494	106.69
254.727	123.69
254.96	168.69
255.193	140.69
255.426	101.69
255.659	92.69
255.892	85.69
256.124	79.69
256.357	83.69
256.59	80.69
256.823	114.69
257.056	125.69
257.289	140.69
257.521	192.69
257.754	121.69
257.987	89.69
258.22	86.69
258.452	89.69
258.685	81.69
258.918	91.69
259.151	93.69
259.383	106.69
259.616	139.69
259.849	162.69
260.081	113.69
260.314	90.69
260.547	96.69
260.779	83.69
261.012	96.69
261.244	85.69
261.477	100.69
261.71	80.69
261.942	96.69
262.175	84.69
262.407	79.69
262.64	82.69
262.872	84.69
263.105	87.69
263.337	86.69
263.57	89.69
263.802	104.69
264.035	87.69
264.267	93.69
264.499	72.69
264.732	105.69
264.964	93.69
265.197	91.69
265.429	73.69
265.661	84.69
265.894	114.69
266.126	133.69
266.358	173.69
266.591	157.69
266.823	90.69
267.055	77.69
267.287	86.69
267.52	93.69
267.752	94.69
267.984	93.69
268.216	89.69
268.448	90.69
268.681	106.69
268.913	102.69
269.145	95.69
269.377	87.69
269.609	90.69
269.841	98.69
270.073	115.69
270.306	142.69
270.538	226.69
270.77	341.69
271.002	410.69
271.234	204.69
271.466	118.69
271.698	107.69
271.93	85.69
272.162	74.69
272.394	108.69
272.626	92.69
272.858	90.69
273.09	86.69
273.322	92.69
273.553	81.69
273.785	105.69
274.017	91.69
274.249	94.69
274.481	96.69
274.713	100.69
274.945	88.69
275.176	84.69
275.408	85.69
275.64	87.69
275.872	96.69
276.104	102.69
276.335	93.69
276.567	91.69
276.799	85.69
277.031	88.69
277.262	92.69
277.494	116.69
277.726	115.69
277.957	182.69
278.189	258.69
278.421	275.69
278.652	194.69
278.884	198.69
279.115	135.69
279.347	112.69
279.579	86.69
279.81	101.69
280.042	102.69
280.273	104.69
280.505	98.69
280.736	112.69
280.968	126.69
281.199	177.69
281.431	256.69
281.662	262.69
281.894	172.69
282.125	121.69
282.356	112.69
282.588	124.69
282.819	115.69
283.051	118.69
283.282	151.69
283.513	186.69
283.745	352.69
283.976	598.69
284.207	864.69
284.439	672.69
284.67	297.69
284.901	264.69
285.132	390.69
285.364	402.69
285.595	236.69
285.826	162.69
286.057	261.69
286.288	443.69
286.52	651.69
286.751	540.69
286.982	220.69
287.213	132.69
287.444	113.69
287.675	102.69
287.906	102.69
288.138	100.69
288.369	102.69
288.6	96.69
288.831	95.69
289.062	103.69
289.293	99.69
289.524	96.69
289.755	102.69
289.986	97.69
290.217	84.69
290.448	108.69
290.679	104.69
290.91	131.69
291.141	156.69
291.371	244.69
291.602	309.69
291.833	204.69
292.064	112.69
292.295	97.69
292.526	92.69
292.757	92.69
292.987	92.69
293.218	85.69
293.449	99.69
293.68	89.69
293.91	85.69
294.141	103.69
294.372	91.69
294.603	93.69
294.833	105.69
295.064	94.69
295.295	97.69
295.525	103.69
295.756	98.69
295.987	97.69
296.217	84.69
296.448	74.69
296.679	100.69
296.909	104.69
297.14	93.69
297.37	102.69
297.601	89.69
297.831	109.69
298.062	103.69
298.292	105.69
298.523	97.69
298.753	112.69
298.984	116.69
299.214	103.69
299.445	106.69
299.675	125.69
299.905	116.69
300.136	136.69
300.366	177.69
300.597	280.69
300.827	504.69
301.057	745.69
301.288	652.69
301.518	266.69
301.748	166.69
301.979	142.69
302.209	144.69
302.439	144.69
302.669	186.69
302.9	290.69
303.13	553.69
303.36	966.69
303.59	1343.69
303.82	912.69
304.051	330.69
304.281	172.69
304.511	128.69
304.741	109.69
304.971	106.69
305.201	107.69
305.431	115.69
305.661	109.69
305.891	105.69
306.121	117.69
306.352	98.69
306.582	119.69
306.812	112.69
307.042	116.69
307.272	92.69
307.502	110.69
307.731	97.69
307.961	113.69
308.191	114.69
308.421	104.69
308.651	98.69
308.881	94.69
309.111	108.69
309.341	110.69
309.571	111.69
309.8	115.69
310.03	108.69
310.26	107.69
310.49	102.69
310.72	114.69
310.949	98.69
311.179	106.69
311.409	114.69
311.639	110.69
311.868	119.69
312.098	105.69
312.328	111.69
312.557	116.69
312.787	117.69
313.017	117.69
313.246	109.69
313.476	114.69
313.706	133.69
313.935	142.69
314.165	181.69
314.394	233.69
314.624	190.69
314.853	136.69
315.083	128.69
315.312	108.69
315.542	128.69
315.771	116.69
316.001	123.69
316.23	139.69
316.46	148.69
316.689	162.69
316.919	274.69
317.148	531.69
317.377	985.69
317.607	1626.69
317.836	1458.69
318.065	571.69
318.295	235.69
318.524	165.69
318.753	133.69
318.983	132.69
319.212	117.69
319.441	130.69
319.67	120.69
319.9	97.69
320.129	112.69
320.358	116.69
320.587	115.69
320.816	106.69
321.046	124.69
321.275	134.69
321.504	125.69
321.733	154.69
321.962	167.69
322.191	155.69
322.42	119.69
322.649	131.69
322.878	137.69
323.108	120.69
323.337	140.69
323.566	132.69
323.795	130.69
324.024	140.69
324.253	135.69
324.482	176.69
324.71	237.69
324.939	280.69
325.168	231.69
325.397	187.69
325.626	267.69
325.855	507.69
326.084	1014.69
326.313	1726.69
326.542	1709.69
326.77	665.69
326.999	268.69
327.228	203.69
327.457	243.69
327.686	241.69
327.914	154.69
328.143	145.69
328.372	146.69
328.6	114.69
328.829	136.69
329.058	113.69
329.287	103.69
329.515	116.69
329.744	109.69
329.972	124.69
330.201	121.69
330.43	126.69
330.658	106.69
330.887	114.69
331.115	120.69
331.344	124.69
331.572	131.69
331.801	128.69
332.03	120.69
332.258	145.69
332.486	181.69
332.715	302.69
332.943	522.69
333.172	837.69
333.4	730.69
333.629	280.69
333.857	149.69
334.085	128.69
334.314	122.69
334.542	119.69
334.771	103.69
334.999	99.69
335.227	113.69
335.455	108.69
335.684	120.69
335.912	115.69
336.14	117.69
336.369	105.69
336.597	107.69
336.825	113.69
337.053	121.69
337.281	95.69
337.51	117.69
337.738	112.69
337.966	120.69
338.194	101.69
338.422	112.69
338.65	103.69
338.878	104.69
339.106	119.69
339.334	123.69
339.562	126.69
339.79	113.69
340.018	105.69
340.246	110.69
340.474	126.69
340.702	122.69
340.93	102.69
341.158	112.69
341.386	110.69
341.614	120.69
341.842	112.69
342.07	122.69
342.298	103.69
342.526	101.69
342.754	104.69
342.981	119.69
343.209	113.69
343.437	115.69
343.665	112.69
343.893	112.69
344.12	126.69
344.348	123.69
344.576	105.69
344.804	116.69
345.031	120.69
345.259	113.69
345.487	105.69
345.714	110.69
345.942	99.69
346.17	116.69
346.397	106.69
346.625	108.69
346.853	113.69
347.08	122.69
347.308	107.69
347.535	105.69
347.763	95.69
347.99	103.69
348.218	105.69
348.445	115.69
348.673	112.69
348.9	121.69
349.128	124.69
349.355	106.69
349.583	114.69
349.81	112.69
350.037	106.69
350.265	120.69
350.492	114.69
350.72	114.69
350.947	122.69
351.174	114.69
351.402	109.69
351.629	116.69
351.856	105.69
352.083	91.69
352.311	95.69
352.538	105.69
352.765	110.69
352.992	89.69
353.22	88.69
353.447	105.69
353.674	114.69
353.901	104.69
354.128	100.69
354.355	107.69
354.583	113.69
354.81	89.69
355.037	98.69
355.264	102.69
355.491	103.69
355.718	101.69
355.945	101.69
356.172	101.69
356.399	110.69
356.626	114.69
356.853	98.69
357.08	123.69
357.307	108.69
357.534	102.69
357.761	109.69
357.988	99.69
358.215	93.69
358.441	106.69
358.668	113.69
358.895	120.69
359.122	132.69
359.349	105.69
359.576	106.69
359.802	116.69
360.029	105.69
360.256	97.69
360.483	114.69
360.709	102.69
360.936	108.69
361.163	112.69
361.39	108.69
361.616	110.69
361.843	104.69
362.07	110.69
362.296	100.69
362.523	90.69
362.749	96.69
362.976	117.69
363.203	98.69
363.429	93.69
363.656	100.69
363.882	117.69
364.109	109.69
364.335	109.69
364.562	101.69
364.788	103.69
365.015	99.69
365.241	120.69
365.468	180.69
365.694	266.69
365.92	228.69
366.147	114.69
366.373	105.69
366.599	99.69
366.826	104.69
367.052	99.69
367.278	96.69
367.505	103.69
367.731	95.69
367.957	99.69
368.184	124.69
368.41	128.69
368.636	126.69
368.862	113.69
369.089	93.69
369.315	110.69
369.541	101.69
369.767	127.69
369.993	109.69
370.219	112.69
370.445	106.69
370.672	120.69
370.898	101.69
371.124	86.69
371.35	102.69
371.576	98.69
371.802	105.69
372.028	107.69
372.254	120.69
372.48	115.69
372.706	108.69
372.932	107.69
373.158	115.69
373.384	110.69
373.61	112.69
373.835	119.69
374.061	119.69
374.287	105.69
374.513	116.69
374.739	112.69
374.965	116.69
375.191	107.69
375.416	106.69
375.642	93.69
375.868	104.69
376.094	112.69
376.319	106.69
376.545	118.69
376.771	106.69
376.997	101.69
377.222	107.69
377.448	111.69
377.674	115.69
377.899	109.69
378.125	101.69
378.35	110.69
378.576	102.69
378.802	131.69
379.027	123.69
379.253	141.69
379.478	198.69
379.704	340.69
379.929	812.69
380.155	1690.69
380.38	1741.69
380.606	581.69
380.831	198.69
381.057	153.69
381.282	106.69
381.507	116.69
381.733	108.69
381.958	109.69
382.184	112.69
382.409	104.69
382.634	114.69
382.86	108.69
383.085	95.69
383.31	101.69
383.535	98.69
383.761	109.69
383.986	115.69
384.211	105.69
384.436	103.69
384.662	102.69
384.887	100.69
385.112	94.69
385.337	116.69
385.562	98.69
385.787	105.69
386.013	118.69
386.238	113.69
386.463	109.69
386.688	100.69
386.913	91.69
387.138	99.69
387.363	107.69
387.588	98.69
387.813	105.69
388.038	98.69
388.263	105.69
388.488	116.69
388.713	101.69
388.938	109.69
389.163	93.69
389.387	92.69
389.612	107.69
389.837	112.69
390.062	102.69
390.287	100.69
390.512	107.69
390.736	118.69
390.961	100.69
391.186	93.69
391.411	106.69
391.636	105.69
391.86	94.69
392.085	109.69
392.31	101.69
392.534	98.69
392.759	105.69
392.984	109.69
393.208	148.69
393.433	200.69
393.658	204.69
393.882	125.69
394.107	96.69
394.331	107.69
394.556	104.69
394.78	103.69
395.005	90.69
395.229	101.69
395.454	105.69
395.678	98.69
395.903	105.69
396.127	118.69
396.352	107.69
396.576	116.69
396.801	141.69
397.025	192.69
397.249	122.69
397.474	103.69
397.698	112.69
397.922	106.69
398.147	112.69
398.371	108.69
398.595	90.69
398.82	89.69
399.044	85.69
399.268	94.69
399.492	91.69
399.717	101.69
399.941	95.69
400.165	93.69
400.389	102.69
400.613	97.69
400.837	93.69
401.062	93.69
401.286	98.69
401.51	90.69
401.734	104.69
401.958	109.69
402.182	96.69
402.406	108.69
402.63	97.69
402.854	88.69
403.078	94.69
403.302	103.69
403.526	108.69
403.75	106.69
403.974	103.69
404.198	104.69
404.422	91.69
404.645	101.69
404.869	88.69
405.093	97.69
405.317	99.69
405.541	93.69
405.765	127.69
405.988	134.69
406.212	108.69
406.436	108.69
406.66	105.69
406.883	103.69
407.107	89.69
407.331	90.69
407.555	76.69
407.778	102.69
408.002	115.69
408.226	108.69
408.449	109.69
408.673	110.69
408.896	110.69
409.12	106.69
409.344	107.69
409.567	88.69
409.791	95.69
410.014	109.69
410.238	101.69
410.461	118.69
410.685	85.69
410.908	90.69
411.132	82.69
411.355	93.69
411.578	99.69
411.802	106.69
412.025	105.69
412.249	107.69
412.472	105.69
412.695	105.69
412.919	99.69
413.142	106.69
413.365	116.69
413.589	109.69
413.812	107.69
414.035	109.69
414.258	121.69
414.482	115.69
414.705	108.69
414.928	101.69
415.151	96.69
415.374	109.69
415.597	108.69
415.821	93.69
416.044	87.69
416.267	107.69
416.49	95.69
416.713	102.69
416.936	103.69
417.159	89.69
417.382	101.69
417.605	101.69
417.828	114.69
418.051	100.69
418.274	96.69
418.497	101.69
418.72	102.69
418.943	109.69
419.166	106.69
419.389	106.69
419.611	117.69
419.834	108.69
420.057	98.69
420.28	99.69
420.503	100.69
420.726	101.69
420.948	91.69
421.171	88.69
421.394	103.69
421.617	95.69
421.839	86.69
422.062	112.69
422.285	99.69
422.507	96.69
422.73	160.69
422.953	166.69
423.175	125.69
423.398	103.69
423.621	92.69
423.843	98.69
424.066	107.69
424.288	103.69
424.511	107.69
424.733	96.69
424.956	98.69
425.178	100.69
425.401	92.69
425.623	86.69
425.846	97.69
426.068	98.69
426.291	103.69
426.513	97.69
426.735	102.69
426.958	93.69
427.18	102.69
427.402	109.69
427.625	100.69
427.847	89.69
428.069	103.69
428.292	88.69
428.514	102.69
428.736	115.69
428.958	99.69
429.181	104.69
429.403	100.69
429.625	103.69
429.847	114.69
430.069	109.69
430.292	106.69
430.514	97.69
430.736	97.69
430.958	93.69
431.18	88.69
431.402	110.69
431.624	94.69
431.846	98.69
432.068	96.69
432.29	84.69
432.512	85.69
432.734	79.69
432.956	97.69
433.178	88.69
433.4	91.69
433.622	94.69
433.844	99.69
434.066	97.69
434.287	108.69
434.509	111.69
434.731	106.69
434.953	99.69
435.175	86.69
435.397	107.69
435.618	98.69
435.84	95.69
436.062	92.69
436.284	108.69
436.505	107.69
436.727	80.69
436.949	93.69
437.17	93.69
437.392	88.69
437.614	97.69
437.835	89.69
438.057	89.69
438.278	79.69
438.5	99.69
438.721	105.69
438.943	125.69
439.165	117.69
439.386	115.69
439.608	100.69
439.829	119.69
440.05	117.69
440.272	117.69
440.493	104.69
440.715	108.69
440.936	97.69
441.158	87.69
441.379	97.69
441.6	104.69
441.822	107.69
442.043	126.69
442.264	142.69
442.486	113.69
442.707	105.69
442.928	108.69
443.149	102.69
443.371	96.69
443.592	100.69
443.813	100.69
444.034	107.69
444.255	80.69
444.476	102.69
444.698	84.69
444.919	97.69
445.14	213.69
445.361	146.69
445.582	110.69
445.803	114.69
446.024	107.69
446.245	103.69
446.466	103.69
446.687	112.69
446.908	111.69
447.129	97.69
447.35	80.69
447.571	98.69
447.792	103.69
448.013	115.69
448.234	102.69
448.455	86.69
448.675	97.69
448.896	116.69
449.117	105.69
449.338	128.69
449.559	162.69
449.779	126.69
450	110.69
450.221	105.69
450.442	116.69
450.662	118.69
450.883	106.69
451.104	126.69
451.324	125.69
451.545	116.69
451.766	126.69
451.986	138.69
452.207	209.69
452.428	568.69
452.648	1408.69
452.869	809.69
453.089	210.69
453.31	132.69
453.53	137.69
453.751	163.69
453.971	179.69
454.192	153.69
454.412	107.69
454.633	103.69
454.853	102.69
455.073	96.69
455.294	93.69
455.514	92.69
455.734	96.69
455.955	91.69
456.175	93.69
456.395	93.69
456.616	97.69
456.836	103.69
457.056	120.69
457.276	112.69
457.497	122.69
457.717	129.69
457.937	105.69
458.157	67.69
458.377	83.69
458.598	91.69
458.818	102.69
459.038	84.69
459.258	94.69
459.478	89.69
459.698	99.69
459.918	84.69
460.138	100.69
460.358	99.69
460.578	80.69
460.798	95.69
461.018	94.69
461.238	104.69
461.458	104.69
461.678	94.69
461.898	100.69
462.118	94.69
462.338	112.69
462.558	93.69
462.777	90.69
462.997	105.69
463.217	102.69
463.437	121.69
463.657	198.69
463.876	200.69
464.096	122.69
464.316	93.69
464.536	103.69
464.755	91.69
464.975	96.69
465.195	101.69
465.414	94.69
465.634	90.69
465.854	88.69
466.073	82.69
466.293	98.69
466.512	99.69
466.732	93.69
466.951	110.69
467.171	148.69
467.391	167.69
467.61	118.69
467.829	112.69
468.049	107.69
468.268	90.69
468.488	97.69
468.707	84.69
468.927	111.69
469.146	97.69
469.365	96.69
469.585	102.69
469.804	96.69
470.023	105.69
470.243	96.69
470.462	100.69
470.681	106.69
470.901	138.69
471.12	202.69
471.339	227.69
471.558	147.69
471.777	108.69
471.997	100.69
472.216	94.69
472.435	112.69
472.654	97.69
472.873	105.69
473.092	90.69
473.311	112.69
473.53	93.69
473.749	101.69
473.968	96.69
474.187	88.69
474.406	90.69
474.625	103.69
474.844	114.69
475.063	112.69
475.282	91.69
475.501	98.69
475.72	107.69
475.939	96.69
476.158	90.69
476.377	114.69
476.596	108.69
476.814	102.69
477.033	99.69
477.252	97.69
477.471	91.69
477.69	100.69
477.908	103.69
478.127	96.69
478.346	90.69
478.564	95.69
478.783	96.69
479.002	106.69
479.22	98.69
479.439	85.69
479.658	104.69
479.876	83.69
480.095	106.69
480.313	99.69
480.532	99.69
480.751	95.69
480.969	93.69
481.188	96.69
481.406	95.69
481.624	99.69
481.843	124.69
482.061	117.69
482.28	97.69
482.498	106.69
482.717	101.69
482.935	100.69
483.153	114.69
483.372	102.69
483.59	110.69
483.808	100.69
484.027	99.69
484.245	113.69
484.463	186.69
484.681	228.69
484.9	150.69
485.118	134.69
485.336	118.69
485.554	107.69
485.772	130.69
485.99	212.69
486.209	290.69
486.427	189.69
486.645	120.69
486.863	124.69
487.081	83.69
487.299	92.69
487.517	101.69
487.735	97.69
487.953	93.69
488.171	117.69
488.389	102.69
488.607	99.69
488.825	106.69
489.043	104.69
489.261	85.69
489.479	110.69
489.696	107.69
489.914	112.69
490.132	87.69
490.35	110.69
490.568	106.69
490.786	108.69
491.003	97.69
491.221	108.69
491.439	116.69
491.657	108.69
491.874	116.69
492.092	121.69
492.31	107.69
492.527	113.69
492.745	106.69
492.963	98.69
493.18	117.69
493.398	104.69
493.615	101.69
493.833	102.69
494.05	100.69
494.268	112.69
494.485	101.69
494.703	116.69
494.92	112.69
495.138	94.69
495.355	99.69
495.573	104.69
495.79	99.69
496.008	118.69
496.225	97.69
496.442	113.69
496.66	122.69
496.877	167.69
497.094	169.69
497.312	116.69
497.529	116.69
497.746	102.69
497.963	104.69
498.181	100.69
498.398	91.69
498.615	120.69
498.832	108.69
499.049	110.69
499.267	132.69
499.484	189.69
499.701	109.69
499.918	115.69
500.135	94.69
500.352	97.69
500.569	93.69
500.786	100.69
501.003	104.69
501.22	104.69
501.437	99.69
501.654	103.69
501.871	98.69
502.088	87.69
502.305	102.69
502.522	94.69
502.739	91.69
502.956	98.69
503.172	101.69
503.389	105.69
503.606	99.69
503.823	97.69
504.04	109.69
504.256	90.69
504.473	93.69
504.69	95.69
504.907	109.69
505.123	128.69
505.34	106.69
505.557	99.69
505.773	118.69
505.99	115.69
506.207	88.69
506.423	114.69
506.64	98.69
506.856	100.69
507.073	93.69
507.289	101.69
507.506	95.69
507.722	105.69
507.939	95.69
508.155	107.69
508.372	102.69
508.588	106.69
508.805	87.69
509.021	95.69
509.238	97.69
509.454	156.69
509.67	154.69
509.887	112.69
510.103	109.69
510.319	104.69
510.536	98.69
510.752	119.69
510.968	116.69
511.184	91.69
511.401	94.69
511.617	102.69
511.833	118.69
512.049	95.69
512.265	89.69
512.481	98.69
512.698	89.69
512.914	91.69
513.13	94.69
513.346	102.69
513.562	109.69
513.778	102.69
513.994	107.69
514.21	95.69
514.426	140.69
514.642	192.69
514.858	127.69
515.074	102.69
515.29	101.69
515.506	92.69
515.721	96.69
515.937	102.69
516.153	95.69
516.369	97.69
516.585	97.69
516.801	89.69
517.016	105.69
517.232	94.69
517.448	87.69
517.664	110.69
517.879	105.69
518.095	100.69
518.311	95.69
518.527	94.69
518.742	114.69
518.958	125.69
519.173	173.69
519.389	130.69
519.605	92.69
519.82	97.69
520.036	88.69
520.251	89.69
520.467	92.69
520.682	96.69
520.898	96.69
521.113	102.69
521.329	90.69
521.544	99.69
521.76	94.69
521.975	108.69
522.19	106.69
522.406	99.69
522.621	95.69
522.836	101.69
523.052	101.69
523.267	105.69
523.482	101.69
523.698	95.69
523.913	93.69
524.128	98.69
524.343	104.69
524.559	108.69
524.774	106.69
524.989	96.69
525.204	91.69
525.419	105.69
525.634	99.69
525.849	90.69
526.064	103.69
526.28	106.69
526.495	91.69
526.71	91.69
526.925	101.69
527.14	94.69
527.355	102.69
527.57	87.69
527.785	100.69
527.999	90.69
528.214	100.69
528.429	92.69
528.644	88.69
528.859	89.69
529.074	101.69
529.289	105.69
529.503	96.69
529.718	90.69
529.933	91.69
530.148	87.69
530.363	94.69
530.577	93.69
530.792	112.69
531.007	104.69
531.221	114.69
531.436	100.69
531.651	98.69
531.865	97.69
532.08	98.69
532.295	98.69
532.509	146.69
532.724	124.69
532.938	102.69
533.153	100.69
533.367	98.69
533.582	107.69
533.796	92.69
534.011	104.69
534.225	91.69
534.44	101.69
534.654	90.69
534.868	96.69
535.083	93.69
535.297	102.69
535.511	93.69
535.726	99.69
535.94	101.69
536.154	88.69
536.369	105.69
536.583	97.69
536.797	105.69
537.011	97.69
537.225	96.69
537.44	96.69
537.654	107.69
537.868	94.69
538.082	90.69
538.296	90.69
538.51	106.69
538.724	103.69
538.938	108.69
539.153	101.69
539.367	94.69
539.581	75.69
539.795	91.69
540.009	101.69
540.222	97.69
540.436	92.69
540.65	97.69
540.864	87.69
541.078	95.69
541.292	121.69
541.506	240.69
541.72	232.69
541.934	137.69
542.147	103.69
542.361	108.69
542.575	93.69
542.789	98.69
543.002	103.69
543.216	101.69
543.43	112.69
543.644	104.69
543.857	112.69
544.071	107.69
544.285	109.69
544.498	105.69
544.712	111.69
544.925	100.69
545.139	96.69
545.352	103.69
545.566	110.69
545.779	96.69
545.993	97.69
546.206	110.69
546.42	121.69
546.633	119.69
546.847	115.69
547.06	91.69
547.274	116.69
547.487	125.69
547.7	93.69
547.914	98.69
548.127	99.69
548.34	107.69
548.554	106.69
548.767	104.69
548.98	95.69
549.193	89.69
549.407	103.69
549.62	106.69
549.833	101.69
550.046	94.69
550.259	101.69
550.473	101.69
550.686	99.69
550.899	105.69
551.112	106.69
551.325	110.69
551.538	109.69
551.751	106.69
551.964	105.69
552.177	105.69
552.39	89.69
552.603	113.69
552.816	108.69
553.029	108.69
553.242	102.69
553.455	107.69
553.667	95.69
553.88	98.69
554.093	98.69
554.306	106.69
554.519	100.69
554.732	101.69
554.944	97.69
555.157	77.69
555.37	106.69
555.583	112.69
555.795	115.69
556.008	117.69
556.221	145.69
556.433	134.69
556.646	99.69
556.859	104.69
557.071	112.69
557.284	137.69
557.496	113.69
557.709	117.69
557.921	114.69
558.134	88.69
558.346	114.69
558.559	113.69
558.771	107.69
558.984	95.69
559.196	99.69
559.409	104.69
559.621	100.69
559.833	114.69
560.046	90.69
560.258	98.69
560.47	98.69
560.683	103.69
560.895	114.69
561.107	99.69
561.32	90.69
561.532	102.69
561.744	106.69
561.956	107.69
562.168	102.69
562.381	106.69
562.593	116.69
562.805	138.69
563.017	168.69
563.229	258.69
563.441	584.69
563.653	203.69
563.865	108.69
564.077	102.69
564.289	102.69
564.501	113.69
564.713	97.69
564.925	96.69
565.137	102.69
565.349	88.69
565.561	89.69
565.773	92.69
565.985	91.69
566.197	89.69
566.408	99.69
566.62	98.69
566.832	77.69
567.044	90.69
567.255	106.69
567.467	94.69
567.679	100.69
567.891	123.69
568.102	176.69
568.314	256.69
568.526	176.69
568.737	122.69
568.949	98.69
569.161	99.69
569.372	98.69
569.584	92.69
569.795	80.69
570.007	101.69
570.218	138.69
570.43	165.69
570.641	102.69
570.853	101.69
571.064	92.69
571.276	103.69
571.487	87.69
571.698	84.69
571.91	109.69
572.121	113.69
572.333	102.69
572.544	103.69
572.755	152.69
572.966	206.69
573.178	144.69
573.389	110.69
573.6	97.69
573.811	107.69
574.023	98.69
574.234	85.69
574.445	106.69
574.656	88.69
574.867	102.69
575.078	93.69
575.289	89.69
575.501	104.69
575.712	93.69
575.923	93.69
576.134	94.69
576.345	92.69
576.556	86.69
576.767	89.69
576.978	105.69
577.188	93.69
577.399	94.69
577.61	99.69
577.821	96.69
578.032	90.69
578.243	90.69
578.454	113.69
578.665	88.69
578.875	73.69
579.086	76.69
579.297	101.69
579.508	100.69
579.718	100.69
579.929	86.69
580.14	105.69
580.35	92.69
580.561	78.69
580.772	80.69
580.982	71.69
581.193	89.69
581.403	98.69
581.614	98.69
581.825	90.69
582.035	100.69
582.246	99.69
582.456	85.69
582.667	107.69
582.877	117.69
583.087	124.69
583.298	101.69
583.508	91.69
583.719	113.69
583.929	103.69
584.139	82.69
584.35	88.69
584.56	96.69
584.77	91.69
584.981	103.69
585.191	98.69
585.401	93.69
585.611	106.69
585.821	96.69
586.032	91.69
586.242	89.69
586.452	90.69
586.662	82.69
586.872	94.69
587.082	78.69
587.292	99.69
587.502	84.69
587.713	84.69
587.923	83.69
588.133	93.69
588.343	94.69
588.553	92.69
588.762	91.69
588.972	93.69
589.182	116.69
589.392	116.69
589.602	101.69
589.812	111.69
590.022	108.69
590.232	92.69
590.441	90.69
590.651	95.69
590.861	83.69
591.071	100.69
591.281	101.69
591.49	87.69
591.7	97.69
591.91	93.69
592.119	81.69
592.329	86.69
592.539	71.69
592.748	98.69
592.958	109.69
593.167	89.69
593.377	84.69
593.587	104.69
593.796	93.69
594.006	88.69
594.215	79.69
594.424	91.69
594.634	92.69
594.843	93.69
595.053	87.69
595.262	85.69
595.472	81.69
595.681	91.69
595.89	103.69
596.1	87.69
596.309	97.69
596.518	88.69
596.727	86.69
596.937	98.69
597.146	101.69
597.355	100.69
597.564	91.69
597.774	97.69
597.983	100.69
598.192	95.69
598.401	112.69
598.61	99.69
598.819	90.69
599.028	97.69
599.237	105.69
599.446	90.69
599.655	100.69
599.864	102.69
600.073	84.69
600.282	96.69
600.491	87.69
600.7	83.69
600.909	88.69
601.118	91.69
601.327	109.69
601.536	117.69
601.745	103.69
601.953	120.69
602.162	171.69
602.371	116.69
602.58	104.69
602.789	104.69
602.997	96.69
603.206	81.69
603.415	97.69
603.623	91.69
603.832	102.69
604.041	103.69
604.249	104.69
604.458	90.69
604.666	92.69
604.875	91.69
605.084	92.69
605.292	78.69
605.501	110.69
605.709	101.69
605.918	95.69
606.126	102.69
606.334	107.69
606.543	112.69
606.751	142.69
606.96	188.69
607.168	196.69
607.376	125.69
607.585	100.69
607.793	99.69
608.001	90.69
608.21	84.69
608.418	75.69
608.626	92.69
608.834	98.69
609.043	101.69
609.251	96.69
609.459	88.69
609.667	97.69
609.875	100.69
610.083	91.69
610.291	115.69
610.499	94.69
610.707	100.69
610.916	75.69
611.124	82.69
611.332	89.69
611.54	93.69
611.748	99.69
611.955	84.69
612.163	89.69
612.371	98.69
612.579	101.69
612.787	89.69
612.995	77.69
613.203	101.69
613.411	88.69
613.618	81.69
613.826	92.69
614.034	94.69
614.242	94.69
614.449	96.69
614.657	92.69
614.865	105.69
615.072	125.69
615.28	114.69
615.488	100.69
615.695	102.69
615.903	114.69
616.111	90.69
616.318	101.69
616.526	99.69
616.733	89.69
616.941	99.69
617.148	104.69
617.356	107.69
617.563	87.69
617.771	85.69
617.978	89.69
618.185	96.69
618.393	102.69
618.6	91.69
618.807	99.69
619.015	97.69
619.222	88.69
619.429	99.69
619.637	77.69
619.844	88.69
620.051	92.69
620.258	90.69
620.466	98.69
620.673	100.69
620.88	94.69
621.087	106.69
621.294	86.69
621.501	89.69
621.708	90.69
621.915	88.69
622.122	85.69
622.329	86.69
622.536	96.69
622.743	87.69
622.95	103.69
623.157	91.69
623.364	74.69
623.571	97.69
623.778	102.69
623.985	89.69
624.192	87.69
624.399	92.69
624.606	92.69
624.812	88.69
625.019	102.69
625.226	81.69
625.433	91.69
625.639	89.69
625.846	114.69
626.053	90.69
626.259	94.69
626.466	97.69
626.673	65.69
626.879	90.69
627.086	105.69
627.293	85.69
627.499	86.69
627.706	75.69
627.912	101.69
628.119	91.69
628.325	88.69
628.532	90.69
628.738	91.69
628.945	84.69
629.151	85.69
629.357	83.69
629.564	76.69
629.77	100.69
629.976	90.69
630.183	92.69
630.389	83.69
630.595	86.69
630.802	78.69
631.008	97.69
631.214	87.69
631.42	86.69
631.627	96.69
631.833	93.69
632.039	92.69
632.245	87.69
632.451	83.69
632.657	82.69
632.863	86.69
633.069	88.69
633.275	89.69
633.481	100.69
633.688	97.69
633.893	83.69
634.099	82.69
634.305	93.69
634.511	88.69
634.717	100.69
634.923	91.69
635.129	132.69
635.335	130.69
635.541	104.69
635.747	100.69
635.952	87.69
636.158	96.69
636.364	93.69
636.57	81.69
636.775	102.69
636.981	88.69
637.187	78.69
637.392	92.69
637.598	91.69
637.804	88.69
638.009	87.69
638.215	84.69
638.421	79.69
638.626	95.69
638.832	98.69
639.037	90.69
639.243	81.69
639.448	91.69
639.654	64.69
639.859	96.69
640.065	93.69
640.27	92.69
640.475	104.69
640.681	91.69
640.886	99.69
641.091	98.69
641.297	104.69
641.502	89.69
641.707	89.69
641.913	91.69
642.118	81.69
642.323	92.69
642.528	94.69
642.733	93.69
642.939	96.69
643.144	93.69
643.349	83.69
643.554	97.69
643.759	91.69
643.964	90.69
644.169	88.69
644.374	88.69
644.579	86.69
644.784	96.69
644.989	81.69
645.194	86.69
645.399	89.69
645.604	104.69
645.809	90.69
646.014	86.69
646.219	74.69
646.423	90.69
646.628	92.69
646.833	88.69
647.038	82.69
647.243	85.69
647.447	92.69
647.652	83.69
647.857	82.69
648.062	86.69
648.266	81.69
648.471	89.69
648.676	96.69
648.88	81.69
649.085	90.69
649.289	105.69
649.494	93.69
649.698	89.69
649.903	92.69
650.107	81.69
650.312	96.69
650.516	72.69
650.721	93.69
650.925	86.69
651.13	84.69
651.334	81.69
651.539	81.69
651.743	75.69
651.947	87.69
652.152	93.69
652.356	85.69
652.56	99.69
652.764	104.69
652.969	87.69
653.173	95.69
653.377	85.69
653.581	103.69
653.785	101.69
653.99	89.69
654.194	101.69
654.398	92.69
654.602	84.69
654.806	77.69
655.01	86.69
655.214	90.69
655.418	91.69
655.622	81.69
655.826	79.69
656.03	82.69
656.234	85.69
656.438	87.69
656.642	93.69
656.846	89.69
657.049	82.69
657.253	91.69
657.457	85.69
657.661	80.69
657.865	82.69
658.068	74.69
658.272	81.69
658.476	84.69
658.68	97.69
658.883	94.69
659.087	91.69
659.291	81.69
659.494	85.69
659.698	80.69
659.901	74.69
660.105	87.69
660.309	100.69
660.512	88.69
660.716	89.69
660.919	84.69
661.123	88.69
661.326	78.69
661.53	69.69
661.733	88.69
661.936	90.69
662.14	92.69
662.343	74.69
662.546	78.69
662.75	77.69
662.953	104.69
663.156	70.69
663.36	89.69
663.563	96.69
663.766	93.69
663.969	79.69
664.173	94.69
664.376	78.69
664.579	91.69
664.782	75.69
664.985	64.69
665.188	68.69
665.391	80.69
665.594	73.69
665.797	88.69
666	70.69
666.203	85.69
666.406	94.69
666.609	87.69
666.812	73.69
667.015	86.69
667.218	90.69
667.421	84.69
667.624	83.69
667.827	77.69
668.03	75.69
668.232	88.69
668.435	86.69
668.638	77.69
668.841	90.69
669.043	85.69
669.246	92.69
669.449	94.69
669.651	84.69
669.854	85.69
670.057	70.69
670.259	85.69
670.462	82.69
670.665	82.69
670.867	76.69
671.07	87.69
671.272	78.69
671.475	90.69
671.677	81.69
671.88	84.69
672.082	91.69
672.284	84.69
672.487	85.69
672.689	77.69
672.892	90.69
