Data from SnStandardFlinnAPT0064_LampEnergy5.5_LIBS07252019.E.O._I.C._HRD10591_15-16-17-491.txt Node
Date: Thu Jul 25 15:16:17 EDT 2019
User: cochatt
Spectrometer: HR+D1059
Trigger mode: 1
Integration Time (sec): 1.000000E-1
Scans to average: 1
Electric dark correction enabled: true
Nonlinearity correction enabled: false
Boxcar width: 0
XAxis mode: Wavelengths
Number of Pixels in Spectrum: 2048
>>>>>Begin Spectral Data<<<<<
223.165	-9.19
223.4	-9.19
223.635	-9.19
223.869	-32.19
224.104	-16.19
224.338	-12.19
224.573	-15.19
224.808	-25.19
225.042	-8.19
225.277	-3.19
225.511	4.81
225.746	-2.19
225.98	0.81
226.215	-1.19
226.449	25.81
226.683	32.81
226.918	25.81
227.152	34.81
227.387	24.81
227.621	24.81
227.856	29.81
228.09	24.81
228.324	38.81
228.559	55.81
228.793	78.81
229.027	147.81
229.262	160.81
229.496	149.81
229.73	160.81
229.964	151.81
230.199	160.81
230.433	147.81
230.667	153.81
230.901	156.81
231.136	164.81
231.37	177.81
231.604	191.81
231.838	209.81
232.072	249.81
232.306	245.81
232.541	214.81
232.775	198.81
233.009	195.81
233.243	197.81
233.477	227.81
233.711	223.81
233.945	248.81
234.179	228.81
234.413	230.81
234.647	204.81
234.881	241.81
235.115	229.81
235.349	257.81
235.583	342.81
235.817	422.81
236.051	408.81
236.285	303.81
236.519	240.81
236.753	225.81
236.987	234.81
237.221	228.81
237.455	228.81
237.689	220.81
237.922	217.81
238.156	207.81
238.39	234.81
238.624	218.81
238.858	218.81
239.091	222.81
239.325	229.81
239.559	220.81
239.793	237.81
240.027	244.81
240.26	247.81
240.494	252.81
240.728	261.81
240.961	277.81
241.195	282.81
241.429	287.81
241.662	297.81
241.896	339.81
242.13	403.81
242.363	513.81
242.597	659.81
242.83	603.81
243.064	633.81
243.298	697.81
243.531	581.81
243.765	403.81
243.998	323.81
244.232	307.81
244.465	291.81
244.699	301.81
244.932	277.81
245.166	299.81
245.399	303.81
245.633	306.81
245.866	316.81
246.099	285.81
246.333	292.81
246.566	298.81
246.8	276.81
247.033	286.81
247.266	282.81
247.5	294.81
247.733	315.81
247.966	312.81
248.2	311.81
248.433	362.81
248.666	416.81
248.899	385.81
249.133	355.81
249.366	346.81
249.599	405.81
249.832	425.81
250.066	429.81
250.299	352.81
250.532	364.81
250.765	310.81
250.998	317.81
251.231	336.81
251.465	342.81
251.698	334.81
251.931	355.81
252.164	333.81
252.397	339.81
252.63	342.81
252.863	350.81
253.096	343.81
253.329	349.81
253.562	327.81
253.795	348.81
254.028	358.81
254.261	365.81
254.494	387.81
254.727	437.81
254.96	489.81
255.193	502.81
255.426	406.81
255.659	372.81
255.892	372.81
256.124	371.81
256.357	376.81
256.59	407.81
256.823	427.81
257.056	434.81
257.289	531.81
257.521	594.81
257.754	488.81
257.987	412.81
258.22	392.81
258.452	395.81
258.685	417.81
258.918	413.81
259.151	433.81
259.383	471.81
259.616	479.81
259.849	533.81
260.081	447.81
260.314	449.81
260.547	418.81
260.779	424.81
261.012	435.81
261.244	432.81
261.477	431.81
261.71	445.81
261.942	449.81
262.175	455.81
262.407	461.81
262.64	472.81
262.872	465.81
263.105	507.81
263.337	509.81
263.57	566.81
263.802	558.81
264.035	551.81
264.267	574.81
264.499	615.81
264.732	621.81
264.964	647.81
265.197	644.81
265.429	625.81
265.661	663.81
265.894	680.81
266.126	731.81
266.358	806.81
266.591	789.81
266.823	713.81
267.055	613.81
267.287	625.81
267.52	589.81
267.752	567.81
267.984	569.81
268.216	557.81
268.448	559.81
268.681	553.81
268.913	553.81
269.145	556.81
269.377	543.81
269.609	547.81
269.841	563.81
270.073	595.81
270.306	672.81
270.538	888.81
270.77	1245.81
271.002	1517.81
271.234	1088.81
271.466	744.81
271.698	637.81
271.93	568.81
272.162	577.81
272.394	575.81
272.626	536.81
272.858	545.81
273.09	527.81
273.322	514.81
273.553	527.81
273.785	521.81
274.017	520.81
274.249	532.81
274.481	520.81
274.713	501.81
274.945	542.81
275.176	534.81
275.408	535.81
275.64	528.81
275.872	515.81
276.104	526.81
276.335	539.81
276.567	567.81
276.799	555.81
277.031	550.81
277.262	547.81
277.494	576.81
277.726	661.81
277.957	711.81
278.189	775.81
278.421	761.81
278.652	697.81
278.884	666.81
279.115	621.81
279.347	580.81
279.579	594.81
279.81	605.81
280.042	587.81
280.273	598.81
280.505	625.81
280.736	612.81
280.968	663.81
281.199	714.81
281.431	769.81
281.662	788.81
281.894	736.81
282.125	696.81
282.356	684.81
282.588	702.81
282.819	697.81
283.051	752.81
283.282	805.81
283.513	982.81
283.745	1447.81
283.976	2201.81
284.207	3120.81
284.439	2753.81
284.67	1695.81
284.901	1396.81
285.132	1363.81
285.364	1271.81
285.595	1032.81
285.826	933.81
286.057	1122.81
286.288	1520.81
286.52	1994.81
286.751	1867.81
286.982	1136.81
287.213	877.81
287.444	785.81
287.675	728.81
287.906	732.81
288.138	700.81
288.369	713.81
288.6	718.81
288.831	696.81
289.062	702.81
289.293	708.81
289.524	699.81
289.755	724.81
289.986	726.81
290.217	721.81
290.448	711.81
290.679	702.81
290.91	723.81
291.141	776.81
291.371	765.81
291.602	799.81
291.833	763.81
292.064	712.81
292.295	703.81
292.526	700.81
292.757	671.81
292.987	677.81
293.218	667.81
293.449	662.81
293.68	669.81
293.91	667.81
294.141	630.81
294.372	663.81
294.603	670.81
294.833	670.81
295.064	679.81
295.295	650.81
295.525	661.81
295.756	644.81
295.987	663.81
296.217	670.81
296.448	672.81
296.679	692.81
296.909	670.81
297.14	683.81
297.37	699.81
297.601	673.81
297.831	667.81
298.062	694.81
298.292	705.81
298.523	706.81
298.753	717.81
298.984	711.81
299.214	708.81
299.445	717.81
299.675	728.81
299.905	736.81
300.136	786.81
300.366	884.81
300.597	1122.81
300.827	1456.81
301.057	1951.81
301.288	1975.81
301.518	1261.81
301.748	1009.81
301.979	943.81
302.209	892.81
302.439	907.81
302.669	963.81
302.9	1132.81
303.13	1577.81
303.36	2265.81
303.59	3036.81
303.82	2607.81
304.051	1561.81
304.281	1165.81
304.511	983.81
304.741	929.81
304.971	860.81
305.201	845.81
305.431	828.81
305.661	791.81
305.891	789.81
306.121	764.81
306.352	765.81
306.582	748.81
306.812	737.81
307.042	795.81
307.272	765.81
307.502	741.81
307.731	776.81
307.961	771.81
308.191	769.81
308.421	753.81
308.651	745.81
308.881	766.81
309.111	758.81
309.341	754.81
309.571	749.81
309.8	777.81
310.03	791.81
310.26	770.81
310.49	798.81
310.72	799.81
310.949	802.81
311.179	781.81
311.409	790.81
311.639	809.81
311.868	797.81
312.098	808.81
312.328	820.81
312.557	847.81
312.787	847.81
313.017	833.81
313.246	808.81
313.476	827.81
313.706	869.81
313.935	912.81
314.165	968.81
314.394	965.81
314.624	945.81
314.853	877.81
315.083	926.81
315.312	909.81
315.542	891.81
315.771	916.81
316.001	889.81
316.23	915.81
316.46	996.81
316.689	1070.81
316.919	1279.81
317.148	1803.81
317.377	2748.81
317.607	4079.81
317.836	4153.81
318.065	2452.81
318.295	1590.81
318.524	1328.81
318.753	1147.81
318.983	1060.81
319.212	1030.81
319.441	1010.81
319.67	983.81
319.9	967.81
320.129	982.81
320.358	979.81
320.587	948.81
320.816	987.81
321.046	993.81
321.275	995.81
321.504	991.81
321.733	988.81
321.962	1000.81
322.191	1018.81
322.42	1037.81
322.649	1004.81
322.878	1019.81
323.108	1016.81
323.337	1027.81
323.566	1023.81
323.795	1052.81
324.024	1080.81
324.253	1112.81
324.482	1115.81
324.71	1179.81
324.939	1247.81
325.168	1295.81
325.397	1344.81
325.626	1551.81
325.855	2137.81
326.084	3382.81
326.313	4939.81
326.542	5243.81
326.77	3317.81
326.999	2204.81
327.228	1841.81
327.457	1810.81
327.686	1762.81
327.914	1935.81
328.143	2139.81
328.372	2539.81
328.6	2722.81
328.829	2498.81
329.058	2155.81
329.287	1984.81
329.515	1786.81
329.744	1674.81
329.972	1604.81
330.201	1536.81
330.43	1480.81
330.658	1420.81
330.887	1422.81
331.115	1411.81
331.344	1407.81
331.572	1389.81
331.801	1404.81
332.03	1371.81
332.258	1425.81
332.486	1499.81
332.715	1671.81
332.943	2012.81
333.172	2433.81
333.4	2412.81
333.629	1883.81
333.857	1749.81
334.085	1779.81
334.314	1819.81
334.542	1991.81
334.771	2287.81
334.999	2726.81
335.227	3315.81
335.455	3719.81
335.684	3422.81
335.912	2929.81
336.14	2459.81
336.369	2237.81
336.597	2069.81
336.825	1933.81
337.053	1809.81
337.281	1687.81
337.51	1619.81
337.738	1552.81
337.966	1501.81
338.194	1429.81
338.422	1406.81
338.65	1373.81
338.878	1348.81
339.106	1355.81
339.334	1299.81
339.562	1288.81
339.79	1247.81
340.018	1243.81
340.246	1225.81
340.474	1252.81
340.702	1206.81
340.93	1229.81
341.158	1239.81
341.386	1214.81
341.614	1244.81
341.842	1204.81
342.07	1199.81
342.298	1175.81
342.526	1155.81
342.754	1160.81
342.981	1148.81
343.209	1148.81
343.437	1155.81
343.665	1166.81
343.893	1156.81
344.12	1191.81
344.348	1184.81
344.576	1145.81
344.804	1104.81
345.031	1105.81
345.259	1097.81
345.487	1090.81
345.714	1077.81
345.942	1045.81
346.17	1069.81
346.397	1067.81
346.625	1083.81
346.853	1054.81
347.08	1044.81
347.308	1044.81
347.535	1034.81
347.763	1031.81
347.99	1049.81
348.218	1031.81
348.445	1030.81
348.673	1023.81
348.9	1028.81
349.128	1057.81
349.355	1046.81
349.583	1060.81
349.81	1035.81
350.037	1014.81
350.265	1031.81
350.492	1023.81
350.72	996.81
350.947	987.81
351.174	991.81
351.402	1006.81
351.629	1021.81
351.856	1010.81
352.083	1010.81
352.311	1004.81
352.538	972.81
352.765	992.81
352.992	1020.81
353.22	1023.81
353.447	1005.81
353.674	1020.81
353.901	994.81
354.128	1000.81
354.355	992.81
354.583	1028.81
354.81	1021.81
355.037	1037.81
355.264	1017.81
355.491	1052.81
355.718	1053.81
355.945	1026.81
356.172	1014.81
356.399	1039.81
356.626	996.81
356.853	1033.81
357.08	1051.81
357.307	1055.81
357.534	1064.81
357.761	1096.81
357.988	1084.81
358.215	1068.81
358.441	1067.81
358.668	1074.81
358.895	1069.81
359.122	1056.81
359.349	1053.81
359.576	1072.81
359.802	1047.81
360.029	1072.81
360.256	1093.81
360.483	1095.81
360.709	1078.81
360.936	1051.81
361.163	1065.81
361.39	1068.81
361.616	1103.81
361.843	1097.81
362.07	1102.81
362.296	1063.81
362.523	1042.81
362.749	1104.81
362.976	1103.81
363.203	1077.81
363.429	1059.81
363.656	1044.81
363.882	1093.81
364.109	1064.81
364.335	1074.81
364.562	1091.81
364.788	1071.81
365.015	1065.81
365.241	1089.81
365.468	1159.81
365.694	1166.81
365.92	1161.81
366.147	1109.81
366.373	1079.81
366.599	1092.81
366.826	1085.81
367.052	1123.81
367.278	1118.81
367.505	1064.81
367.731	1106.81
367.957	1087.81
368.184	1129.81
368.41	1101.81
368.636	1095.81
368.862	1110.81
369.089	1109.81
369.315	1123.81
369.541	1144.81
369.767	1101.81
369.993	1111.81
370.219	1109.81
370.445	1126.81
370.672	1125.81
370.898	1133.81
371.124	1109.81
371.35	1153.81
371.576	1127.81
371.802	1165.81
372.028	1164.81
372.254	1162.81
372.48	1168.81
372.706	1204.81
372.932	1171.81
373.158	1171.81
373.384	1195.81
373.61	1206.81
373.835	1167.81
374.061	1157.81
374.287	1183.81
374.513	1167.81
374.739	1224.81
374.965	1204.81
375.191	1245.81
375.416	1223.81
375.642	1204.81
375.868	1206.81
376.094	1187.81
376.319	1171.81
376.545	1185.81
376.771	1171.81
376.997	1169.81
377.222	1138.81
377.448	1160.81
377.674	1153.81
377.899	1180.81
378.125	1148.81
378.35	1175.81
378.576	1144.81
378.802	1159.81
379.027	1195.81
379.253	1220.81
379.478	1269.81
379.704	1437.81
379.929	2005.81
380.155	2925.81
380.38	3122.81
380.606	2001.81
380.831	1449.81
381.057	1288.81
381.282	1214.81
381.507	1191.81
381.733	1183.81
381.958	1177.81
382.184	1147.81
382.409	1154.81
382.634	1180.81
382.86	1149.81
383.085	1135.81
383.31	1146.81
383.535	1175.81
383.761	1153.81
383.986	1160.81
384.211	1154.81
384.436	1174.81
384.662	1160.81
384.887	1186.81
385.112	1173.81
385.337	1147.81
385.562	1196.81
385.787	1205.81
386.013	1199.81
386.238	1217.81
386.463	1217.81
386.688	1172.81
386.913	1197.81
387.138	1198.81
387.363	1186.81
387.588	1165.81
387.813	1161.81
388.038	1171.81
388.263	1173.81
388.488	1158.81
388.713	1204.81
388.938	1180.81
389.163	1153.81
389.387	1175.81
389.612	1154.81
389.837	1206.81
390.062	1169.81
390.287	1167.81
390.512	1190.81
390.736	1228.81
390.961	1221.81
391.186	1232.81
391.411	1222.81
391.636	1198.81
391.86	1250.81
392.085	1262.81
392.31	1217.81
392.534	1238.81
392.759	1187.81
392.984	1205.81
393.208	1244.81
393.433	1260.81
393.658	1260.81
393.882	1220.81
394.107	1208.81
394.331	1198.81
394.556	1200.81
394.78	1220.81
395.005	1232.81
395.229	1215.81
395.454	1255.81
395.678	1233.81
395.903	1236.81
396.127	1254.81
396.352	1220.81
396.576	1212.81
396.801	1251.81
397.025	1260.81
397.249	1237.81
397.474	1225.81
397.698	1219.81
397.922	1282.81
398.147	1271.81
398.371	1261.81
398.595	1300.81
398.82	1359.81
399.044	1366.81
399.268	1421.81
399.492	1487.81
399.717	1587.81
399.941	1595.81
400.165	1525.81
400.389	1455.81
400.613	1426.81
400.837	1360.81
401.062	1351.81
401.286	1332.81
401.51	1316.81
401.734	1303.81
401.958	1363.81
402.182	1346.81
402.406	1329.81
402.63	1285.81
402.854	1341.81
403.078	1345.81
403.302	1333.81
403.526	1336.81
403.75	1343.81
403.974	1388.81
404.198	1348.81
404.422	1359.81
404.645	1355.81
404.869	1326.81
405.093	1374.81
405.317	1339.81
405.541	1403.81
405.765	1398.81
405.988	1378.81
406.212	1407.81
406.436	1391.81
406.66	1437.81
406.883	1427.81
407.107	1447.81
407.331	1480.81
407.555	1483.81
407.778	1481.81
408.002	1457.81
408.226	1439.81
408.449	1443.81
408.673	1399.81
408.896	1403.81
409.12	1403.81
409.344	1381.81
409.567	1319.81
409.791	1372.81
410.014	1339.81
410.238	1369.81
410.461	1359.81
410.685	1366.81
410.908	1319.81
411.132	1333.81
411.355	1295.81
411.578	1339.81
411.802	1295.81
412.025	1309.81
412.249	1301.81
412.472	1317.81
412.695	1296.81
412.919	1295.81
413.142	1293.81
413.365	1275.81
413.589	1304.81
413.812	1286.81
414.035	1256.81
414.258	1268.81
414.482	1259.81
414.705	1304.81
414.928	1312.81
415.151	1269.81
415.374	1294.81
415.597	1275.81
415.821	1241.81
416.044	1227.81
416.267	1232.81
416.49	1238.81
416.713	1262.81
416.936	1249.81
417.159	1255.81
417.382	1206.81
417.605	1253.81
417.828	1243.81
418.051	1232.81
418.274	1261.81
418.497	1246.81
418.72	1261.81
418.943	1259.81
419.166	1310.81
419.389	1382.81
419.611	1379.81
419.834	1333.81
420.057	1323.81
420.28	1272.81
420.503	1226.81
420.726	1252.81
420.948	1248.81
421.171	1247.81
421.394	1278.81
421.617	1270.81
421.839	1239.81
422.062	1255.81
422.285	1207.81
422.507	1269.81
422.73	1265.81
422.953	1274.81
423.175	1253.81
423.398	1271.81
423.621	1229.81
423.843	1247.81
424.066	1232.81
424.288	1269.81
424.511	1276.81
424.733	1234.81
424.956	1245.81
425.178	1231.81
425.401	1231.81
425.623	1230.81
425.846	1213.81
426.068	1223.81
426.291	1172.81
426.513	1219.81
426.735	1196.81
426.958	1169.81
427.18	1168.81
427.402	1195.81
427.625	1164.81
427.847	1170.81
428.069	1138.81
428.292	1164.81
428.514	1159.81
428.736	1143.81
428.958	1164.81
429.181	1101.81
429.403	1147.81
429.625	1140.81
429.847	1131.81
430.069	1144.81
430.292	1193.81
430.514	1203.81
430.736	1251.81
430.958	1176.81
431.18	1164.81
431.402	1149.81
431.624	1176.81
431.846	1113.81
432.068	1143.81
432.29	1129.81
432.512	1124.81
432.734	1150.81
432.956	1166.81
433.178	1185.81
433.4	1150.81
433.622	1144.81
433.844	1141.81
434.066	1145.81
434.287	1135.81
434.509	1156.81
434.731	1155.81
434.953	1156.81
435.175	1182.81
435.397	1181.81
435.618	1168.81
435.84	1132.81
436.062	1146.81
436.284	1135.81
436.505	1140.81
436.727	1151.81
436.949	1142.81
437.17	1116.81
437.392	1120.81
437.614	1139.81
437.835	1089.81
438.057	1101.81
438.278	1087.81
438.5	1115.81
438.721	1109.81
438.943	1157.81
439.165	1217.81
439.386	1155.81
439.608	1199.81
439.829	1204.81
440.05	1199.81
440.272	1233.81
440.493	1168.81
440.715	1179.81
440.936	1211.81
441.158	1223.81
441.379	1202.81
441.6	1247.81
441.822	1253.81
442.043	1325.81
442.264	1350.81
442.486	1279.81
442.707	1245.81
442.928	1221.81
443.149	1218.81
443.371	1240.81
443.592	1252.81
443.813	1235.81
444.034	1247.81
444.255	1256.81
444.476	1316.81
444.698	1312.81
444.919	1341.81
445.14	1399.81
445.361	1317.81
445.582	1271.81
445.803	1238.81
446.024	1222.81
446.245	1210.81
446.466	1244.81
446.687	1217.81
446.908	1206.81
447.129	1154.81
447.35	1183.81
447.571	1149.81
447.792	1128.81
448.013	1123.81
448.234	1103.81
448.455	1117.81
448.675	1128.81
448.896	1155.81
449.117	1155.81
449.338	1311.81
449.559	1303.81
449.779	1203.81
450	1148.81
450.221	1095.81
450.442	1103.81
450.662	1113.81
450.883	1079.81
451.104	1108.81
451.324	1078.81
451.545	1107.81
451.766	1094.81
451.986	1107.81
452.207	1176.81
452.428	1400.81
452.648	1962.81
452.869	1717.81
453.089	1275.81
453.31	1203.81
453.53	1207.81
453.751	1209.81
453.971	1320.81
454.192	1266.81
454.412	1177.81
454.633	1080.81
454.853	1063.81
455.073	1051.81
455.294	1059.81
455.514	1064.81
455.734	1053.81
455.955	1041.81
456.175	1056.81
456.395	1054.81
456.616	1061.81
456.836	1057.81
457.056	1067.81
457.276	1080.81
457.497	1121.81
457.717	1118.81
457.937	1060.81
458.157	1111.81
458.377	1101.81
458.598	1127.81
458.818	1127.81
459.038	1136.81
459.258	1083.81
459.478	1157.81
459.698	1139.81
459.918	1145.81
460.138	1200.81
460.358	1245.81
460.578	1225.81
460.798	1254.81
461.018	1219.81
461.238	1274.81
461.458	1233.81
461.678	1281.81
461.898	1281.81
462.118	1277.81
462.338	1300.81
462.558	1302.81
462.777	1340.81
462.997	1413.81
463.217	1418.81
463.437	1481.81
463.657	1481.81
463.876	1460.81
464.096	1393.81
464.316	1332.81
464.536	1381.81
464.755	1352.81
464.975	1265.81
465.195	1232.81
465.414	1246.81
465.634	1175.81
465.854	1193.81
466.073	1166.81
466.293	1156.81
466.512	1155.81
466.732	1184.81
466.951	1189.81
467.171	1289.81
467.391	1244.81
467.61	1178.81
467.829	1143.81
468.049	1117.81
468.268	1129.81
468.488	1138.81
468.707	1112.81
468.927	1134.81
469.146	1112.81
469.365	1142.81
469.585	1143.81
469.804	1151.81
470.023	1177.81
470.243	1192.81
470.462	1227.81
470.681	1297.81
470.901	1395.81
471.12	1563.81
471.339	1579.81
471.558	1333.81
471.777	1261.81
471.997	1193.81
472.216	1146.81
472.435	1147.81
472.654	1124.81
472.873	1093.81
473.092	1118.81
473.311	1107.81
473.53	1121.81
473.749	1172.81
473.968	1173.81
474.187	1138.81
474.406	1126.81
474.625	1103.81
474.844	1155.81
475.063	1135.81
475.282	1155.81
475.501	1126.81
475.72	1156.81
475.939	1142.81
476.158	1179.81
476.377	1182.81
476.596	1176.81
476.814	1189.81
477.033	1179.81
477.252	1199.81
477.471	1240.81
477.69	1219.81
477.908	1270.81
478.127	1296.81
478.346	1295.81
478.564	1311.81
478.783	1285.81
479.002	1330.81
479.22	1325.81
479.439	1347.81
479.658	1325.81
479.876	1317.81
480.095	1332.81
480.313	1400.81
480.532	1388.81
480.751	1371.81
480.969	1327.81
481.188	1326.81
481.406	1347.81
481.624	1289.81
481.843	1345.81
482.061	1305.81
482.28	1299.81
482.498	1325.81
482.717	1315.81
482.935	1349.81
483.153	1364.81
483.372	1385.81
483.59	1404.81
483.808	1415.81
484.027	1476.81
484.245	1508.81
484.463	1668.81
484.681	1839.81
484.9	1685.81
485.118	1602.81
485.336	1520.81
485.554	1573.81
485.772	1647.81
485.99	1875.81
486.209	2054.81
486.427	1745.81
486.645	1530.81
486.863	1490.81
487.081	1467.81
487.299	1437.81
487.517	1455.81
487.735	1480.81
487.953	1490.81
488.171	1461.81
488.389	1470.81
488.607	1424.81
488.825	1437.81
489.043	1387.81
489.261	1364.81
489.479	1380.81
489.696	1379.81
489.914	1357.81
490.132	1405.81
490.35	1435.81
490.568	1445.81
490.786	1500.81
491.003	1461.81
491.221	1487.81
491.439	1487.81
491.657	1491.81
491.874	1508.81
492.092	1524.81
492.31	1520.81
492.527	1565.81
492.745	1504.81
492.963	1501.81
493.18	1465.81
493.398	1512.81
493.615	1506.81
493.833	1473.81
494.05	1483.81
494.268	1504.81
494.485	1488.81
494.703	1464.81
494.92	1472.81
495.138	1497.81
495.355	1502.81
495.573	1524.81
495.79	1496.81
496.008	1515.81
496.225	1529.81
496.442	1519.81
496.66	1580.81
496.877	1661.81
497.094	1600.81
497.312	1557.81
497.529	1542.81
497.746	1604.81
497.963	1627.81
498.181	1653.81
498.398	1718.81
498.615	1726.81
498.832	1756.81
499.049	1896.81
499.267	2018.81
499.484	2138.81
499.701	2124.81
499.918	2236.81
500.135	2389.81
500.352	2483.81
500.569	2545.81
500.786	2517.81
501.003	2417.81
501.22	2291.81
501.437	2141.81
501.654	2043.81
501.871	1946.81
502.088	1889.81
502.305	1807.81
502.522	1744.81
502.739	1737.81
502.956	1677.81
503.172	1653.81
503.389	1598.81
503.606	1539.81
503.823	1528.81
504.04	1526.81
504.256	1529.81
504.473	1528.81
504.69	1539.81
504.907	1508.81
505.123	1487.81
505.34	1448.81
505.557	1419.81
505.773	1400.81
505.99	1382.81
506.207	1355.81
506.423	1322.81
506.64	1349.81
506.856	1312.81
507.073	1297.81
507.289	1324.81
507.506	1321.81
507.722	1302.81
507.939	1293.81
508.155	1277.81
508.372	1279.81
508.588	1267.81
508.805	1282.81
509.021	1290.81
509.238	1294.81
509.454	1328.81
509.67	1413.81
509.887	1321.81
510.103	1287.81
510.319	1263.81
510.536	1251.81
510.752	1241.81
510.968	1255.81
511.184	1212.81
511.401	1204.81
511.617	1205.81
511.833	1199.81
512.049	1199.81
512.265	1201.81
512.481	1216.81
512.698	1214.81
512.914	1213.81
513.13	1178.81
513.346	1199.81
513.562	1203.81
513.778	1208.81
513.994	1237.81
514.21	1247.81
514.426	1286.81
514.642	1338.81
514.858	1261.81
515.074	1243.81
515.29	1235.81
515.506	1238.81
515.721	1251.81
515.937	1231.81
516.153	1257.81
516.369	1252.81
516.585	1289.81
516.801	1288.81
517.016	1294.81
517.232	1379.81
517.448	1396.81
517.664	1363.81
517.879	1369.81
518.095	1359.81
518.311	1364.81
518.527	1343.81
518.742	1318.81
518.958	1322.81
519.173	1370.81
519.389	1324.81
519.605	1295.81
519.82	1260.81
520.036	1280.81
520.251	1240.81
520.467	1225.81
520.682	1237.81
520.898	1187.81
521.113	1222.81
521.329	1184.81
521.544	1172.81
521.76	1196.81
521.975	1197.81
522.19	1189.81
522.406	1171.81
522.621	1162.81
522.836	1150.81
523.052	1168.81
523.267	1181.81
523.482	1163.81
523.698	1177.81
523.913	1148.81
524.128	1181.81
524.343	1179.81
524.559	1174.81
524.774	1177.81
524.989	1193.81
525.204	1194.81
525.419	1167.81
525.634	1169.81
525.849	1146.81
526.064	1149.81
526.28	1175.81
526.495	1171.81
526.71	1139.81
526.925	1154.81
527.14	1162.81
527.355	1179.81
527.57	1168.81
527.785	1179.81
527.999	1159.81
528.214	1202.81
528.429	1176.81
528.644	1208.81
528.859	1259.81
529.074	1232.81
529.289	1259.81
529.503	1240.81
529.718	1267.81
529.933	1211.81
530.148	1207.81
530.363	1204.81
530.577	1192.81
530.792	1240.81
531.007	1240.81
531.221	1238.81
531.436	1217.81
531.651	1275.81
531.865	1275.81
532.08	1306.81
532.295	1333.81
532.509	1362.81
532.724	1368.81
532.938	1378.81
533.153	1443.81
533.367	1511.81
533.582	1570.81
533.796	1559.81
534.011	1503.81
534.225	1454.81
534.44	1401.81
534.654	1413.81
534.868	1376.81
535.083	1379.81
535.297	1353.81
535.511	1341.81
535.726	1342.81
535.94	1275.81
536.154	1256.81
536.369	1247.81
536.583	1234.81
536.797	1205.81
537.011	1161.81
537.225	1166.81
537.44	1183.81
537.654	1159.81
537.868	1172.81
538.082	1197.81
538.296	1171.81
538.51	1165.81
538.724	1149.81
538.938	1157.81
539.153	1151.81
539.367	1152.81
539.581	1126.81
539.795	1101.81
540.009	1093.81
540.222	1093.81
540.436	1137.81
540.65	1139.81
540.864	1147.81
541.078	1182.81
541.292	1252.81
541.506	1439.81
541.72	1495.81
541.934	1346.81
542.147	1283.81
542.361	1216.81
542.575	1146.81
542.789	1142.81
543.002	1095.81
543.216	1122.81
543.43	1096.81
543.644	1077.81
543.857	1099.81
544.071	1152.81
544.285	1129.81
544.498	1142.81
544.712	1129.81
544.925	1108.81
545.139	1137.81
545.352	1115.81
545.566	1105.81
545.779	1127.81
545.993	1158.81
546.206	1160.81
546.42	1151.81
546.633	1162.81
546.847	1121.81
547.06	1117.81
547.274	1114.81
547.487	1143.81
547.7	1140.81
547.914	1139.81
548.127	1121.81
548.34	1137.81
548.554	1136.81
548.767	1139.81
548.98	1165.81
549.193	1165.81
549.407	1148.81
549.62	1148.81
549.833	1135.81
550.046	1118.81
550.259	1129.81
550.473	1119.81
550.686	1148.81
550.899	1161.81
551.112	1144.81
551.325	1118.81
551.538	1139.81
551.751	1087.81
551.964	1123.81
552.177	1133.81
552.39	1158.81
552.603	1189.81
552.816	1203.81
553.029	1199.81
553.242	1249.81
553.455	1259.81
553.667	1254.81
553.88	1261.81
554.093	1277.81
554.306	1266.81
554.519	1277.81
554.732	1300.81
554.944	1301.81
555.157	1314.81
555.37	1316.81
555.583	1373.81
555.795	1418.81
556.008	1476.81
556.221	1610.81
556.433	1699.81
556.646	1679.81
556.859	1678.81
557.071	1592.81
557.284	1598.81
557.496	1551.81
557.709	1547.81
557.921	1522.81
558.134	1532.81
558.346	1536.81
558.559	1574.81
558.771	1659.81
558.984	1768.81
559.196	1871.81
559.409	1781.81
559.621	1657.81
559.833	1566.81
560.046	1501.81
560.258	1443.81
560.47	1375.81
560.683	1397.81
560.895	1347.81
561.107	1299.81
561.32	1275.81
561.532	1212.81
561.744	1227.81
561.956	1195.81
562.168	1150.81
562.381	1154.81
562.593	1147.81
562.805	1145.81
563.017	1159.81
563.229	1174.81
563.441	1280.81
563.653	1135.81
563.865	1080.81
564.077	1005.81
564.289	1027.81
564.501	1043.81
564.713	1034.81
564.925	1085.81
565.137	1048.81
565.349	1018.81
565.561	1080.81
565.773	1034.81
565.985	1079.81
566.197	1059.81
566.408	1101.81
566.62	1126.81
566.832	1176.81
567.044	1169.81
567.255	1141.81
567.467	1161.81
567.679	1199.81
567.891	1223.81
568.102	1356.81
568.314	1609.81
568.526	1349.81
568.737	1184.81
568.949	1099.81
569.161	1009.81
569.372	1004.81
569.584	963.81
569.795	939.81
570.007	942.81
570.218	954.81
570.43	964.81
570.641	914.81
570.853	872.81
571.064	864.81
571.276	862.81
571.487	859.81
571.698	838.81
571.91	873.81
572.121	820.81
572.333	836.81
572.544	825.81
572.755	857.81
572.966	997.81
573.178	916.81
573.389	839.81
573.6	805.81
573.811	766.81
574.023	769.81
574.234	775.81
574.445	754.81
574.656	760.81
574.867	725.81
575.078	751.81
575.289	734.81
575.501	753.81
575.712	719.81
575.923	736.81
576.134	763.81
576.345	754.81
576.556	745.81
576.767	739.81
576.978	780.81
577.188	743.81
577.399	768.81
577.61	783.81
577.821	795.81
578.032	770.81
578.243	806.81
578.454	834.81
578.665	811.81
578.875	823.81
579.086	846.81
579.297	880.81
579.508	925.81
579.718	975.81
579.929	1096.81
580.14	1193.81
580.35	1221.81
580.561	1178.81
580.772	1098.81
580.982	1058.81
581.193	979.81
581.403	947.81
581.614	879.81
581.825	861.81
582.035	841.81
582.246	807.81
582.456	765.81
582.667	768.81
582.877	745.81
583.087	777.81
583.298	719.81
583.508	698.81
583.719	691.81
583.929	684.81
584.139	668.81
584.35	687.81
584.56	667.81
584.77	646.81
584.981	645.81
585.191	629.81
585.401	626.81
585.611	607.81
585.821	617.81
586.032	609.81
586.242	599.81
586.452	613.81
586.662	591.81
586.872	584.81
587.082	579.81
587.292	591.81
587.502	585.81
587.713	564.81
587.923	552.81
588.133	553.81
588.343	558.81
588.553	552.81
588.762	560.81
588.972	563.81
589.182	562.81
589.392	577.81
589.602	553.81
589.812	565.81
590.022	542.81
590.232	532.81
590.441	536.81
590.651	539.81
590.861	539.81
591.071	544.81
591.281	553.81
591.49	535.81
591.7	555.81
591.91	545.81
592.119	544.81
592.329	531.81
592.539	547.81
592.748	555.81
592.958	560.81
593.167	584.81
593.377	554.81
593.587	592.81
593.796	569.81
594.006	574.81
594.215	564.81
594.424	561.81
594.634	575.81
594.843	547.81
595.053	564.81
595.262	527.81
595.472	528.81
595.681	513.81
595.89	499.81
596.1	519.81
596.309	502.81
596.518	499.81
596.727	501.81
596.937	513.81
597.146	482.81
597.355	464.81
597.564	475.81
597.774	481.81
597.983	460.81
598.192	472.81
598.401	472.81
598.61	451.81
598.819	463.81
599.028	444.81
599.237	440.81
599.446	468.81
599.655	463.81
599.864	455.81
600.073	443.81
600.282	435.81
600.491	433.81
600.7	446.81
600.909	454.81
601.118	457.81
601.327	435.81
601.536	449.81
601.745	476.81
601.953	509.81
602.162	549.81
602.371	478.81
602.58	456.81
602.789	455.81
602.997	455.81
603.206	444.81
603.415	447.81
603.623	433.81
603.832	442.81
604.041	453.81
604.249	431.81
604.458	433.81
604.666	411.81
604.875	427.81
605.084	414.81
605.292	431.81
605.501	414.81
605.709	432.81
605.918	425.81
606.126	434.81
606.334	436.81
606.543	455.81
606.751	468.81
606.96	519.81
607.168	565.81
607.376	492.81
607.585	457.81
607.793	421.81
608.001	454.81
608.21	441.81
608.418	405.81
608.626	437.81
608.834	417.81
609.043	417.81
609.251	421.81
609.459	407.81
609.667	411.81
609.875	405.81
610.083	412.81
610.291	415.81
610.499	393.81
610.707	404.81
610.916	403.81
611.124	393.81
611.332	418.81
611.54	412.81
611.748	368.81
611.955	407.81
612.163	397.81
612.371	390.81
612.579	413.81
612.787	385.81
612.995	391.81
613.203	396.81
613.411	397.81
613.618	407.81
613.826	380.81
614.034	411.81
614.242	386.81
614.449	402.81
614.657	388.81
614.865	393.81
615.072	397.81
615.28	421.81
615.488	382.81
615.695	395.81
615.903	397.81
616.111	382.81
616.318	382.81
616.526	376.81
616.733	399.81
616.941	394.81
617.148	389.81
617.356	395.81
617.563	402.81
617.771	400.81
617.978	370.81
618.185	378.81
618.393	389.81
618.6	377.81
618.807	393.81
619.015	381.81
619.222	391.81
619.429	363.81
619.637	358.81
619.844	340.81
620.051	368.81
620.258	363.81
620.466	352.81
620.673	342.81
620.88	341.81
621.087	357.81
621.294	350.81
621.501	342.81
621.708	359.81
621.915	366.81
622.122	363.81
622.329	366.81
622.536	357.81
622.743	371.81
622.95	357.81
623.157	361.81
623.364	350.81
623.571	335.81
623.778	346.81
623.985	347.81
624.192	329.81
624.399	347.81
624.606	345.81
624.812	338.81
625.019	340.81
625.226	331.81
625.433	339.81
625.639	324.81
625.846	338.81
626.053	325.81
626.259	327.81
626.466	317.81
626.673	316.81
626.879	293.81
627.086	295.81
627.293	332.81
627.499	346.81
627.706	312.81
627.912	309.81
628.119	342.81
628.325	328.81
628.532	314.81
628.738	308.81
628.945	336.81
629.151	306.81
629.357	312.81
629.564	318.81
629.77	312.81
629.976	310.81
630.183	315.81
630.389	302.81
630.595	320.81
630.802	315.81
631.008	306.81
631.214	321.81
631.42	303.81
631.627	316.81
631.833	292.81
632.039	290.81
632.245	301.81
632.451	296.81
632.657	308.81
632.863	295.81
633.069	291.81
633.275	305.81
633.481	305.81
633.688	296.81
633.893	301.81
634.099	290.81
634.305	304.81
634.511	307.81
634.717	305.81
634.923	314.81
635.129	348.81
635.335	372.81
635.541	349.81
635.747	319.81
635.952	299.81
636.158	321.81
636.364	281.81
636.57	322.81
636.775	301.81
636.981	301.81
637.187	288.81
637.392	288.81
637.598	308.81
637.804	309.81
638.009	311.81
638.215	299.81
638.421	289.81
638.626	290.81
638.832	291.81
639.037	288.81
639.243	301.81
639.448	284.81
639.654	291.81
639.859	290.81
640.065	315.81
640.27	299.81
640.475	310.81
640.681	305.81
640.886	329.81
641.091	320.81
641.297	322.81
641.502	320.81
641.707	333.81
641.913	345.81
642.118	343.81
642.323	324.81
642.528	364.81
642.733	333.81
642.939	337.81
643.144	355.81
643.349	364.81
643.554	377.81
643.759	384.81
643.964	411.81
644.169	429.81
644.374	443.81
644.579	453.81
644.784	509.81
644.989	563.81
645.194	661.81
645.399	732.81
645.604	744.81
645.809	599.81
646.014	491.81
646.219	451.81
646.423	416.81
646.628	370.81
646.833	349.81
647.038	335.81
647.243	328.81
647.447	306.81
647.652	293.81
647.857	295.81
648.062	309.81
648.266	293.81
648.471	286.81
648.676	296.81
648.88	285.81
649.085	272.81
649.289	246.81
649.494	269.81
649.698	269.81
649.903	266.81
650.107	251.81
650.312	249.81
650.516	246.81
650.721	235.81
650.925	225.81
651.13	251.81
651.334	243.81
651.539	232.81
651.743	253.81
651.947	222.81
652.152	230.81
652.356	221.81
652.56	240.81
652.764	260.81
652.969	240.81
653.173	217.81
653.377	215.81
653.581	215.81
653.785	198.81
653.99	212.81
654.194	208.81
654.398	196.81
654.602	195.81
654.806	197.81
655.01	217.81
655.214	192.81
655.418	195.81
655.622	203.81
655.826	197.81
656.03	187.81
656.234	229.81
656.438	214.81
656.642	209.81
656.846	213.81
657.049	195.81
657.253	201.81
657.457	173.81
657.661	168.81
657.865	179.81
658.068	161.81
658.272	150.81
658.476	139.81
658.68	136.81
658.883	123.81
659.087	136.81
659.291	129.81
659.494	124.81
659.698	116.81
659.901	118.81
660.105	123.81
660.309	119.81
660.512	125.81
660.716	123.81
660.919	118.81
661.123	109.81
661.326	102.81
661.53	92.81
661.733	103.81
661.936	79.81
662.14	88.81
662.343	86.81
662.546	101.81
662.75	105.81
662.953	93.81
663.156	75.81
663.36	90.81
663.563	93.81
663.766	92.81
663.969	88.81
664.173	99.81
664.376	98.81
664.579	83.81
664.782	80.81
664.985	75.81
665.188	77.81
665.391	77.81
665.594	91.81
665.797	69.81
666	92.81
666.203	85.81
666.406	91.81
666.609	68.81
666.812	85.81
667.015	73.81
667.218	86.81
667.421	73.81
667.624	88.81
667.827	71.81
668.03	88.81
668.232	87.81
668.435	75.81
668.638	79.81
668.841	80.81
669.043	79.81
669.246	83.81
669.449	78.81
669.651	80.81
669.854	73.81
670.057	75.81
670.259	83.81
670.462	89.81
670.665	70.81
670.867	97.81
671.07	85.81
671.272	92.81
671.475	74.81
671.677	75.81
671.88	90.81
672.082	92.81
672.284	87.81
672.487	91.81
672.689	70.81
672.892	77.81
