Data from SnStandardFlinnAPT0064_LampEnergy10_LIBS07252019.E.O._I.C._HRD10591_15-20-54-494.txt Node
Date: Thu Jul 25 15:20:54 EDT 2019
User: cochatt
Spectrometer: HR+D1059
Trigger mode: 1
Integration Time (sec): 1.000000E-1
Scans to average: 1
Electric dark correction enabled: true
Nonlinearity correction enabled: false
Boxcar width: 0
XAxis mode: Wavelengths
Number of Pixels in Spectrum: 2048
>>>>>Begin Spectral Data<<<<<
223.165	-30.5
223.4	-30.5
223.635	-30.5
223.869	-10.5
224.104	-13.5
224.338	-0.5
224.573	-12.5
224.808	-15.5
225.042	-9.5
225.277	5.5
225.511	-9.5
225.746	0.5
225.98	4.5
226.215	16.5
226.449	15.5
226.683	14.5
226.918	21.5
227.152	23.5
227.387	39.5
227.621	40.5
227.856	42.5
228.09	49.5
228.324	45.5
228.559	63.5
228.793	118.5
229.027	311.5
229.262	345.5
229.496	311.5
229.73	296.5
229.964	287.5
230.199	290.5
230.433	309.5
230.667	313.5
230.901	320.5
231.136	317.5
231.37	346.5
231.604	376.5
231.838	452.5
232.072	537.5
232.306	538.5
232.541	489.5
232.775	417.5
233.009	387.5
233.243	399.5
233.477	440.5
233.711	506.5
233.945	578.5
234.179	525.5
234.413	450.5
234.647	456.5
234.881	484.5
235.115	542.5
235.349	632.5
235.583	777.5
235.817	1020.5
236.051	967.5
236.285	643.5
236.519	544.5
236.753	497.5
236.987	515.5
237.221	553.5
237.455	518.5
237.689	487.5
237.922	459.5
238.156	451.5
238.39	483.5
238.624	478.5
238.858	494.5
239.091	468.5
239.325	509.5
239.559	501.5
239.793	527.5
240.027	538.5
240.26	545.5
240.494	590.5
240.728	583.5
240.961	618.5
241.195	675.5
241.429	705.5
241.662	709.5
241.896	776.5
242.13	978.5
242.363	1242.5
242.597	1581.5
242.83	1557.5
243.064	1518.5
243.298	1789.5
243.531	1484.5
243.765	967.5
243.998	799.5
244.232	706.5
244.465	682.5
244.699	673.5
244.932	669.5
245.166	664.5
245.399	670.5
245.633	667.5
245.866	708.5
246.099	665.5
246.333	671.5
246.566	642.5
246.8	625.5
247.033	653.5
247.266	639.5
247.5	639.5
247.733	690.5
247.966	728.5
248.2	766.5
248.433	852.5
248.666	972.5
248.899	945.5
249.133	828.5
249.366	884.5
249.599	970.5
249.832	1083.5
250.066	1100.5
250.299	887.5
250.532	774.5
250.765	767.5
250.998	770.5
251.231	749.5
251.465	735.5
251.698	746.5
251.931	738.5
252.164	739.5
252.397	762.5
252.63	769.5
252.863	806.5
253.096	782.5
253.329	776.5
253.562	792.5
253.795	782.5
254.028	794.5
254.261	826.5
254.494	892.5
254.727	1019.5
254.96	1222.5
255.193	1245.5
255.426	957.5
255.659	871.5
255.892	874.5
256.124	881.5
256.357	893.5
256.59	935.5
256.823	968.5
257.056	1147.5
257.289	1368.5
257.521	1488.5
257.754	1192.5
257.987	1008.5
258.22	925.5
258.452	925.5
258.685	935.5
258.918	961.5
259.151	1008.5
259.383	1096.5
259.616	1232.5
259.849	1295.5
260.081	1094.5
260.314	1005.5
260.547	948.5
260.779	972.5
261.012	949.5
261.244	941.5
261.477	975.5
261.71	975.5
261.942	1005.5
262.175	1015.5
262.407	1077.5
262.64	1042.5
262.872	1100.5
263.105	1141.5
263.337	1216.5
263.57	1287.5
263.802	1318.5
264.035	1297.5
264.267	1376.5
264.499	1369.5
264.732	1424.5
264.964	1438.5
265.197	1418.5
265.429	1433.5
265.661	1473.5
265.894	1547.5
266.126	1775.5
266.358	1937.5
266.591	1954.5
266.823	1621.5
267.055	1469.5
267.287	1385.5
267.52	1337.5
267.752	1309.5
267.984	1287.5
268.216	1290.5
268.448	1274.5
268.681	1267.5
268.913	1249.5
269.145	1230.5
269.377	1261.5
269.609	1250.5
269.841	1333.5
270.073	1368.5
270.306	1593.5
270.538	2151.5
270.77	3168.5
271.002	3926.5
271.234	2794.5
271.466	1871.5
271.698	1567.5
271.93	1414.5
272.162	1329.5
272.394	1289.5
272.626	1304.5
272.858	1231.5
273.09	1244.5
273.322	1231.5
273.553	1220.5
273.785	1188.5
274.017	1201.5
274.249	1220.5
274.481	1218.5
274.713	1197.5
274.945	1251.5
275.176	1236.5
275.408	1245.5
275.64	1226.5
275.872	1236.5
276.104	1270.5
276.335	1272.5
276.567	1266.5
276.799	1258.5
277.031	1322.5
277.262	1325.5
277.494	1391.5
277.726	1561.5
277.957	1853.5
278.189	2111.5
278.421	2014.5
278.652	1751.5
278.884	1666.5
279.115	1539.5
279.347	1406.5
279.579	1417.5
279.81	1398.5
280.042	1380.5
280.273	1441.5
280.505	1444.5
280.736	1502.5
280.968	1625.5
281.199	1815.5
281.431	2054.5
281.662	2114.5
281.894	1774.5
282.125	1652.5
282.356	1657.5
282.588	1673.5
282.819	1702.5
283.051	1843.5
283.282	1987.5
283.513	2487.5
283.745	3583.5
283.976	5649.5
284.207	7878.5
284.439	7334.5
284.67	4629.5
284.901	3741.5
285.132	3838.5
285.364	3582.5
285.595	2724.5
285.826	2444.5
286.057	2920.5
286.288	3921.5
286.52	5127.5
286.751	4855.5
286.982	3031.5
287.213	2317.5
287.444	2019.5
287.675	1879.5
287.906	1793.5
288.138	1781.5
288.369	1706.5
288.6	1695.5
288.831	1658.5
289.062	1688.5
289.293	1689.5
289.524	1657.5
289.755	1713.5
289.986	1693.5
290.217	1735.5
290.448	1728.5
290.679	1793.5
290.91	1773.5
291.141	1892.5
291.371	2095.5
291.602	2149.5
291.833	1941.5
292.064	1772.5
292.295	1694.5
292.526	1665.5
292.757	1665.5
292.987	1624.5
293.218	1581.5
293.449	1605.5
293.68	1630.5
293.91	1612.5
294.141	1561.5
294.372	1539.5
294.603	1558.5
294.833	1604.5
295.064	1575.5
295.295	1598.5
295.525	1581.5
295.756	1565.5
295.987	1545.5
296.217	1536.5
296.448	1597.5
296.679	1591.5
296.909	1621.5
297.14	1599.5
297.37	1659.5
297.601	1659.5
297.831	1655.5
298.062	1646.5
298.292	1672.5
298.523	1696.5
298.753	1719.5
298.984	1689.5
299.214	1717.5
299.445	1753.5
299.675	1748.5
299.905	1866.5
300.136	1940.5
300.366	2147.5
300.597	2739.5
300.827	3783.5
301.057	5235.5
301.288	5185.5
301.518	3407.5
301.748	2626.5
301.979	2379.5
302.209	2277.5
302.439	2349.5
302.669	2488.5
302.9	2928.5
303.13	4161.5
303.36	6040.5
303.59	8033.5
303.82	7149.5
304.051	4287.5
304.281	3069.5
304.511	2594.5
304.741	2389.5
304.971	2181.5
305.201	2051.5
305.431	2007.5
305.661	1983.5
305.891	1909.5
306.121	1920.5
306.352	1854.5
306.582	1866.5
306.812	1810.5
307.042	1868.5
307.272	1855.5
307.502	1855.5
307.731	1824.5
307.961	1843.5
308.191	1818.5
308.421	1792.5
308.651	1811.5
308.881	1777.5
309.111	1825.5
309.341	1846.5
309.571	1837.5
309.8	1846.5
310.03	1885.5
310.26	1866.5
310.49	1864.5
310.72	1898.5
310.949	1886.5
311.179	1918.5
311.409	1912.5
311.639	1935.5
311.868	1936.5
312.098	2009.5
312.328	1955.5
312.557	1955.5
312.787	1922.5
313.017	2005.5
313.246	2001.5
313.476	2016.5
313.706	2073.5
313.935	2235.5
314.165	2404.5
314.394	2464.5
314.624	2373.5
314.853	2154.5
315.083	2171.5
315.312	2211.5
315.542	2221.5
315.771	2237.5
316.001	2254.5
316.23	2308.5
316.46	2455.5
316.689	2736.5
316.919	3205.5
317.148	4620.5
317.377	7074.5
317.607	10291.5
317.836	10705.5
318.065	6677.5
318.295	4317.5
318.524	3503.5
318.753	2978.5
318.983	2772.5
319.212	2625.5
319.441	2515.5
319.67	2470.5
319.9	2417.5
320.129	2363.5
320.358	2314.5
320.587	2378.5
320.816	2319.5
321.046	2374.5
321.275	2382.5
321.504	2410.5
321.733	2423.5
321.962	2513.5
322.191	2577.5
322.42	2506.5
322.649	2455.5
322.878	2453.5
323.108	2465.5
323.337	2514.5
323.566	2602.5
323.795	2649.5
324.024	2680.5
324.253	2753.5
324.482	2805.5
324.71	3046.5
324.939	3220.5
325.168	3323.5
325.397	3426.5
325.626	4095.5
325.855	5562.5
326.084	8590.5
326.313	12593.5
326.542	13328.5
326.77	9145.5
326.999	5961.5
327.228	5015.5
327.457	4803.5
327.686	4809.5
327.914	5108.5
328.143	6015.5
328.372	7149.5
328.6	7655.5
328.829	6970.5
329.058	5787.5
329.287	5091.5
329.515	4669.5
329.744	4306.5
329.972	4083.5
330.201	3859.5
330.43	3694.5
330.658	3667.5
330.887	3605.5
331.115	3571.5
331.344	3519.5
331.572	3528.5
331.801	3511.5
332.03	3482.5
332.258	3657.5
332.486	3743.5
332.715	4280.5
332.943	5272.5
333.172	6549.5
333.4	6564.5
333.629	5043.5
333.857	4538.5
334.085	4525.5
334.314	4771.5
334.542	5209.5
334.771	6024.5
334.999	7407.5
335.227	9151.5
335.455	10327.5
335.684	9296.5
335.912	7694.5
336.14	6522.5
336.369	5751.5
336.597	5265.5
336.825	4874.5
337.053	4536.5
337.281	4279.5
337.51	4019.5
337.738	3913.5
337.966	3729.5
338.194	3592.5
338.422	3473.5
338.65	3421.5
338.878	3349.5
339.106	3235.5
339.334	3258.5
339.562	3149.5
339.79	3070.5
340.018	3124.5
340.246	3034.5
340.474	3063.5
340.702	3040.5
340.93	3015.5
341.158	3021.5
341.386	2990.5
341.614	3030.5
341.842	2919.5
342.07	2858.5
342.298	2869.5
342.526	2800.5
342.754	2787.5
342.981	2719.5
343.209	2724.5
343.437	2745.5
343.665	2851.5
343.893	2829.5
344.12	2865.5
344.348	2769.5
344.576	2718.5
344.804	2703.5
345.031	2617.5
345.259	2618.5
345.487	2601.5
345.714	2555.5
345.942	2569.5
346.17	2568.5
346.397	2555.5
346.625	2525.5
346.853	2523.5
347.08	2516.5
347.308	2503.5
347.535	2513.5
347.763	2524.5
347.99	2559.5
348.218	2495.5
348.445	2436.5
348.673	2427.5
348.9	2464.5
349.128	2473.5
349.355	2476.5
349.583	2457.5
349.81	2425.5
350.037	2391.5
350.265	2351.5
350.492	2416.5
350.72	2425.5
350.947	2392.5
351.174	2391.5
351.402	2435.5
351.629	2417.5
351.856	2439.5
352.083	2398.5
352.311	2405.5
352.538	2357.5
352.765	2383.5
352.992	2331.5
353.22	2359.5
353.447	2404.5
353.674	2371.5
353.901	2419.5
354.128	2401.5
354.355	2375.5
354.583	2389.5
354.81	2397.5
355.037	2433.5
355.264	2458.5
355.491	2406.5
355.718	2442.5
355.945	2485.5
356.172	2489.5
356.399	2447.5
356.626	2499.5
356.853	2484.5
357.08	2541.5
357.307	2565.5
357.534	2575.5
357.761	2596.5
357.988	2620.5
358.215	2574.5
358.441	2567.5
358.668	2581.5
358.895	2510.5
359.122	2513.5
359.349	2563.5
359.576	2552.5
359.802	2570.5
360.029	2534.5
360.256	2548.5
360.483	2525.5
360.709	2557.5
360.936	2593.5
361.163	2596.5
361.39	2610.5
361.616	2582.5
361.843	2566.5
362.07	2556.5
362.296	2551.5
362.523	2564.5
362.749	2611.5
362.976	2527.5
363.203	2577.5
363.429	2541.5
363.656	2570.5
363.882	2537.5
364.109	2571.5
364.335	2505.5
364.562	2554.5
364.788	2575.5
365.015	2592.5
365.241	2653.5
365.468	2790.5
365.694	2906.5
365.92	2854.5
366.147	2647.5
366.373	2652.5
366.599	2559.5
366.826	2610.5
367.052	2624.5
367.278	2623.5
367.505	2622.5
367.731	2616.5
367.957	2598.5
368.184	2673.5
368.41	2652.5
368.636	2680.5
368.862	2662.5
369.089	2658.5
369.315	2631.5
369.541	2638.5
369.767	2638.5
369.993	2654.5
370.219	2624.5
370.445	2667.5
370.672	2689.5
370.898	2705.5
371.124	2701.5
371.35	2717.5
371.576	2678.5
371.802	2750.5
372.028	2727.5
372.254	2727.5
372.48	2754.5
372.706	2781.5
372.932	2765.5
373.158	2757.5
373.384	2768.5
373.61	2818.5
373.835	2819.5
374.061	2816.5
374.287	2810.5
374.513	2840.5
374.739	2894.5
374.965	2871.5
375.191	2946.5
375.416	2915.5
375.642	2868.5
375.868	2876.5
376.094	2865.5
376.319	2813.5
376.545	2819.5
376.771	2822.5
376.997	2729.5
377.222	2804.5
377.448	2725.5
377.674	2773.5
377.899	2767.5
378.125	2747.5
378.35	2737.5
378.576	2720.5
378.802	2784.5
379.027	2853.5
379.253	2873.5
379.478	3106.5
379.704	3580.5
379.929	5098.5
380.155	7901.5
380.38	8595.5
380.606	5358.5
380.831	3685.5
381.057	3236.5
381.282	3001.5
381.507	2873.5
381.733	2803.5
381.958	2781.5
382.184	2761.5
382.409	2740.5
382.634	2691.5
382.86	2678.5
383.085	2691.5
383.31	2699.5
383.535	2707.5
383.761	2672.5
383.986	2720.5
384.211	2756.5
384.436	2785.5
384.662	2762.5
384.887	2788.5
385.112	2752.5
385.337	2784.5
385.562	2727.5
385.787	2750.5
386.013	2789.5
386.238	2828.5
386.463	2809.5
386.688	2797.5
386.913	2787.5
387.138	2792.5
387.363	2727.5
387.588	2781.5
387.813	2761.5
388.038	2779.5
388.263	2770.5
388.488	2810.5
388.713	2789.5
388.938	2762.5
389.163	2723.5
389.387	2754.5
389.612	2741.5
389.837	2811.5
390.062	2783.5
390.287	2803.5
390.512	2794.5
390.736	2811.5
390.961	2853.5
391.186	2897.5
391.411	2851.5
391.636	2908.5
391.86	2951.5
392.085	2944.5
392.31	2898.5
392.534	2906.5
392.759	2854.5
392.984	2786.5
393.208	2870.5
393.433	2831.5
393.658	2845.5
393.882	2821.5
394.107	2832.5
394.331	2831.5
394.556	2808.5
394.78	2829.5
395.005	2839.5
395.229	2858.5
395.454	2933.5
395.678	2909.5
395.903	2945.5
396.127	2895.5
396.352	2881.5
396.576	2830.5
396.801	2857.5
397.025	2858.5
397.249	2946.5
397.474	2941.5
397.698	2933.5
397.922	2957.5
398.147	2933.5
398.371	2980.5
398.595	3025.5
398.82	3077.5
399.044	3218.5
399.268	3385.5
399.492	3574.5
399.717	3653.5
399.941	3685.5
400.165	3542.5
400.389	3403.5
400.613	3261.5
400.837	3122.5
401.062	3161.5
401.286	3141.5
401.51	3070.5
401.734	3027.5
401.958	3084.5
402.182	3126.5
402.406	3062.5
402.63	3096.5
402.854	3101.5
403.078	3138.5
403.302	3151.5
403.526	3180.5
403.75	3227.5
403.974	3275.5
404.198	3185.5
404.422	3231.5
404.645	3188.5
404.869	3213.5
405.093	3240.5
405.317	3137.5
405.541	3267.5
405.765	3281.5
405.988	3243.5
406.212	3317.5
406.436	3233.5
406.66	3261.5
406.883	3269.5
407.107	3357.5
407.331	3408.5
407.555	3520.5
407.778	3429.5
408.002	3433.5
408.226	3442.5
408.449	3357.5
408.673	3337.5
408.896	3235.5
409.12	3309.5
409.344	3236.5
409.567	3155.5
409.791	3208.5
410.014	3222.5
410.238	3166.5
410.461	3147.5
410.685	3181.5
410.908	3114.5
411.132	3095.5
411.355	3056.5
411.578	3059.5
411.802	3069.5
412.025	3071.5
412.249	3090.5
412.472	3102.5
412.695	3010.5
412.919	3017.5
413.142	3022.5
413.365	3029.5
413.589	3005.5
413.812	3013.5
414.035	3034.5
414.258	3060.5
414.482	3016.5
414.705	3029.5
414.928	2977.5
415.151	2955.5
415.374	2961.5
415.597	2966.5
415.821	2893.5
416.044	2895.5
416.267	2902.5
416.49	2847.5
416.713	2819.5
416.936	2886.5
417.159	2807.5
417.382	2857.5
417.605	2864.5
417.828	2878.5
418.051	2906.5
418.274	2884.5
418.497	2937.5
418.72	2929.5
418.943	2927.5
419.166	3025.5
419.389	3265.5
419.611	3138.5
419.834	3055.5
420.057	2969.5
420.28	2896.5
420.503	2839.5
420.726	2851.5
420.948	2899.5
421.171	2855.5
421.394	2885.5
421.617	2869.5
421.839	2903.5
422.062	2956.5
422.285	2825.5
422.507	2887.5
422.73	2900.5
422.953	2983.5
423.175	3009.5
423.398	3027.5
423.621	2842.5
423.843	2905.5
424.066	2901.5
424.288	2870.5
424.511	2876.5
424.733	2856.5
424.956	2791.5
425.178	2822.5
425.401	2870.5
425.623	2857.5
425.846	2737.5
426.068	2824.5
426.291	2774.5
426.513	2751.5
426.735	2737.5
426.958	2772.5
427.18	2742.5
427.402	2732.5
427.625	2757.5
427.847	2735.5
428.069	2647.5
428.292	2677.5
428.514	2681.5
428.736	2682.5
428.958	2699.5
429.181	2661.5
429.403	2630.5
429.625	2658.5
429.847	2675.5
430.069	2726.5
430.292	2795.5
430.514	2857.5
430.736	2863.5
430.958	2723.5
431.18	2666.5
431.402	2622.5
431.624	2639.5
431.846	2633.5
432.068	2584.5
432.29	2655.5
432.512	2614.5
432.734	2673.5
432.956	2645.5
433.178	2646.5
433.4	2661.5
433.622	2686.5
433.844	2655.5
434.066	2651.5
434.287	2629.5
434.509	2692.5
434.731	2737.5
434.953	2737.5
435.175	2750.5
435.397	2753.5
435.618	2733.5
435.84	2657.5
436.062	2621.5
436.284	2658.5
436.505	2617.5
436.727	2611.5
436.949	2594.5
437.17	2605.5
437.392	2605.5
437.614	2614.5
437.835	2528.5
438.057	2599.5
438.278	2536.5
438.5	2579.5
438.721	2646.5
438.943	2695.5
439.165	2760.5
439.386	2790.5
439.608	2726.5
439.829	2783.5
440.05	2818.5
440.272	2801.5
440.493	2730.5
440.715	2687.5
440.936	2738.5
441.158	2765.5
441.379	2801.5
441.6	2880.5
441.822	2966.5
442.043	3121.5
442.264	3183.5
442.486	2975.5
442.707	2907.5
442.928	2815.5
443.149	2815.5
443.371	2832.5
443.592	2808.5
443.813	2897.5
444.034	2822.5
444.255	2894.5
444.476	2965.5
444.698	3009.5
444.919	3051.5
445.14	3137.5
445.361	2952.5
445.582	2903.5
445.803	2797.5
446.024	2767.5
446.245	2811.5
446.466	2803.5
446.687	2739.5
446.908	2753.5
447.129	2722.5
447.35	2673.5
447.571	2648.5
447.792	2603.5
448.013	2606.5
448.234	2600.5
448.455	2602.5
448.675	2698.5
448.896	2681.5
449.117	2790.5
449.338	3022.5
449.559	3138.5
449.779	2778.5
450	2593.5
450.221	2535.5
450.442	2575.5
450.662	2588.5
450.883	2540.5
451.104	2556.5
451.324	2526.5
451.545	2568.5
451.766	2570.5
451.986	2591.5
452.207	2815.5
452.428	3662.5
452.648	5456.5
452.869	4657.5
453.089	3160.5
453.31	3008.5
453.53	2979.5
453.751	3058.5
453.971	3201.5
454.192	3081.5
454.412	2719.5
454.633	2584.5
454.853	2541.5
455.073	2437.5
455.294	2503.5
455.514	2421.5
455.734	2472.5
455.955	2406.5
456.175	2389.5
456.395	2408.5
456.616	2479.5
456.836	2511.5
457.056	2505.5
457.276	2490.5
457.497	2648.5
457.717	2638.5
457.937	2578.5
458.157	2587.5
458.377	2544.5
458.598	2600.5
458.818	2618.5
459.038	2598.5
459.258	2615.5
459.478	2661.5
459.698	2681.5
459.918	2717.5
460.138	2749.5
460.358	2799.5
460.578	2819.5
460.798	2878.5
461.018	2896.5
461.238	2834.5
461.458	2897.5
461.678	2902.5
461.898	3056.5
462.118	2984.5
462.338	3114.5
462.558	3099.5
462.777	3108.5
462.997	3294.5
463.217	3393.5
463.437	3482.5
463.657	3511.5
463.876	3536.5
464.096	3356.5
464.316	3195.5
464.536	3187.5
464.755	3127.5
464.975	2989.5
465.195	2918.5
465.414	2849.5
465.634	2791.5
465.854	2711.5
466.073	2690.5
466.293	2650.5
466.512	2705.5
466.732	2681.5
466.951	2849.5
467.171	3030.5
467.391	2925.5
467.61	2709.5
467.829	2647.5
468.049	2652.5
468.268	2571.5
468.488	2572.5
468.707	2600.5
468.927	2579.5
469.146	2578.5
469.365	2634.5
469.585	2657.5
469.804	2654.5
470.023	2711.5
470.243	2764.5
470.462	2886.5
470.681	3031.5
470.901	3296.5
471.12	3712.5
471.339	3730.5
471.558	3172.5
471.777	2871.5
471.997	2778.5
472.216	2742.5
472.435	2700.5
472.654	2617.5
472.873	2565.5
473.092	2594.5
473.311	2655.5
473.53	2592.5
473.749	2690.5
473.968	2771.5
474.187	2678.5
474.406	2612.5
474.625	2595.5
474.844	2617.5
475.063	2624.5
475.282	2618.5
475.501	2618.5
475.72	2609.5
475.939	2700.5
476.158	2707.5
476.377	2775.5
476.596	2781.5
476.814	2781.5
477.033	2782.5
477.252	2800.5
477.471	2820.5
477.69	2926.5
477.908	2931.5
478.127	2927.5
478.346	2996.5
478.564	2995.5
478.783	3067.5
479.002	3093.5
479.22	3151.5
479.439	3146.5
479.658	3141.5
479.876	3156.5
480.095	3148.5
480.313	3272.5
480.532	3263.5
480.751	3261.5
480.969	3210.5
481.188	3193.5
481.406	3162.5
481.624	3178.5
481.843	3217.5
482.061	3251.5
482.28	3221.5
482.498	3135.5
482.717	3187.5
482.935	3242.5
483.153	3250.5
483.372	3270.5
483.59	3303.5
483.808	3401.5
484.027	3442.5
484.245	3583.5
484.463	4061.5
484.681	4461.5
484.9	4118.5
485.118	3829.5
485.336	3758.5
485.554	3839.5
485.772	4098.5
485.99	4529.5
486.209	4845.5
486.427	4057.5
486.645	3709.5
486.863	3523.5
487.081	3398.5
487.299	3440.5
487.517	3367.5
487.735	3385.5
487.953	3326.5
488.171	3418.5
488.389	3321.5
488.607	3360.5
488.825	3232.5
489.043	3264.5
489.261	3253.5
489.479	3238.5
489.696	3309.5
489.914	3270.5
490.132	3384.5
490.35	3330.5
490.568	3313.5
490.786	3353.5
491.003	3357.5
491.221	3403.5
491.439	3383.5
491.657	3403.5
491.874	3401.5
492.092	3443.5
492.31	3467.5
492.527	3433.5
492.745	3397.5
492.963	3428.5
493.18	3418.5
493.398	3423.5
493.615	3439.5
493.833	3452.5
494.05	3418.5
494.268	3457.5
494.485	3465.5
494.703	3464.5
494.92	3442.5
495.138	3420.5
495.355	3465.5
495.573	3449.5
495.79	3428.5
496.008	3494.5
496.225	3477.5
496.442	3538.5
496.66	3681.5
496.877	3897.5
497.094	3922.5
497.312	3723.5
497.529	3704.5
497.746	3798.5
497.963	3735.5
498.181	3904.5
498.398	3958.5
498.615	4143.5
498.832	4272.5
499.049	4445.5
499.267	4802.5
499.484	5078.5
499.701	5076.5
499.918	5194.5
500.135	5460.5
500.352	5774.5
500.569	5801.5
500.786	5741.5
501.003	5576.5
501.22	5335.5
501.437	5071.5
501.654	4775.5
501.871	4541.5
502.088	4394.5
502.305	4285.5
502.522	4110.5
502.739	4074.5
502.956	3913.5
503.172	3783.5
503.389	3725.5
503.606	3678.5
503.823	3573.5
504.04	3557.5
504.256	3605.5
504.473	3613.5
504.69	3573.5
504.907	3550.5
505.123	3514.5
505.34	3346.5
505.557	3288.5
505.773	3259.5
505.99	3209.5
506.207	3181.5
506.423	3129.5
506.64	3112.5
506.856	3055.5
507.073	2995.5
507.289	3074.5
507.506	3023.5
507.722	3039.5
507.939	3006.5
508.155	3008.5
508.372	2970.5
508.588	2969.5
508.805	2943.5
509.021	2958.5
509.238	3004.5
509.454	3141.5
509.67	3333.5
509.887	3128.5
510.103	3029.5
510.319	3002.5
510.536	3007.5
510.752	2932.5
510.968	2925.5
511.184	2875.5
511.401	2871.5
511.617	2879.5
511.833	2876.5
512.049	2848.5
512.265	2840.5
512.481	2894.5
512.698	2834.5
512.914	2864.5
513.13	2854.5
513.346	2854.5
513.562	2893.5
513.778	2823.5
513.994	2897.5
514.21	2997.5
514.426	3140.5
514.642	3265.5
514.858	3003.5
515.074	2994.5
515.29	2903.5
515.506	2927.5
515.721	2963.5
515.937	2954.5
516.153	2913.5
516.369	2911.5
516.585	2975.5
516.801	3043.5
517.016	3087.5
517.232	3151.5
517.448	3198.5
517.664	3245.5
517.879	3238.5
518.095	3266.5
518.311	3190.5
518.527	3165.5
518.742	3125.5
518.958	3145.5
519.173	3330.5
519.389	3165.5
519.605	3032.5
519.82	2973.5
520.036	2898.5
520.251	2915.5
520.467	2869.5
520.682	2872.5
520.898	2802.5
521.113	2774.5
521.329	2786.5
521.544	2776.5
521.76	2787.5
521.975	2788.5
522.19	2738.5
522.406	2714.5
522.621	2750.5
522.836	2743.5
523.052	2753.5
523.267	2691.5
523.482	2758.5
523.698	2723.5
523.913	2720.5
524.128	2730.5
524.343	2750.5
524.559	2754.5
524.774	2685.5
524.989	2711.5
525.204	2734.5
525.419	2728.5
525.634	2709.5
525.849	2665.5
526.064	2719.5
526.28	2684.5
526.495	2723.5
526.71	2714.5
526.925	2742.5
527.14	2754.5
527.355	2700.5
527.57	2697.5
527.785	2760.5
527.999	2724.5
528.214	2797.5
528.429	2832.5
528.644	2847.5
528.859	2899.5
529.074	2884.5
529.289	2945.5
529.503	2917.5
529.718	2919.5
529.933	2867.5
530.148	2893.5
530.363	2914.5
530.577	2965.5
530.792	2907.5
531.007	2981.5
531.221	2960.5
531.436	2950.5
531.651	2997.5
531.865	3048.5
532.08	3089.5
532.295	3173.5
532.509	3365.5
532.724	3416.5
532.938	3481.5
533.153	3530.5
533.367	3847.5
533.582	4004.5
533.796	3888.5
534.011	3748.5
534.225	3621.5
534.44	3433.5
534.654	3442.5
534.868	3333.5
535.083	3243.5
535.297	3238.5
535.511	3166.5
535.726	3125.5
535.94	3074.5
536.154	3030.5
536.369	2967.5
536.583	2936.5
536.797	2890.5
537.011	2849.5
537.225	2845.5
537.44	2827.5
537.654	2802.5
537.868	2767.5
538.082	2726.5
538.296	2761.5
538.51	2737.5
538.724	2706.5
538.938	2680.5
539.153	2682.5
539.367	2689.5
539.581	2673.5
539.795	2612.5
540.009	2637.5
540.222	2625.5
540.436	2663.5
540.65	2561.5
540.864	2643.5
541.078	2702.5
541.292	2849.5
541.506	3290.5
541.72	3467.5
541.934	3029.5
542.147	2869.5
542.361	2764.5
542.575	2713.5
542.789	2609.5
543.002	2579.5
543.216	2546.5
543.43	2539.5
543.644	2519.5
543.857	2523.5
544.071	2567.5
544.285	2527.5
544.498	2506.5
544.712	2531.5
544.925	2560.5
545.139	2539.5
545.352	2577.5
545.566	2536.5
545.779	2553.5
545.993	2525.5
546.206	2514.5
546.42	2584.5
546.633	2547.5
546.847	2565.5
547.06	2535.5
547.274	2610.5
547.487	2572.5
547.7	2599.5
547.914	2545.5
548.127	2588.5
548.34	2588.5
548.554	2553.5
548.767	2530.5
548.98	2559.5
549.193	2565.5
549.407	2515.5
549.62	2589.5
549.833	2584.5
550.046	2536.5
550.259	2545.5
550.473	2536.5
550.686	2552.5
550.899	2575.5
551.112	2565.5
551.325	2563.5
551.538	2547.5
551.751	2562.5
551.964	2575.5
552.177	2629.5
552.39	2663.5
552.603	2728.5
552.816	2682.5
553.029	2767.5
553.242	2790.5
553.455	2838.5
553.667	2842.5
553.88	2821.5
554.093	2913.5
554.306	2881.5
554.519	2896.5
554.732	2973.5
554.944	2969.5
555.157	3043.5
555.37	3146.5
555.583	3269.5
555.795	3419.5
556.008	3655.5
556.221	4097.5
556.433	4393.5
556.646	4387.5
556.859	4251.5
557.071	4096.5
557.284	3984.5
557.496	3806.5
557.709	3808.5
557.921	3656.5
558.134	3690.5
558.346	3755.5
558.559	3919.5
558.771	4119.5
558.984	4528.5
559.196	4812.5
559.409	4645.5
559.621	4271.5
559.833	3991.5
560.046	3789.5
560.258	3536.5
560.47	3415.5
560.683	3251.5
560.895	3115.5
561.107	2990.5
561.32	2909.5
561.532	2899.5
561.744	2799.5
561.956	2816.5
562.168	2693.5
562.381	2691.5
562.593	2666.5
562.805	2653.5
563.017	2707.5
563.229	2724.5
563.441	3253.5
563.653	2728.5
563.865	2522.5
564.077	2434.5
564.289	2382.5
564.501	2363.5
564.713	2391.5
564.925	2382.5
565.137	2405.5
565.349	2366.5
565.561	2415.5
565.773	2401.5
565.985	2369.5
566.197	2443.5
566.408	2471.5
566.62	2490.5
566.832	2622.5
567.044	2616.5
567.255	2638.5
567.467	2672.5
567.679	2723.5
567.891	2867.5
568.102	3096.5
568.314	3599.5
568.526	3151.5
568.737	2733.5
568.949	2507.5
569.161	2353.5
569.372	2239.5
569.584	2197.5
569.795	2164.5
570.007	2139.5
570.218	2237.5
570.43	2249.5
570.641	2065.5
570.853	2006.5
571.064	1973.5
571.276	1987.5
571.487	1930.5
571.698	1923.5
571.91	1895.5
572.121	1839.5
572.333	1853.5
572.544	1893.5
572.755	2057.5
572.966	2298.5
573.178	2124.5
573.389	1933.5
573.6	1833.5
573.811	1774.5
574.023	1743.5
574.234	1746.5
574.445	1714.5
574.656	1725.5
574.867	1732.5
575.078	1735.5
575.289	1694.5
575.501	1706.5
575.712	1694.5
575.923	1691.5
576.134	1703.5
576.345	1713.5
576.556	1739.5
576.767	1731.5
576.978	1733.5
577.188	1694.5
577.399	1719.5
577.61	1752.5
577.821	1752.5
578.032	1778.5
578.243	1812.5
578.454	1818.5
578.665	1893.5
578.875	1967.5
579.086	2047.5
579.297	2096.5
579.508	2245.5
579.718	2398.5
579.929	2712.5
580.14	3213.5
580.35	3287.5
580.561	2981.5
580.772	2689.5
580.982	2505.5
581.193	2325.5
581.403	2218.5
581.614	2124.5
581.825	2041.5
582.035	1987.5
582.246	1894.5
582.456	1812.5
582.667	1804.5
582.877	1780.5
583.087	1752.5
583.298	1651.5
583.508	1615.5
583.719	1609.5
583.929	1533.5
584.139	1550.5
584.35	1518.5
584.56	1467.5
584.77	1466.5
584.981	1444.5
585.191	1439.5
585.401	1431.5
585.611	1378.5
585.821	1345.5
586.032	1349.5
586.242	1341.5
586.452	1329.5
586.662	1355.5
586.872	1329.5
587.082	1301.5
587.292	1299.5
587.502	1282.5
587.713	1268.5
587.923	1286.5
588.133	1265.5
588.343	1231.5
588.553	1222.5
588.762	1233.5
588.972	1261.5
589.182	1265.5
589.392	1233.5
589.602	1199.5
589.812	1218.5
590.022	1215.5
590.232	1174.5
590.441	1201.5
590.651	1214.5
590.861	1190.5
591.071	1213.5
591.281	1190.5
591.49	1194.5
591.7	1184.5
591.91	1190.5
592.119	1160.5
592.329	1164.5
592.539	1198.5
592.748	1217.5
592.958	1195.5
593.167	1227.5
593.377	1236.5
593.587	1247.5
593.796	1210.5
594.006	1225.5
594.215	1213.5
594.424	1208.5
594.634	1242.5
594.843	1201.5
595.053	1170.5
595.262	1167.5
595.472	1130.5
595.681	1085.5
595.89	1108.5
596.1	1100.5
596.309	1058.5
596.518	1066.5
596.727	1079.5
596.937	1056.5
597.146	1006.5
597.355	1048.5
597.564	1001.5
597.774	1011.5
597.983	1015.5
598.192	974.5
598.401	977.5
598.61	981.5
598.819	964.5
599.028	969.5
599.237	979.5
599.446	953.5
599.655	966.5
599.864	964.5
600.073	953.5
600.282	979.5
600.491	947.5
600.7	973.5
600.909	918.5
601.118	927.5
601.327	937.5
601.536	951.5
601.745	997.5
601.953	1069.5
602.162	1198.5
602.371	1056.5
602.58	991.5
602.789	934.5
602.997	933.5
603.206	961.5
603.415	958.5
603.623	909.5
603.832	921.5
604.041	920.5
604.249	895.5
604.458	895.5
604.666	891.5
604.875	891.5
605.084	881.5
605.292	900.5
605.501	921.5
605.709	905.5
605.918	934.5
606.126	911.5
606.334	927.5
606.543	944.5
606.751	998.5
606.96	1101.5
607.168	1201.5
607.376	1047.5
607.585	953.5
607.793	947.5
608.001	928.5
608.21	919.5
608.418	884.5
608.626	890.5
608.834	844.5
609.043	872.5
609.251	823.5
609.459	840.5
609.667	840.5
609.875	828.5
610.083	830.5
610.291	829.5
610.499	847.5
610.707	836.5
610.916	815.5
611.124	844.5
611.332	855.5
611.54	815.5
611.748	810.5
611.955	803.5
612.163	804.5
612.371	806.5
612.579	807.5
612.787	828.5
612.995	818.5
613.203	809.5
613.411	811.5
613.618	797.5
613.826	811.5
614.034	780.5
614.242	787.5
614.449	754.5
614.657	783.5
614.865	788.5
615.072	806.5
615.28	796.5
615.488	819.5
615.695	805.5
615.903	783.5
616.111	781.5
616.318	794.5
616.526	778.5
616.733	796.5
616.941	784.5
617.148	793.5
617.356	759.5
617.563	778.5
617.771	776.5
617.978	737.5
618.185	762.5
618.393	759.5
618.6	765.5
618.807	780.5
619.015	762.5
619.222	748.5
619.429	735.5
619.637	723.5
619.844	734.5
620.051	719.5
620.258	726.5
620.466	726.5
620.673	705.5
620.88	695.5
621.087	712.5
621.294	685.5
621.501	691.5
621.708	712.5
621.915	713.5
622.122	697.5
622.329	712.5
622.536	708.5
622.743	714.5
622.95	703.5
623.157	643.5
623.364	686.5
623.571	714.5
623.778	669.5
623.985	669.5
624.192	675.5
624.399	659.5
624.606	687.5
624.812	677.5
625.019	679.5
625.226	667.5
625.433	669.5
625.639	659.5
625.846	652.5
626.053	654.5
626.259	638.5
626.466	623.5
626.673	613.5
626.879	626.5
627.086	639.5
627.293	633.5
627.499	617.5
627.706	627.5
627.912	611.5
628.119	634.5
628.325	655.5
628.532	625.5
628.738	623.5
628.945	630.5
629.151	634.5
629.357	601.5
629.564	611.5
629.77	626.5
629.976	608.5
630.183	605.5
630.389	610.5
630.595	598.5
630.802	596.5
631.008	597.5
631.214	604.5
631.42	596.5
631.627	599.5
631.833	605.5
632.039	595.5
632.245	585.5
632.451	600.5
632.657	592.5
632.863	586.5
633.069	593.5
633.275	582.5
633.481	575.5
633.688	574.5
633.893	574.5
634.099	577.5
634.305	602.5
634.511	567.5
634.717	599.5
634.923	596.5
635.129	688.5
635.335	750.5
635.541	678.5
635.747	626.5
635.952	610.5
636.158	602.5
636.364	593.5
636.57	602.5
636.775	575.5
636.981	605.5
637.187	607.5
637.392	596.5
637.598	573.5
637.804	594.5
638.009	579.5
638.215	582.5
638.421	606.5
638.626	578.5
638.832	585.5
639.037	579.5
639.243	574.5
639.448	588.5
639.654	591.5
639.859	611.5
640.065	586.5
640.27	603.5
640.475	614.5
640.681	609.5
640.886	631.5
641.091	610.5
641.297	641.5
641.502	629.5
641.707	655.5
641.913	643.5
642.118	630.5
642.323	670.5
642.528	683.5
642.733	709.5
642.939	714.5
643.144	744.5
643.349	777.5
643.554	790.5
643.759	801.5
643.964	853.5
644.169	915.5
644.374	912.5
644.579	1055.5
644.784	1149.5
644.989	1262.5
645.194	1534.5
645.399	1872.5
645.604	2001.5
645.809	1518.5
646.014	1109.5
646.219	957.5
646.423	838.5
646.628	762.5
646.833	700.5
647.038	700.5
647.243	630.5
647.447	608.5
647.652	626.5
647.857	602.5
648.062	580.5
648.266	593.5
648.471	562.5
648.676	545.5
648.88	559.5
649.085	545.5
649.289	549.5
649.494	499.5
649.698	503.5
649.903	505.5
650.107	487.5
650.312	495.5
650.516	479.5
650.721	473.5
650.925	449.5
651.13	460.5
651.334	439.5
651.539	439.5
651.743	440.5
651.947	418.5
652.152	429.5
652.356	423.5
652.56	456.5
652.764	490.5
652.969	474.5
653.173	424.5
653.377	383.5
653.581	377.5
653.785	385.5
653.99	363.5
654.194	377.5
654.398	361.5
654.602	368.5
654.806	344.5
655.01	365.5
655.214	336.5
655.418	364.5
655.622	351.5
655.826	357.5
656.03	360.5
656.234	350.5
656.438	379.5
656.642	371.5
656.846	386.5
657.049	350.5
657.253	346.5
657.457	302.5
657.661	297.5
657.865	289.5
658.068	263.5
658.272	257.5
658.476	237.5
658.68	223.5
658.883	215.5
659.087	213.5
659.291	194.5
659.494	196.5
659.698	171.5
659.901	165.5
660.105	159.5
660.309	155.5
660.512	168.5
660.716	144.5
660.919	139.5
661.123	141.5
661.326	131.5
661.53	135.5
661.733	121.5
661.936	115.5
662.14	119.5
662.343	113.5
662.546	109.5
662.75	107.5
662.953	125.5
663.156	101.5
663.36	99.5
663.563	87.5
663.766	89.5
663.969	99.5
664.173	91.5
664.376	80.5
664.579	75.5
664.782	76.5
664.985	87.5
665.188	84.5
665.391	81.5
665.594	98.5
665.797	87.5
666	92.5
666.203	78.5
666.406	96.5
666.609	82.5
666.812	80.5
667.015	86.5
667.218	80.5
667.421	79.5
667.624	84.5
667.827	83.5
668.03	93.5
668.232	77.5
668.435	83.5
668.638	85.5
668.841	74.5
669.043	83.5
669.246	83.5
669.449	86.5
669.651	112.5
669.854	83.5
670.057	82.5
670.259	74.5
670.462	83.5
670.665	78.5
670.867	86.5
671.07	80.5
671.272	84.5
671.475	73.5
671.677	92.5
671.88	101.5
672.082	86.5
672.284	83.5
672.487	77.5
672.689	80.5
672.892	73.5
