Data from SnStandardFlinnAPT0064_LampEnergy5.5_LIBS07252019.E.O._I.C._HRD10591_15-15-35-491.txt Node
Date: Thu Jul 25 15:15:35 EDT 2019
User: cochatt
Spectrometer: HR+D1059
Trigger mode: 1
Integration Time (sec): 1.000000E-1
Scans to average: 1
Electric dark correction enabled: true
Nonlinearity correction enabled: false
Boxcar width: 0
XAxis mode: Wavelengths
Number of Pixels in Spectrum: 2048
>>>>>Begin Spectral Data<<<<<
223.165	-14.94
223.4	-14.94
223.635	-14.94
223.869	-10.94
224.104	-23.94
224.338	-9.94
224.573	-6.94
224.808	-14.94
225.042	1.06
225.277	-9.94
225.511	-19.94
225.746	6.06
225.98	6.06
226.215	3.06
226.449	17.06
226.683	19.06
226.918	30.06
227.152	29.06
227.387	36.06
227.621	44.06
227.856	35.06
228.09	38.06
228.324	52.06
228.559	72.06
228.793	77.06
229.027	134.06
229.262	142.06
229.496	156.06
229.73	153.06
229.964	150.06
230.199	154.06
230.433	161.06
230.667	171.06
230.901	148.06
231.136	170.06
231.37	163.06
231.604	167.06
231.838	188.06
232.072	223.06
232.306	225.06
232.541	194.06
232.775	188.06
233.009	196.06
233.243	202.06
233.477	199.06
233.711	226.06
233.945	243.06
234.179	220.06
234.413	217.06
234.647	215.06
234.881	216.06
235.115	232.06
235.349	253.06
235.583	291.06
235.817	367.06
236.051	366.06
236.285	278.06
236.519	245.06
236.753	229.06
236.987	221.06
237.221	244.06
237.455	226.06
237.689	222.06
237.922	218.06
238.156	216.06
238.39	227.06
238.624	218.06
238.858	214.06
239.091	225.06
239.325	220.06
239.559	211.06
239.793	227.06
240.027	247.06
240.26	224.06
240.494	243.06
240.728	229.06
240.961	246.06
241.195	269.06
241.429	285.06
241.662	289.06
241.896	309.06
242.13	354.06
242.363	439.06
242.597	533.06
242.83	522.06
243.064	559.06
243.298	617.06
243.531	541.06
243.765	370.06
243.998	313.06
244.232	288.06
244.465	289.06
244.699	272.06
244.932	286.06
245.166	271.06
245.399	285.06
245.633	298.06
245.866	285.06
246.099	273.06
246.333	262.06
246.566	272.06
246.8	263.06
247.033	268.06
247.266	278.06
247.5	281.06
247.733	287.06
247.966	292.06
248.2	305.06
248.433	334.06
248.666	345.06
248.899	356.06
249.133	335.06
249.366	329.06
249.599	340.06
249.832	391.06
250.066	402.06
250.299	334.06
250.532	331.06
250.765	308.06
250.998	320.06
251.231	293.06
251.465	309.06
251.698	317.06
251.931	313.06
252.164	311.06
252.397	319.06
252.63	299.06
252.863	334.06
253.096	325.06
253.329	321.06
253.562	324.06
253.795	320.06
254.028	345.06
254.261	344.06
254.494	367.06
254.727	397.06
254.96	473.06
255.193	436.06
255.426	396.06
255.659	374.06
255.892	364.06
256.124	366.06
256.357	379.06
256.59	364.06
256.823	363.06
257.056	421.06
257.289	484.06
257.521	521.06
257.754	436.06
257.987	393.06
258.22	387.06
258.452	375.06
258.685	398.06
258.918	403.06
259.151	415.06
259.383	430.06
259.616	443.06
259.849	473.06
260.081	425.06
260.314	405.06
260.547	388.06
260.779	385.06
261.012	405.06
261.244	398.06
261.477	413.06
261.71	390.06
261.942	422.06
262.175	422.06
262.407	444.06
262.64	439.06
262.872	450.06
263.105	485.06
263.337	515.06
263.57	513.06
263.802	532.06
264.035	546.06
264.267	548.06
264.499	561.06
264.732	573.06
264.964	606.06
265.197	598.06
265.429	599.06
265.661	620.06
265.894	641.06
266.126	665.06
266.358	774.06
266.591	707.06
266.823	632.06
267.055	607.06
267.287	575.06
267.52	545.06
267.752	542.06
267.984	536.06
268.216	523.06
268.448	519.06
268.681	534.06
268.913	478.06
269.145	506.06
269.377	516.06
269.609	485.06
269.841	502.06
270.073	525.06
270.306	616.06
270.538	774.06
270.77	1077.06
271.002	1313.06
271.234	937.06
271.466	684.06
271.698	550.06
271.93	540.06
272.162	535.06
272.394	542.06
272.626	539.06
272.858	509.06
273.09	509.06
273.322	504.06
273.553	512.06
273.785	487.06
274.017	481.06
274.249	498.06
274.481	485.06
274.713	491.06
274.945	499.06
275.176	503.06
275.408	488.06
275.64	508.06
275.872	474.06
276.104	480.06
276.335	519.06
276.567	506.06
276.799	507.06
277.031	525.06
277.262	537.06
277.494	535.06
277.726	589.06
277.957	659.06
278.189	706.06
278.421	679.06
278.652	639.06
278.884	586.06
279.115	558.06
279.347	543.06
279.579	565.06
279.81	539.06
280.042	551.06
280.273	553.06
280.505	570.06
280.736	575.06
280.968	590.06
281.199	627.06
281.431	695.06
281.662	712.06
281.894	657.06
282.125	621.06
282.356	633.06
282.588	619.06
282.819	655.06
283.051	655.06
283.282	748.06
283.513	868.06
283.745	1234.06
283.976	1869.06
284.207	2623.06
284.439	2362.06
284.67	1479.06
284.901	1150.06
285.132	1175.06
285.364	1121.06
285.595	921.06
285.826	829.06
286.057	1006.06
286.288	1285.06
286.52	1655.06
286.751	1606.06
286.982	1011.06
287.213	818.06
287.444	739.06
287.675	694.06
287.906	675.06
288.138	680.06
288.369	682.06
288.6	650.06
288.831	634.06
289.062	672.06
289.293	674.06
289.524	680.06
289.755	650.06
289.986	677.06
290.217	655.06
290.448	668.06
290.679	669.06
290.91	694.06
291.141	684.06
291.371	733.06
291.602	763.06
291.833	707.06
292.064	642.06
292.295	630.06
292.526	629.06
292.757	616.06
292.987	605.06
293.218	629.06
293.449	625.06
293.68	621.06
293.91	611.06
294.141	619.06
294.372	611.06
294.603	629.06
294.833	633.06
295.064	631.06
295.295	625.06
295.525	625.06
295.756	636.06
295.987	631.06
296.217	629.06
296.448	636.06
296.679	610.06
296.909	626.06
297.14	618.06
297.37	619.06
297.601	636.06
297.831	633.06
298.062	639.06
298.292	642.06
298.523	649.06
298.753	664.06
298.984	667.06
299.214	677.06
299.445	688.06
299.675	677.06
299.905	718.06
300.136	731.06
300.366	787.06
300.597	963.06
300.827	1283.06
301.057	1664.06
301.288	1619.06
301.518	1114.06
301.748	918.06
301.979	853.06
302.209	835.06
302.439	851.06
302.669	903.06
302.9	992.06
303.13	1362.06
303.36	1885.06
303.59	2521.06
303.82	2183.06
304.051	1390.06
304.281	1038.06
304.511	906.06
304.741	847.06
304.971	787.06
305.201	769.06
305.431	756.06
305.661	750.06
305.891	726.06
306.121	728.06
306.352	709.06
306.582	718.06
306.812	738.06
307.042	725.06
307.272	730.06
307.502	707.06
307.731	724.06
307.961	723.06
308.191	725.06
308.421	701.06
308.651	699.06
308.881	726.06
309.111	756.06
309.341	739.06
309.571	727.06
309.8	718.06
310.03	734.06
310.26	721.06
310.49	716.06
310.72	758.06
310.949	747.06
311.179	758.06
311.409	748.06
311.639	747.06
311.868	778.06
312.098	741.06
312.328	766.06
312.557	765.06
312.787	789.06
313.017	770.06
313.246	782.06
313.476	775.06
313.706	781.06
313.935	831.06
314.165	859.06
314.394	899.06
314.624	857.06
314.853	827.06
315.083	838.06
315.312	828.06
315.542	823.06
315.771	828.06
316.001	829.06
316.23	848.06
316.46	907.06
316.689	938.06
316.919	1115.06
317.148	1555.06
317.377	2277.06
317.607	3346.06
317.836	3418.06
318.065	2082.06
318.295	1390.06
318.524	1176.06
318.753	1066.06
318.983	1002.06
319.212	948.06
319.441	943.06
319.67	922.06
319.9	905.06
320.129	913.06
320.358	895.06
320.587	891.06
320.816	886.06
321.046	895.06
321.275	904.06
321.504	898.06
321.733	946.06
321.962	927.06
322.191	936.06
322.42	943.06
322.649	954.06
322.878	973.06
323.108	940.06
323.337	968.06
323.566	952.06
323.795	979.06
324.024	988.06
324.253	1047.06
324.482	1035.06
324.71	1095.06
324.939	1134.06
325.168	1182.06
325.397	1220.06
325.626	1361.06
325.855	1860.06
326.084	2769.06
326.313	4078.06
326.542	4289.06
326.77	2851.06
326.999	1953.06
327.228	1676.06
327.457	1592.06
327.686	1616.06
327.914	1705.06
328.143	1948.06
328.372	2283.06
328.6	2412.06
328.829	2231.06
329.058	1986.06
329.287	1785.06
329.515	1698.06
329.744	1561.06
329.972	1460.06
330.201	1464.06
330.43	1405.06
330.658	1342.06
330.887	1312.06
331.115	1306.06
331.344	1282.06
331.572	1282.06
331.801	1292.06
332.03	1310.06
332.258	1293.06
332.486	1356.06
332.715	1497.06
332.943	1779.06
333.172	2128.06
333.4	2085.06
333.629	1730.06
333.857	1626.06
334.085	1631.06
334.314	1708.06
334.542	1782.06
334.771	2075.06
334.999	2402.06
335.227	2920.06
335.455	3227.06
335.684	3043.06
335.912	2602.06
336.14	2311.06
336.369	2047.06
336.597	1907.06
336.825	1725.06
337.053	1684.06
337.281	1610.06
337.51	1518.06
337.738	1417.06
337.966	1395.06
338.194	1350.06
338.422	1326.06
338.65	1260.06
338.878	1272.06
339.106	1260.06
339.334	1221.06
339.562	1210.06
339.79	1182.06
340.018	1197.06
340.246	1150.06
340.474	1132.06
340.702	1166.06
340.93	1153.06
341.158	1168.06
341.386	1145.06
341.614	1140.06
341.842	1103.06
342.07	1107.06
342.298	1118.06
342.526	1083.06
342.754	1061.06
342.981	1062.06
343.209	1051.06
343.437	1070.06
343.665	1053.06
343.893	1109.06
344.12	1125.06
344.348	1085.06
344.576	1066.06
344.804	1071.06
345.031	1032.06
345.259	1004.06
345.487	1020.06
345.714	1030.06
345.942	990.06
346.17	964.06
346.397	998.06
346.625	984.06
346.853	980.06
347.08	973.06
347.308	979.06
347.535	969.06
347.763	973.06
347.99	1002.06
348.218	980.06
348.445	976.06
348.673	963.06
348.9	991.06
349.128	968.06
349.355	940.06
349.583	983.06
349.81	978.06
350.037	940.06
350.265	969.06
350.492	946.06
350.72	925.06
350.947	930.06
351.174	933.06
351.402	983.06
351.629	970.06
351.856	917.06
352.083	919.06
352.311	940.06
352.538	934.06
352.765	951.06
352.992	942.06
353.22	939.06
353.447	947.06
353.674	929.06
353.901	954.06
354.128	965.06
354.355	921.06
354.583	940.06
354.81	932.06
355.037	973.06
355.264	939.06
355.491	963.06
355.718	971.06
355.945	953.06
356.172	941.06
356.399	967.06
356.626	975.06
356.853	991.06
357.08	990.06
357.307	985.06
357.534	986.06
357.761	1010.06
357.988	988.06
358.215	1004.06
358.441	990.06
358.668	981.06
358.895	977.06
359.122	1013.06
359.349	1001.06
359.576	1013.06
359.802	980.06
360.029	977.06
360.256	999.06
360.483	1000.06
360.709	985.06
360.936	987.06
361.163	993.06
361.39	1004.06
361.616	1000.06
361.843	1027.06
362.07	1001.06
362.296	991.06
362.523	1001.06
362.749	1024.06
362.976	998.06
363.203	984.06
363.429	1001.06
363.656	1004.06
363.882	1023.06
364.109	990.06
364.335	989.06
364.562	997.06
364.788	979.06
365.015	1006.06
365.241	1009.06
365.468	1083.06
365.694	1095.06
365.92	1057.06
366.147	1010.06
366.373	1005.06
366.599	1038.06
366.826	1026.06
367.052	1012.06
367.278	1054.06
367.505	1010.06
367.731	1014.06
367.957	1042.06
368.184	1040.06
368.41	1041.06
368.636	1030.06
368.862	1043.06
369.089	1062.06
369.315	1057.06
369.541	1045.06
369.767	1038.06
369.993	1041.06
370.219	1014.06
370.445	1045.06
370.672	1058.06
370.898	1051.06
371.124	1066.06
371.35	1065.06
371.576	1102.06
371.802	1042.06
372.028	1074.06
372.254	1113.06
372.48	1101.06
372.706	1098.06
372.932	1115.06
373.158	1098.06
373.384	1112.06
373.61	1108.06
373.835	1094.06
374.061	1098.06
374.287	1124.06
374.513	1105.06
374.739	1124.06
374.965	1119.06
375.191	1147.06
375.416	1159.06
375.642	1117.06
375.868	1132.06
376.094	1150.06
376.319	1103.06
376.545	1102.06
376.771	1113.06
376.997	1093.06
377.222	1075.06
377.448	1069.06
377.674	1087.06
377.899	1071.06
378.125	1107.06
378.35	1061.06
378.576	1071.06
378.802	1080.06
379.027	1103.06
379.253	1119.06
379.478	1168.06
379.704	1327.06
379.929	1738.06
380.155	2453.06
380.38	2658.06
380.606	1761.06
380.831	1356.06
381.057	1225.06
381.282	1133.06
381.507	1093.06
381.733	1081.06
381.958	1084.06
382.184	1063.06
382.409	1061.06
382.634	1054.06
382.86	1081.06
383.085	1063.06
383.31	1061.06
383.535	1058.06
383.761	1100.06
383.986	1074.06
384.211	1099.06
384.436	1106.06
384.662	1108.06
384.887	1097.06
385.112	1089.06
385.337	1083.06
385.562	1138.06
385.787	1107.06
386.013	1093.06
386.238	1107.06
386.463	1116.06
386.688	1085.06
386.913	1070.06
387.138	1099.06
387.363	1103.06
387.588	1133.06
387.813	1105.06
388.038	1086.06
388.263	1123.06
388.488	1105.06
388.713	1114.06
388.938	1117.06
389.163	1095.06
389.387	1106.06
389.612	1105.06
389.837	1113.06
390.062	1117.06
390.287	1118.06
390.512	1156.06
390.736	1139.06
390.961	1147.06
391.186	1155.06
391.411	1160.06
391.636	1182.06
391.86	1159.06
392.085	1162.06
392.31	1161.06
392.534	1152.06
392.759	1152.06
392.984	1114.06
393.208	1116.06
393.433	1091.06
393.658	1121.06
393.882	1124.06
394.107	1091.06
394.331	1109.06
394.556	1161.06
394.78	1129.06
395.005	1155.06
395.229	1155.06
395.454	1128.06
395.678	1161.06
395.903	1157.06
396.127	1154.06
396.352	1139.06
396.576	1121.06
396.801	1157.06
397.025	1146.06
397.249	1171.06
397.474	1171.06
397.698	1214.06
397.922	1168.06
398.147	1181.06
398.371	1193.06
398.595	1194.06
398.82	1230.06
399.044	1262.06
399.268	1346.06
399.492	1437.06
399.717	1484.06
399.941	1493.06
400.165	1397.06
400.389	1358.06
400.613	1329.06
400.837	1260.06
401.062	1253.06
401.286	1212.06
401.51	1222.06
401.734	1245.06
401.958	1239.06
402.182	1223.06
402.406	1228.06
402.63	1262.06
402.854	1249.06
403.078	1254.06
403.302	1271.06
403.526	1281.06
403.75	1267.06
403.974	1293.06
404.198	1283.06
404.422	1274.06
404.645	1264.06
404.869	1252.06
405.093	1302.06
405.317	1268.06
405.541	1266.06
405.765	1282.06
405.988	1316.06
406.212	1287.06
406.436	1300.06
406.66	1342.06
406.883	1311.06
407.107	1384.06
407.331	1359.06
407.555	1377.06
407.778	1382.06
408.002	1371.06
408.226	1365.06
408.449	1339.06
408.673	1324.06
408.896	1305.06
409.12	1283.06
409.344	1299.06
409.567	1291.06
409.791	1278.06
410.014	1277.06
410.238	1282.06
410.461	1247.06
410.685	1241.06
410.908	1249.06
411.132	1239.06
411.355	1244.06
411.578	1207.06
411.802	1232.06
412.025	1230.06
412.249	1217.06
412.472	1217.06
412.695	1198.06
412.919	1199.06
413.142	1228.06
413.365	1237.06
413.589	1229.06
413.812	1207.06
414.035	1193.06
414.258	1190.06
414.482	1208.06
414.705	1209.06
414.928	1226.06
415.151	1217.06
415.374	1205.06
415.597	1158.06
415.821	1192.06
416.044	1156.06
416.267	1165.06
416.49	1170.06
416.713	1162.06
416.936	1172.06
417.159	1145.06
417.382	1149.06
417.605	1146.06
417.828	1150.06
418.051	1158.06
418.274	1171.06
418.497	1185.06
418.72	1213.06
418.943	1164.06
419.166	1233.06
419.389	1327.06
419.611	1265.06
419.834	1242.06
420.057	1204.06
420.28	1180.06
420.503	1186.06
420.726	1164.06
420.948	1165.06
421.171	1159.06
421.394	1166.06
421.617	1167.06
421.839	1201.06
422.062	1194.06
422.285	1157.06
422.507	1193.06
422.73	1171.06
422.953	1211.06
423.175	1205.06
423.398	1173.06
423.621	1203.06
423.843	1187.06
424.066	1197.06
424.288	1188.06
424.511	1166.06
424.733	1193.06
424.956	1158.06
425.178	1153.06
425.401	1165.06
425.623	1166.06
425.846	1140.06
426.068	1127.06
426.291	1127.06
426.513	1127.06
426.735	1123.06
426.958	1115.06
427.18	1080.06
427.402	1102.06
427.625	1113.06
427.847	1078.06
428.069	1065.06
428.292	1165.06
428.514	1084.06
428.736	1096.06
428.958	1106.06
429.181	1075.06
429.403	1077.06
429.625	1077.06
429.847	1079.06
430.069	1129.06
430.292	1157.06
430.514	1117.06
430.736	1109.06
430.958	1081.06
431.18	1062.06
431.402	1086.06
431.624	1093.06
431.846	1061.06
432.068	1059.06
432.29	1050.06
432.512	1048.06
432.734	1097.06
432.956	1082.06
433.178	1080.06
433.4	1094.06
433.622	1081.06
433.844	1081.06
434.066	1090.06
434.287	1056.06
434.509	1076.06
434.731	1107.06
434.953	1111.06
435.175	1109.06
435.397	1107.06
435.618	1113.06
435.84	1112.06
436.062	1054.06
436.284	1061.06
436.505	1069.06
436.727	1074.06
436.949	1079.06
437.17	1094.06
437.392	1064.06
437.614	1063.06
437.835	1015.06
438.057	1031.06
438.278	1050.06
438.5	1079.06
438.721	1071.06
438.943	1077.06
439.165	1063.06
439.386	1085.06
439.608	1095.06
439.829	1101.06
440.05	1151.06
440.272	1168.06
440.493	1090.06
440.715	1121.06
440.936	1126.06
441.158	1129.06
441.379	1140.06
441.6	1158.06
441.822	1188.06
442.043	1227.06
442.264	1238.06
442.486	1190.06
442.707	1139.06
442.928	1154.06
443.149	1137.06
443.371	1147.06
443.592	1146.06
443.813	1174.06
444.034	1191.06
444.255	1181.06
444.476	1228.06
444.698	1260.06
444.919	1268.06
445.14	1300.06
445.361	1222.06
445.582	1197.06
445.803	1188.06
446.024	1141.06
446.245	1161.06
446.466	1171.06
446.687	1130.06
446.908	1113.06
447.129	1104.06
447.35	1067.06
447.571	1110.06
447.792	1075.06
448.013	1064.06
448.234	1077.06
448.455	1089.06
448.675	1061.06
448.896	1083.06
449.117	1109.06
449.338	1150.06
449.559	1236.06
449.779	1114.06
450	1069.06
450.221	1049.06
450.442	1028.06
450.662	1047.06
450.883	1049.06
451.104	1049.06
451.324	1037.06
451.545	1042.06
451.766	1050.06
451.986	1041.06
452.207	1086.06
452.428	1262.06
452.648	1651.06
452.869	1459.06
453.089	1150.06
453.31	1130.06
453.53	1101.06
453.751	1130.06
453.971	1180.06
454.192	1176.06
454.412	1056.06
454.633	1025.06
454.853	1012.06
455.073	988.06
455.294	1002.06
455.514	972.06
455.734	985.06
455.955	993.06
456.175	989.06
456.395	972.06
456.616	977.06
456.836	1003.06
457.056	1015.06
457.276	963.06
457.497	1013.06
457.717	1001.06
457.937	1053.06
458.157	1032.06
458.377	1027.06
458.598	1056.06
458.818	1044.06
459.038	1067.06
459.258	1060.06
459.478	1080.06
459.698	1083.06
459.918	1075.06
460.138	1117.06
460.358	1142.06
460.578	1148.06
460.798	1153.06
461.018	1172.06
461.238	1157.06
461.458	1171.06
461.678	1170.06
461.898	1211.06
462.118	1195.06
462.338	1205.06
462.558	1239.06
462.777	1265.06
462.997	1259.06
463.217	1340.06
463.437	1309.06
463.657	1352.06
463.876	1360.06
464.096	1289.06
464.316	1278.06
464.536	1256.06
464.755	1247.06
464.975	1228.06
465.195	1194.06
465.414	1137.06
465.634	1107.06
465.854	1069.06
466.073	1118.06
466.293	1077.06
466.512	1064.06
466.732	1087.06
466.951	1108.06
467.171	1189.06
467.391	1166.06
467.61	1079.06
467.829	1061.06
468.049	1094.06
468.268	1062.06
468.488	1069.06
468.707	1047.06
468.927	1054.06
469.146	1063.06
469.365	1088.06
469.585	1062.06
469.804	1089.06
470.023	1091.06
470.243	1077.06
470.462	1110.06
470.681	1203.06
470.901	1267.06
471.12	1429.06
471.339	1435.06
471.558	1221.06
471.777	1171.06
471.997	1115.06
472.216	1089.06
472.435	1074.06
472.654	1054.06
472.873	1048.06
473.092	1058.06
473.311	1073.06
473.53	1069.06
473.749	1083.06
473.968	1138.06
474.187	1045.06
474.406	1047.06
474.625	1086.06
474.844	1049.06
475.063	1051.06
475.282	1064.06
475.501	1072.06
475.72	1067.06
475.939	1089.06
476.158	1123.06
476.377	1124.06
476.596	1117.06
476.814	1134.06
477.033	1138.06
477.252	1117.06
477.471	1132.06
477.69	1150.06
477.908	1202.06
478.127	1176.06
478.346	1237.06
478.564	1231.06
478.783	1224.06
479.002	1244.06
479.22	1240.06
479.439	1250.06
479.658	1258.06
479.876	1251.06
480.095	1284.06
480.313	1285.06
480.532	1297.06
480.751	1308.06
480.969	1250.06
481.188	1223.06
481.406	1249.06
481.624	1259.06
481.843	1244.06
482.061	1239.06
482.28	1242.06
482.498	1222.06
482.717	1253.06
482.935	1259.06
483.153	1294.06
483.372	1342.06
483.59	1318.06
483.808	1354.06
484.027	1362.06
484.245	1378.06
484.463	1542.06
484.681	1645.06
484.9	1537.06
485.118	1473.06
485.336	1451.06
485.554	1451.06
485.772	1531.06
485.99	1707.06
486.209	1754.06
486.427	1540.06
486.645	1468.06
486.863	1415.06
487.081	1365.06
487.299	1357.06
487.517	1355.06
487.735	1373.06
487.953	1387.06
488.171	1377.06
488.389	1344.06
488.607	1365.06
488.825	1330.06
489.043	1302.06
489.261	1254.06
489.479	1295.06
489.696	1282.06
489.914	1301.06
490.132	1311.06
490.35	1325.06
490.568	1310.06
490.786	1363.06
491.003	1349.06
491.221	1403.06
491.439	1393.06
491.657	1366.06
491.874	1390.06
492.092	1417.06
492.31	1461.06
492.527	1469.06
492.745	1407.06
492.963	1417.06
493.18	1414.06
493.398	1419.06
493.615	1387.06
493.833	1393.06
494.05	1433.06
494.268	1402.06
494.485	1379.06
494.703	1395.06
494.92	1404.06
495.138	1383.06
495.355	1430.06
495.573	1385.06
495.79	1401.06
496.008	1419.06
496.225	1416.06
496.442	1432.06
496.66	1471.06
496.877	1537.06
497.094	1493.06
497.312	1504.06
497.529	1484.06
497.746	1495.06
497.963	1528.06
498.181	1555.06
498.398	1555.06
498.615	1625.06
498.832	1675.06
499.049	1750.06
499.267	1880.06
499.484	1960.06
499.701	2026.06
499.918	2115.06
500.135	2236.06
500.352	2371.06
500.569	2372.06
500.786	2378.06
501.003	2235.06
501.22	2181.06
501.437	2016.06
501.654	1906.06
501.871	1827.06
502.088	1770.06
502.305	1723.06
502.522	1672.06
502.739	1642.06
502.956	1595.06
503.172	1514.06
503.389	1512.06
503.606	1469.06
503.823	1431.06
504.04	1428.06
504.256	1428.06
504.473	1422.06
504.69	1458.06
504.907	1395.06
505.123	1417.06
505.34	1341.06
505.557	1333.06
505.773	1276.06
505.99	1285.06
506.207	1271.06
506.423	1267.06
506.64	1227.06
506.856	1242.06
507.073	1191.06
507.289	1220.06
507.506	1178.06
507.722	1209.06
507.939	1237.06
508.155	1222.06
508.372	1213.06
508.588	1211.06
508.805	1182.06
509.021	1167.06
509.238	1173.06
509.454	1249.06
509.67	1292.06
509.887	1203.06
510.103	1193.06
510.319	1198.06
510.536	1187.06
510.752	1173.06
510.968	1184.06
511.184	1151.06
511.401	1149.06
511.617	1146.06
511.833	1144.06
512.049	1118.06
512.265	1165.06
512.481	1133.06
512.698	1128.06
512.914	1126.06
513.13	1138.06
513.346	1156.06
513.562	1135.06
513.778	1144.06
513.994	1153.06
514.21	1193.06
514.426	1185.06
514.642	1239.06
514.858	1174.06
515.074	1172.06
515.29	1154.06
515.506	1159.06
515.721	1161.06
515.937	1161.06
516.153	1148.06
516.369	1161.06
516.585	1185.06
516.801	1223.06
517.016	1239.06
517.232	1222.06
517.448	1257.06
517.664	1265.06
517.879	1277.06
518.095	1313.06
518.311	1258.06
518.527	1245.06
518.742	1233.06
518.958	1250.06
519.173	1262.06
519.389	1217.06
519.605	1189.06
519.82	1165.06
520.036	1165.06
520.251	1164.06
520.467	1164.06
520.682	1153.06
520.898	1131.06
521.113	1137.06
521.329	1114.06
521.544	1095.06
521.76	1123.06
521.975	1127.06
522.19	1123.06
522.406	1126.06
522.621	1116.06
522.836	1118.06
523.052	1094.06
523.267	1099.06
523.482	1077.06
523.698	1081.06
523.913	1105.06
524.128	1122.06
524.343	1103.06
524.559	1113.06
524.774	1087.06
524.989	1109.06
525.204	1123.06
525.419	1083.06
525.634	1099.06
525.849	1108.06
526.064	1102.06
526.28	1100.06
526.495	1092.06
526.71	1093.06
526.925	1114.06
527.14	1076.06
527.355	1107.06
527.57	1094.06
527.785	1105.06
527.999	1099.06
528.214	1113.06
528.429	1109.06
528.644	1163.06
528.859	1190.06
529.074	1186.06
529.289	1182.06
529.503	1162.06
529.718	1193.06
529.933	1174.06
530.148	1155.06
530.363	1177.06
530.577	1157.06
530.792	1142.06
531.007	1163.06
531.221	1146.06
531.436	1133.06
531.651	1174.06
531.865	1144.06
532.08	1177.06
532.295	1246.06
532.509	1294.06
532.724	1290.06
532.938	1267.06
533.153	1307.06
533.367	1380.06
533.582	1423.06
533.796	1412.06
534.011	1393.06
534.225	1289.06
534.44	1293.06
534.654	1290.06
534.868	1283.06
535.083	1293.06
535.297	1291.06
535.511	1209.06
535.726	1227.06
535.94	1217.06
536.154	1159.06
536.369	1136.06
536.583	1121.06
536.797	1129.06
537.011	1110.06
537.225	1103.06
537.44	1121.06
537.654	1112.06
537.868	1107.06
538.082	1126.06
538.296	1083.06
538.51	1076.06
538.724	1099.06
538.938	1097.06
539.153	1101.06
539.367	1112.06
539.581	1067.06
539.795	1056.06
540.009	1040.06
540.222	1036.06
540.436	1047.06
540.65	1068.06
540.864	1049.06
541.078	1093.06
541.292	1129.06
541.506	1318.06
541.72	1365.06
541.934	1193.06
542.147	1180.06
542.361	1153.06
542.575	1093.06
542.789	1060.06
543.002	1065.06
543.216	1044.06
543.43	1026.06
543.644	1033.06
543.857	1036.06
544.071	1063.06
544.285	1059.06
544.498	1051.06
544.712	1059.06
544.925	1073.06
545.139	1079.06
545.352	1045.06
545.566	1066.06
545.779	1083.06
545.993	1122.06
546.206	1124.06
546.42	1082.06
546.633	1082.06
546.847	1074.06
547.06	1062.06
547.274	1086.06
547.487	1093.06
547.7	1079.06
547.914	1073.06
548.127	1071.06
548.34	1060.06
548.554	1073.06
548.767	1065.06
548.98	1104.06
549.193	1081.06
549.407	1052.06
549.62	1075.06
549.833	1081.06
550.046	1102.06
550.259	1074.06
550.473	1082.06
550.686	1073.06
550.899	1053.06
551.112	1057.06
551.325	1078.06
551.538	1059.06
551.751	1063.06
551.964	1073.06
552.177	1030.06
552.39	1069.06
552.603	1149.06
552.816	1125.06
553.029	1132.06
553.242	1142.06
553.455	1181.06
553.667	1168.06
553.88	1138.06
554.093	1190.06
554.306	1182.06
554.519	1170.06
554.732	1223.06
554.944	1214.06
555.157	1212.06
555.37	1219.06
555.583	1265.06
555.795	1319.06
556.008	1379.06
556.221	1467.06
556.433	1486.06
556.646	1553.06
556.859	1494.06
557.071	1442.06
557.284	1434.06
557.496	1400.06
557.709	1383.06
557.921	1388.06
558.134	1418.06
558.346	1391.06
558.559	1470.06
558.771	1518.06
558.984	1542.06
559.196	1646.06
559.409	1591.06
559.621	1510.06
559.833	1466.06
560.046	1417.06
560.258	1348.06
560.47	1300.06
560.683	1268.06
560.895	1209.06
561.107	1204.06
561.32	1181.06
561.532	1172.06
561.744	1118.06
561.956	1090.06
562.168	1075.06
562.381	1116.06
562.593	1068.06
562.805	1075.06
563.017	1062.06
563.229	1073.06
563.441	1160.06
563.653	1063.06
563.865	1029.06
564.077	1003.06
564.289	991.06
564.501	970.06
564.713	983.06
564.925	976.06
565.137	990.06
565.349	964.06
565.561	991.06
565.773	1009.06
565.985	1025.06
566.197	1010.06
566.408	1050.06
566.62	1067.06
566.832	1088.06
567.044	1059.06
567.255	1089.06
567.467	1112.06
567.679	1126.06
567.891	1184.06
568.102	1250.06
568.314	1420.06
568.526	1231.06
568.737	1107.06
568.949	1048.06
569.161	953.06
569.372	919.06
569.584	857.06
569.795	889.06
570.007	861.06
570.218	849.06
570.43	891.06
570.641	848.06
570.853	829.06
571.064	820.06
571.276	818.06
571.487	795.06
571.698	805.06
571.91	828.06
572.121	796.06
572.333	807.06
572.544	798.06
572.755	826.06
572.966	934.06
573.178	849.06
573.389	798.06
573.6	748.06
573.811	739.06
574.023	718.06
574.234	708.06
574.445	740.06
574.656	718.06
574.867	702.06
575.078	712.06
575.289	727.06
575.501	738.06
575.712	717.06
575.923	710.06
576.134	719.06
576.345	731.06
576.556	730.06
576.767	719.06
576.978	737.06
577.188	724.06
577.399	740.06
577.61	733.06
577.821	733.06
578.032	728.06
578.243	735.06
578.454	743.06
578.665	765.06
578.875	760.06
579.086	791.06
579.297	831.06
579.508	839.06
579.718	901.06
579.929	981.06
580.14	1073.06
580.35	1121.06
580.561	1044.06
580.772	996.06
580.982	927.06
581.193	898.06
581.403	877.06
581.614	834.06
581.825	817.06
582.035	796.06
582.246	763.06
582.456	745.06
582.667	741.06
582.877	713.06
583.087	711.06
583.298	678.06
583.508	679.06
583.719	648.06
583.929	652.06
584.139	637.06
584.35	621.06
584.56	600.06
584.77	620.06
584.981	609.06
585.191	604.06
585.401	590.06
585.611	587.06
585.821	597.06
586.032	560.06
586.242	578.06
586.452	566.06
586.662	561.06
586.872	569.06
587.082	559.06
587.292	534.06
587.502	545.06
587.713	563.06
587.923	566.06
588.133	550.06
588.343	556.06
588.553	533.06
588.762	545.06
588.972	535.06
589.182	533.06
589.392	487.06
589.602	501.06
589.812	508.06
590.022	507.06
590.232	524.06
590.441	526.06
590.651	503.06
590.861	523.06
591.071	508.06
591.281	510.06
591.49	527.06
591.7	522.06
591.91	533.06
592.119	547.06
592.329	517.06
592.539	533.06
592.748	525.06
592.958	561.06
593.167	554.06
593.377	531.06
593.587	556.06
593.796	548.06
594.006	533.06
594.215	546.06
594.424	541.06
594.634	523.06
594.843	534.06
595.053	515.06
595.262	507.06
595.472	507.06
595.681	495.06
595.89	493.06
596.1	487.06
596.309	484.06
596.518	484.06
596.727	461.06
596.937	467.06
597.146	463.06
597.355	475.06
597.564	457.06
597.774	457.06
597.983	447.06
598.192	435.06
598.401	427.06
598.61	418.06
598.819	418.06
599.028	447.06
599.237	413.06
599.446	427.06
599.655	448.06
599.864	443.06
600.073	427.06
600.282	421.06
600.491	424.06
600.7	423.06
600.909	443.06
601.118	423.06
601.327	435.06
601.536	430.06
601.745	426.06
601.953	470.06
602.162	521.06
602.371	485.06
602.58	452.06
602.789	440.06
602.997	415.06
603.206	437.06
603.415	434.06
603.623	426.06
603.832	412.06
604.041	417.06
604.249	427.06
604.458	411.06
604.666	422.06
604.875	395.06
605.084	415.06
605.292	413.06
605.501	422.06
605.709	414.06
605.918	426.06
606.126	423.06
606.334	409.06
606.543	423.06
606.751	474.06
606.96	500.06
607.168	545.06
607.376	452.06
607.585	424.06
607.793	422.06
608.001	414.06
608.21	415.06
608.418	401.06
608.626	416.06
608.834	405.06
609.043	394.06
609.251	402.06
609.459	397.06
609.667	403.06
609.875	403.06
610.083	405.06
610.291	401.06
610.499	387.06
610.707	404.06
610.916	379.06
611.124	397.06
611.332	403.06
611.54	413.06
611.748	373.06
611.955	385.06
612.163	397.06
612.371	377.06
612.579	380.06
612.787	381.06
612.995	383.06
613.203	393.06
613.411	381.06
613.618	391.06
613.826	375.06
614.034	379.06
614.242	398.06
614.449	376.06
614.657	398.06
614.865	371.06
615.072	374.06
615.28	397.06
615.488	387.06
615.695	393.06
615.903	383.06
616.111	390.06
616.318	380.06
616.526	385.06
616.733	370.06
616.941	370.06
617.148	371.06
617.356	357.06
617.563	371.06
617.771	362.06
617.978	362.06
618.185	365.06
618.393	373.06
618.6	375.06
618.807	366.06
619.015	378.06
619.222	361.06
619.429	356.06
619.637	351.06
619.844	341.06
620.051	359.06
620.258	353.06
620.466	352.06
620.673	322.06
620.88	354.06
621.087	330.06
621.294	335.06
621.501	342.06
621.708	331.06
621.915	345.06
622.122	335.06
622.329	340.06
622.536	328.06
622.743	347.06
622.95	338.06
623.157	335.06
623.364	346.06
623.571	337.06
623.778	356.06
623.985	328.06
624.192	335.06
624.399	320.06
624.606	331.06
624.812	324.06
625.019	319.06
625.226	341.06
625.433	323.06
625.639	310.06
625.846	322.06
626.053	300.06
626.259	309.06
626.466	306.06
626.673	316.06
626.879	295.06
627.086	298.06
627.293	312.06
627.499	309.06
627.706	306.06
627.912	301.06
628.119	309.06
628.325	323.06
628.532	312.06
628.738	319.06
628.945	309.06
629.151	309.06
629.357	310.06
629.564	306.06
629.77	314.06
629.976	316.06
630.183	287.06
630.389	297.06
630.595	291.06
630.802	316.06
631.008	318.06
631.214	296.06
631.42	307.06
631.627	280.06
631.833	287.06
632.039	299.06
632.245	292.06
632.451	289.06
632.657	286.06
632.863	307.06
633.069	289.06
633.275	280.06
633.481	297.06
633.688	285.06
633.893	278.06
634.099	294.06
634.305	308.06
634.511	282.06
634.717	306.06
634.923	305.06
635.129	325.06
635.335	364.06
635.541	324.06
635.747	313.06
635.952	300.06
636.158	291.06
636.364	323.06
636.57	282.06
636.775	298.06
636.981	298.06
637.187	286.06
637.392	280.06
637.598	297.06
637.804	289.06
638.009	281.06
638.215	285.06
638.421	305.06
638.626	295.06
638.832	281.06
639.037	297.06
639.243	292.06
639.448	295.06
639.654	293.06
639.859	293.06
640.065	285.06
640.27	292.06
640.475	301.06
640.681	289.06
640.886	308.06
641.091	297.06
641.297	309.06
641.502	299.06
641.707	301.06
641.913	313.06
642.118	321.06
642.323	323.06
642.528	329.06
642.733	329.06
642.939	331.06
643.144	336.06
643.349	360.06
643.554	356.06
643.759	356.06
643.964	366.06
644.169	406.06
644.374	405.06
644.579	422.06
644.784	447.06
644.989	521.06
645.194	580.06
645.399	635.06
645.604	641.06
645.809	531.06
646.014	460.06
646.219	399.06
646.423	367.06
646.628	355.06
646.833	333.06
647.038	334.06
647.243	298.06
647.447	301.06
647.652	288.06
647.857	284.06
648.062	291.06
648.266	286.06
648.471	277.06
648.676	265.06
648.88	282.06
649.085	269.06
649.289	276.06
649.494	271.06
649.698	264.06
649.903	263.06
650.107	244.06
650.312	273.06
650.516	228.06
650.721	247.06
650.925	265.06
651.13	247.06
651.334	236.06
651.539	233.06
651.743	228.06
651.947	235.06
652.152	230.06
652.356	233.06
652.56	239.06
652.764	264.06
652.969	243.06
653.173	221.06
653.377	220.06
653.581	205.06
653.785	200.06
653.99	209.06
654.194	185.06
654.398	209.06
654.602	202.06
654.806	185.06
655.01	194.06
655.214	212.06
655.418	201.06
655.622	196.06
655.826	206.06
656.03	228.06
656.234	225.06
656.438	230.06
656.642	220.06
656.846	204.06
657.049	222.06
657.253	202.06
657.457	175.06
657.661	192.06
657.865	157.06
658.068	141.06
658.272	164.06
658.476	161.06
658.68	141.06
658.883	154.06
659.087	134.06
659.291	131.06
659.494	137.06
659.698	121.06
659.901	125.06
660.105	125.06
660.309	124.06
660.512	122.06
660.716	116.06
660.919	111.06
661.123	123.06
661.326	115.06
661.53	102.06
661.733	102.06
661.936	106.06
662.14	95.06
662.343	73.06
662.546	105.06
662.75	94.06
662.953	94.06
663.156	95.06
663.36	81.06
663.563	85.06
663.766	100.06
663.969	85.06
664.173	87.06
664.376	80.06
664.579	84.06
664.782	95.06
664.985	82.06
665.188	79.06
665.391	74.06
665.594	76.06
665.797	92.06
666	90.06
666.203	88.06
666.406	79.06
666.609	80.06
666.812	88.06
667.015	97.06
667.218	86.06
667.421	94.06
667.624	77.06
667.827	82.06
668.03	85.06
668.232	76.06
668.435	94.06
668.638	84.06
668.841	89.06
669.043	89.06
669.246	82.06
669.449	83.06
669.651	80.06
669.854	86.06
670.057	82.06
670.259	73.06
670.462	96.06
670.665	91.06
670.867	93.06
671.07	88.06
671.272	87.06
671.475	90.06
671.677	84.06
671.88	67.06
672.082	85.06
672.284	84.06
672.487	92.06
672.689	83.06
672.892	93.06
