Data from SnStandardFlinnAPT0064_QswitchEnergy10_LIBS07252019.E.O._I.C._HRD10591_15-28-39-973.txt Node
Date: Thu Jul 25 15:28:39 EDT 2019
User: cochatt
Spectrometer: HR+D1059
Trigger mode: 1
Integration Time (sec): 1.000000E-1
Scans to average: 1
Electric dark correction enabled: true
Nonlinearity correction enabled: false
Boxcar width: 0
XAxis mode: Wavelengths
Number of Pixels in Spectrum: 2048
>>>>>Begin Spectral Data<<<<<
223.165	-14.12
223.4	-14.12
223.635	-14.12
223.869	-12.12
224.104	-1.12
224.338	-16.12
224.573	-23.12
224.808	-12.12
225.042	-11.12
225.277	0.88
225.511	-9.12
225.746	12.88
225.98	-4.12
226.215	21.88
226.449	1.88
226.683	17.88
226.918	19.88
227.152	27.88
227.387	9.88
227.621	41.88
227.856	34.88
228.09	40.88
228.324	59.88
228.559	52.88
228.793	70.88
229.027	59.88
229.262	65.88
229.496	65.88
229.73	76.88
229.964	64.88
230.199	63.88
230.433	70.88
230.667	71.88
230.901	87.88
231.136	80.88
231.37	86.88
231.604	97.88
231.838	113.88
232.072	125.88
232.306	130.88
232.541	95.88
232.775	91.88
233.009	86.88
233.243	102.88
233.477	93.88
233.711	96.88
233.945	117.88
234.179	82.88
234.413	89.88
234.647	89.88
234.881	85.88
235.115	72.88
235.349	86.88
235.583	98.88
235.817	132.88
236.051	149.88
236.285	97.88
236.519	74.88
236.753	90.88
236.987	87.88
237.221	73.88
237.455	83.88
237.689	72.88
237.922	78.88
238.156	93.88
238.39	80.88
238.624	79.88
238.858	83.88
239.091	85.88
239.325	75.88
239.559	78.88
239.793	64.88
240.027	83.88
240.26	80.88
240.494	75.88
240.728	74.88
240.961	90.88
241.195	84.88
241.429	85.88
241.662	88.88
241.896	90.88
242.13	111.88
242.363	136.88
242.597	175.88
242.83	149.88
243.064	140.88
243.298	153.88
243.531	162.88
243.765	105.88
243.998	89.88
244.232	78.88
244.465	84.88
244.699	76.88
244.932	84.88
245.166	84.88
245.399	92.88
245.633	85.88
245.866	92.88
246.099	82.88
246.333	90.88
246.566	88.88
246.8	89.88
247.033	85.88
247.266	80.88
247.5	75.88
247.733	78.88
247.966	88.88
248.2	98.88
248.433	95.88
248.666	136.88
248.899	133.88
249.133	89.88
249.366	104.88
249.599	115.88
249.832	130.88
250.066	132.88
250.299	83.88
250.532	81.88
250.765	85.88
250.998	80.88
251.231	86.88
251.465	84.88
251.698	87.88
251.931	75.88
252.164	81.88
252.397	75.88
252.63	101.88
252.863	96.88
253.096	110.88
253.329	94.88
253.562	89.88
253.795	83.88
254.028	78.88
254.261	87.88
254.494	101.88
254.727	111.88
254.96	160.88
255.193	127.88
255.426	90.88
255.659	93.88
255.892	91.88
256.124	98.88
256.357	89.88
256.59	106.88
256.823	110.88
257.056	128.88
257.289	164.88
257.521	195.88
257.754	129.88
257.987	101.88
258.22	84.88
258.452	72.88
258.685	91.88
258.918	73.88
259.151	94.88
259.383	119.88
259.616	145.88
259.849	163.88
260.081	103.88
260.314	97.88
260.547	79.88
260.779	95.88
261.012	89.88
261.244	94.88
261.477	88.88
261.71	87.88
261.942	87.88
262.175	82.88
262.407	70.88
262.64	73.88
262.872	75.88
263.105	79.88
263.337	82.88
263.57	92.88
263.802	90.88
264.035	79.88
264.267	85.88
264.499	89.88
264.732	81.88
264.964	85.88
265.197	94.88
265.429	94.88
265.661	87.88
265.894	103.88
266.126	123.88
266.358	160.88
266.591	157.88
266.823	100.88
267.055	80.88
267.287	101.88
267.52	89.88
267.752	98.88
267.984	87.88
268.216	96.88
268.448	90.88
268.681	102.88
268.913	75.88
269.145	91.88
269.377	112.88
269.609	90.88
269.841	91.88
270.073	111.88
270.306	137.88
270.538	214.88
270.77	341.88
271.002	395.88
271.234	197.88
271.466	115.88
271.698	92.88
271.93	94.88
272.162	97.88
272.394	91.88
272.626	91.88
272.858	82.88
273.09	75.88
273.322	81.88
273.553	100.88
273.785	89.88
274.017	89.88
274.249	78.88
274.481	91.88
274.713	93.88
274.945	90.88
275.176	98.88
275.408	95.88
275.64	111.88
275.872	81.88
276.104	94.88
276.335	111.88
276.567	119.88
276.799	107.88
277.031	89.88
277.262	90.88
277.494	109.88
277.726	134.88
277.957	193.88
278.189	277.88
278.421	253.88
278.652	209.88
278.884	193.88
279.115	139.88
279.347	111.88
279.579	121.88
279.81	114.88
280.042	102.88
280.273	101.88
280.505	107.88
280.736	117.88
280.968	136.88
281.199	178.88
281.431	269.88
281.662	288.88
281.894	161.88
282.125	112.88
282.356	114.88
282.588	109.88
282.819	106.88
283.051	117.88
283.282	133.88
283.513	202.88
283.745	340.88
283.976	591.88
284.207	861.88
284.439	653.88
284.67	290.88
284.901	273.88
285.132	392.88
285.364	405.88
285.595	224.88
285.826	186.88
286.057	257.88
286.288	466.88
286.52	666.88
286.751	536.88
286.982	189.88
287.213	131.88
287.444	107.88
287.675	102.88
287.906	99.88
288.138	93.88
288.369	100.88
288.6	97.88
288.831	105.88
289.062	91.88
289.293	81.88
289.524	96.88
289.755	110.88
289.986	122.88
290.217	110.88
290.448	113.88
290.679	103.88
290.91	127.88
291.141	178.88
291.371	262.88
291.602	331.88
291.833	216.88
292.064	125.88
292.295	109.88
292.526	104.88
292.757	102.88
292.987	112.88
293.218	99.88
293.449	96.88
293.68	104.88
293.91	103.88
294.141	104.88
294.372	102.88
294.603	86.88
294.833	84.88
295.064	79.88
295.295	89.88
295.525	108.88
295.756	102.88
295.987	89.88
296.217	87.88
296.448	97.88
296.679	113.88
296.909	106.88
297.14	98.88
297.37	99.88
297.601	95.88
297.831	110.88
298.062	101.88
298.292	103.88
298.523	112.88
298.753	99.88
298.984	97.88
299.214	107.88
299.445	104.88
299.675	108.88
299.905	113.88
300.136	131.88
300.366	173.88
300.597	275.88
300.827	478.88
301.057	762.88
301.288	689.88
301.518	275.88
301.748	164.88
301.979	139.88
302.209	141.88
302.439	141.88
302.669	183.88
302.9	280.88
303.13	545.88
303.36	968.88
303.59	1345.88
303.82	938.88
304.051	328.88
304.281	174.88
304.511	135.88
304.741	106.88
304.971	111.88
305.201	111.88
305.431	118.88
305.661	110.88
305.891	98.88
306.121	105.88
306.352	115.88
306.582	95.88
306.812	123.88
307.042	111.88
307.272	95.88
307.502	117.88
307.731	112.88
307.961	95.88
308.191	100.88
308.421	116.88
308.651	123.88
308.881	103.88
309.111	109.88
309.341	115.88
309.571	112.88
309.8	113.88
310.03	98.88
310.26	119.88
310.49	111.88
310.72	122.88
310.949	108.88
311.179	106.88
311.409	96.88
311.639	105.88
311.868	120.88
312.098	113.88
312.328	112.88
312.557	130.88
312.787	131.88
313.017	119.88
313.246	130.88
313.476	134.88
313.706	138.88
313.935	157.88
314.165	199.88
314.394	253.88
314.624	210.88
314.853	139.88
315.083	136.88
315.312	125.88
315.542	139.88
315.771	134.88
316.001	147.88
316.23	145.88
316.46	161.88
316.689	188.88
316.919	294.88
317.148	548.88
317.377	1034.88
317.607	1670.88
317.836	1545.88
318.065	588.88
318.295	233.88
318.524	173.88
318.753	148.88
318.983	135.88
319.212	121.88
319.441	129.88
319.67	132.88
319.9	121.88
320.129	123.88
320.358	107.88
320.587	114.88
320.816	142.88
321.046	153.88
321.275	138.88
321.504	139.88
321.733	146.88
321.962	183.88
322.191	185.88
322.42	132.88
322.649	131.88
322.878	125.88
323.108	141.88
323.337	130.88
323.566	136.88
323.795	152.88
324.024	126.88
324.253	140.88
324.482	193.88
324.71	247.88
324.939	292.88
325.168	238.88
325.397	206.88
325.626	275.88
325.855	554.88
326.084	1054.88
326.313	1761.88
326.542	1711.88
326.77	708.88
326.999	290.88
327.228	233.88
327.457	270.88
327.686	240.88
327.914	170.88
328.143	145.88
328.372	137.88
328.6	121.88
328.829	128.88
329.058	137.88
329.287	136.88
329.515	133.88
329.744	122.88
329.972	111.88
330.201	117.88
330.43	115.88
330.658	123.88
330.887	124.88
331.115	101.88
331.344	117.88
331.572	129.88
331.801	118.88
332.03	139.88
332.258	139.88
332.486	196.88
332.715	305.88
332.943	547.88
333.172	843.88
333.4	719.88
333.629	273.88
333.857	150.88
334.085	142.88
334.314	118.88
334.542	117.88
334.771	121.88
334.999	136.88
335.227	122.88
335.455	132.88
335.684	114.88
335.912	137.88
336.14	119.88
336.369	117.88
336.597	111.88
336.825	124.88
337.053	93.88
337.281	123.88
337.51	131.88
337.738	112.88
337.966	117.88
338.194	123.88
338.422	110.88
338.65	126.88
338.878	131.88
339.106	129.88
339.334	131.88
339.562	117.88
339.79	135.88
340.018	117.88
340.246	131.88
340.474	125.88
340.702	117.88
340.93	114.88
341.158	119.88
341.386	123.88
341.614	136.88
341.842	108.88
342.07	132.88
342.298	117.88
342.526	122.88
342.754	117.88
342.981	137.88
343.209	106.88
343.437	115.88
343.665	116.88
343.893	116.88
344.12	129.88
344.348	123.88
344.576	112.88
344.804	121.88
345.031	110.88
345.259	101.88
345.487	115.88
345.714	101.88
345.942	113.88
346.17	108.88
346.397	116.88
346.625	114.88
346.853	106.88
347.08	113.88
347.308	123.88
347.535	112.88
347.763	109.88
347.99	99.88
348.218	92.88
348.445	115.88
348.673	125.88
348.9	121.88
349.128	130.88
349.355	126.88
349.583	111.88
349.81	118.88
350.037	115.88
350.265	109.88
350.492	122.88
350.72	111.88
350.947	106.88
351.174	117.88
351.402	124.88
351.629	104.88
351.856	117.88
352.083	111.88
352.311	107.88
352.538	125.88
352.765	119.88
352.992	117.88
353.22	116.88
353.447	119.88
353.674	106.88
353.901	109.88
354.128	113.88
354.355	100.88
354.583	116.88
354.81	116.88
355.037	117.88
355.264	110.88
355.491	107.88
355.718	111.88
355.945	113.88
356.172	122.88
356.399	106.88
356.626	106.88
356.853	115.88
357.08	108.88
357.307	116.88
357.534	104.88
357.761	112.88
357.988	114.88
358.215	127.88
358.441	117.88
358.668	120.88
358.895	112.88
359.122	122.88
359.349	133.88
359.576	119.88
359.802	120.88
360.029	118.88
360.256	103.88
360.483	102.88
360.709	104.88
360.936	130.88
361.163	113.88
361.39	118.88
361.616	120.88
361.843	119.88
362.07	117.88
362.296	118.88
362.523	103.88
362.749	111.88
362.976	106.88
363.203	119.88
363.429	113.88
363.656	123.88
363.882	96.88
364.109	135.88
364.335	129.88
364.562	86.88
364.788	102.88
365.015	117.88
365.241	150.88
365.468	206.88
365.694	283.88
365.92	233.88
366.147	114.88
366.373	107.88
366.599	94.88
366.826	101.88
367.052	100.88
367.278	92.88
367.505	107.88
367.731	97.88
367.957	111.88
368.184	115.88
368.41	122.88
368.636	130.88
368.862	104.88
369.089	119.88
369.315	97.88
369.541	104.88
369.767	130.88
369.993	115.88
370.219	116.88
370.445	104.88
370.672	123.88
370.898	104.88
371.124	119.88
371.35	109.88
371.576	110.88
371.802	109.88
372.028	107.88
372.254	123.88
372.48	118.88
372.706	106.88
372.932	119.88
373.158	128.88
373.384	121.88
373.61	119.88
373.835	120.88
374.061	117.88
374.287	119.88
374.513	113.88
374.739	122.88
374.965	125.88
375.191	121.88
375.416	109.88
375.642	122.88
375.868	119.88
376.094	100.88
376.319	97.88
376.545	116.88
376.771	115.88
376.997	121.88
377.222	110.88
377.448	109.88
377.674	114.88
377.899	115.88
378.125	102.88
378.35	118.88
378.576	125.88
378.802	105.88
379.027	129.88
379.253	149.88
379.478	197.88
379.704	349.88
379.929	840.88
380.155	1752.88
380.38	1794.88
380.606	582.88
380.831	203.88
381.057	145.88
381.282	127.88
381.507	119.88
381.733	115.88
381.958	122.88
382.184	108.88
382.409	103.88
382.634	105.88
382.86	106.88
383.085	107.88
383.31	107.88
383.535	121.88
383.761	124.88
383.986	111.88
384.211	111.88
384.436	112.88
384.662	105.88
384.887	111.88
385.112	103.88
385.337	95.88
385.562	112.88
385.787	101.88
386.013	118.88
386.238	109.88
386.463	107.88
386.688	105.88
386.913	97.88
387.138	114.88
387.363	117.88
387.588	106.88
387.813	102.88
388.038	100.88
388.263	106.88
388.488	88.88
388.713	111.88
388.938	99.88
389.163	108.88
389.387	102.88
389.612	111.88
389.837	94.88
390.062	105.88
390.287	108.88
390.512	89.88
390.736	102.88
390.961	106.88
391.186	100.88
391.411	109.88
391.636	86.88
391.86	106.88
392.085	107.88
392.31	110.88
392.534	95.88
392.759	105.88
392.984	111.88
393.208	117.88
393.433	147.88
393.658	177.88
393.882	104.88
394.107	110.88
394.331	121.88
394.556	99.88
394.78	92.88
395.005	111.88
395.229	83.88
395.454	90.88
395.678	95.88
395.903	113.88
396.127	100.88
396.352	112.88
396.576	100.88
396.801	117.88
397.025	137.88
397.249	109.88
397.474	92.88
397.698	101.88
397.922	88.88
398.147	116.88
398.371	104.88
398.595	102.88
398.82	114.88
399.044	101.88
399.268	100.88
399.492	98.88
399.717	99.88
399.941	98.88
400.165	101.88
400.389	113.88
400.613	95.88
400.837	103.88
401.062	95.88
401.286	94.88
401.51	94.88
401.734	103.88
401.958	95.88
402.182	102.88
402.406	109.88
402.63	109.88
402.854	102.88
403.078	96.88
403.302	97.88
403.526	107.88
403.75	99.88
403.974	94.88
404.198	94.88
404.422	100.88
404.645	99.88
404.869	87.88
405.093	105.88
405.317	89.88
405.541	101.88
405.765	136.88
405.988	161.88
406.212	110.88
406.436	117.88
406.66	101.88
406.883	112.88
407.107	104.88
407.331	97.88
407.555	114.88
407.778	95.88
408.002	101.88
408.226	99.88
408.449	103.88
408.673	93.88
408.896	108.88
409.12	105.88
409.344	87.88
409.567	110.88
409.791	99.88
410.014	96.88
410.238	98.88
410.461	115.88
410.685	95.88
410.908	96.88
411.132	110.88
411.355	109.88
411.578	102.88
411.802	96.88
412.025	103.88
412.249	98.88
412.472	102.88
412.695	97.88
412.919	94.88
413.142	106.88
413.365	100.88
413.589	113.88
413.812	114.88
414.035	97.88
414.258	103.88
414.482	94.88
414.705	99.88
414.928	110.88
415.151	91.88
415.374	93.88
415.597	104.88
415.821	111.88
416.044	103.88
416.267	103.88
416.49	99.88
416.713	118.88
416.936	97.88
417.159	111.88
417.382	104.88
417.605	107.88
417.828	96.88
418.051	98.88
418.274	96.88
418.497	110.88
418.72	104.88
418.943	108.88
419.166	106.88
419.389	110.88
419.611	103.88
419.834	119.88
420.057	111.88
420.28	100.88
420.503	102.88
420.726	104.88
420.948	104.88
421.171	91.88
421.394	88.88
421.617	99.88
421.839	103.88
422.062	103.88
422.285	103.88
422.507	118.88
422.73	129.88
422.953	141.88
423.175	121.88
423.398	105.88
423.621	102.88
423.843	85.88
424.066	90.88
424.288	102.88
424.511	94.88
424.733	100.88
424.956	102.88
425.178	90.88
425.401	92.88
425.623	89.88
425.846	79.88
426.068	83.88
426.291	96.88
426.513	98.88
426.735	104.88
426.958	106.88
427.18	101.88
427.402	98.88
427.625	95.88
427.847	100.88
428.069	93.88
428.292	103.88
428.514	94.88
428.736	109.88
428.958	94.88
429.181	98.88
429.403	105.88
429.625	98.88
429.847	93.88
430.069	110.88
430.292	104.88
430.514	117.88
430.736	105.88
430.958	108.88
431.18	94.88
431.402	97.88
431.624	113.88
431.846	103.88
432.068	87.88
432.29	81.88
432.512	86.88
432.734	106.88
432.956	88.88
433.178	94.88
433.4	109.88
433.622	87.88
433.844	95.88
434.066	86.88
434.287	100.88
434.509	104.88
434.731	98.88
434.953	85.88
435.175	97.88
435.397	97.88
435.618	94.88
435.84	93.88
436.062	100.88
436.284	94.88
436.505	100.88
436.727	86.88
436.949	93.88
437.17	86.88
437.392	90.88
437.614	100.88
437.835	110.88
438.057	98.88
438.278	81.88
438.5	87.88
438.721	85.88
438.943	107.88
439.165	118.88
439.386	118.88
439.608	111.88
439.829	76.88
440.05	113.88
440.272	110.88
440.493	111.88
440.715	88.88
440.936	94.88
441.158	102.88
441.379	97.88
441.6	89.88
441.822	115.88
442.043	111.88
442.264	131.88
442.486	113.88
442.707	99.88
442.928	109.88
443.149	102.88
443.371	106.88
443.592	91.88
443.813	83.88
444.034	99.88
444.255	93.88
444.476	88.88
444.698	90.88
444.919	116.88
445.14	171.88
445.361	136.88
445.582	118.88
445.803	95.88
446.024	89.88
446.245	106.88
446.466	106.88
446.687	118.88
446.908	113.88
447.129	97.88
447.35	91.88
447.571	99.88
447.792	102.88
448.013	96.88
448.234	96.88
448.455	86.88
448.675	100.88
448.896	104.88
449.117	127.88
449.338	130.88
449.559	142.88
449.779	126.88
450	96.88
450.221	108.88
450.442	115.88
450.662	129.88
450.883	119.88
451.104	120.88
451.324	106.88
451.545	123.88
451.766	117.88
451.986	147.88
452.207	230.88
452.428	631.88
452.648	1557.88
452.869	864.88
453.089	216.88
453.31	140.88
453.53	147.88
453.751	142.88
453.971	167.88
454.192	147.88
454.412	116.88
454.633	109.88
454.853	101.88
455.073	111.88
455.294	83.88
455.514	105.88
455.734	102.88
455.955	96.88
456.175	84.88
456.395	87.88
456.616	96.88
456.836	104.88
457.056	96.88
457.276	96.88
457.497	110.88
457.717	108.88
457.937	88.88
458.157	89.88
458.377	77.88
458.598	86.88
458.818	82.88
459.038	92.88
459.258	69.88
459.478	92.88
459.698	92.88
459.918	83.88
460.138	102.88
460.358	91.88
460.578	96.88
460.798	85.88
461.018	69.88
461.238	92.88
461.458	93.88
461.678	89.88
461.898	101.88
462.118	100.88
462.338	90.88
462.558	83.88
462.777	86.88
462.997	96.88
463.217	110.88
463.437	123.88
463.657	190.88
463.876	201.88
464.096	139.88
464.316	111.88
464.536	93.88
464.755	101.88
464.975	92.88
465.195	93.88
465.414	94.88
465.634	80.88
465.854	92.88
466.073	95.88
466.293	113.88
466.512	115.88
466.732	100.88
466.951	133.88
467.171	149.88
467.391	140.88
467.61	97.88
467.829	103.88
468.049	96.88
468.268	117.88
468.488	95.88
468.707	95.88
468.927	99.88
469.146	89.88
469.365	101.88
469.585	94.88
469.804	87.88
470.023	102.88
470.243	105.88
470.462	102.88
470.681	113.88
470.901	141.88
471.12	197.88
471.339	210.88
471.558	147.88
471.777	115.88
471.997	106.88
472.216	103.88
472.435	92.88
472.654	89.88
472.873	99.88
473.092	97.88
473.311	88.88
473.53	93.88
473.749	97.88
473.968	106.88
474.187	96.88
474.406	93.88
474.625	85.88
474.844	102.88
475.063	91.88
475.282	103.88
475.501	99.88
475.72	103.88
475.939	92.88
476.158	105.88
476.377	123.88
476.596	115.88
476.814	95.88
477.033	97.88
477.252	90.88
477.471	110.88
477.69	94.88
477.908	101.88
478.127	88.88
478.346	98.88
478.564	103.88
478.783	102.88
479.002	106.88
479.22	99.88
479.439	90.88
479.658	95.88
479.876	100.88
480.095	98.88
480.313	96.88
480.532	112.88
480.751	101.88
480.969	93.88
481.188	102.88
481.406	99.88
481.624	94.88
481.843	129.88
482.061	129.88
482.28	95.88
482.498	95.88
482.717	98.88
482.935	98.88
483.153	103.88
483.372	113.88
483.59	109.88
483.808	96.88
484.027	125.88
484.245	143.88
484.463	179.88
484.681	273.88
484.9	153.88
485.118	120.88
485.336	115.88
485.554	107.88
485.772	135.88
485.99	200.88
486.209	270.88
486.427	187.88
486.645	122.88
486.863	109.88
487.081	105.88
487.299	107.88
487.517	110.88
487.735	113.88
487.953	127.88
488.171	107.88
488.389	103.88
488.607	103.88
488.825	113.88
489.043	85.88
489.261	82.88
489.479	86.88
489.696	106.88
489.914	93.88
490.132	94.88
490.35	111.88
490.568	110.88
490.786	104.88
491.003	102.88
491.221	112.88
491.439	121.88
491.657	113.88
491.874	106.88
492.092	102.88
492.31	114.88
492.527	98.88
492.745	87.88
492.963	99.88
493.18	89.88
493.398	109.88
493.615	104.88
493.833	113.88
494.05	104.88
494.268	96.88
494.485	119.88
494.703	119.88
494.92	97.88
495.138	99.88
495.355	106.88
495.573	95.88
495.79	90.88
496.008	103.88
496.225	109.88
496.442	100.88
496.66	138.88
496.877	168.88
497.094	167.88
497.312	119.88
497.529	111.88
497.746	104.88
497.963	98.88
498.181	116.88
498.398	105.88
498.615	84.88
498.832	120.88
499.049	125.88
499.267	133.88
499.484	166.88
499.701	122.88
499.918	106.88
500.135	109.88
500.352	102.88
500.569	95.88
500.786	107.88
501.003	107.88
501.22	116.88
501.437	94.88
501.654	98.88
501.871	110.88
502.088	95.88
502.305	101.88
502.522	105.88
502.739	108.88
502.956	105.88
503.172	95.88
503.389	103.88
503.606	85.88
503.823	102.88
504.04	106.88
504.256	115.88
504.473	115.88
504.69	119.88
504.907	111.88
505.123	129.88
505.34	104.88
505.557	116.88
505.773	101.88
505.99	97.88
506.207	95.88
506.423	109.88
506.64	108.88
506.856	105.88
507.073	97.88
507.289	103.88
507.506	97.88
507.722	106.88
507.939	102.88
508.155	101.88
508.372	109.88
508.588	97.88
508.805	94.88
509.021	123.88
509.238	107.88
509.454	147.88
509.67	186.88
509.887	114.88
510.103	84.88
510.319	91.88
510.536	121.88
510.752	133.88
510.968	111.88
511.184	98.88
511.401	98.88
511.617	105.88
511.833	104.88
512.049	98.88
512.265	82.88
512.481	94.88
512.698	104.88
512.914	94.88
513.13	113.88
513.346	96.88
513.562	100.88
513.778	102.88
513.994	100.88
514.21	112.88
514.426	129.88
514.642	194.88
514.858	126.88
515.074	113.88
515.29	113.88
515.506	113.88
515.721	113.88
515.937	95.88
516.153	102.88
516.369	119.88
516.585	98.88
516.801	89.88
517.016	119.88
517.232	89.88
517.448	109.88
517.664	126.88
517.879	107.88
518.095	108.88
518.311	109.88
518.527	108.88
518.742	105.88
518.958	133.88
519.173	165.88
519.389	114.88
519.605	102.88
519.82	104.88
520.036	104.88
520.251	95.88
520.467	89.88
520.682	103.88
520.898	100.88
521.113	89.88
521.329	100.88
521.544	101.88
521.76	112.88
521.975	102.88
522.19	117.88
522.406	107.88
522.621	102.88
522.836	97.88
523.052	102.88
523.267	80.88
523.482	101.88
523.698	101.88
523.913	101.88
524.128	87.88
524.343	94.88
524.559	88.88
524.774	91.88
524.989	102.88
525.204	101.88
525.419	91.88
525.634	94.88
525.849	96.88
526.064	84.88
526.28	94.88
526.495	110.88
526.71	106.88
526.925	109.88
527.14	95.88
527.355	105.88
527.57	102.88
527.785	87.88
527.999	100.88
528.214	94.88
528.429	110.88
528.644	90.88
528.859	98.88
529.074	102.88
529.289	103.88
529.503	103.88
529.718	86.88
529.933	110.88
530.148	89.88
530.363	96.88
530.577	95.88
530.792	97.88
531.007	96.88
531.221	104.88
531.436	95.88
531.651	92.88
531.865	106.88
532.08	109.88
532.295	117.88
532.509	135.88
532.724	119.88
532.938	113.88
533.153	103.88
533.367	95.88
533.582	100.88
533.796	103.88
534.011	94.88
534.225	101.88
534.44	98.88
534.654	85.88
534.868	99.88
535.083	103.88
535.297	108.88
535.511	105.88
535.726	96.88
535.94	84.88
536.154	104.88
536.369	90.88
536.583	104.88
536.797	99.88
537.011	94.88
537.225	106.88
537.44	106.88
537.654	90.88
537.868	97.88
538.082	90.88
538.296	100.88
538.51	93.88
538.724	104.88
538.938	106.88
539.153	95.88
539.367	100.88
539.581	109.88
539.795	84.88
540.009	99.88
540.222	107.88
540.436	102.88
540.65	111.88
540.864	104.88
541.078	112.88
541.292	121.88
541.506	216.88
541.72	202.88
541.934	125.88
542.147	121.88
542.361	114.88
542.575	122.88
542.789	106.88
543.002	93.88
543.216	115.88
543.43	99.88
543.644	97.88
543.857	96.88
544.071	96.88
544.285	110.88
544.498	106.88
544.712	119.88
544.925	111.88
545.139	86.88
545.352	93.88
545.566	102.88
545.779	107.88
545.993	104.88
546.206	93.88
546.42	102.88
546.633	94.88
546.847	106.88
547.06	103.88
547.274	110.88
547.487	115.88
547.7	89.88
547.914	98.88
548.127	99.88
548.34	109.88
548.554	100.88
548.767	99.88
548.98	104.88
549.193	111.88
549.407	100.88
549.62	102.88
549.833	105.88
550.046	94.88
550.259	99.88
550.473	113.88
550.686	100.88
550.899	88.88
551.112	92.88
551.325	100.88
551.538	84.88
551.751	100.88
551.964	97.88
552.177	90.88
552.39	116.88
552.603	117.88
552.816	100.88
553.029	101.88
553.242	115.88
553.455	106.88
553.667	89.88
553.88	95.88
554.093	101.88
554.306	90.88
554.519	111.88
554.732	113.88
554.944	102.88
555.157	98.88
555.37	93.88
555.583	115.88
555.795	112.88
556.008	126.88
556.221	177.88
556.433	126.88
556.646	117.88
556.859	100.88
557.071	111.88
557.284	145.88
557.496	116.88
557.709	115.88
557.921	94.88
558.134	111.88
558.346	113.88
558.559	109.88
558.771	96.88
558.984	96.88
559.196	115.88
559.409	93.88
559.621	119.88
559.833	101.88
560.046	96.88
560.258	94.88
560.47	101.88
560.683	109.88
560.895	100.88
561.107	92.88
561.32	99.88
561.532	98.88
561.744	100.88
561.956	112.88
562.168	113.88
562.381	103.88
562.593	120.88
562.805	145.88
563.017	193.88
563.229	285.88
563.441	710.88
563.653	221.88
563.865	102.88
564.077	115.88
564.289	98.88
564.501	107.88
564.713	103.88
564.925	101.88
565.137	102.88
565.349	110.88
565.561	111.88
565.773	108.88
565.985	106.88
566.197	96.88
566.408	106.88
566.62	110.88
566.832	101.88
567.044	96.88
567.255	98.88
567.467	97.88
567.679	121.88
567.891	117.88
568.102	187.88
568.314	262.88
568.526	169.88
568.737	114.88
568.949	98.88
569.161	95.88
569.372	94.88
569.584	89.88
569.795	107.88
570.007	104.88
570.218	137.88
570.43	158.88
570.641	131.88
570.853	93.88
571.064	119.88
571.276	92.88
571.487	102.88
571.698	106.88
571.91	103.88
572.121	102.88
572.333	90.88
572.544	94.88
572.755	134.88
572.966	207.88
573.178	153.88
573.389	101.88
573.6	94.88
573.811	97.88
574.023	103.88
574.234	91.88
574.445	92.88
574.656	94.88
574.867	89.88
575.078	98.88
575.289	102.88
575.501	85.88
575.712	101.88
575.923	82.88
576.134	96.88
576.345	107.88
576.556	98.88
576.767	90.88
576.978	85.88
577.188	93.88
577.399	87.88
577.61	85.88
577.821	72.88
578.032	81.88
578.243	103.88
578.454	95.88
578.665	91.88
578.875	90.88
579.086	96.88
579.297	110.88
579.508	94.88
579.718	95.88
579.929	94.88
580.14	98.88
580.35	86.88
580.561	96.88
580.772	87.88
580.982	99.88
581.193	95.88
581.403	85.88
581.614	81.88
581.825	81.88
582.035	96.88
582.246	93.88
582.456	92.88
582.667	118.88
582.877	119.88
583.087	128.88
583.298	103.88
583.508	99.88
583.719	85.88
583.929	98.88
584.139	76.88
584.35	95.88
584.56	81.88
584.77	97.88
584.981	89.88
585.191	96.88
585.401	97.88
585.611	88.88
585.821	98.88
586.032	102.88
586.242	92.88
586.452	94.88
586.662	89.88
586.872	83.88
587.082	91.88
587.292	94.88
587.502	81.88
587.713	101.88
587.923	88.88
588.133	89.88
588.343	100.88
588.553	96.88
588.762	95.88
588.972	88.88
589.182	137.88
589.392	115.88
589.602	98.88
589.812	121.88
590.022	105.88
590.232	90.88
590.441	90.88
590.651	115.88
590.861	91.88
591.071	85.88
591.281	75.88
591.49	80.88
591.7	85.88
591.91	98.88
592.119	90.88
592.329	82.88
592.539	99.88
592.748	103.88
592.958	90.88
593.167	99.88
593.377	86.88
593.587	97.88
593.796	91.88
594.006	96.88
594.215	99.88
594.424	82.88
594.634	101.88
594.843	95.88
595.053	94.88
595.262	86.88
595.472	84.88
595.681	74.88
595.89	92.88
596.1	92.88
596.309	79.88
596.518	94.88
596.727	107.88
596.937	90.88
597.146	79.88
597.355	104.88
597.564	87.88
597.774	106.88
597.983	85.88
598.192	102.88
598.401	85.88
598.61	83.88
598.819	84.88
599.028	95.88
599.237	113.88
599.446	97.88
599.655	96.88
599.864	95.88
600.073	100.88
600.282	93.88
600.491	97.88
600.7	98.88
600.909	100.88
601.118	89.88
601.327	86.88
601.536	105.88
601.745	93.88
601.953	128.88
602.162	173.88
602.371	119.88
602.58	98.88
602.789	106.88
602.997	86.88
603.206	78.88
603.415	95.88
603.623	90.88
603.832	89.88
604.041	103.88
604.249	105.88
604.458	98.88
604.666	76.88
604.875	95.88
605.084	91.88
605.292	101.88
605.501	93.88
605.709	92.88
605.918	101.88
606.126	110.88
606.334	105.88
606.543	102.88
606.751	136.88
606.96	184.88
607.168	183.88
607.376	137.88
607.585	110.88
607.793	105.88
608.001	91.88
608.21	91.88
608.418	94.88
608.626	88.88
608.834	96.88
609.043	94.88
609.251	100.88
609.459	94.88
609.667	102.88
609.875	91.88
610.083	85.88
610.291	88.88
610.499	92.88
610.707	97.88
610.916	88.88
611.124	90.88
611.332	95.88
611.54	90.88
611.748	89.88
611.955	85.88
612.163	90.88
612.371	93.88
612.579	103.88
612.787	96.88
612.995	84.88
613.203	101.88
613.411	85.88
613.618	86.88
613.826	89.88
614.034	89.88
614.242	97.88
614.449	100.88
614.657	89.88
614.865	102.88
615.072	113.88
615.28	111.88
615.488	110.88
615.695	105.88
615.903	106.88
616.111	80.88
616.318	88.88
616.526	78.88
616.733	97.88
616.941	94.88
617.148	103.88
617.356	99.88
617.563	87.88
617.771	93.88
617.978	89.88
618.185	102.88
618.393	92.88
618.6	97.88
618.807	71.88
619.015	92.88
619.222	110.88
619.429	85.88
619.637	87.88
619.844	79.88
620.051	86.88
620.258	77.88
620.466	105.88
620.673	76.88
620.88	89.88
621.087	84.88
621.294	96.88
621.501	79.88
621.708	75.88
621.915	87.88
622.122	97.88
622.329	106.88
622.536	85.88
622.743	100.88
622.95	90.88
623.157	93.88
623.364	90.88
623.571	92.88
623.778	94.88
623.985	84.88
624.192	84.88
624.399	81.88
624.606	76.88
624.812	88.88
625.019	97.88
625.226	87.88
625.433	88.88
625.639	83.88
625.846	93.88
626.053	91.88
626.259	92.88
626.466	89.88
626.673	87.88
626.879	95.88
627.086	88.88
627.293	104.88
627.499	79.88
627.706	78.88
627.912	90.88
628.119	93.88
628.325	90.88
628.532	98.88
628.738	91.88
628.945	89.88
629.151	90.88
629.357	86.88
629.564	102.88
629.77	97.88
629.976	78.88
630.183	87.88
630.389	96.88
630.595	91.88
630.802	75.88
631.008	95.88
631.214	86.88
631.42	85.88
631.627	95.88
631.833	86.88
632.039	101.88
632.245	102.88
632.451	90.88
632.657	94.88
632.863	86.88
633.069	85.88
633.275	89.88
633.481	85.88
633.688	88.88
633.893	87.88
634.099	98.88
634.305	84.88
634.511	100.88
634.717	103.88
634.923	93.88
635.129	121.88
635.335	123.88
635.541	97.88
635.747	96.88
635.952	89.88
636.158	89.88
636.364	91.88
636.57	75.88
636.775	91.88
636.981	81.88
637.187	86.88
637.392	84.88
637.598	105.88
637.804	88.88
638.009	86.88
638.215	91.88
638.421	81.88
638.626	91.88
638.832	96.88
639.037	80.88
639.243	87.88
639.448	87.88
639.654	86.88
639.859	81.88
640.065	87.88
640.27	90.88
640.475	81.88
640.681	86.88
640.886	98.88
641.091	81.88
641.297	97.88
641.502	90.88
641.707	91.88
641.913	103.88
642.118	89.88
642.323	86.88
642.528	103.88
642.733	100.88
642.939	87.88
643.144	87.88
643.349	88.88
643.554	90.88
643.759	94.88
643.964	81.88
644.169	100.88
644.374	89.88
644.579	84.88
644.784	95.88
644.989	101.88
645.194	83.88
645.399	84.88
645.604	96.88
645.809	96.88
646.014	84.88
646.219	77.88
646.423	66.88
646.628	90.88
646.833	90.88
647.038	82.88
647.243	87.88
647.447	91.88
647.652	78.88
647.857	93.88
648.062	86.88
648.266	87.88
648.471	81.88
648.676	85.88
648.88	74.88
649.085	86.88
649.289	87.88
649.494	78.88
649.698	92.88
649.903	97.88
650.107	90.88
650.312	89.88
650.516	80.88
650.721	91.88
650.925	91.88
651.13	87.88
651.334	90.88
651.539	94.88
651.743	83.88
651.947	96.88
652.152	95.88
652.356	100.88
652.56	107.88
652.764	112.88
652.969	100.88
653.173	67.88
653.377	84.88
653.581	86.88
653.785	84.88
653.99	89.88
654.194	85.88
654.398	86.88
654.602	85.88
654.806	73.88
655.01	75.88
655.214	86.88
655.418	76.88
655.622	81.88
655.826	87.88
656.03	85.88
656.234	73.88
656.438	83.88
656.642	91.88
656.846	76.88
657.049	91.88
657.253	94.88
657.457	88.88
657.661	86.88
657.865	84.88
658.068	78.88
658.272	69.88
658.476	66.88
658.68	74.88
658.883	86.88
659.087	85.88
659.291	79.88
659.494	77.88
659.698	71.88
659.901	73.88
660.105	63.88
660.309	71.88
660.512	80.88
660.716	83.88
660.919	83.88
661.123	78.88
661.326	82.88
661.53	82.88
661.733	83.88
661.936	89.88
662.14	90.88
662.343	70.88
662.546	67.88
662.75	77.88
662.953	87.88
663.156	87.88
663.36	67.88
663.563	87.88
663.766	81.88
663.969	70.88
664.173	87.88
664.376	81.88
664.579	88.88
664.782	80.88
664.985	61.88
665.188	83.88
665.391	75.88
665.594	74.88
665.797	75.88
666	68.88
666.203	83.88
666.406	96.88
666.609	83.88
666.812	84.88
667.015	94.88
667.218	68.88
667.421	85.88
667.624	88.88
667.827	75.88
668.03	70.88
668.232	81.88
668.435	62.88
668.638	79.88
668.841	82.88
669.043	81.88
669.246	73.88
669.449	68.88
669.651	76.88
669.854	81.88
670.057	98.88
670.259	81.88
670.462	83.88
670.665	92.88
670.867	84.88
671.07	82.88
671.272	92.88
671.475	75.88
671.677	81.88
671.88	63.88
672.082	80.88
672.284	79.88
672.487	88.88
672.689	74.88
672.892	73.88
