Data from SnStandardFlinnAPT0064_QswitchEnergy10_LIBS07252019.E.O._I.C._HRD10591_15-28-52-974.txt Node
Date: Thu Jul 25 15:28:52 EDT 2019
User: cochatt
Spectrometer: HR+D1059
Trigger mode: 1
Integration Time (sec): 1.000000E-1
Scans to average: 1
Electric dark correction enabled: true
Nonlinearity correction enabled: false
Boxcar width: 0
XAxis mode: Wavelengths
Number of Pixels in Spectrum: 2048
>>>>>Begin Spectral Data<<<<<
223.165	-23.25
223.4	-23.25
223.635	-23.25
223.869	-22.25
224.104	-26.25
224.338	-7.25
224.573	-3.25
224.808	-4.25
225.042	-3.25
225.277	-6.25
225.511	-15.25
225.746	4.75
225.98	4.75
226.215	8.75
226.449	12.75
226.683	27.75
226.918	24.75
227.152	27.75
227.387	29.75
227.621	30.75
227.856	36.75
228.09	38.75
228.324	46.75
228.559	54.75
228.793	61.75
229.027	69.75
229.262	74.75
229.496	69.75
229.73	62.75
229.964	64.75
230.199	77.75
230.433	68.75
230.667	72.75
230.901	74.75
231.136	79.75
231.37	83.75
231.604	69.75
231.838	80.75
232.072	120.75
232.306	122.75
232.541	85.75
232.775	87.75
233.009	71.75
233.243	84.75
233.477	84.75
233.711	98.75
233.945	96.75
234.179	98.75
234.413	82.75
234.647	85.75
234.881	70.75
235.115	89.75
235.349	93.75
235.583	111.75
235.817	122.75
236.051	145.75
236.285	87.75
236.519	89.75
236.753	77.75
236.987	78.75
237.221	78.75
237.455	56.75
237.689	73.75
237.922	67.75
238.156	72.75
238.39	85.75
238.624	75.75
238.858	82.75
239.091	81.75
239.325	69.75
239.559	67.75
239.793	78.75
240.027	69.75
240.26	84.75
240.494	77.75
240.728	78.75
240.961	84.75
241.195	85.75
241.429	85.75
241.662	79.75
241.896	95.75
242.13	99.75
242.363	140.75
242.597	166.75
242.83	152.75
243.064	141.75
243.298	170.75
243.531	133.75
243.765	107.75
243.998	86.75
244.232	92.75
244.465	67.75
244.699	77.75
244.932	76.75
245.166	81.75
245.399	77.75
245.633	81.75
245.866	63.75
246.099	83.75
246.333	74.75
246.566	61.75
246.8	60.75
247.033	70.75
247.266	69.75
247.5	75.75
247.733	88.75
247.966	85.75
248.2	85.75
248.433	89.75
248.666	123.75
248.899	127.75
249.133	83.75
249.366	83.75
249.599	107.75
249.832	125.75
250.066	134.75
250.299	105.75
250.532	67.75
250.765	74.75
250.998	68.75
251.231	74.75
251.465	80.75
251.698	67.75
251.931	93.75
252.164	89.75
252.397	84.75
252.63	92.75
252.863	85.75
253.096	92.75
253.329	93.75
253.562	89.75
253.795	92.75
254.028	77.75
254.261	93.75
254.494	97.75
254.727	120.75
254.96	150.75
255.193	127.75
255.426	88.75
255.659	88.75
255.892	87.75
256.124	91.75
256.357	84.75
256.59	78.75
256.823	97.75
257.056	107.75
257.289	164.75
257.521	169.75
257.754	133.75
257.987	97.75
258.22	89.75
258.452	92.75
258.685	68.75
258.918	82.75
259.151	91.75
259.383	97.75
259.616	140.75
259.849	161.75
260.081	108.75
260.314	86.75
260.547	75.75
260.779	84.75
261.012	88.75
261.244	72.75
261.477	88.75
261.71	82.75
261.942	94.75
262.175	77.75
262.407	75.75
262.64	70.75
262.872	65.75
263.105	102.75
263.337	82.75
263.57	76.75
263.802	93.75
264.035	98.75
264.267	78.75
264.499	90.75
264.732	80.75
264.964	79.75
265.197	77.75
265.429	86.75
265.661	83.75
265.894	105.75
266.126	129.75
266.358	165.75
266.591	141.75
266.823	95.75
267.055	78.75
267.287	84.75
267.52	81.75
267.752	90.75
267.984	76.75
268.216	76.75
268.448	76.75
268.681	84.75
268.913	92.75
269.145	87.75
269.377	86.75
269.609	95.75
269.841	95.75
270.073	114.75
270.306	133.75
270.538	196.75
270.77	339.75
271.002	412.75
271.234	222.75
271.466	121.75
271.698	83.75
271.93	90.75
272.162	86.75
272.394	85.75
272.626	85.75
272.858	92.75
273.09	90.75
273.322	66.75
273.553	81.75
273.785	73.75
274.017	86.75
274.249	80.75
274.481	84.75
274.713	77.75
274.945	89.75
275.176	92.75
275.408	74.75
275.64	84.75
275.872	87.75
276.104	86.75
276.335	98.75
276.567	90.75
276.799	104.75
277.031	74.75
277.262	70.75
277.494	101.75
277.726	132.75
277.957	184.75
278.189	289.75
278.421	263.75
278.652	208.75
278.884	211.75
279.115	149.75
279.347	105.75
279.579	84.75
279.81	104.75
280.042	105.75
280.273	97.75
280.505	95.75
280.736	116.75
280.968	131.75
281.199	181.75
281.431	270.75
281.662	299.75
281.894	159.75
282.125	120.75
282.356	104.75
282.588	111.75
282.819	109.75
283.051	119.75
283.282	125.75
283.513	219.75
283.745	349.75
283.976	624.75
284.207	872.75
284.439	666.75
284.67	300.75
284.901	294.75
285.132	392.75
285.364	436.75
285.595	252.75
285.826	189.75
286.057	264.75
286.288	476.75
286.52	688.75
286.751	545.75
286.982	214.75
287.213	112.75
287.444	106.75
287.675	100.75
287.906	95.75
288.138	105.75
288.369	90.75
288.6	95.75
288.831	88.75
289.062	94.75
289.293	95.75
289.524	92.75
289.755	83.75
289.986	92.75
290.217	101.75
290.448	106.75
290.679	88.75
290.91	133.75
291.141	191.75
291.371	255.75
291.602	334.75
291.833	226.75
292.064	106.75
292.295	91.75
292.526	89.75
292.757	83.75
292.987	91.75
293.218	93.75
293.449	92.75
293.68	94.75
293.91	89.75
294.141	89.75
294.372	97.75
294.603	91.75
294.833	91.75
295.064	86.75
295.295	94.75
295.525	97.75
295.756	81.75
295.987	86.75
296.217	83.75
296.448	97.75
296.679	91.75
296.909	85.75
297.14	88.75
297.37	99.75
297.601	91.75
297.831	85.75
298.062	82.75
298.292	107.75
298.523	96.75
298.753	94.75
298.984	104.75
299.214	106.75
299.445	107.75
299.675	117.75
299.905	96.75
300.136	141.75
300.366	171.75
300.597	299.75
300.827	500.75
301.057	758.75
301.288	706.75
301.518	280.75
301.748	162.75
301.979	135.75
302.209	142.75
302.439	148.75
302.669	157.75
302.9	292.75
303.13	576.75
303.36	1015.75
303.59	1393.75
303.82	943.75
304.051	310.75
304.281	166.75
304.511	132.75
304.741	118.75
304.971	119.75
305.201	112.75
305.431	106.75
305.661	116.75
305.891	101.75
306.121	104.75
306.352	104.75
306.582	111.75
306.812	121.75
307.042	108.75
307.272	118.75
307.502	99.75
307.731	104.75
307.961	83.75
308.191	96.75
308.421	106.75
308.651	106.75
308.881	101.75
309.111	117.75
309.341	126.75
309.571	93.75
309.8	99.75
310.03	108.75
310.26	106.75
310.49	114.75
310.72	106.75
310.949	108.75
311.179	113.75
311.409	105.75
311.639	112.75
311.868	118.75
312.098	115.75
312.328	119.75
312.557	107.75
312.787	101.75
313.017	112.75
313.246	122.75
313.476	120.75
313.706	117.75
313.935	175.75
314.165	221.75
314.394	254.75
314.624	213.75
314.853	128.75
315.083	136.75
315.312	130.75
315.542	148.75
315.771	138.75
316.001	132.75
316.23	148.75
316.46	172.75
316.689	201.75
316.919	285.75
317.148	548.75
317.377	1044.75
317.607	1702.75
317.836	1576.75
318.065	624.75
318.295	250.75
318.524	171.75
318.753	151.75
318.983	146.75
319.212	127.75
319.441	130.75
319.67	116.75
319.9	128.75
320.129	121.75
320.358	122.75
320.587	123.75
320.816	118.75
321.046	114.75
321.275	128.75
321.504	145.75
321.733	142.75
321.962	166.75
322.191	180.75
322.42	144.75
322.649	127.75
322.878	132.75
323.108	123.75
323.337	138.75
323.566	123.75
323.795	138.75
324.024	129.75
324.253	138.75
324.482	196.75
324.71	244.75
324.939	296.75
325.168	280.75
325.397	208.75
325.626	264.75
325.855	568.75
326.084	1076.75
326.313	1845.75
326.542	1762.75
326.77	682.75
326.999	306.75
327.228	248.75
327.457	277.75
327.686	244.75
327.914	160.75
328.143	142.75
328.372	131.75
328.6	120.75
328.829	118.75
329.058	120.75
329.287	114.75
329.515	106.75
329.744	116.75
329.972	118.75
330.201	109.75
330.43	120.75
330.658	108.75
330.887	130.75
331.115	112.75
331.344	131.75
331.572	113.75
331.801	121.75
332.03	133.75
332.258	152.75
332.486	185.75
332.715	316.75
332.943	572.75
333.172	868.75
333.4	742.75
333.629	273.75
333.857	162.75
334.085	116.75
334.314	138.75
334.542	97.75
334.771	126.75
334.999	128.75
335.227	128.75
335.455	118.75
335.684	135.75
335.912	131.75
336.14	105.75
336.369	103.75
336.597	114.75
336.825	113.75
337.053	118.75
337.281	103.75
337.51	95.75
337.738	108.75
337.966	122.75
338.194	101.75
338.422	112.75
338.65	106.75
338.878	121.75
339.106	115.75
339.334	129.75
339.562	119.75
339.79	122.75
340.018	125.75
340.246	99.75
340.474	99.75
340.702	118.75
340.93	124.75
341.158	113.75
341.386	122.75
341.614	132.75
341.842	123.75
342.07	110.75
342.298	119.75
342.526	119.75
342.754	115.75
342.981	125.75
343.209	115.75
343.437	118.75
343.665	113.75
343.893	111.75
344.12	104.75
344.348	120.75
344.576	120.75
344.804	115.75
345.031	130.75
345.259	121.75
345.487	117.75
345.714	106.75
345.942	122.75
346.17	121.75
346.397	116.75
346.625	111.75
346.853	107.75
347.08	97.75
347.308	103.75
347.535	113.75
347.763	106.75
347.99	115.75
348.218	111.75
348.445	107.75
348.673	112.75
348.9	117.75
349.128	125.75
349.355	119.75
349.583	137.75
349.81	109.75
350.037	137.75
350.265	136.75
350.492	116.75
350.72	113.75
350.947	120.75
351.174	108.75
351.402	123.75
351.629	125.75
351.856	106.75
352.083	104.75
352.311	103.75
352.538	113.75
352.765	116.75
352.992	88.75
353.22	104.75
353.447	120.75
353.674	123.75
353.901	93.75
354.128	110.75
354.355	109.75
354.583	100.75
354.81	109.75
355.037	100.75
355.264	102.75
355.491	111.75
355.718	120.75
355.945	99.75
356.172	113.75
356.399	103.75
356.626	106.75
356.853	103.75
357.08	105.75
357.307	115.75
357.534	107.75
357.761	113.75
357.988	113.75
358.215	120.75
358.441	116.75
358.668	101.75
358.895	118.75
359.122	132.75
359.349	116.75
359.576	130.75
359.802	133.75
360.029	115.75
360.256	116.75
360.483	103.75
360.709	116.75
360.936	117.75
361.163	116.75
361.39	114.75
361.616	99.75
361.843	118.75
362.07	120.75
362.296	116.75
362.523	105.75
362.749	120.75
362.976	107.75
363.203	111.75
363.429	109.75
363.656	108.75
363.882	118.75
364.109	121.75
364.335	112.75
364.562	100.75
364.788	102.75
365.015	120.75
365.241	140.75
365.468	217.75
365.694	291.75
365.92	233.75
366.147	119.75
366.373	112.75
366.599	120.75
366.826	93.75
367.052	97.75
367.278	96.75
367.505	89.75
367.731	89.75
367.957	105.75
368.184	138.75
368.41	127.75
368.636	124.75
368.862	89.75
369.089	89.75
369.315	91.75
369.541	130.75
369.767	112.75
369.993	102.75
370.219	112.75
370.445	105.75
370.672	126.75
370.898	107.75
371.124	97.75
371.35	103.75
371.576	98.75
371.802	124.75
372.028	115.75
372.254	124.75
372.48	107.75
372.706	107.75
372.932	107.75
373.158	122.75
373.384	120.75
373.61	130.75
373.835	115.75
374.061	118.75
374.287	118.75
374.513	108.75
374.739	118.75
374.965	121.75
375.191	96.75
375.416	108.75
375.642	104.75
375.868	106.75
376.094	110.75
376.319	93.75
376.545	120.75
376.771	112.75
376.997	96.75
377.222	96.75
377.448	116.75
377.674	114.75
377.899	117.75
378.125	104.75
378.35	123.75
378.576	114.75
378.802	102.75
379.027	118.75
379.253	142.75
379.478	196.75
379.704	354.75
379.929	892.75
380.155	1791.75
380.38	1872.75
380.606	597.75
380.831	220.75
381.057	142.75
381.282	123.75
381.507	105.75
381.733	95.75
381.958	109.75
382.184	124.75
382.409	99.75
382.634	101.75
382.86	117.75
383.085	101.75
383.31	124.75
383.535	106.75
383.761	108.75
383.986	85.75
384.211	109.75
384.436	95.75
384.662	95.75
384.887	100.75
385.112	101.75
385.337	100.75
385.562	106.75
385.787	109.75
386.013	120.75
386.238	112.75
386.463	109.75
386.688	100.75
386.913	111.75
387.138	115.75
387.363	106.75
387.588	108.75
387.813	96.75
388.038	107.75
388.263	110.75
388.488	101.75
388.713	112.75
388.938	101.75
389.163	101.75
389.387	91.75
389.612	98.75
389.837	93.75
390.062	113.75
390.287	98.75
390.512	105.75
390.736	103.75
390.961	92.75
391.186	89.75
391.411	80.75
391.636	114.75
391.86	106.75
392.085	90.75
392.31	102.75
392.534	94.75
392.759	91.75
392.984	87.75
393.208	141.75
393.433	149.75
393.658	156.75
393.882	97.75
394.107	102.75
394.331	81.75
394.556	93.75
394.78	81.75
395.005	97.75
395.229	93.75
395.454	92.75
395.678	108.75
395.903	112.75
396.127	94.75
396.352	99.75
396.576	96.75
396.801	126.75
397.025	155.75
397.249	109.75
397.474	98.75
397.698	90.75
397.922	93.75
398.147	92.75
398.371	96.75
398.595	99.75
398.82	107.75
399.044	107.75
399.268	96.75
399.492	95.75
399.717	108.75
399.941	98.75
400.165	95.75
400.389	98.75
400.613	88.75
400.837	73.75
401.062	89.75
401.286	95.75
401.51	87.75
401.734	97.75
401.958	88.75
402.182	96.75
402.406	107.75
402.63	105.75
402.854	85.75
403.078	80.75
403.302	97.75
403.526	113.75
403.75	97.75
403.974	95.75
404.198	90.75
404.422	91.75
404.645	112.75
404.869	96.75
405.093	101.75
405.317	122.75
405.541	115.75
405.765	158.75
405.988	146.75
406.212	120.75
406.436	93.75
406.66	108.75
406.883	89.75
407.107	90.75
407.331	92.75
407.555	98.75
407.778	82.75
408.002	108.75
408.226	108.75
408.449	96.75
408.673	110.75
408.896	97.75
409.12	88.75
409.344	88.75
409.567	92.75
409.791	85.75
410.014	91.75
410.238	98.75
410.461	110.75
410.685	104.75
410.908	82.75
411.132	112.75
411.355	98.75
411.578	84.75
411.802	97.75
412.025	103.75
412.249	99.75
412.472	96.75
412.695	96.75
412.919	98.75
413.142	81.75
413.365	92.75
413.589	96.75
413.812	99.75
414.035	107.75
414.258	92.75
414.482	92.75
414.705	103.75
414.928	110.75
415.151	98.75
415.374	111.75
415.597	92.75
415.821	90.75
416.044	94.75
416.267	104.75
416.49	100.75
416.713	104.75
416.936	86.75
417.159	93.75
417.382	101.75
417.605	93.75
417.828	82.75
418.051	95.75
418.274	101.75
418.497	98.75
418.72	109.75
418.943	104.75
419.166	90.75
419.389	94.75
419.611	105.75
419.834	105.75
420.057	92.75
420.28	105.75
420.503	101.75
420.726	101.75
420.948	111.75
421.171	81.75
421.394	84.75
421.617	85.75
421.839	99.75
422.062	110.75
422.285	101.75
422.507	90.75
422.73	136.75
422.953	148.75
423.175	120.75
423.398	95.75
423.621	104.75
423.843	91.75
424.066	81.75
424.288	86.75
424.511	93.75
424.733	96.75
424.956	110.75
425.178	98.75
425.401	88.75
425.623	98.75
425.846	81.75
426.068	93.75
426.291	101.75
426.513	100.75
426.735	86.75
426.958	107.75
427.18	92.75
427.402	92.75
427.625	96.75
427.847	98.75
428.069	92.75
428.292	105.75
428.514	98.75
428.736	100.75
428.958	98.75
429.181	90.75
429.403	82.75
429.625	107.75
429.847	96.75
430.069	97.75
430.292	99.75
430.514	105.75
430.736	112.75
430.958	96.75
431.18	99.75
431.402	84.75
431.624	92.75
431.846	82.75
432.068	95.75
432.29	98.75
432.512	104.75
432.734	106.75
432.956	79.75
433.178	93.75
433.4	94.75
433.622	78.75
433.844	91.75
434.066	95.75
434.287	97.75
434.509	89.75
434.731	97.75
434.953	96.75
435.175	91.75
435.397	89.75
435.618	96.75
435.84	97.75
436.062	102.75
436.284	94.75
436.505	94.75
436.727	88.75
436.949	91.75
437.17	88.75
437.392	93.75
437.614	105.75
437.835	94.75
438.057	90.75
438.278	95.75
438.5	92.75
438.721	90.75
438.943	110.75
439.165	106.75
439.386	105.75
439.608	112.75
439.829	112.75
440.05	123.75
440.272	110.75
440.493	114.75
440.715	90.75
440.936	94.75
441.158	90.75
441.379	101.75
441.6	96.75
441.822	100.75
442.043	109.75
442.264	132.75
442.486	100.75
442.707	98.75
442.928	89.75
443.149	106.75
443.371	96.75
443.592	91.75
443.813	89.75
444.034	87.75
444.255	86.75
444.476	82.75
444.698	97.75
444.919	99.75
445.14	194.75
445.361	140.75
445.582	98.75
445.803	100.75
446.024	86.75
446.245	95.75
446.466	110.75
446.687	113.75
446.908	100.75
447.129	99.75
447.35	90.75
447.571	99.75
447.792	101.75
448.013	102.75
448.234	100.75
448.455	102.75
448.675	113.75
448.896	107.75
449.117	121.75
449.338	148.75
449.559	150.75
449.779	117.75
450	99.75
450.221	99.75
450.442	113.75
450.662	108.75
450.883	102.75
451.104	119.75
451.324	117.75
451.545	127.75
451.766	113.75
451.986	131.75
452.207	251.75
452.428	626.75
452.648	1577.75
452.869	887.75
453.089	232.75
453.31	141.75
453.53	126.75
453.751	140.75
453.971	172.75
454.192	153.75
454.412	116.75
454.633	99.75
454.853	100.75
455.073	110.75
455.294	81.75
455.514	98.75
455.734	101.75
455.955	83.75
456.175	93.75
456.395	99.75
456.616	107.75
456.836	93.75
457.056	104.75
457.276	96.75
457.497	104.75
457.717	128.75
457.937	89.75
458.157	83.75
458.377	101.75
458.598	96.75
458.818	93.75
459.038	84.75
459.258	86.75
459.478	88.75
459.698	82.75
459.918	84.75
460.138	92.75
460.358	97.75
460.578	89.75
460.798	80.75
461.018	75.75
461.238	91.75
461.458	92.75
461.678	93.75
461.898	77.75
462.118	80.75
462.338	100.75
462.558	99.75
462.777	100.75
462.997	116.75
463.217	97.75
463.437	130.75
463.657	202.75
463.876	206.75
464.096	127.75
464.316	111.75
464.536	84.75
464.755	87.75
464.975	96.75
465.195	105.75
465.414	87.75
465.634	86.75
465.854	100.75
466.073	97.75
466.293	84.75
466.512	106.75
466.732	102.75
466.951	122.75
467.171	161.75
467.391	140.75
467.61	113.75
467.829	113.75
468.049	101.75
468.268	100.75
468.488	97.75
468.707	82.75
468.927	106.75
469.146	95.75
469.365	80.75
469.585	106.75
469.804	99.75
470.023	101.75
470.243	92.75
470.462	109.75
470.681	120.75
470.901	131.75
471.12	194.75
471.339	214.75
471.558	149.75
471.777	105.75
471.997	111.75
472.216	90.75
472.435	104.75
472.654	77.75
472.873	113.75
473.092	113.75
473.311	82.75
473.53	96.75
473.749	92.75
473.968	113.75
474.187	106.75
474.406	93.75
474.625	84.75
474.844	96.75
475.063	96.75
475.282	80.75
475.501	77.75
475.72	97.75
475.939	106.75
476.158	106.75
476.377	110.75
476.596	106.75
476.814	100.75
477.033	87.75
477.252	100.75
477.471	96.75
477.69	109.75
477.908	103.75
478.127	86.75
478.346	92.75
478.564	114.75
478.783	95.75
479.002	90.75
479.22	80.75
479.439	90.75
479.658	91.75
479.876	102.75
480.095	87.75
480.313	93.75
480.532	92.75
480.751	91.75
480.969	92.75
481.188	95.75
481.406	100.75
481.624	109.75
481.843	110.75
482.061	128.75
482.28	83.75
482.498	100.75
482.717	90.75
482.935	92.75
483.153	86.75
483.372	98.75
483.59	100.75
483.808	94.75
484.027	117.75
484.245	124.75
484.463	179.75
484.681	230.75
484.9	150.75
485.118	124.75
485.336	103.75
485.554	109.75
485.772	126.75
485.99	189.75
486.209	256.75
486.427	164.75
486.645	107.75
486.863	104.75
487.081	105.75
487.299	106.75
487.517	104.75
487.735	82.75
487.953	104.75
488.171	114.75
488.389	92.75
488.607	107.75
488.825	100.75
489.043	103.75
489.261	93.75
489.479	96.75
489.696	103.75
489.914	84.75
490.132	101.75
490.35	110.75
490.568	102.75
490.786	97.75
491.003	101.75
491.221	102.75
491.439	109.75
491.657	110.75
491.874	98.75
492.092	108.75
492.31	99.75
492.527	97.75
492.745	93.75
492.963	114.75
493.18	102.75
493.398	112.75
493.615	94.75
493.833	98.75
494.05	107.75
494.268	100.75
494.485	108.75
494.703	104.75
494.92	109.75
495.138	100.75
495.355	94.75
495.573	101.75
495.79	108.75
496.008	114.75
496.225	96.75
496.442	120.75
496.66	128.75
496.877	164.75
497.094	162.75
497.312	95.75
497.529	104.75
497.746	97.75
497.963	104.75
498.181	110.75
498.398	116.75
498.615	118.75
498.832	107.75
499.049	109.75
499.267	149.75
499.484	168.75
499.701	134.75
499.918	93.75
500.135	95.75
500.352	115.75
500.569	99.75
500.786	109.75
501.003	116.75
501.22	94.75
501.437	89.75
501.654	84.75
501.871	102.75
502.088	107.75
502.305	97.75
502.522	101.75
502.739	98.75
502.956	86.75
503.172	101.75
503.389	100.75
503.606	100.75
503.823	85.75
504.04	90.75
504.256	96.75
504.473	102.75
504.69	92.75
504.907	115.75
505.123	122.75
505.34	101.75
505.557	94.75
505.773	91.75
505.99	97.75
506.207	121.75
506.423	99.75
506.64	106.75
506.856	88.75
507.073	106.75
507.289	113.75
507.506	89.75
507.722	106.75
507.939	91.75
508.155	70.75
508.372	92.75
508.588	85.75
508.805	90.75
509.021	97.75
509.238	108.75
509.454	140.75
509.67	165.75
509.887	130.75
510.103	100.75
510.319	105.75
510.536	99.75
510.752	126.75
510.968	97.75
511.184	101.75
511.401	100.75
511.617	92.75
511.833	93.75
512.049	109.75
512.265	92.75
512.481	92.75
512.698	85.75
512.914	93.75
513.13	98.75
513.346	94.75
513.562	101.75
513.778	101.75
513.994	101.75
514.21	112.75
514.426	144.75
514.642	198.75
514.858	106.75
515.074	112.75
515.29	101.75
515.506	95.75
515.721	102.75
515.937	111.75
516.153	95.75
516.369	84.75
516.585	108.75
516.801	77.75
517.016	84.75
517.232	96.75
517.448	95.75
517.664	104.75
517.879	100.75
518.095	108.75
518.311	108.75
518.527	114.75
518.742	110.75
518.958	130.75
519.173	176.75
519.389	131.75
519.605	98.75
519.82	88.75
520.036	93.75
520.251	98.75
520.467	98.75
520.682	92.75
520.898	92.75
521.113	95.75
521.329	107.75
521.544	110.75
521.76	96.75
521.975	104.75
522.19	105.75
522.406	108.75
522.621	97.75
522.836	101.75
523.052	91.75
523.267	109.75
523.482	86.75
523.698	92.75
523.913	95.75
524.128	109.75
524.343	95.75
524.559	93.75
524.774	93.75
524.989	103.75
525.204	98.75
525.419	96.75
525.634	99.75
525.849	97.75
526.064	94.75
526.28	90.75
526.495	87.75
526.71	81.75
526.925	80.75
527.14	97.75
527.355	87.75
527.57	100.75
527.785	86.75
527.999	100.75
528.214	93.75
528.429	91.75
528.644	88.75
528.859	101.75
529.074	110.75
529.289	95.75
529.503	88.75
529.718	89.75
529.933	90.75
530.148	95.75
530.363	96.75
530.577	92.75
530.792	91.75
531.007	80.75
531.221	100.75
531.436	79.75
531.651	90.75
531.865	97.75
532.08	98.75
532.295	115.75
532.509	150.75
532.724	103.75
532.938	87.75
533.153	100.75
533.367	82.75
533.582	104.75
533.796	100.75
534.011	108.75
534.225	95.75
534.44	92.75
534.654	106.75
534.868	96.75
535.083	99.75
535.297	101.75
535.511	101.75
535.726	96.75
535.94	79.75
536.154	99.75
536.369	93.75
536.583	85.75
536.797	98.75
537.011	86.75
537.225	98.75
537.44	93.75
537.654	107.75
537.868	98.75
538.082	79.75
538.296	88.75
538.51	100.75
538.724	93.75
538.938	98.75
539.153	98.75
539.367	100.75
539.581	105.75
539.795	93.75
540.009	114.75
540.222	78.75
540.436	89.75
540.65	104.75
540.864	104.75
541.078	115.75
541.292	120.75
541.506	222.75
541.72	214.75
541.934	128.75
542.147	112.75
542.361	114.75
542.575	107.75
542.789	103.75
543.002	97.75
543.216	93.75
543.43	84.75
543.644	95.75
543.857	92.75
544.071	90.75
544.285	90.75
544.498	109.75
544.712	110.75
544.925	85.75
545.139	104.75
545.352	105.75
545.566	104.75
545.779	78.75
545.993	106.75
546.206	97.75
546.42	111.75
546.633	100.75
546.847	104.75
547.06	97.75
547.274	85.75
547.487	116.75
547.7	101.75
547.914	97.75
548.127	82.75
548.34	98.75
548.554	110.75
548.767	90.75
548.98	100.75
549.193	115.75
549.407	108.75
549.62	93.75
549.833	101.75
550.046	92.75
550.259	99.75
550.473	101.75
550.686	108.75
550.899	96.75
551.112	105.75
551.325	100.75
551.538	115.75
551.751	110.75
551.964	101.75
552.177	94.75
552.39	96.75
552.603	110.75
552.816	110.75
553.029	96.75
553.242	114.75
553.455	106.75
553.667	93.75
553.88	94.75
554.093	90.75
554.306	105.75
554.519	96.75
554.732	101.75
554.944	100.75
555.157	116.75
555.37	106.75
555.583	92.75
555.795	104.75
556.008	126.75
556.221	179.75
556.433	132.75
556.646	109.75
556.859	117.75
557.071	110.75
557.284	135.75
557.496	94.75
557.709	113.75
557.921	116.75
558.134	109.75
558.346	102.75
558.559	110.75
558.771	96.75
558.984	110.75
559.196	108.75
559.409	84.75
559.621	99.75
559.833	94.75
560.046	85.75
560.258	102.75
560.47	104.75
560.683	98.75
560.895	80.75
561.107	88.75
561.32	88.75
561.532	107.75
561.744	96.75
561.956	92.75
562.168	97.75
562.381	90.75
562.593	106.75
562.805	147.75
563.017	185.75
563.229	291.75
563.441	699.75
563.653	223.75
563.865	122.75
564.077	88.75
564.289	104.75
564.501	98.75
564.713	96.75
564.925	100.75
565.137	87.75
565.349	101.75
565.561	108.75
565.773	89.75
565.985	86.75
566.197	104.75
566.408	96.75
566.62	97.75
566.832	103.75
567.044	88.75
567.255	110.75
567.467	99.75
567.679	89.75
567.891	101.75
568.102	180.75
568.314	254.75
568.526	186.75
568.737	114.75
568.949	97.75
569.161	85.75
569.372	91.75
569.584	94.75
569.795	107.75
570.007	114.75
570.218	126.75
570.43	167.75
570.641	114.75
570.853	94.75
571.064	88.75
571.276	88.75
571.487	94.75
571.698	93.75
571.91	105.75
572.121	113.75
572.333	85.75
572.544	105.75
572.755	149.75
572.966	200.75
573.178	138.75
573.389	108.75
573.6	101.75
573.811	88.75
574.023	98.75
574.234	90.75
574.445	105.75
574.656	92.75
574.867	96.75
575.078	88.75
575.289	91.75
575.501	89.75
575.712	80.75
575.923	92.75
576.134	92.75
576.345	92.75
576.556	89.75
576.767	91.75
576.978	88.75
577.188	102.75
577.399	107.75
577.61	96.75
577.821	104.75
578.032	82.75
578.243	86.75
578.454	83.75
578.665	94.75
578.875	104.75
579.086	97.75
579.297	99.75
579.508	90.75
579.718	88.75
579.929	93.75
580.14	112.75
580.35	101.75
580.561	93.75
580.772	98.75
580.982	100.75
581.193	81.75
581.403	77.75
581.614	85.75
581.825	88.75
582.035	88.75
582.246	99.75
582.456	97.75
582.667	92.75
582.877	117.75
583.087	116.75
583.298	93.75
583.508	97.75
583.719	87.75
583.929	97.75
584.139	92.75
584.35	99.75
584.56	88.75
584.77	85.75
584.981	90.75
585.191	90.75
585.401	76.75
585.611	82.75
585.821	87.75
586.032	89.75
586.242	99.75
586.452	89.75
586.662	85.75
586.872	90.75
587.082	90.75
587.292	85.75
587.502	96.75
587.713	93.75
587.923	82.75
588.133	82.75
588.343	91.75
588.553	94.75
588.762	95.75
588.972	88.75
589.182	112.75
589.392	98.75
589.602	91.75
589.812	122.75
590.022	88.75
590.232	76.75
590.441	82.75
590.651	84.75
590.861	93.75
591.071	94.75
591.281	85.75
591.49	96.75
591.7	93.75
591.91	87.75
592.119	78.75
592.329	97.75
592.539	85.75
592.748	96.75
592.958	101.75
593.167	84.75
593.377	76.75
593.587	88.75
593.796	85.75
594.006	73.75
594.215	90.75
594.424	87.75
594.634	86.75
594.843	75.75
595.053	106.75
595.262	94.75
595.472	91.75
595.681	93.75
595.89	82.75
596.1	95.75
596.309	96.75
596.518	93.75
596.727	90.75
596.937	93.75
597.146	99.75
597.355	94.75
597.564	91.75
597.774	96.75
597.983	67.75
598.192	83.75
598.401	78.75
598.61	92.75
598.819	96.75
599.028	89.75
599.237	91.75
599.446	93.75
599.655	77.75
599.864	91.75
600.073	93.75
600.282	88.75
600.491	88.75
600.7	81.75
600.909	86.75
601.118	85.75
601.327	96.75
601.536	89.75
601.745	92.75
601.953	131.75
602.162	153.75
602.371	97.75
602.58	100.75
602.789	84.75
602.997	109.75
603.206	96.75
603.415	87.75
603.623	79.75
603.832	100.75
604.041	105.75
604.249	86.75
604.458	82.75
604.666	95.75
604.875	83.75
605.084	93.75
605.292	99.75
605.501	91.75
605.709	104.75
605.918	98.75
606.126	95.75
606.334	91.75
606.543	112.75
606.751	128.75
606.96	152.75
607.168	188.75
607.376	116.75
607.585	115.75
607.793	97.75
608.001	98.75
608.21	86.75
608.418	86.75
608.626	99.75
608.834	87.75
609.043	91.75
609.251	90.75
609.459	84.75
609.667	92.75
609.875	93.75
610.083	92.75
610.291	96.75
610.499	78.75
610.707	85.75
610.916	78.75
611.124	90.75
611.332	81.75
611.54	82.75
611.748	97.75
611.955	107.75
612.163	94.75
612.371	98.75
612.579	87.75
612.787	98.75
612.995	103.75
613.203	90.75
613.411	85.75
613.618	79.75
613.826	90.75
614.034	83.75
614.242	90.75
614.449	89.75
614.657	92.75
614.865	98.75
615.072	106.75
615.28	132.75
615.488	107.75
615.695	110.75
615.903	76.75
616.111	90.75
616.318	89.75
616.526	91.75
616.733	88.75
616.941	95.75
617.148	82.75
617.356	85.75
617.563	90.75
617.771	101.75
617.978	95.75
618.185	90.75
618.393	83.75
618.6	91.75
618.807	93.75
619.015	92.75
619.222	85.75
619.429	96.75
619.637	92.75
619.844	93.75
620.051	79.75
620.258	105.75
620.466	90.75
620.673	84.75
620.88	86.75
621.087	76.75
621.294	78.75
621.501	71.75
621.708	84.75
621.915	83.75
622.122	81.75
622.329	86.75
622.536	78.75
622.743	94.75
622.95	85.75
623.157	94.75
623.364	86.75
623.571	87.75
623.778	95.75
623.985	94.75
624.192	94.75
624.399	89.75
624.606	96.75
624.812	84.75
625.019	93.75
625.226	85.75
625.433	88.75
625.639	94.75
625.846	78.75
626.053	73.75
626.259	82.75
626.466	81.75
626.673	79.75
626.879	73.75
627.086	88.75
627.293	77.75
627.499	84.75
627.706	88.75
627.912	81.75
628.119	87.75
628.325	84.75
628.532	82.75
628.738	76.75
628.945	78.75
629.151	78.75
629.357	80.75
629.564	85.75
629.77	87.75
629.976	93.75
630.183	82.75
630.389	84.75
630.595	76.75
630.802	90.75
631.008	80.75
631.214	82.75
631.42	89.75
631.627	87.75
631.833	79.75
632.039	87.75
632.245	85.75
632.451	73.75
632.657	83.75
632.863	86.75
633.069	84.75
633.275	87.75
633.481	68.75
633.688	78.75
633.893	87.75
634.099	79.75
634.305	95.75
634.511	90.75
634.717	94.75
634.923	97.75
635.129	116.75
635.335	131.75
635.541	93.75
635.747	89.75
635.952	90.75
636.158	90.75
636.364	77.75
636.57	78.75
636.775	90.75
636.981	69.75
637.187	81.75
637.392	86.75
637.598	89.75
637.804	79.75
638.009	74.75
638.215	90.75
638.421	88.75
638.626	89.75
638.832	96.75
639.037	83.75
639.243	83.75
639.448	94.75
639.654	85.75
639.859	89.75
640.065	77.75
640.27	95.75
640.475	93.75
640.681	80.75
640.886	80.75
641.091	100.75
641.297	70.75
641.502	88.75
641.707	80.75
641.913	87.75
642.118	84.75
642.323	74.75
642.528	69.75
642.733	80.75
642.939	78.75
643.144	84.75
643.349	81.75
643.554	81.75
643.759	76.75
643.964	77.75
644.169	94.75
644.374	96.75
644.579	71.75
644.784	82.75
644.989	91.75
645.194	75.75
645.399	98.75
645.604	92.75
645.809	91.75
646.014	84.75
646.219	80.75
646.423	81.75
646.628	82.75
646.833	84.75
647.038	97.75
647.243	86.75
647.447	83.75
647.652	74.75
647.857	78.75
648.062	83.75
648.266	77.75
648.471	73.75
648.676	93.75
648.88	84.75
649.085	75.75
649.289	77.75
649.494	97.75
649.698	88.75
649.903	93.75
650.107	80.75
650.312	83.75
650.516	90.75
650.721	83.75
650.925	92.75
651.13	113.75
651.334	67.75
651.539	93.75
651.743	74.75
651.947	79.75
652.152	85.75
652.356	90.75
652.56	105.75
652.764	124.75
652.969	90.75
653.173	88.75
653.377	81.75
653.581	78.75
653.785	77.75
653.99	82.75
654.194	85.75
654.398	77.75
654.602	71.75
654.806	86.75
655.01	82.75
655.214	87.75
655.418	80.75
655.622	74.75
655.826	70.75
656.03	88.75
656.234	71.75
656.438	70.75
656.642	73.75
656.846	80.75
657.049	74.75
657.253	73.75
657.457	81.75
657.661	96.75
657.865	80.75
658.068	73.75
658.272	67.75
658.476	89.75
658.68	83.75
658.883	82.75
659.087	89.75
659.291	76.75
659.494	85.75
659.698	73.75
659.901	93.75
660.105	92.75
660.309	92.75
660.512	83.75
660.716	84.75
660.919	77.75
661.123	65.75
661.326	95.75
661.53	81.75
661.733	76.75
661.936	76.75
662.14	80.75
662.343	81.75
662.546	76.75
662.75	74.75
662.953	96.75
663.156	63.75
663.36	88.75
663.563	79.75
663.766	81.75
663.969	70.75
664.173	85.75
664.376	73.75
664.579	65.75
664.782	74.75
664.985	80.75
665.188	82.75
665.391	73.75
665.594	87.75
665.797	86.75
666	82.75
666.203	82.75
666.406	73.75
666.609	79.75
666.812	80.75
667.015	91.75
667.218	97.75
667.421	73.75
667.624	71.75
667.827	83.75
668.03	70.75
668.232	86.75
668.435	66.75
668.638	80.75
668.841	81.75
669.043	74.75
669.246	75.75
669.449	73.75
669.651	74.75
669.854	77.75
670.057	74.75
670.259	80.75
670.462	76.75
670.665	76.75
670.867	70.75
671.07	81.75
671.272	78.75
671.475	77.75
671.677	67.75
671.88	84.75
672.082	69.75
672.284	78.75
672.487	79.75
672.689	77.75
672.892	69.75
