Data from SnStandardFlinnAPT0064_LampEnergy5.5_LIBS07252019.E.O._I.C._HRD10591_15-17-28-492.txt Node
Date: Thu Jul 25 15:17:28 EDT 2019
User: cochatt
Spectrometer: HR+D1059
Trigger mode: 1
Integration Time (sec): 1.000000E-1
Scans to average: 1
Electric dark correction enabled: true
Nonlinearity correction enabled: false
Boxcar width: 0
XAxis mode: Wavelengths
Number of Pixels in Spectrum: 2048
>>>>>Begin Spectral Data<<<<<
223.165	-20.12
223.4	-20.12
223.635	-20.12
223.869	-25.12
224.104	-27.12
224.338	-21.12
224.573	-16.12
224.808	-10.12
225.042	-1.12
225.277	-5.12
225.511	-16.12
225.746	-5.12
225.98	22.88
226.215	19.88
226.449	13.88
226.683	34.88
226.918	28.88
227.152	26.88
227.387	40.88
227.621	43.88
227.856	28.88
228.09	30.88
228.324	37.88
228.559	54.88
228.793	77.88
229.027	144.88
229.262	181.88
229.496	161.88
229.73	162.88
229.964	152.88
230.199	166.88
230.433	154.88
230.667	170.88
230.901	173.88
231.136	178.88
231.37	199.88
231.604	206.88
231.838	248.88
232.072	253.88
232.306	258.88
232.541	241.88
232.775	208.88
233.009	204.88
233.243	216.88
233.477	234.88
233.711	252.88
233.945	281.88
234.179	248.88
234.413	228.88
234.647	230.88
234.881	239.88
235.115	242.88
235.349	269.88
235.583	371.88
235.817	479.88
236.051	473.88
236.285	294.88
236.519	257.88
236.753	246.88
236.987	249.88
237.221	264.88
237.455	255.88
237.689	234.88
237.922	217.88
238.156	231.88
238.39	226.88
238.624	250.88
238.858	227.88
239.091	232.88
239.325	254.88
239.559	239.88
239.793	240.88
240.027	244.88
240.26	266.88
240.494	273.88
240.728	270.88
240.961	284.88
241.195	293.88
241.429	298.88
241.662	325.88
241.896	371.88
242.13	435.88
242.363	557.88
242.597	693.88
242.83	689.88
243.064	682.88
243.298	813.88
243.531	718.88
243.765	439.88
243.998	370.88
244.232	328.88
244.465	307.88
244.699	295.88
244.932	289.88
245.166	302.88
245.399	321.88
245.633	324.88
245.866	318.88
246.099	309.88
246.333	315.88
246.566	293.88
246.8	293.88
247.033	301.88
247.266	317.88
247.5	308.88
247.733	319.88
247.966	316.88
248.2	352.88
248.433	397.88
248.666	439.88
248.899	437.88
249.133	367.88
249.366	392.88
249.599	423.88
249.832	466.88
250.066	472.88
250.299	390.88
250.532	351.88
250.765	358.88
250.998	350.88
251.231	334.88
251.465	346.88
251.698	367.88
251.931	344.88
252.164	350.88
252.397	362.88
252.63	358.88
252.863	370.88
253.096	365.88
253.329	365.88
253.562	355.88
253.795	357.88
254.028	368.88
254.261	382.88
254.494	424.88
254.727	478.88
254.96	538.88
255.193	540.88
255.426	425.88
255.659	404.88
255.892	388.88
256.124	386.88
256.357	392.88
256.59	402.88
256.823	456.88
257.056	496.88
257.289	590.88
257.521	661.88
257.754	522.88
257.987	435.88
258.22	428.88
258.452	415.88
258.685	429.88
258.918	443.88
259.151	448.88
259.383	492.88
259.616	531.88
259.849	557.88
260.081	497.88
260.314	464.88
260.547	446.88
260.779	447.88
261.012	423.88
261.244	455.88
261.477	456.88
261.71	475.88
261.942	466.88
262.175	471.88
262.407	496.88
262.64	487.88
262.872	499.88
263.105	531.88
263.337	579.88
263.57	592.88
263.802	611.88
264.035	609.88
264.267	632.88
264.499	652.88
264.732	676.88
264.964	665.88
265.197	654.88
265.429	642.88
265.661	672.88
265.894	707.88
266.126	806.88
266.358	868.88
266.591	848.88
266.823	727.88
267.055	682.88
267.287	657.88
267.52	628.88
267.752	582.88
267.984	585.88
268.216	576.88
268.448	584.88
268.681	574.88
268.913	550.88
269.145	569.88
269.377	545.88
269.609	569.88
269.841	600.88
270.073	639.88
270.306	710.88
270.538	954.88
270.77	1428.88
271.002	1736.88
271.234	1208.88
271.466	807.88
271.698	654.88
271.93	596.88
272.162	595.88
272.394	564.88
272.626	588.88
272.858	579.88
273.09	560.88
273.322	531.88
273.553	555.88
273.785	558.88
274.017	556.88
274.249	573.88
274.481	557.88
274.713	546.88
274.945	547.88
275.176	556.88
275.408	571.88
275.64	566.88
275.872	558.88
276.104	571.88
276.335	577.88
276.567	567.88
276.799	559.88
277.031	592.88
277.262	591.88
277.494	625.88
277.726	686.88
277.957	798.88
278.189	896.88
278.421	828.88
278.652	746.88
278.884	768.88
279.115	651.88
279.347	648.88
279.579	621.88
279.81	636.88
280.042	660.88
280.273	627.88
280.505	651.88
280.736	660.88
280.968	692.88
281.199	777.88
281.431	842.88
281.662	893.88
281.894	780.88
282.125	712.88
282.356	714.88
282.588	714.88
282.819	735.88
283.051	782.88
283.282	847.88
283.513	1044.88
283.745	1567.88
283.976	2568.88
284.207	3662.88
284.439	3237.88
284.67	1890.88
284.901	1499.88
285.132	1492.88
285.364	1450.88
285.595	1118.88
285.826	1021.88
286.057	1213.88
286.288	1701.88
286.52	2285.88
286.751	2128.88
286.982	1290.88
287.213	946.88
287.444	834.88
287.675	806.88
287.906	776.88
288.138	772.88
288.369	741.88
288.6	741.88
288.831	758.88
289.062	728.88
289.293	731.88
289.524	740.88
289.755	753.88
289.986	748.88
290.217	740.88
290.448	736.88
290.679	742.88
290.91	767.88
291.141	805.88
291.371	846.88
291.602	894.88
291.833	832.88
292.064	756.88
292.295	738.88
292.526	702.88
292.757	715.88
292.987	725.88
293.218	710.88
293.449	720.88
293.68	727.88
293.91	694.88
294.141	715.88
294.372	698.88
294.603	692.88
294.833	701.88
295.064	706.88
295.295	704.88
295.525	679.88
295.756	696.88
295.987	710.88
296.217	718.88
296.448	678.88
296.679	695.88
296.909	694.88
297.14	734.88
297.37	726.88
297.601	735.88
297.831	760.88
298.062	732.88
298.292	730.88
298.523	742.88
298.753	770.88
298.984	763.88
299.214	747.88
299.445	772.88
299.675	796.88
299.905	794.88
300.136	834.88
300.366	937.88
300.597	1168.88
300.827	1662.88
301.057	2306.88
301.288	2267.88
301.518	1420.88
301.748	1055.88
301.979	999.88
302.209	948.88
302.439	984.88
302.669	1010.88
302.9	1230.88
303.13	1773.88
303.36	2661.88
303.59	3564.88
303.82	3050.88
304.051	1731.88
304.281	1228.88
304.511	1020.88
304.741	938.88
304.971	928.88
305.201	892.88
305.431	838.88
305.661	828.88
305.891	836.88
306.121	837.88
306.352	839.88
306.582	804.88
306.812	779.88
307.042	815.88
307.272	790.88
307.502	796.88
307.731	799.88
307.961	821.88
308.191	808.88
308.421	810.88
308.651	790.88
308.881	816.88
309.111	808.88
309.341	814.88
309.571	788.88
309.8	828.88
310.03	822.88
310.26	831.88
310.49	824.88
310.72	850.88
310.949	848.88
311.179	828.88
311.409	843.88
311.639	863.88
311.868	838.88
312.098	851.88
312.328	857.88
312.557	853.88
312.787	869.88
313.017	863.88
313.246	867.88
313.476	888.88
313.706	903.88
313.935	981.88
314.165	1017.88
314.394	1077.88
314.624	1013.88
314.853	959.88
315.083	954.88
315.312	958.88
315.542	955.88
315.771	964.88
316.001	958.88
316.23	991.88
316.46	1040.88
316.689	1134.88
316.919	1387.88
317.148	2005.88
317.377	3161.88
317.607	4715.88
317.836	4811.88
318.065	2725.88
318.295	1734.88
318.524	1371.88
318.753	1246.88
318.983	1141.88
319.212	1079.88
319.441	1053.88
319.67	1062.88
319.9	1023.88
320.129	1022.88
320.358	1011.88
320.587	977.88
320.816	984.88
321.046	1013.88
321.275	1010.88
321.504	1023.88
321.733	1031.88
321.962	1041.88
322.191	1066.88
322.42	1038.88
322.649	1054.88
322.878	1094.88
323.108	1082.88
323.337	1084.88
323.566	1111.88
323.795	1132.88
324.024	1145.88
324.253	1158.88
324.482	1220.88
324.71	1266.88
324.939	1380.88
325.168	1396.88
325.397	1404.88
325.626	1662.88
325.855	2391.88
326.084	3841.88
326.313	5779.88
326.542	6130.88
326.77	3717.88
326.999	2366.88
327.228	1972.88
327.457	1893.88
327.686	1898.88
327.914	2018.88
328.143	2330.88
328.372	2727.88
328.6	2933.88
328.829	2669.88
329.058	2309.88
329.287	2086.88
329.515	1902.88
329.744	1773.88
329.972	1683.88
330.201	1624.88
330.43	1588.88
330.658	1509.88
330.887	1484.88
331.115	1492.88
331.344	1466.88
331.572	1475.88
331.801	1514.88
332.03	1480.88
332.258	1507.88
332.486	1557.88
332.715	1763.88
332.943	2248.88
333.172	2718.88
333.4	2676.88
333.629	2062.88
333.857	1802.88
334.085	1793.88
334.314	1922.88
334.542	2108.88
334.771	2394.88
334.999	2901.88
335.227	3488.88
335.455	3916.88
335.684	3570.88
335.912	3037.88
336.14	2606.88
336.369	2338.88
336.597	2143.88
336.825	1976.88
337.053	1869.88
337.281	1780.88
337.51	1710.88
337.738	1636.88
337.966	1603.88
338.194	1536.88
338.422	1494.88
338.65	1462.88
338.878	1468.88
339.106	1375.88
339.334	1374.88
339.562	1366.88
339.79	1345.88
340.018	1339.88
340.246	1322.88
340.474	1322.88
340.702	1355.88
340.93	1290.88
341.158	1302.88
341.386	1308.88
341.614	1288.88
341.842	1278.88
342.07	1260.88
342.298	1204.88
342.526	1195.88
342.754	1200.88
342.981	1210.88
343.209	1188.88
343.437	1197.88
343.665	1204.88
343.893	1233.88
344.12	1223.88
344.348	1223.88
344.576	1199.88
344.804	1200.88
345.031	1141.88
345.259	1127.88
345.487	1130.88
345.714	1118.88
345.942	1140.88
346.17	1138.88
346.397	1131.88
346.625	1114.88
346.853	1091.88
347.08	1090.88
347.308	1101.88
347.535	1125.88
347.763	1090.88
347.99	1112.88
348.218	1092.88
348.445	1096.88
348.673	1087.88
348.9	1084.88
349.128	1106.88
349.355	1060.88
349.583	1061.88
349.81	1046.88
350.037	1072.88
350.265	1063.88
350.492	1067.88
350.72	1076.88
350.947	1049.88
351.174	1053.88
351.402	1044.88
351.629	1073.88
351.856	1046.88
352.083	1050.88
352.311	1032.88
352.538	1059.88
352.765	1057.88
352.992	1036.88
353.22	1051.88
353.447	1046.88
353.674	1054.88
353.901	1043.88
354.128	1060.88
354.355	1058.88
354.583	1067.88
354.81	1093.88
355.037	1041.88
355.264	1052.88
355.491	1089.88
355.718	1111.88
355.945	1095.88
356.172	1091.88
356.399	1115.88
356.626	1115.88
356.853	1105.88
357.08	1090.88
357.307	1128.88
357.534	1136.88
357.761	1150.88
357.988	1133.88
358.215	1116.88
358.441	1132.88
358.668	1114.88
358.895	1111.88
359.122	1105.88
359.349	1090.88
359.576	1100.88
359.802	1112.88
360.029	1095.88
360.256	1128.88
360.483	1146.88
360.709	1137.88
360.936	1114.88
361.163	1120.88
361.39	1119.88
361.616	1148.88
361.843	1143.88
362.07	1139.88
362.296	1117.88
362.523	1148.88
362.749	1166.88
362.976	1133.88
363.203	1140.88
363.429	1114.88
363.656	1131.88
363.882	1094.88
364.109	1101.88
364.335	1090.88
364.562	1123.88
364.788	1111.88
365.015	1147.88
365.241	1160.88
365.468	1182.88
365.694	1249.88
365.92	1224.88
366.147	1133.88
366.373	1148.88
366.599	1137.88
366.826	1127.88
367.052	1118.88
367.278	1161.88
367.505	1127.88
367.731	1160.88
367.957	1124.88
368.184	1173.88
368.41	1170.88
368.636	1170.88
368.862	1169.88
369.089	1157.88
369.315	1166.88
369.541	1179.88
369.767	1197.88
369.993	1173.88
370.219	1184.88
370.445	1190.88
370.672	1202.88
370.898	1180.88
371.124	1180.88
371.35	1213.88
371.576	1180.88
371.802	1198.88
372.028	1206.88
372.254	1223.88
372.48	1236.88
372.706	1207.88
372.932	1225.88
373.158	1216.88
373.384	1225.88
373.61	1229.88
373.835	1234.88
374.061	1270.88
374.287	1263.88
374.513	1254.88
374.739	1294.88
374.965	1302.88
375.191	1289.88
375.416	1275.88
375.642	1263.88
375.868	1238.88
376.094	1251.88
376.319	1220.88
376.545	1205.88
376.771	1237.88
376.997	1198.88
377.222	1242.88
377.448	1199.88
377.674	1212.88
377.899	1196.88
378.125	1203.88
378.35	1220.88
378.576	1205.88
378.802	1216.88
379.027	1273.88
379.253	1270.88
379.478	1323.88
379.704	1502.88
379.929	2282.88
380.155	3432.88
380.38	3643.88
380.606	2158.88
380.831	1558.88
381.057	1381.88
381.282	1324.88
381.507	1222.88
381.733	1244.88
381.958	1224.88
382.184	1189.88
382.409	1250.88
382.634	1192.88
382.86	1182.88
383.085	1174.88
383.31	1205.88
383.535	1181.88
383.761	1197.88
383.986	1218.88
384.211	1249.88
384.436	1211.88
384.662	1222.88
384.887	1217.88
385.112	1235.88
385.337	1206.88
385.562	1228.88
385.787	1274.88
386.013	1261.88
386.238	1266.88
386.463	1242.88
386.688	1223.88
386.913	1222.88
387.138	1232.88
387.363	1223.88
387.588	1209.88
387.813	1241.88
388.038	1247.88
388.263	1219.88
388.488	1239.88
388.713	1234.88
388.938	1218.88
389.163	1226.88
389.387	1251.88
389.612	1215.88
389.837	1232.88
390.062	1248.88
390.287	1265.88
390.512	1253.88
390.736	1235.88
390.961	1293.88
391.186	1239.88
391.411	1325.88
391.636	1294.88
391.86	1321.88
392.085	1315.88
392.31	1285.88
392.534	1250.88
392.759	1269.88
392.984	1282.88
393.208	1268.88
393.433	1281.88
393.658	1278.88
393.882	1263.88
394.107	1232.88
394.331	1224.88
394.556	1261.88
394.78	1264.88
395.005	1258.88
395.229	1270.88
395.454	1277.88
395.678	1287.88
395.903	1293.88
396.127	1298.88
396.352	1259.88
396.576	1270.88
396.801	1293.88
397.025	1322.88
397.249	1295.88
397.474	1292.88
397.698	1298.88
397.922	1316.88
398.147	1312.88
398.371	1340.88
398.595	1350.88
398.82	1347.88
399.044	1434.88
399.268	1492.88
399.492	1580.88
399.717	1626.88
399.941	1657.88
400.165	1572.88
400.389	1507.88
400.613	1434.88
400.837	1421.88
401.062	1399.88
401.286	1367.88
401.51	1386.88
401.734	1364.88
401.958	1374.88
402.182	1391.88
402.406	1396.88
402.63	1351.88
402.854	1403.88
403.078	1380.88
403.302	1417.88
403.526	1398.88
403.75	1423.88
403.974	1423.88
404.198	1386.88
404.422	1418.88
404.645	1427.88
404.869	1404.88
405.093	1429.88
405.317	1432.88
405.541	1391.88
405.765	1457.88
405.988	1460.88
406.212	1438.88
406.436	1404.88
406.66	1455.88
406.883	1479.88
407.107	1487.88
407.331	1527.88
407.555	1541.88
407.778	1553.88
408.002	1491.88
408.226	1521.88
408.449	1518.88
408.673	1463.88
408.896	1438.88
409.12	1420.88
409.344	1468.88
409.567	1419.88
409.791	1432.88
410.014	1402.88
410.238	1411.88
410.461	1431.88
410.685	1407.88
410.908	1410.88
411.132	1373.88
411.355	1346.88
411.578	1376.88
411.802	1351.88
412.025	1360.88
412.249	1356.88
412.472	1344.88
412.695	1354.88
412.919	1362.88
413.142	1354.88
413.365	1330.88
413.589	1343.88
413.812	1322.88
414.035	1324.88
414.258	1349.88
414.482	1325.88
414.705	1342.88
414.928	1387.88
415.151	1355.88
415.374	1326.88
415.597	1328.88
415.821	1318.88
416.044	1341.88
416.267	1307.88
416.49	1307.88
416.713	1308.88
416.936	1322.88
417.159	1255.88
417.382	1252.88
417.605	1290.88
417.828	1284.88
418.051	1325.88
418.274	1319.88
418.497	1307.88
418.72	1372.88
418.943	1323.88
419.166	1374.88
419.389	1420.88
419.611	1434.88
419.834	1366.88
420.057	1344.88
420.28	1327.88
420.503	1290.88
420.726	1279.88
420.948	1294.88
421.171	1308.88
421.394	1295.88
421.617	1312.88
421.839	1330.88
422.062	1311.88
422.285	1300.88
422.507	1290.88
422.73	1316.88
422.953	1312.88
423.175	1322.88
423.398	1326.88
423.621	1318.88
423.843	1309.88
424.066	1351.88
424.288	1284.88
424.511	1269.88
424.733	1272.88
424.956	1303.88
425.178	1271.88
425.401	1272.88
425.623	1293.88
425.846	1254.88
426.068	1285.88
426.291	1245.88
426.513	1271.88
426.735	1279.88
426.958	1264.88
427.18	1210.88
427.402	1249.88
427.625	1208.88
427.847	1206.88
428.069	1182.88
428.292	1224.88
428.514	1189.88
428.736	1198.88
428.958	1222.88
429.181	1195.88
429.403	1178.88
429.625	1179.88
429.847	1207.88
430.069	1212.88
430.292	1265.88
430.514	1306.88
430.736	1289.88
430.958	1226.88
431.18	1200.88
431.402	1208.88
431.624	1178.88
431.846	1175.88
432.068	1142.88
432.29	1174.88
432.512	1164.88
432.734	1194.88
432.956	1172.88
433.178	1188.88
433.4	1209.88
433.622	1200.88
433.844	1210.88
434.066	1192.88
434.287	1186.88
434.509	1206.88
434.731	1210.88
434.953	1221.88
435.175	1262.88
435.397	1260.88
435.618	1235.88
435.84	1180.88
436.062	1153.88
436.284	1165.88
436.505	1179.88
436.727	1178.88
436.949	1176.88
437.17	1192.88
437.392	1183.88
437.614	1167.88
437.835	1118.88
438.057	1164.88
438.278	1137.88
438.5	1158.88
438.721	1181.88
438.943	1214.88
439.165	1230.88
439.386	1262.88
439.608	1246.88
439.829	1266.88
440.05	1278.88
440.272	1292.88
440.493	1240.88
440.715	1251.88
440.936	1245.88
441.158	1240.88
441.379	1242.88
441.6	1279.88
441.822	1347.88
442.043	1407.88
442.264	1435.88
442.486	1354.88
442.707	1301.88
442.928	1261.88
443.149	1259.88
443.371	1254.88
443.592	1296.88
443.813	1291.88
444.034	1310.88
444.255	1306.88
444.476	1347.88
444.698	1344.88
444.919	1373.88
445.14	1450.88
445.361	1364.88
445.582	1326.88
445.803	1272.88
446.024	1263.88
446.245	1292.88
446.466	1278.88
446.687	1264.88
446.908	1267.88
447.129	1253.88
447.35	1227.88
447.571	1210.88
447.792	1198.88
448.013	1164.88
448.234	1163.88
448.455	1200.88
448.675	1191.88
448.896	1227.88
449.117	1251.88
449.338	1332.88
449.559	1415.88
449.779	1250.88
450	1190.88
450.221	1147.88
450.442	1179.88
450.662	1148.88
450.883	1147.88
451.104	1142.88
451.324	1113.88
451.545	1152.88
451.766	1180.88
451.986	1198.88
452.207	1254.88
452.428	1528.88
452.648	2206.88
452.869	1858.88
453.089	1354.88
453.31	1270.88
453.53	1261.88
453.751	1316.88
453.971	1393.88
454.192	1419.88
454.412	1196.88
454.633	1154.88
454.853	1110.88
455.073	1083.88
455.294	1130.88
455.514	1094.88
455.734	1086.88
455.955	1087.88
456.175	1084.88
456.395	1073.88
456.616	1062.88
456.836	1100.88
457.056	1107.88
457.276	1124.88
457.497	1196.88
457.717	1190.88
457.937	1154.88
458.157	1154.88
458.377	1141.88
458.598	1173.88
458.818	1184.88
459.038	1155.88
459.258	1137.88
459.478	1185.88
459.698	1179.88
459.918	1233.88
460.138	1191.88
460.358	1255.88
460.578	1262.88
460.798	1302.88
461.018	1273.88
461.238	1294.88
461.458	1314.88
461.678	1296.88
461.898	1327.88
462.118	1328.88
462.338	1356.88
462.558	1358.88
462.777	1383.88
462.997	1414.88
463.217	1516.88
463.437	1569.88
463.657	1614.88
463.876	1550.88
464.096	1462.88
464.316	1418.88
464.536	1394.88
464.755	1397.88
464.975	1359.88
465.195	1314.88
465.414	1294.88
465.634	1237.88
465.854	1219.88
466.073	1197.88
466.293	1208.88
466.512	1218.88
466.732	1225.88
466.951	1303.88
467.171	1360.88
467.391	1346.88
467.61	1223.88
467.829	1189.88
468.049	1187.88
468.268	1190.88
468.488	1191.88
468.707	1172.88
468.927	1171.88
469.146	1159.88
469.365	1194.88
469.585	1194.88
469.804	1203.88
470.023	1221.88
470.243	1274.88
470.462	1264.88
470.681	1359.88
470.901	1464.88
471.12	1755.88
471.339	1749.88
471.558	1407.88
471.777	1280.88
471.997	1265.88
472.216	1202.88
472.435	1190.88
472.654	1175.88
472.873	1136.88
473.092	1126.88
473.311	1153.88
473.53	1200.88
473.749	1224.88
473.968	1222.88
474.187	1200.88
474.406	1143.88
474.625	1182.88
474.844	1184.88
475.063	1160.88
475.282	1207.88
475.501	1189.88
475.72	1198.88
475.939	1187.88
476.158	1235.88
476.377	1249.88
476.596	1241.88
476.814	1216.88
477.033	1221.88
477.252	1243.88
477.471	1283.88
477.69	1296.88
477.908	1311.88
478.127	1317.88
478.346	1349.88
478.564	1335.88
478.783	1354.88
479.002	1375.88
479.22	1388.88
479.439	1398.88
479.658	1351.88
479.876	1369.88
480.095	1408.88
480.313	1438.88
480.532	1429.88
480.751	1409.88
480.969	1396.88
481.188	1390.88
481.406	1391.88
481.624	1387.88
481.843	1381.88
482.061	1381.88
482.28	1398.88
482.498	1397.88
482.717	1419.88
482.935	1415.88
483.153	1421.88
483.372	1459.88
483.59	1438.88
483.808	1490.88
484.027	1530.88
484.245	1623.88
484.463	1808.88
484.681	2035.88
484.9	1794.88
485.118	1635.88
485.336	1606.88
485.554	1653.88
485.772	1722.88
485.99	2005.88
486.209	2172.88
486.427	1822.88
486.645	1608.88
486.863	1596.88
487.081	1573.88
487.299	1517.88
487.517	1498.88
487.735	1500.88
487.953	1555.88
488.171	1507.88
488.389	1498.88
488.607	1471.88
488.825	1480.88
489.043	1418.88
489.261	1414.88
489.479	1464.88
489.696	1438.88
489.914	1471.88
490.132	1468.88
490.35	1469.88
490.568	1493.88
490.786	1513.88
491.003	1505.88
491.221	1569.88
491.439	1534.88
491.657	1534.88
491.874	1575.88
492.092	1584.88
492.31	1633.88
492.527	1617.88
492.745	1561.88
492.963	1556.88
493.18	1554.88
493.398	1541.88
493.615	1544.88
493.833	1504.88
494.05	1559.88
494.268	1571.88
494.485	1513.88
494.703	1545.88
494.92	1552.88
495.138	1550.88
495.355	1570.88
495.573	1571.88
495.79	1555.88
496.008	1584.88
496.225	1564.88
496.442	1603.88
496.66	1631.88
496.877	1722.88
497.094	1722.88
497.312	1651.88
497.529	1639.88
497.746	1710.88
497.963	1697.88
498.181	1702.88
498.398	1777.88
498.615	1830.88
498.832	1926.88
499.049	1980.88
499.267	2090.88
499.484	2227.88
499.701	2251.88
499.918	2317.88
500.135	2457.88
500.352	2585.88
500.569	2610.88
500.786	2598.88
501.003	2472.88
501.22	2384.88
501.437	2266.88
501.654	2127.88
501.871	2060.88
502.088	1965.88
502.305	1916.88
502.522	1845.88
502.739	1788.88
502.956	1736.88
503.172	1695.88
503.389	1618.88
503.606	1607.88
503.823	1617.88
504.04	1642.88
504.256	1588.88
504.473	1599.88
504.69	1584.88
504.907	1549.88
505.123	1530.88
505.34	1469.88
505.557	1483.88
505.773	1480.88
505.99	1460.88
506.207	1375.88
506.423	1406.88
506.64	1389.88
506.856	1373.88
507.073	1362.88
507.289	1353.88
507.506	1336.88
507.722	1319.88
507.939	1317.88
508.155	1337.88
508.372	1333.88
508.588	1304.88
508.805	1322.88
509.021	1308.88
509.238	1339.88
509.454	1425.88
509.67	1491.88
509.887	1367.88
510.103	1328.88
510.319	1317.88
510.536	1282.88
510.752	1279.88
510.968	1303.88
511.184	1271.88
511.401	1264.88
511.617	1255.88
511.833	1274.88
512.049	1234.88
512.265	1279.88
512.481	1276.88
512.698	1236.88
512.914	1261.88
513.13	1230.88
513.346	1276.88
513.562	1286.88
513.778	1266.88
513.994	1283.88
514.21	1317.88
514.426	1390.88
514.642	1419.88
514.858	1326.88
515.074	1262.88
515.29	1288.88
515.506	1286.88
515.721	1296.88
515.937	1263.88
516.153	1351.88
516.369	1331.88
516.585	1374.88
516.801	1381.88
517.016	1375.88
517.232	1415.88
517.448	1456.88
517.664	1408.88
517.879	1430.88
518.095	1409.88
518.311	1386.88
518.527	1390.88
518.742	1366.88
518.958	1428.88
519.173	1443.88
519.389	1394.88
519.605	1311.88
519.82	1300.88
520.036	1310.88
520.251	1261.88
520.467	1252.88
520.682	1236.88
520.898	1247.88
521.113	1280.88
521.329	1247.88
521.544	1225.88
521.76	1235.88
521.975	1217.88
522.19	1223.88
522.406	1218.88
522.621	1254.88
522.836	1205.88
523.052	1229.88
523.267	1229.88
523.482	1205.88
523.698	1230.88
523.913	1200.88
524.128	1192.88
524.343	1201.88
524.559	1235.88
524.774	1187.88
524.989	1202.88
525.204	1231.88
525.419	1211.88
525.634	1219.88
525.849	1242.88
526.064	1218.88
526.28	1212.88
526.495	1216.88
526.71	1223.88
526.925	1198.88
527.14	1217.88
527.355	1235.88
527.57	1198.88
527.785	1229.88
527.999	1222.88
528.214	1217.88
528.429	1258.88
528.644	1290.88
528.859	1291.88
529.074	1302.88
529.289	1285.88
529.503	1342.88
529.718	1351.88
529.933	1270.88
530.148	1275.88
530.363	1298.88
530.577	1243.88
530.792	1285.88
531.007	1294.88
531.221	1293.88
531.436	1306.88
531.651	1293.88
531.865	1339.88
532.08	1351.88
532.295	1384.88
532.509	1436.88
532.724	1423.88
532.938	1452.88
533.153	1490.88
533.367	1568.88
533.582	1669.88
533.796	1648.88
534.011	1581.88
534.225	1552.88
534.44	1498.88
534.654	1476.88
534.868	1472.88
535.083	1402.88
535.297	1366.88
535.511	1357.88
535.726	1390.88
535.94	1367.88
536.154	1306.88
536.369	1274.88
536.583	1263.88
536.797	1267.88
537.011	1273.88
537.225	1230.88
537.44	1239.88
537.654	1226.88
537.868	1220.88
538.082	1200.88
538.296	1225.88
538.51	1207.88
538.724	1215.88
538.938	1222.88
539.153	1217.88
539.367	1202.88
539.581	1167.88
539.795	1179.88
540.009	1161.88
540.222	1167.88
540.436	1159.88
540.65	1175.88
540.864	1160.88
541.078	1205.88
541.292	1316.88
541.506	1552.88
541.72	1610.88
541.934	1403.88
542.147	1343.88
542.361	1270.88
542.575	1219.88
542.789	1174.88
543.002	1150.88
543.216	1127.88
543.43	1130.88
543.644	1122.88
543.857	1151.88
544.071	1163.88
544.285	1174.88
544.498	1170.88
544.712	1184.88
544.925	1190.88
545.139	1175.88
545.352	1218.88
545.566	1192.88
545.779	1142.88
545.993	1147.88
546.206	1168.88
546.42	1172.88
546.633	1188.88
546.847	1199.88
547.06	1206.88
547.274	1192.88
547.487	1186.88
547.7	1194.88
547.914	1213.88
548.127	1211.88
548.34	1181.88
548.554	1219.88
548.767	1186.88
548.98	1183.88
549.193	1181.88
549.407	1195.88
549.62	1229.88
549.833	1179.88
550.046	1182.88
550.259	1191.88
550.473	1183.88
550.686	1150.88
550.899	1159.88
551.112	1190.88
551.325	1180.88
551.538	1162.88
551.751	1176.88
551.964	1157.88
552.177	1160.88
552.39	1214.88
552.603	1230.88
552.816	1223.88
553.029	1262.88
553.242	1270.88
553.455	1268.88
553.667	1304.88
553.88	1263.88
554.093	1282.88
554.306	1278.88
554.519	1337.88
554.732	1308.88
554.944	1320.88
555.157	1342.88
555.37	1398.88
555.583	1436.88
555.795	1493.88
556.008	1575.88
556.221	1674.88
556.433	1797.88
556.646	1810.88
556.859	1736.88
557.071	1716.88
557.284	1664.88
557.496	1604.88
557.709	1600.88
557.921	1575.88
558.134	1587.88
558.346	1596.88
558.559	1632.88
558.771	1671.88
558.984	1811.88
559.196	1965.88
559.409	1876.88
559.621	1776.88
559.833	1697.88
560.046	1575.88
560.258	1527.88
560.47	1470.88
560.683	1453.88
560.895	1356.88
561.107	1324.88
561.32	1291.88
561.532	1292.88
561.744	1297.88
561.956	1242.88
562.168	1202.88
562.381	1211.88
562.593	1190.88
562.805	1161.88
563.017	1206.88
563.229	1205.88
563.441	1346.88
563.653	1174.88
563.865	1091.88
564.077	1091.88
564.289	1081.88
564.501	1076.88
564.713	1081.88
564.925	1080.88
565.137	1100.88
565.349	1064.88
565.561	1110.88
565.773	1094.88
565.985	1098.88
566.197	1106.88
566.408	1120.88
566.62	1139.88
566.832	1194.88
567.044	1223.88
567.255	1227.88
567.467	1207.88
567.679	1218.88
567.891	1286.88
568.102	1454.88
568.314	1662.88
568.526	1379.88
568.737	1222.88
568.949	1142.88
569.161	1075.88
569.372	1029.88
569.584	1010.88
569.795	976.88
570.007	959.88
570.218	989.88
570.43	1030.88
570.641	938.88
570.853	906.88
571.064	902.88
571.276	902.88
571.487	869.88
571.698	891.88
571.91	862.88
572.121	887.88
572.333	856.88
572.544	846.88
572.755	922.88
572.966	1116.88
573.178	964.88
573.389	862.88
573.6	827.88
573.811	816.88
574.023	792.88
574.234	807.88
574.445	816.88
574.656	792.88
574.867	787.88
575.078	793.88
575.289	754.88
575.501	770.88
575.712	764.88
575.923	762.88
576.134	755.88
576.345	785.88
576.556	785.88
576.767	784.88
576.978	812.88
577.188	795.88
577.399	803.88
577.61	806.88
577.821	799.88
578.032	815.88
578.243	820.88
578.454	814.88
578.665	862.88
578.875	867.88
579.086	863.88
579.297	927.88
579.508	938.88
579.718	1025.88
579.929	1120.88
580.14	1286.88
580.35	1355.88
580.561	1239.88
580.772	1144.88
580.982	1088.88
581.193	1003.88
581.403	956.88
581.614	942.88
581.825	884.88
582.035	862.88
582.246	839.88
582.456	821.88
582.667	795.88
582.877	806.88
583.087	797.88
583.298	766.88
583.508	721.88
583.719	730.88
583.929	698.88
584.139	679.88
584.35	656.88
584.56	677.88
584.77	687.88
584.981	661.88
585.191	648.88
585.401	654.88
585.611	651.88
585.821	634.88
586.032	639.88
586.242	638.88
586.452	628.88
586.662	623.88
586.872	618.88
587.082	614.88
587.292	623.88
587.502	598.88
587.713	594.88
587.923	592.88
588.133	576.88
588.343	577.88
588.553	586.88
588.762	563.88
588.972	588.88
589.182	586.88
589.392	572.88
589.602	577.88
589.812	588.88
590.022	573.88
590.232	549.88
590.441	568.88
590.651	585.88
590.861	562.88
591.071	545.88
591.281	560.88
591.49	567.88
591.7	576.88
591.91	562.88
592.119	565.88
592.329	559.88
592.539	561.88
592.748	589.88
592.958	581.88
593.167	578.88
593.377	562.88
593.587	607.88
593.796	584.88
594.006	596.88
594.215	579.88
594.424	603.88
594.634	576.88
594.843	580.88
595.053	567.88
595.262	563.88
595.472	543.88
595.681	514.88
595.89	546.88
596.1	542.88
596.309	528.88
596.518	520.88
596.727	509.88
596.937	497.88
597.146	507.88
597.355	496.88
597.564	488.88
597.774	473.88
597.983	456.88
598.192	488.88
598.401	479.88
598.61	458.88
598.819	505.88
599.028	444.88
599.237	468.88
599.446	464.88
599.655	458.88
599.864	461.88
600.073	446.88
600.282	468.88
600.491	454.88
600.7	455.88
600.909	483.88
601.118	456.88
601.327	484.88
601.536	477.88
601.745	497.88
601.953	537.88
602.162	628.88
602.371	540.88
602.58	462.88
602.789	488.88
602.997	483.88
603.206	478.88
603.415	469.88
603.623	451.88
603.832	452.88
604.041	471.88
604.249	434.88
604.458	447.88
604.666	428.88
604.875	412.88
605.084	426.88
605.292	443.88
605.501	466.88
605.709	437.88
605.918	460.88
606.126	456.88
606.334	458.88
606.543	454.88
606.751	480.88
606.96	564.88
607.168	602.88
607.376	495.88
607.585	482.88
607.793	471.88
608.001	457.88
608.21	457.88
608.418	432.88
608.626	430.88
608.834	422.88
609.043	432.88
609.251	451.88
609.459	432.88
609.667	413.88
609.875	419.88
610.083	437.88
610.291	438.88
610.499	413.88
610.707	408.88
610.916	417.88
611.124	412.88
611.332	422.88
611.54	431.88
611.748	418.88
611.955	404.88
612.163	407.88
612.371	422.88
612.579	394.88
612.787	383.88
612.995	413.88
613.203	422.88
613.411	406.88
613.618	399.88
613.826	422.88
614.034	414.88
614.242	398.88
614.449	408.88
614.657	414.88
614.865	384.88
615.072	399.88
615.28	420.88
615.488	415.88
615.695	430.88
615.903	415.88
616.111	410.88
616.318	416.88
616.526	422.88
616.733	385.88
616.941	398.88
617.148	398.88
617.356	400.88
617.563	404.88
617.771	416.88
617.978	364.88
618.185	382.88
618.393	384.88
618.6	412.88
618.807	381.88
619.015	365.88
619.222	374.88
619.429	374.88
619.637	378.88
619.844	369.88
620.051	372.88
620.258	374.88
620.466	365.88
620.673	374.88
620.88	363.88
621.087	358.88
621.294	372.88
621.501	366.88
621.708	370.88
621.915	364.88
622.122	367.88
622.329	370.88
622.536	348.88
622.743	365.88
622.95	363.88
623.157	364.88
623.364	367.88
623.571	345.88
623.778	351.88
623.985	372.88
624.192	349.88
624.399	341.88
624.606	365.88
624.812	348.88
625.019	343.88
625.226	345.88
625.433	357.88
625.639	362.88
625.846	311.88
626.053	319.88
626.259	348.88
626.466	342.88
626.673	348.88
626.879	332.88
627.086	325.88
627.293	325.88
627.499	336.88
627.706	341.88
627.912	320.88
628.119	334.88
628.325	332.88
628.532	332.88
628.738	342.88
628.945	324.88
629.151	311.88
629.357	306.88
629.564	323.88
629.77	333.88
629.976	320.88
630.183	310.88
630.389	319.88
630.595	318.88
630.802	296.88
631.008	309.88
631.214	314.88
631.42	307.88
631.627	319.88
631.833	311.88
632.039	322.88
632.245	289.88
632.451	304.88
632.657	312.88
632.863	311.88
633.069	309.88
633.275	320.88
633.481	306.88
633.688	292.88
633.893	302.88
634.099	314.88
634.305	312.88
634.511	311.88
634.717	310.88
634.923	311.88
635.129	348.88
635.335	387.88
635.541	362.88
635.747	332.88
635.952	326.88
636.158	319.88
636.364	319.88
636.57	309.88
636.775	315.88
636.981	303.88
637.187	303.88
637.392	317.88
637.598	319.88
637.804	303.88
638.009	314.88
638.215	313.88
638.421	307.88
638.626	295.88
638.832	311.88
639.037	306.88
639.243	300.88
639.448	303.88
639.654	314.88
639.859	330.88
640.065	306.88
640.27	314.88
640.475	328.88
640.681	308.88
640.886	339.88
641.091	327.88
641.297	309.88
641.502	331.88
641.707	329.88
641.913	321.88
642.118	347.88
642.323	339.88
642.528	345.88
642.733	339.88
642.939	350.88
643.144	353.88
643.349	370.88
643.554	378.88
643.759	402.88
643.964	418.88
644.169	424.88
644.374	449.88
644.579	502.88
644.784	518.88
644.989	591.88
645.194	686.88
645.399	784.88
645.604	831.88
645.809	658.88
646.014	529.88
646.219	448.88
646.423	402.88
646.628	384.88
646.833	356.88
647.038	343.88
647.243	322.88
647.447	323.88
647.652	313.88
647.857	303.88
648.062	307.88
648.266	290.88
648.471	306.88
648.676	275.88
648.88	279.88
649.085	290.88
649.289	279.88
649.494	284.88
649.698	285.88
649.903	269.88
650.107	286.88
650.312	270.88
650.516	252.88
650.721	254.88
650.925	239.88
651.13	239.88
651.334	240.88
651.539	246.88
651.743	240.88
651.947	223.88
652.152	230.88
652.356	244.88
652.56	243.88
652.764	279.88
652.969	251.88
653.173	218.88
653.377	227.88
653.581	202.88
653.785	211.88
653.99	219.88
654.194	214.88
654.398	214.88
654.602	206.88
654.806	219.88
655.01	219.88
655.214	203.88
655.418	197.88
655.622	207.88
655.826	224.88
656.03	216.88
656.234	209.88
656.438	208.88
656.642	203.88
656.846	220.88
657.049	208.88
657.253	199.88
657.457	174.88
657.661	181.88
657.865	181.88
658.068	144.88
658.272	147.88
658.476	152.88
658.68	140.88
658.883	144.88
659.087	132.88
659.291	131.88
659.494	134.88
659.698	131.88
659.901	114.88
660.105	127.88
660.309	118.88
660.512	116.88
660.716	109.88
660.919	107.88
661.123	110.88
661.326	106.88
661.53	115.88
661.733	104.88
661.936	105.88
662.14	96.88
662.343	92.88
662.546	97.88
662.75	92.88
662.953	85.88
663.156	81.88
663.36	90.88
663.563	84.88
663.766	76.88
663.969	94.88
664.173	76.88
664.376	74.88
664.579	100.88
664.782	71.88
664.985	88.88
665.188	79.88
665.391	67.88
665.594	67.88
665.797	86.88
666	82.88
666.203	76.88
666.406	88.88
666.609	75.88
666.812	90.88
667.015	81.88
667.218	84.88
667.421	87.88
667.624	80.88
667.827	76.88
668.03	82.88
668.232	83.88
668.435	91.88
668.638	72.88
668.841	86.88
669.043	81.88
669.246	71.88
669.449	70.88
669.651	80.88
669.854	74.88
670.057	82.88
670.259	65.88
670.462	90.88
670.665	84.88
670.867	69.88
671.07	82.88
671.272	92.88
671.475	87.88
671.677	71.88
671.88	84.88
672.082	76.88
672.284	88.88
672.487	76.88
672.689	78.88
672.892	86.88
