Data from SnStandardFlinnAPT0064_QswitchEnergy10_LIBS07252019.E.O._I.C._HRD10591_15-29-00-974.txt Node
Date: Thu Jul 25 15:29:00 EDT 2019
User: cochatt
Spectrometer: HR+D1059
Trigger mode: 1
Integration Time (sec): 1.000000E-1
Scans to average: 1
Electric dark correction enabled: true
Nonlinearity correction enabled: false
Boxcar width: 0
XAxis mode: Wavelengths
Number of Pixels in Spectrum: 2048
>>>>>Begin Spectral Data<<<<<
223.165	-20.94
223.4	-20.94
223.635	-20.94
223.869	-30.94
224.104	-18.94
224.338	-9.94
224.573	-13.94
224.808	-7.94
225.042	4.06
225.277	-4.94
225.511	-9.94
225.746	9.06
225.98	7.06
226.215	11.06
226.449	10.06
226.683	23.06
226.918	22.06
227.152	31.06
227.387	46.06
227.621	39.06
227.856	36.06
228.09	43.06
228.324	65.06
228.559	71.06
228.793	70.06
229.027	65.06
229.262	79.06
229.496	60.06
229.73	82.06
229.964	76.06
230.199	71.06
230.433	67.06
230.667	76.06
230.901	79.06
231.136	79.06
231.37	79.06
231.604	95.06
231.838	111.06
232.072	117.06
232.306	126.06
232.541	89.06
232.775	77.06
233.009	84.06
233.243	90.06
233.477	91.06
233.711	94.06
233.945	116.06
234.179	109.06
234.413	98.06
234.647	94.06
234.881	90.06
235.115	76.06
235.349	80.06
235.583	115.06
235.817	138.06
236.051	123.06
236.285	91.06
236.519	86.06
236.753	79.06
236.987	86.06
237.221	84.06
237.455	85.06
237.689	88.06
237.922	82.06
238.156	83.06
238.39	78.06
238.624	77.06
238.858	85.06
239.091	79.06
239.325	87.06
239.559	72.06
239.793	95.06
240.027	71.06
240.26	90.06
240.494	80.06
240.728	80.06
240.961	70.06
241.195	91.06
241.429	88.06
241.662	92.06
241.896	92.06
242.13	115.06
242.363	131.06
242.597	163.06
242.83	147.06
243.064	135.06
243.298	171.06
243.531	149.06
243.765	106.06
243.998	87.06
244.232	102.06
244.465	88.06
244.699	106.06
244.932	91.06
245.166	76.06
245.399	77.06
245.633	88.06
245.866	75.06
246.099	73.06
246.333	90.06
246.566	78.06
246.8	81.06
247.033	86.06
247.266	69.06
247.5	89.06
247.733	79.06
247.966	94.06
248.2	81.06
248.433	95.06
248.666	122.06
248.899	120.06
249.133	99.06
249.366	88.06
249.599	95.06
249.832	122.06
250.066	122.06
250.299	88.06
250.532	94.06
250.765	96.06
250.998	88.06
251.231	84.06
251.465	83.06
251.698	91.06
251.931	75.06
252.164	79.06
252.397	85.06
252.63	101.06
252.863	106.06
253.096	86.06
253.329	89.06
253.562	97.06
253.795	98.06
254.028	92.06
254.261	99.06
254.494	104.06
254.727	124.06
254.96	141.06
255.193	128.06
255.426	94.06
255.659	77.06
255.892	104.06
256.124	93.06
256.357	87.06
256.59	81.06
256.823	94.06
257.056	109.06
257.289	140.06
257.521	181.06
257.754	114.06
257.987	88.06
258.22	92.06
258.452	92.06
258.685	89.06
258.918	98.06
259.151	82.06
259.383	90.06
259.616	144.06
259.849	157.06
260.081	123.06
260.314	86.06
260.547	94.06
260.779	81.06
261.012	82.06
261.244	92.06
261.477	91.06
261.71	91.06
261.942	85.06
262.175	87.06
262.407	80.06
262.64	91.06
262.872	92.06
263.105	95.06
263.337	95.06
263.57	83.06
263.802	93.06
264.035	96.06
264.267	89.06
264.499	82.06
264.732	80.06
264.964	78.06
265.197	107.06
265.429	93.06
265.661	96.06
265.894	116.06
266.126	131.06
266.358	149.06
266.591	149.06
266.823	101.06
267.055	99.06
267.287	80.06
267.52	83.06
267.752	67.06
267.984	86.06
268.216	96.06
268.448	89.06
268.681	81.06
268.913	74.06
269.145	96.06
269.377	92.06
269.609	83.06
269.841	79.06
270.073	111.06
270.306	124.06
270.538	196.06
270.77	323.06
271.002	382.06
271.234	190.06
271.466	115.06
271.698	102.06
271.93	90.06
272.162	90.06
272.394	101.06
272.626	102.06
272.858	92.06
273.09	101.06
273.322	91.06
273.553	93.06
273.785	86.06
274.017	70.06
274.249	84.06
274.481	92.06
274.713	93.06
274.945	87.06
275.176	90.06
275.408	80.06
275.64	104.06
275.872	97.06
276.104	99.06
276.335	104.06
276.567	109.06
276.799	98.06
277.031	85.06
277.262	91.06
277.494	108.06
277.726	123.06
277.957	170.06
278.189	241.06
278.421	261.06
278.652	184.06
278.884	192.06
279.115	144.06
279.347	110.06
279.579	91.06
279.81	99.06
280.042	96.06
280.273	97.06
280.505	97.06
280.736	123.06
280.968	114.06
281.199	180.06
281.431	231.06
281.662	270.06
281.894	172.06
282.125	115.06
282.356	103.06
282.588	98.06
282.819	112.06
283.051	113.06
283.282	138.06
283.513	201.06
283.745	314.06
283.976	537.06
284.207	786.06
284.439	607.06
284.67	287.06
284.901	246.06
285.132	345.06
285.364	394.06
285.595	225.06
285.826	177.06
286.057	231.06
286.288	416.06
286.52	606.06
286.751	498.06
286.982	201.06
287.213	129.06
287.444	109.06
287.675	103.06
287.906	102.06
288.138	98.06
288.369	103.06
288.6	106.06
288.831	102.06
289.062	93.06
289.293	94.06
289.524	103.06
289.755	102.06
289.986	89.06
290.217	104.06
290.448	100.06
290.679	102.06
290.91	114.06
291.141	155.06
291.371	246.06
291.602	280.06
291.833	209.06
292.064	120.06
292.295	88.06
292.526	103.06
292.757	104.06
292.987	94.06
293.218	91.06
293.449	95.06
293.68	101.06
293.91	96.06
294.141	84.06
294.372	89.06
294.603	106.06
294.833	94.06
295.064	89.06
295.295	107.06
295.525	106.06
295.756	86.06
295.987	111.06
296.217	102.06
296.448	90.06
296.679	99.06
296.909	84.06
297.14	105.06
297.37	112.06
297.601	99.06
297.831	97.06
298.062	94.06
298.292	86.06
298.523	89.06
298.753	100.06
298.984	98.06
299.214	104.06
299.445	120.06
299.675	128.06
299.905	115.06
300.136	137.06
300.366	158.06
300.597	267.06
300.827	450.06
301.057	692.06
301.288	624.06
301.518	274.06
301.748	160.06
301.979	144.06
302.209	144.06
302.439	151.06
302.669	166.06
302.9	262.06
303.13	505.06
303.36	912.06
303.59	1254.06
303.82	859.06
304.051	306.06
304.281	154.06
304.511	131.06
304.741	111.06
304.971	119.06
305.201	113.06
305.431	121.06
305.661	114.06
305.891	98.06
306.121	119.06
306.352	96.06
306.582	118.06
306.812	114.06
307.042	121.06
307.272	108.06
307.502	107.06
307.731	114.06
307.961	97.06
308.191	110.06
308.421	103.06
308.651	117.06
308.881	107.06
309.111	114.06
309.341	109.06
309.571	111.06
309.8	106.06
310.03	106.06
310.26	104.06
310.49	106.06
310.72	122.06
310.949	108.06
311.179	118.06
311.409	103.06
311.639	119.06
311.868	104.06
312.098	115.06
312.328	116.06
312.557	121.06
312.787	123.06
313.017	120.06
313.246	118.06
313.476	121.06
313.706	145.06
313.935	155.06
314.165	200.06
314.394	254.06
314.624	187.06
314.853	138.06
315.083	134.06
315.312	135.06
315.542	132.06
315.771	158.06
316.001	154.06
316.23	165.06
316.46	155.06
316.689	181.06
316.919	259.06
317.148	488.06
317.377	902.06
317.607	1501.06
317.836	1400.06
318.065	546.06
318.295	241.06
318.524	176.06
318.753	159.06
318.983	137.06
319.212	118.06
319.441	135.06
319.67	130.06
319.9	123.06
320.129	123.06
320.358	115.06
320.587	153.06
320.816	127.06
321.046	143.06
321.275	135.06
321.504	159.06
321.733	167.06
321.962	186.06
322.191	164.06
322.42	142.06
322.649	143.06
322.878	120.06
323.108	113.06
323.337	146.06
323.566	136.06
323.795	140.06
324.024	135.06
324.253	132.06
324.482	183.06
324.71	241.06
324.939	274.06
325.168	226.06
325.397	186.06
325.626	256.06
325.855	482.06
326.084	935.06
326.313	1606.06
326.542	1622.06
326.77	646.06
326.999	280.06
327.228	220.06
327.457	232.06
327.686	228.06
327.914	168.06
328.143	143.06
328.372	144.06
328.6	150.06
328.829	127.06
329.058	125.06
329.287	120.06
329.515	127.06
329.744	126.06
329.972	133.06
330.201	125.06
330.43	129.06
330.658	110.06
330.887	124.06
331.115	124.06
331.344	119.06
331.572	132.06
331.801	136.06
332.03	137.06
332.258	151.06
332.486	167.06
332.715	300.06
332.943	504.06
333.172	786.06
333.4	694.06
333.629	268.06
333.857	158.06
334.085	130.06
334.314	136.06
334.542	123.06
334.771	114.06
334.999	138.06
335.227	133.06
335.455	134.06
335.684	128.06
335.912	116.06
336.14	129.06
336.369	134.06
336.597	130.06
336.825	123.06
337.053	125.06
337.281	122.06
337.51	107.06
337.738	110.06
337.966	117.06
338.194	117.06
338.422	132.06
338.65	113.06
338.878	122.06
339.106	128.06
339.334	119.06
339.562	125.06
339.79	111.06
340.018	132.06
340.246	119.06
340.474	108.06
340.702	122.06
340.93	104.06
341.158	114.06
341.386	112.06
341.614	127.06
341.842	117.06
342.07	130.06
342.298	134.06
342.526	130.06
342.754	119.06
342.981	100.06
343.209	110.06
343.437	110.06
343.665	116.06
343.893	106.06
344.12	119.06
344.348	123.06
344.576	132.06
344.804	124.06
345.031	115.06
345.259	115.06
345.487	125.06
345.714	123.06
345.942	130.06
346.17	123.06
346.397	109.06
346.625	120.06
346.853	110.06
347.08	99.06
347.308	120.06
347.535	99.06
347.763	110.06
347.99	129.06
348.218	106.06
348.445	106.06
348.673	135.06
348.9	130.06
349.128	140.06
349.355	141.06
349.583	128.06
349.81	127.06
350.037	135.06
350.265	123.06
350.492	131.06
350.72	127.06
350.947	118.06
351.174	108.06
351.402	110.06
351.629	119.06
351.856	124.06
352.083	117.06
352.311	110.06
352.538	126.06
352.765	136.06
352.992	116.06
353.22	134.06
353.447	123.06
353.674	118.06
353.901	100.06
354.128	117.06
354.355	106.06
354.583	117.06
354.81	116.06
355.037	110.06
355.264	113.06
355.491	107.06
355.718	118.06
355.945	108.06
356.172	101.06
356.399	100.06
356.626	114.06
356.853	139.06
357.08	112.06
357.307	122.06
357.534	123.06
357.761	97.06
357.988	112.06
358.215	123.06
358.441	122.06
358.668	122.06
358.895	121.06
359.122	125.06
359.349	123.06
359.576	123.06
359.802	125.06
360.029	128.06
360.256	130.06
360.483	116.06
360.709	114.06
360.936	119.06
361.163	103.06
361.39	114.06
361.616	128.06
361.843	119.06
362.07	127.06
362.296	120.06
362.523	91.06
362.749	122.06
362.976	126.06
363.203	126.06
363.429	92.06
363.656	106.06
363.882	112.06
364.109	124.06
364.335	111.06
364.562	127.06
364.788	110.06
365.015	120.06
365.241	137.06
365.468	202.06
365.694	265.06
365.92	217.06
366.147	116.06
366.373	114.06
366.599	113.06
366.826	106.06
367.052	102.06
367.278	100.06
367.505	90.06
367.731	103.06
367.957	104.06
368.184	111.06
368.41	117.06
368.636	108.06
368.862	124.06
369.089	108.06
369.315	101.06
369.541	120.06
369.767	114.06
369.993	109.06
370.219	118.06
370.445	106.06
370.672	120.06
370.898	94.06
371.124	100.06
371.35	126.06
371.576	104.06
371.802	110.06
372.028	113.06
372.254	114.06
372.48	120.06
372.706	110.06
372.932	115.06
373.158	124.06
373.384	115.06
373.61	106.06
373.835	112.06
374.061	118.06
374.287	120.06
374.513	104.06
374.739	120.06
374.965	120.06
375.191	98.06
375.416	110.06
375.642	130.06
375.868	119.06
376.094	119.06
376.319	113.06
376.545	121.06
376.771	102.06
376.997	116.06
377.222	112.06
377.448	116.06
377.674	127.06
377.899	119.06
378.125	121.06
378.35	110.06
378.576	109.06
378.802	128.06
379.027	116.06
379.253	140.06
379.478	181.06
379.704	323.06
379.929	779.06
380.155	1577.06
380.38	1717.06
380.606	547.06
380.831	206.06
381.057	148.06
381.282	122.06
381.507	123.06
381.733	120.06
381.958	100.06
382.184	106.06
382.409	117.06
382.634	114.06
382.86	105.06
383.085	126.06
383.31	110.06
383.535	108.06
383.761	113.06
383.986	114.06
384.211	106.06
384.436	112.06
384.662	97.06
384.887	121.06
385.112	110.06
385.337	107.06
385.562	110.06
385.787	116.06
386.013	117.06
386.238	114.06
386.463	100.06
386.688	122.06
386.913	104.06
387.138	125.06
387.363	110.06
387.588	124.06
387.813	103.06
388.038	108.06
388.263	107.06
388.488	113.06
388.713	96.06
388.938	110.06
389.163	94.06
389.387	107.06
389.612	97.06
389.837	102.06
390.062	106.06
390.287	113.06
390.512	116.06
390.736	103.06
390.961	111.06
391.186	105.06
391.411	99.06
391.636	110.06
391.86	96.06
392.085	101.06
392.31	112.06
392.534	113.06
392.759	99.06
392.984	114.06
393.208	126.06
393.433	136.06
393.658	175.06
393.882	112.06
394.107	104.06
394.331	92.06
394.556	84.06
394.78	82.06
395.005	108.06
395.229	87.06
395.454	108.06
395.678	115.06
395.903	107.06
396.127	94.06
396.352	111.06
396.576	117.06
396.801	121.06
397.025	150.06
397.249	118.06
397.474	94.06
397.698	101.06
397.922	92.06
398.147	93.06
398.371	108.06
398.595	110.06
398.82	99.06
399.044	118.06
399.268	101.06
399.492	84.06
399.717	100.06
399.941	97.06
400.165	102.06
400.389	103.06
400.613	104.06
400.837	104.06
401.062	101.06
401.286	97.06
401.51	104.06
401.734	111.06
401.958	102.06
402.182	98.06
402.406	100.06
402.63	114.06
402.854	91.06
403.078	110.06
403.302	99.06
403.526	96.06
403.75	84.06
403.974	96.06
404.198	97.06
404.422	100.06
404.645	101.06
404.869	107.06
405.093	108.06
405.317	101.06
405.541	104.06
405.765	128.06
405.988	158.06
406.212	123.06
406.436	116.06
406.66	114.06
406.883	91.06
407.107	96.06
407.331	116.06
407.555	99.06
407.778	112.06
408.002	116.06
408.226	98.06
408.449	118.06
408.673	105.06
408.896	92.06
409.12	98.06
409.344	103.06
409.567	97.06
409.791	97.06
410.014	101.06
410.238	94.06
410.461	107.06
410.685	109.06
410.908	108.06
411.132	94.06
411.355	96.06
411.578	106.06
411.802	101.06
412.025	104.06
412.249	105.06
412.472	105.06
412.695	91.06
412.919	112.06
413.142	121.06
413.365	100.06
413.589	106.06
413.812	112.06
414.035	109.06
414.258	111.06
414.482	92.06
414.705	106.06
414.928	123.06
415.151	88.06
415.374	103.06
415.597	91.06
415.821	92.06
416.044	99.06
416.267	99.06
416.49	114.06
416.713	107.06
416.936	112.06
417.159	99.06
417.382	102.06
417.605	89.06
417.828	89.06
418.051	92.06
418.274	95.06
418.497	91.06
418.72	111.06
418.943	111.06
419.166	98.06
419.389	110.06
419.611	127.06
419.834	111.06
420.057	99.06
420.28	126.06
420.503	109.06
420.726	104.06
420.948	96.06
421.171	97.06
421.394	79.06
421.617	87.06
421.839	103.06
422.062	100.06
422.285	114.06
422.507	98.06
422.73	126.06
422.953	142.06
423.175	107.06
423.398	96.06
423.621	99.06
423.843	110.06
424.066	107.06
424.288	110.06
424.511	97.06
424.733	114.06
424.956	88.06
425.178	98.06
425.401	99.06
425.623	97.06
425.846	118.06
426.068	102.06
426.291	90.06
426.513	96.06
426.735	97.06
426.958	93.06
427.18	81.06
427.402	91.06
427.625	92.06
427.847	113.06
428.069	106.06
428.292	101.06
428.514	100.06
428.736	103.06
428.958	102.06
429.181	104.06
429.403	111.06
429.625	110.06
429.847	101.06
430.069	115.06
430.292	101.06
430.514	96.06
430.736	107.06
430.958	100.06
431.18	98.06
431.402	97.06
431.624	89.06
431.846	95.06
432.068	96.06
432.29	92.06
432.512	88.06
432.734	107.06
432.956	101.06
433.178	92.06
433.4	119.06
433.622	90.06
433.844	106.06
434.066	99.06
434.287	93.06
434.509	86.06
434.731	92.06
434.953	101.06
435.175	85.06
435.397	88.06
435.618	99.06
435.84	99.06
436.062	104.06
436.284	98.06
436.505	96.06
436.727	98.06
436.949	90.06
437.17	98.06
437.392	86.06
437.614	97.06
437.835	74.06
438.057	92.06
438.278	100.06
438.5	97.06
438.721	101.06
438.943	107.06
439.165	113.06
439.386	91.06
439.608	91.06
439.829	95.06
440.05	123.06
440.272	127.06
440.493	112.06
440.715	97.06
440.936	96.06
441.158	84.06
441.379	105.06
441.6	103.06
441.822	96.06
442.043	111.06
442.264	138.06
442.486	101.06
442.707	97.06
442.928	90.06
443.149	97.06
443.371	96.06
443.592	97.06
443.813	94.06
444.034	107.06
444.255	103.06
444.476	110.06
444.698	104.06
444.919	107.06
445.14	204.06
445.361	145.06
445.582	100.06
445.803	96.06
446.024	92.06
446.245	105.06
446.466	107.06
446.687	107.06
446.908	104.06
447.129	102.06
447.35	100.06
447.571	106.06
447.792	105.06
448.013	99.06
448.234	99.06
448.455	87.06
448.675	98.06
448.896	111.06
449.117	106.06
449.338	126.06
449.559	155.06
449.779	115.06
450	119.06
450.221	99.06
450.442	118.06
450.662	114.06
450.883	117.06
451.104	122.06
451.324	123.06
451.545	138.06
451.766	116.06
451.986	148.06
452.207	229.06
452.428	557.06
452.648	1420.06
452.869	816.06
453.089	209.06
453.31	119.06
453.53	126.06
453.751	145.06
453.971	160.06
454.192	165.06
454.412	126.06
454.633	98.06
454.853	102.06
455.073	106.06
455.294	92.06
455.514	104.06
455.734	99.06
455.955	98.06
456.175	106.06
456.395	88.06
456.616	90.06
456.836	105.06
457.056	100.06
457.276	111.06
457.497	111.06
457.717	115.06
457.937	105.06
458.157	97.06
458.377	112.06
458.598	77.06
458.818	89.06
459.038	96.06
459.258	97.06
459.478	79.06
459.698	84.06
459.918	89.06
460.138	91.06
460.358	92.06
460.578	101.06
460.798	97.06
461.018	70.06
461.238	84.06
461.458	86.06
461.678	103.06
461.898	88.06
462.118	94.06
462.338	98.06
462.558	103.06
462.777	90.06
462.997	107.06
463.217	108.06
463.437	122.06
463.657	187.06
463.876	210.06
464.096	118.06
464.316	90.06
464.536	105.06
464.755	97.06
464.975	82.06
465.195	86.06
465.414	95.06
465.634	95.06
465.854	88.06
466.073	90.06
466.293	94.06
466.512	88.06
466.732	101.06
466.951	115.06
467.171	152.06
467.391	130.06
467.61	98.06
467.829	96.06
468.049	111.06
468.268	117.06
468.488	99.06
468.707	101.06
468.927	94.06
469.146	95.06
469.365	98.06
469.585	95.06
469.804	103.06
470.023	102.06
470.243	110.06
470.462	95.06
470.681	108.06
470.901	137.06
471.12	187.06
471.339	202.06
471.558	149.06
471.777	103.06
471.997	118.06
472.216	104.06
472.435	113.06
472.654	97.06
472.873	97.06
473.092	119.06
473.311	101.06
473.53	106.06
473.749	102.06
473.968	93.06
474.187	105.06
474.406	91.06
474.625	88.06
474.844	101.06
475.063	104.06
475.282	90.06
475.501	89.06
475.72	110.06
475.939	98.06
476.158	95.06
476.377	121.06
476.596	103.06
476.814	103.06
477.033	99.06
477.252	122.06
477.471	106.06
477.69	104.06
477.908	94.06
478.127	96.06
478.346	106.06
478.564	123.06
478.783	108.06
479.002	103.06
479.22	97.06
479.439	93.06
479.658	91.06
479.876	104.06
480.095	95.06
480.313	96.06
480.532	96.06
480.751	107.06
480.969	100.06
481.188	97.06
481.406	88.06
481.624	101.06
481.843	106.06
482.061	104.06
482.28	99.06
482.498	100.06
482.717	98.06
482.935	82.06
483.153	101.06
483.372	95.06
483.59	116.06
483.808	91.06
484.027	106.06
484.245	131.06
484.463	182.06
484.681	236.06
484.9	158.06
485.118	118.06
485.336	102.06
485.554	112.06
485.772	117.06
485.99	177.06
486.209	250.06
486.427	176.06
486.645	120.06
486.863	108.06
487.081	104.06
487.299	105.06
487.517	110.06
487.735	111.06
487.953	107.06
488.171	98.06
488.389	118.06
488.607	107.06
488.825	98.06
489.043	102.06
489.261	97.06
489.479	99.06
489.696	106.06
489.914	86.06
490.132	106.06
490.35	111.06
490.568	98.06
490.786	88.06
491.003	99.06
491.221	116.06
491.439	106.06
491.657	117.06
491.874	104.06
492.092	102.06
492.31	110.06
492.527	100.06
492.745	114.06
492.963	97.06
493.18	114.06
493.398	103.06
493.615	110.06
493.833	107.06
494.05	112.06
494.268	104.06
494.485	103.06
494.703	128.06
494.92	87.06
495.138	103.06
495.355	97.06
495.573	121.06
495.79	95.06
496.008	108.06
496.225	96.06
496.442	94.06
496.66	119.06
496.877	146.06
497.094	152.06
497.312	120.06
497.529	97.06
497.746	119.06
497.963	112.06
498.181	100.06
498.398	120.06
498.615	102.06
498.832	104.06
499.049	89.06
499.267	125.06
499.484	151.06
499.701	120.06
499.918	115.06
500.135	108.06
500.352	93.06
500.569	102.06
500.786	106.06
501.003	107.06
501.22	94.06
501.437	103.06
501.654	101.06
501.871	111.06
502.088	95.06
502.305	94.06
502.522	108.06
502.739	113.06
502.956	90.06
503.172	96.06
503.389	110.06
503.606	95.06
503.823	99.06
504.04	100.06
504.256	99.06
504.473	94.06
504.69	113.06
504.907	116.06
505.123	135.06
505.34	95.06
505.557	104.06
505.773	112.06
505.99	102.06
506.207	105.06
506.423	117.06
506.64	117.06
506.856	107.06
507.073	110.06
507.289	88.06
507.506	100.06
507.722	108.06
507.939	101.06
508.155	102.06
508.372	103.06
508.588	95.06
508.805	84.06
509.021	100.06
509.238	98.06
509.454	143.06
509.67	146.06
509.887	127.06
510.103	118.06
510.319	99.06
510.536	100.06
510.752	115.06
510.968	112.06
511.184	102.06
511.401	98.06
511.617	98.06
511.833	112.06
512.049	116.06
512.265	106.06
512.481	96.06
512.698	98.06
512.914	107.06
513.13	102.06
513.346	94.06
513.562	115.06
513.778	97.06
513.994	96.06
514.21	106.06
514.426	132.06
514.642	180.06
514.858	110.06
515.074	100.06
515.29	104.06
515.506	100.06
515.721	76.06
515.937	91.06
516.153	104.06
516.369	106.06
516.585	95.06
516.801	99.06
517.016	106.06
517.232	102.06
517.448	96.06
517.664	118.06
517.879	119.06
518.095	108.06
518.311	114.06
518.527	96.06
518.742	107.06
518.958	132.06
519.173	141.06
519.389	132.06
519.605	105.06
519.82	115.06
520.036	102.06
520.251	102.06
520.467	91.06
520.682	94.06
520.898	105.06
521.113	94.06
521.329	94.06
521.544	100.06
521.76	106.06
521.975	108.06
522.19	112.06
522.406	92.06
522.621	101.06
522.836	103.06
523.052	88.06
523.267	116.06
523.482	110.06
523.698	111.06
523.913	101.06
524.128	102.06
524.343	85.06
524.559	110.06
524.774	95.06
524.989	93.06
525.204	100.06
525.419	85.06
525.634	95.06
525.849	86.06
526.064	108.06
526.28	102.06
526.495	89.06
526.71	97.06
526.925	101.06
527.14	101.06
527.355	115.06
527.57	101.06
527.785	107.06
527.999	105.06
528.214	104.06
528.429	105.06
528.644	108.06
528.859	117.06
529.074	96.06
529.289	98.06
529.503	89.06
529.718	107.06
529.933	99.06
530.148	105.06
530.363	103.06
530.577	82.06
530.792	110.06
531.007	96.06
531.221	100.06
531.436	101.06
531.651	90.06
531.865	96.06
532.08	90.06
532.295	116.06
532.509	137.06
532.724	118.06
532.938	102.06
533.153	100.06
533.367	97.06
533.582	100.06
533.796	96.06
534.011	86.06
534.225	96.06
534.44	113.06
534.654	96.06
534.868	92.06
535.083	115.06
535.297	94.06
535.511	80.06
535.726	106.06
535.94	110.06
536.154	100.06
536.369	95.06
536.583	99.06
536.797	101.06
537.011	91.06
537.225	93.06
537.44	95.06
537.654	111.06
537.868	103.06
538.082	107.06
538.296	107.06
538.51	94.06
538.724	107.06
538.938	113.06
539.153	107.06
539.367	105.06
539.581	128.06
539.795	94.06
540.009	99.06
540.222	103.06
540.436	119.06
540.65	100.06
540.864	107.06
541.078	115.06
541.292	125.06
541.506	215.06
541.72	202.06
541.934	138.06
542.147	121.06
542.361	112.06
542.575	91.06
542.789	104.06
543.002	89.06
543.216	98.06
543.43	84.06
543.644	95.06
543.857	109.06
544.071	116.06
544.285	105.06
544.498	96.06
544.712	99.06
544.925	102.06
545.139	91.06
545.352	94.06
545.566	87.06
545.779	104.06
545.993	92.06
546.206	117.06
546.42	103.06
546.633	112.06
546.847	93.06
547.06	99.06
547.274	90.06
547.487	94.06
547.7	105.06
547.914	103.06
548.127	111.06
548.34	111.06
548.554	118.06
548.767	112.06
548.98	102.06
549.193	104.06
549.407	107.06
549.62	101.06
549.833	96.06
550.046	113.06
550.259	97.06
550.473	110.06
550.686	101.06
550.899	95.06
551.112	106.06
551.325	105.06
551.538	96.06
551.751	95.06
551.964	96.06
552.177	93.06
552.39	100.06
552.603	100.06
552.816	117.06
553.029	107.06
553.242	92.06
553.455	90.06
553.667	98.06
553.88	103.06
554.093	108.06
554.306	116.06
554.519	103.06
554.732	106.06
554.944	103.06
555.157	101.06
555.37	97.06
555.583	104.06
555.795	105.06
556.008	114.06
556.221	153.06
556.433	138.06
556.646	110.06
556.859	113.06
557.071	115.06
557.284	132.06
557.496	115.06
557.709	108.06
557.921	97.06
558.134	102.06
558.346	105.06
558.559	102.06
558.771	108.06
558.984	91.06
559.196	97.06
559.409	95.06
559.621	107.06
559.833	94.06
560.046	104.06
560.258	100.06
560.47	101.06
560.683	100.06
560.895	107.06
561.107	101.06
561.32	104.06
561.532	98.06
561.744	101.06
561.956	109.06
562.168	90.06
562.381	102.06
562.593	106.06
562.805	132.06
563.017	173.06
563.229	258.06
563.441	619.06
563.653	195.06
563.865	109.06
564.077	105.06
564.289	95.06
564.501	91.06
564.713	90.06
564.925	94.06
565.137	93.06
565.349	95.06
565.561	107.06
565.773	91.06
565.985	98.06
566.197	89.06
566.408	90.06
566.62	87.06
566.832	100.06
567.044	104.06
567.255	103.06
567.467	103.06
567.679	117.06
567.891	126.06
568.102	169.06
568.314	252.06
568.526	163.06
568.737	122.06
568.949	112.06
569.161	114.06
569.372	117.06
569.584	94.06
569.795	102.06
570.007	103.06
570.218	134.06
570.43	171.06
570.641	119.06
570.853	104.06
571.064	102.06
571.276	90.06
571.487	78.06
571.698	105.06
571.91	91.06
572.121	107.06
572.333	113.06
572.544	118.06
572.755	128.06
572.966	210.06
573.178	146.06
573.389	106.06
573.6	90.06
573.811	97.06
574.023	92.06
574.234	84.06
574.445	83.06
574.656	96.06
574.867	89.06
575.078	94.06
575.289	108.06
575.501	97.06
575.712	104.06
575.923	94.06
576.134	94.06
576.345	97.06
576.556	107.06
576.767	97.06
576.978	100.06
577.188	89.06
577.399	96.06
577.61	98.06
577.821	81.06
578.032	106.06
578.243	98.06
578.454	101.06
578.665	90.06
578.875	86.06
579.086	94.06
579.297	96.06
579.508	99.06
579.718	84.06
579.929	100.06
580.14	107.06
580.35	92.06
580.561	85.06
580.772	80.06
580.982	76.06
581.193	86.06
581.403	83.06
581.614	82.06
581.825	90.06
582.035	99.06
582.246	99.06
582.456	84.06
582.667	102.06
582.877	122.06
583.087	126.06
583.298	95.06
583.508	92.06
583.719	106.06
583.929	83.06
584.139	96.06
584.35	96.06
584.56	103.06
584.77	103.06
584.981	107.06
585.191	107.06
585.401	81.06
585.611	99.06
585.821	94.06
586.032	89.06
586.242	86.06
586.452	95.06
586.662	84.06
586.872	82.06
587.082	80.06
587.292	97.06
587.502	99.06
587.713	96.06
587.923	96.06
588.133	91.06
588.343	77.06
588.553	84.06
588.762	104.06
588.972	98.06
589.182	113.06
589.392	120.06
589.602	98.06
589.812	120.06
590.022	103.06
590.232	103.06
590.441	91.06
590.651	96.06
590.861	94.06
591.071	94.06
591.281	98.06
591.49	89.06
591.7	83.06
591.91	92.06
592.119	92.06
592.329	87.06
592.539	108.06
592.748	98.06
592.958	110.06
593.167	96.06
593.377	97.06
593.587	98.06
593.796	90.06
594.006	102.06
594.215	95.06
594.424	95.06
594.634	89.06
594.843	110.06
595.053	85.06
595.262	107.06
595.472	84.06
595.681	83.06
595.89	89.06
596.1	97.06
596.309	90.06
596.518	92.06
596.727	117.06
596.937	94.06
597.146	106.06
597.355	102.06
597.564	86.06
597.774	90.06
597.983	88.06
598.192	107.06
598.401	89.06
598.61	88.06
598.819	91.06
599.028	85.06
599.237	91.06
599.446	75.06
599.655	93.06
599.864	88.06
600.073	90.06
600.282	102.06
600.491	100.06
600.7	101.06
600.909	97.06
601.118	97.06
601.327	86.06
601.536	93.06
601.745	90.06
601.953	132.06
602.162	152.06
602.371	120.06
602.58	97.06
602.789	93.06
602.997	103.06
603.206	99.06
603.415	82.06
603.623	97.06
603.832	100.06
604.041	112.06
604.249	107.06
604.458	91.06
604.666	84.06
604.875	92.06
605.084	95.06
605.292	86.06
605.501	111.06
605.709	109.06
605.918	101.06
606.126	88.06
606.334	99.06
606.543	90.06
606.751	129.06
606.96	158.06
607.168	190.06
607.376	112.06
607.585	114.06
607.793	127.06
608.001	102.06
608.21	96.06
608.418	100.06
608.626	101.06
608.834	96.06
609.043	96.06
609.251	104.06
609.459	95.06
609.667	99.06
609.875	92.06
610.083	93.06
610.291	91.06
610.499	104.06
610.707	82.06
610.916	95.06
611.124	103.06
611.332	93.06
611.54	100.06
611.748	104.06
611.955	103.06
612.163	88.06
612.371	82.06
612.579	89.06
612.787	95.06
612.995	87.06
613.203	92.06
613.411	88.06
613.618	98.06
613.826	94.06
614.034	96.06
614.242	93.06
614.449	90.06
614.657	100.06
614.865	99.06
615.072	120.06
615.28	129.06
615.488	110.06
615.695	105.06
615.903	103.06
616.111	84.06
616.318	101.06
616.526	96.06
616.733	98.06
616.941	83.06
617.148	103.06
617.356	90.06
617.563	83.06
617.771	81.06
617.978	99.06
618.185	109.06
618.393	90.06
618.6	94.06
618.807	93.06
619.015	94.06
619.222	93.06
619.429	99.06
619.637	107.06
619.844	92.06
620.051	102.06
620.258	84.06
620.466	86.06
620.673	88.06
620.88	95.06
621.087	80.06
621.294	88.06
621.501	86.06
621.708	95.06
621.915	101.06
622.122	75.06
622.329	97.06
622.536	102.06
622.743	98.06
622.95	80.06
623.157	88.06
623.364	88.06
623.571	97.06
623.778	90.06
623.985	86.06
624.192	90.06
624.399	87.06
624.606	84.06
624.812	95.06
625.019	76.06
625.226	74.06
625.433	109.06
625.639	88.06
625.846	86.06
626.053	72.06
626.259	97.06
626.466	86.06
626.673	88.06
626.879	82.06
627.086	83.06
627.293	95.06
627.499	81.06
627.706	106.06
627.912	96.06
628.119	97.06
628.325	95.06
628.532	102.06
628.738	96.06
628.945	82.06
629.151	96.06
629.357	96.06
629.564	97.06
629.77	99.06
629.976	93.06
630.183	89.06
630.389	92.06
630.595	86.06
630.802	76.06
631.008	89.06
631.214	101.06
631.42	102.06
631.627	104.06
631.833	105.06
632.039	83.06
632.245	81.06
632.451	82.06
632.657	76.06
632.863	93.06
633.069	94.06
633.275	103.06
633.481	83.06
633.688	92.06
633.893	99.06
634.099	90.06
634.305	80.06
634.511	88.06
634.717	92.06
634.923	112.06
635.129	126.06
635.335	127.06
635.541	100.06
635.747	98.06
635.952	83.06
636.158	100.06
636.364	96.06
636.57	82.06
636.775	92.06
636.981	81.06
637.187	97.06
637.392	96.06
637.598	86.06
637.804	91.06
638.009	87.06
638.215	100.06
638.421	88.06
638.626	106.06
638.832	87.06
639.037	84.06
639.243	110.06
639.448	92.06
639.654	74.06
639.859	89.06
640.065	79.06
640.27	98.06
640.475	95.06
640.681	87.06
640.886	87.06
641.091	100.06
641.297	89.06
641.502	92.06
641.707	78.06
641.913	85.06
642.118	80.06
642.323	91.06
642.528	95.06
642.733	88.06
642.939	86.06
643.144	85.06
643.349	85.06
643.554	101.06
643.759	95.06
643.964	88.06
644.169	105.06
644.374	89.06
644.579	103.06
644.784	102.06
644.989	90.06
645.194	93.06
645.399	99.06
645.604	97.06
645.809	91.06
646.014	96.06
646.219	94.06
646.423	98.06
646.628	89.06
646.833	81.06
647.038	91.06
647.243	74.06
647.447	87.06
647.652	87.06
647.857	103.06
648.062	87.06
648.266	90.06
648.471	76.06
648.676	88.06
648.88	102.06
649.085	90.06
649.289	85.06
649.494	80.06
649.698	97.06
649.903	95.06
650.107	82.06
650.312	90.06
650.516	71.06
650.721	82.06
650.925	85.06
651.13	96.06
651.334	83.06
651.539	100.06
651.743	79.06
651.947	77.06
652.152	86.06
652.356	100.06
652.56	82.06
652.764	120.06
652.969	106.06
653.173	94.06
653.377	76.06
653.581	95.06
653.785	78.06
653.99	96.06
654.194	91.06
654.398	71.06
654.602	84.06
654.806	74.06
655.01	91.06
655.214	89.06
655.418	72.06
655.622	59.06
655.826	92.06
656.03	90.06
656.234	67.06
656.438	82.06
656.642	82.06
656.846	90.06
657.049	89.06
657.253	85.06
657.457	79.06
657.661	82.06
657.865	82.06
658.068	83.06
658.272	75.06
658.476	77.06
658.68	88.06
658.883	70.06
659.087	83.06
659.291	78.06
659.494	90.06
659.698	88.06
659.901	76.06
660.105	90.06
660.309	84.06
660.512	84.06
660.716	84.06
660.919	91.06
661.123	99.06
661.326	87.06
661.53	81.06
661.733	81.06
661.936	82.06
662.14	84.06
662.343	90.06
662.546	91.06
662.75	87.06
662.953	88.06
663.156	91.06
663.36	96.06
663.563	88.06
663.766	87.06
663.969	86.06
664.173	86.06
664.376	89.06
664.579	94.06
664.782	80.06
664.985	85.06
665.188	95.06
665.391	71.06
665.594	90.06
665.797	76.06
666	97.06
666.203	89.06
666.406	87.06
666.609	89.06
666.812	85.06
667.015	91.06
667.218	85.06
667.421	76.06
667.624	91.06
667.827	96.06
668.03	82.06
668.232	77.06
668.435	83.06
668.638	84.06
668.841	85.06
669.043	80.06
669.246	68.06
669.449	92.06
669.651	68.06
669.854	75.06
670.057	82.06
670.259	73.06
670.462	79.06
670.665	79.06
670.867	79.06
671.07	90.06
671.272	91.06
671.475	93.06
671.677	82.06
671.88	75.06
672.082	83.06
672.284	71.06
672.487	82.06
672.689	88.06
672.892	82.06
