Data from SnStandardFlinnAPT0064_LampEnergy5.5_LIBS07252019.E.O._I.C._HRD10591_15-14-58-493.txt Node
Date: Thu Jul 25 15:14:58 EDT 2019
User: cochatt
Spectrometer: HR+D1059
Trigger mode: 1
Integration Time (sec): 1.000000E-1
Scans to average: 1
Electric dark correction enabled: true
Nonlinearity correction enabled: false
Boxcar width: 0
XAxis mode: Wavelengths
Number of Pixels in Spectrum: 2048
>>>>>Begin Spectral Data<<<<<
223.165	-18.06
223.4	-18.06
223.635	-18.06
223.869	-18.06
224.104	-17.06
224.338	-15.06
224.573	-25.06
224.808	-34.06
225.042	-14.06
225.277	4.94
225.511	4.94
225.746	14.94
225.98	12.94
226.215	6.94
226.449	21.94
226.683	15.94
226.918	29.94
227.152	28.94
227.387	25.94
227.621	40.94
227.856	22.94
228.09	51.94
228.324	40.94
228.559	45.94
228.793	67.94
229.027	148.94
229.262	147.94
229.496	134.94
229.73	140.94
229.964	151.94
230.199	145.94
230.433	147.94
230.667	161.94
230.901	155.94
231.136	165.94
231.37	173.94
231.604	203.94
231.838	191.94
232.072	216.94
232.306	225.94
232.541	192.94
232.775	181.94
233.009	193.94
233.243	205.94
233.477	207.94
233.711	243.94
233.945	248.94
234.179	220.94
234.413	218.94
234.647	220.94
234.881	225.94
235.115	226.94
235.349	270.94
235.583	317.94
235.817	393.94
236.051	381.94
236.285	269.94
236.519	218.94
236.753	210.94
236.987	206.94
237.221	230.94
237.455	227.94
237.689	216.94
237.922	218.94
238.156	205.94
238.39	205.94
238.624	221.94
238.858	215.94
239.091	201.94
239.325	223.94
239.559	224.94
239.793	217.94
240.027	241.94
240.26	246.94
240.494	243.94
240.728	264.94
240.961	255.94
241.195	257.94
241.429	281.94
241.662	285.94
241.896	326.94
242.13	349.94
242.363	433.94
242.597	535.94
242.83	533.94
243.064	554.94
243.298	613.94
243.531	525.94
243.765	349.94
243.998	307.94
244.232	281.94
244.465	271.94
244.699	278.94
244.932	264.94
245.166	284.94
245.399	278.94
245.633	280.94
245.866	292.94
246.099	295.94
246.333	280.94
246.566	273.94
246.8	294.94
247.033	269.94
247.266	273.94
247.5	281.94
247.733	294.94
247.966	294.94
248.2	319.94
248.433	322.94
248.666	386.94
248.899	372.94
249.133	329.94
249.366	340.94
249.599	391.94
249.832	397.94
250.066	400.94
250.299	359.94
250.532	327.94
250.765	326.94
250.998	314.94
251.231	308.94
251.465	313.94
251.698	320.94
251.931	319.94
252.164	321.94
252.397	313.94
252.63	346.94
252.863	320.94
253.096	328.94
253.329	312.94
253.562	322.94
253.795	314.94
254.028	339.94
254.261	341.94
254.494	368.94
254.727	403.94
254.96	449.94
255.193	458.94
255.426	361.94
255.659	355.94
255.892	360.94
256.124	349.94
256.357	363.94
256.59	363.94
256.823	382.94
257.056	425.94
257.289	477.94
257.521	521.94
257.754	455.94
257.987	377.94
258.22	383.94
258.452	363.94
258.685	389.94
258.918	382.94
259.151	411.94
259.383	425.94
259.616	442.94
259.849	468.94
260.081	438.94
260.314	415.94
260.547	393.94
260.779	400.94
261.012	412.94
261.244	410.94
261.477	436.94
261.71	417.94
261.942	429.94
262.175	441.94
262.407	447.94
262.64	455.94
262.872	482.94
263.105	482.94
263.337	527.94
263.57	535.94
263.802	541.94
264.035	530.94
264.267	567.94
264.499	560.94
264.732	620.94
264.964	599.94
265.197	561.94
265.429	599.94
265.661	618.94
265.894	644.94
266.126	721.94
266.358	764.94
266.591	719.94
266.823	649.94
267.055	602.94
267.287	579.94
267.52	545.94
267.752	548.94
267.984	529.94
268.216	525.94
268.448	546.94
268.681	533.94
268.913	521.94
269.145	513.94
269.377	503.94
269.609	510.94
269.841	511.94
270.073	544.94
270.306	622.94
270.538	801.94
270.77	1097.94
271.002	1316.94
271.234	954.94
271.466	695.94
271.698	603.94
271.93	555.94
272.162	521.94
272.394	515.94
272.626	514.94
272.858	506.94
273.09	498.94
273.322	511.94
273.553	515.94
273.785	506.94
274.017	502.94
274.249	509.94
274.481	500.94
274.713	510.94
274.945	481.94
275.176	515.94
275.408	498.94
275.64	471.94
275.872	505.94
276.104	517.94
276.335	519.94
276.567	513.94
276.799	522.94
277.031	544.94
277.262	537.94
277.494	544.94
277.726	582.94
277.957	634.94
278.189	722.94
278.421	682.94
278.652	641.94
278.884	637.94
279.115	575.94
279.347	548.94
279.579	536.94
279.81	554.94
280.042	561.94
280.273	582.94
280.505	558.94
280.736	600.94
280.968	614.94
281.199	640.94
281.431	704.94
281.662	724.94
281.894	635.94
282.125	628.94
282.356	623.94
282.588	643.94
282.819	660.94
283.051	707.94
283.282	773.94
283.513	903.94
283.745	1217.94
283.976	1925.94
284.207	2660.94
284.439	2363.94
284.67	1477.94
284.901	1247.94
285.132	1178.94
285.364	1145.94
285.595	953.94
285.826	866.94
286.057	1010.94
286.288	1309.94
286.52	1697.94
286.751	1565.94
286.982	1065.94
287.213	849.94
287.444	741.94
287.675	718.94
287.906	686.94
288.138	654.94
288.369	674.94
288.6	665.94
288.831	670.94
289.062	652.94
289.293	676.94
289.524	678.94
289.755	665.94
289.986	699.94
290.217	685.94
290.448	666.94
290.679	670.94
290.91	674.94
291.141	690.94
291.371	713.94
291.602	754.94
291.833	691.94
292.064	646.94
292.295	636.94
292.526	638.94
292.757	645.94
292.987	653.94
293.218	621.94
293.449	622.94
293.68	624.94
293.91	618.94
294.141	635.94
294.372	623.94
294.603	629.94
294.833	603.94
295.064	597.94
295.295	613.94
295.525	605.94
295.756	625.94
295.987	614.94
296.217	627.94
296.448	641.94
296.679	637.94
296.909	639.94
297.14	622.94
297.37	623.94
297.601	659.94
297.831	627.94
298.062	646.94
298.292	665.94
298.523	687.94
298.753	656.94
298.984	682.94
299.214	686.94
299.445	684.94
299.675	694.94
299.905	704.94
300.136	726.94
300.366	813.94
300.597	953.94
300.827	1245.94
301.057	1649.94
301.288	1689.94
301.518	1165.94
301.748	912.94
301.979	850.94
302.209	853.94
302.439	841.94
302.669	883.94
302.9	1047.94
303.13	1351.94
303.36	1949.94
303.59	2538.94
303.82	2240.94
304.051	1373.94
304.281	1041.94
304.511	901.94
304.741	837.94
304.971	820.94
305.201	791.94
305.431	754.94
305.661	758.94
305.891	784.94
306.121	727.94
306.352	723.94
306.582	710.94
306.812	709.94
307.042	719.94
307.272	742.94
307.502	711.94
307.731	728.94
307.961	719.94
308.191	727.94
308.421	732.94
308.651	720.94
308.881	685.94
309.111	737.94
309.341	711.94
309.571	725.94
309.8	731.94
310.03	727.94
310.26	744.94
310.49	720.94
310.72	762.94
310.949	759.94
311.179	739.94
311.409	740.94
311.639	752.94
311.868	770.94
312.098	767.94
312.328	785.94
312.557	749.94
312.787	766.94
313.017	793.94
313.246	794.94
313.476	760.94
313.706	815.94
313.935	838.94
314.165	856.94
314.394	907.94
314.624	847.94
314.853	829.94
315.083	829.94
315.312	842.94
315.542	842.94
315.771	861.94
316.001	873.94
316.23	894.94
316.46	912.94
316.689	950.94
316.919	1115.94
317.148	1573.94
317.377	2296.94
317.607	3379.94
317.836	3448.94
318.065	2146.94
318.295	1444.94
318.524	1219.94
318.753	1067.94
318.983	998.94
319.212	959.94
319.441	937.94
319.67	914.94
319.9	897.94
320.129	936.94
320.358	898.94
320.587	941.94
320.816	907.94
321.046	921.94
321.275	885.94
321.504	894.94
321.733	925.94
321.962	915.94
322.191	963.94
322.42	955.94
322.649	942.94
322.878	930.94
323.108	967.94
323.337	937.94
323.566	964.94
323.795	1021.94
324.024	1025.94
324.253	1047.94
324.482	1068.94
324.71	1114.94
324.939	1165.94
325.168	1170.94
325.397	1219.94
325.626	1399.94
325.855	1871.94
326.084	2826.94
326.313	4207.94
326.542	4378.94
326.77	2908.94
326.999	2020.94
327.228	1687.94
327.457	1629.94
327.686	1669.94
327.914	1751.94
328.143	2026.94
328.372	2274.94
328.6	2441.94
328.829	2287.94
329.058	2045.94
329.287	1821.94
329.515	1695.94
329.744	1584.94
329.972	1492.94
330.201	1446.94
330.43	1382.94
330.658	1361.94
330.887	1325.94
331.115	1313.94
331.344	1295.94
331.572	1320.94
331.801	1308.94
332.03	1307.94
332.258	1341.94
332.486	1416.94
332.715	1524.94
332.943	1805.94
333.172	2156.94
333.4	2144.94
333.629	1725.94
333.857	1662.94
334.085	1629.94
334.314	1713.94
334.542	1862.94
334.771	2066.94
334.999	2466.94
335.227	2946.94
335.455	3265.94
335.684	3052.94
335.912	2641.94
336.14	2329.94
336.369	2093.94
336.597	1936.94
336.825	1768.94
337.053	1669.94
337.281	1596.94
337.51	1494.94
337.738	1482.94
337.966	1401.94
338.194	1358.94
338.422	1289.94
338.65	1303.94
338.878	1263.94
339.106	1248.94
339.334	1241.94
339.562	1221.94
339.79	1208.94
340.018	1195.94
340.246	1174.94
340.474	1188.94
340.702	1152.94
340.93	1170.94
341.158	1162.94
341.386	1159.94
341.614	1153.94
341.842	1145.94
342.07	1125.94
342.298	1121.94
342.526	1084.94
342.754	1063.94
342.981	1071.94
343.209	1066.94
343.437	1063.94
343.665	1103.94
343.893	1111.94
344.12	1108.94
344.348	1083.94
344.576	1098.94
344.804	1043.94
345.031	1043.94
345.259	1037.94
345.487	1017.94
345.714	994.94
345.942	1000.94
346.17	1000.94
346.397	984.94
346.625	961.94
346.853	1019.94
347.08	988.94
347.308	975.94
347.535	977.94
347.763	978.94
347.99	987.94
348.218	969.94
348.445	969.94
348.673	964.94
348.9	983.94
349.128	982.94
349.355	955.94
349.583	957.94
349.81	970.94
350.037	951.94
350.265	945.94
350.492	947.94
350.72	960.94
350.947	977.94
351.174	967.94
351.402	965.94
351.629	936.94
351.856	969.94
352.083	933.94
352.311	949.94
352.538	930.94
352.765	967.94
352.992	955.94
353.22	944.94
353.447	941.94
353.674	936.94
353.901	928.94
354.128	970.94
354.355	953.94
354.583	943.94
354.81	942.94
355.037	951.94
355.264	974.94
355.491	957.94
355.718	949.94
355.945	990.94
356.172	961.94
356.399	1001.94
356.626	993.94
356.853	993.94
357.08	968.94
357.307	1023.94
357.534	1053.94
357.761	989.94
357.988	965.94
358.215	984.94
358.441	981.94
358.668	989.94
358.895	1008.94
359.122	995.94
359.349	994.94
359.576	1003.94
359.802	1011.94
360.029	1018.94
360.256	999.94
360.483	1009.94
360.709	983.94
360.936	994.94
361.163	1003.94
361.39	1007.94
361.616	1007.94
361.843	1006.94
362.07	1035.94
362.296	1035.94
362.523	1011.94
362.749	1024.94
362.976	1000.94
363.203	1023.94
363.429	998.94
363.656	999.94
363.882	992.94
364.109	998.94
364.335	968.94
364.562	990.94
364.788	1008.94
365.015	1007.94
365.241	1021.94
365.468	1077.94
365.694	1069.94
365.92	1076.94
366.147	1050.94
366.373	1014.94
366.599	1025.94
366.826	1015.94
367.052	1050.94
367.278	1086.94
367.505	1062.94
367.731	1023.94
367.957	1043.94
368.184	1032.94
368.41	1057.94
368.636	1080.94
368.862	1024.94
369.089	1009.94
369.315	1061.94
369.541	1085.94
369.767	1070.94
369.993	1081.94
370.219	1026.94
370.445	1074.94
370.672	1058.94
370.898	1037.94
371.124	1069.94
371.35	1099.94
371.576	1073.94
371.802	1083.94
372.028	1077.94
372.254	1081.94
372.48	1080.94
372.706	1101.94
372.932	1105.94
373.158	1088.94
373.384	1102.94
373.61	1135.94
373.835	1105.94
374.061	1107.94
374.287	1103.94
374.513	1095.94
374.739	1159.94
374.965	1186.94
375.191	1158.94
375.416	1154.94
375.642	1127.94
375.868	1128.94
376.094	1110.94
376.319	1106.94
376.545	1077.94
376.771	1086.94
376.997	1078.94
377.222	1098.94
377.448	1095.94
377.674	1082.94
377.899	1091.94
378.125	1097.94
378.35	1089.94
378.576	1068.94
378.802	1075.94
379.027	1084.94
379.253	1124.94
379.478	1161.94
379.704	1315.94
379.929	1725.94
380.155	2477.94
380.38	2663.94
380.606	1748.94
380.831	1337.94
381.057	1213.94
381.282	1155.94
381.507	1103.94
381.733	1122.94
381.958	1078.94
382.184	1078.94
382.409	1078.94
382.634	1080.94
382.86	1081.94
383.085	1066.94
383.31	1066.94
383.535	1073.94
383.761	1075.94
383.986	1093.94
384.211	1066.94
384.436	1084.94
384.662	1110.94
384.887	1114.94
385.112	1125.94
385.337	1115.94
385.562	1119.94
385.787	1101.94
386.013	1115.94
386.238	1131.94
386.463	1111.94
386.688	1127.94
386.913	1105.94
387.138	1128.94
387.363	1110.94
387.588	1129.94
387.813	1104.94
388.038	1081.94
388.263	1128.94
388.488	1135.94
388.713	1112.94
388.938	1138.94
389.163	1115.94
389.387	1103.94
389.612	1103.94
389.837	1077.94
390.062	1083.94
390.287	1132.94
390.512	1112.94
390.736	1135.94
390.961	1162.94
391.186	1153.94
391.411	1143.94
391.636	1189.94
391.86	1194.94
392.085	1200.94
392.31	1149.94
392.534	1154.94
392.759	1159.94
392.984	1148.94
393.208	1116.94
393.433	1113.94
393.658	1106.94
393.882	1125.94
394.107	1102.94
394.331	1133.94
394.556	1125.94
394.78	1143.94
395.005	1137.94
395.229	1122.94
395.454	1177.94
395.678	1160.94
395.903	1161.94
396.127	1148.94
396.352	1128.94
396.576	1162.94
396.801	1143.94
397.025	1140.94
397.249	1160.94
397.474	1177.94
397.698	1175.94
397.922	1219.94
398.147	1147.94
398.371	1207.94
398.595	1239.94
398.82	1242.94
399.044	1315.94
399.268	1343.94
399.492	1425.94
399.717	1506.94
399.941	1505.94
400.165	1430.94
400.389	1389.94
400.613	1298.94
400.837	1275.94
401.062	1251.94
401.286	1262.94
401.51	1258.94
401.734	1243.94
401.958	1216.94
402.182	1253.94
402.406	1207.94
402.63	1271.94
402.854	1261.94
403.078	1281.94
403.302	1277.94
403.526	1257.94
403.75	1314.94
403.974	1283.94
404.198	1298.94
404.422	1276.94
404.645	1270.94
404.869	1298.94
405.093	1289.94
405.317	1298.94
405.541	1316.94
405.765	1316.94
405.988	1281.94
406.212	1277.94
406.436	1301.94
406.66	1328.94
406.883	1313.94
407.107	1370.94
407.331	1407.94
407.555	1398.94
407.778	1388.94
408.002	1334.94
408.226	1351.94
408.449	1353.94
408.673	1305.94
408.896	1317.94
409.12	1343.94
409.344	1305.94
409.567	1291.94
409.791	1317.94
410.014	1272.94
410.238	1239.94
410.461	1255.94
410.685	1274.94
410.908	1289.94
411.132	1239.94
411.355	1231.94
411.578	1233.94
411.802	1248.94
412.025	1210.94
412.249	1215.94
412.472	1215.94
412.695	1205.94
412.919	1209.94
413.142	1247.94
413.365	1216.94
413.589	1204.94
413.812	1231.94
414.035	1198.94
414.258	1209.94
414.482	1226.94
414.705	1217.94
414.928	1217.94
415.151	1191.94
415.374	1193.94
415.597	1198.94
415.821	1179.94
416.044	1181.94
416.267	1163.94
416.49	1178.94
416.713	1173.94
416.936	1163.94
417.159	1155.94
417.382	1158.94
417.605	1160.94
417.828	1178.94
418.051	1159.94
418.274	1191.94
418.497	1180.94
418.72	1188.94
418.943	1151.94
419.166	1229.94
419.389	1285.94
419.611	1302.94
419.834	1244.94
420.057	1228.94
420.28	1191.94
420.503	1189.94
420.726	1159.94
420.948	1176.94
421.171	1163.94
421.394	1170.94
421.617	1182.94
421.839	1168.94
422.062	1173.94
422.285	1173.94
422.507	1161.94
422.73	1218.94
422.953	1203.94
423.175	1208.94
423.398	1197.94
423.621	1193.94
423.843	1199.94
424.066	1175.94
424.288	1192.94
424.511	1203.94
424.733	1197.94
424.956	1177.94
425.178	1169.94
425.401	1150.94
425.623	1181.94
425.846	1153.94
426.068	1144.94
426.291	1132.94
426.513	1140.94
426.735	1129.94
426.958	1133.94
427.18	1118.94
427.402	1121.94
427.625	1098.94
427.847	1090.94
428.069	1059.94
428.292	1103.94
428.514	1098.94
428.736	1098.94
428.958	1083.94
429.181	1089.94
429.403	1086.94
429.625	1089.94
429.847	1069.94
430.069	1119.94
430.292	1118.94
430.514	1119.94
430.736	1168.94
430.958	1120.94
431.18	1086.94
431.402	1107.94
431.624	1090.94
431.846	1079.94
432.068	1027.94
432.29	1074.94
432.512	1062.94
432.734	1069.94
432.956	1055.94
433.178	1056.94
433.4	1101.94
433.622	1105.94
433.844	1087.94
434.066	1091.94
434.287	1082.94
434.509	1095.94
434.731	1097.94
434.953	1145.94
435.175	1142.94
435.397	1115.94
435.618	1097.94
435.84	1086.94
436.062	1058.94
436.284	1077.94
436.505	1078.94
436.727	1073.94
436.949	1076.94
437.17	1070.94
437.392	1054.94
437.614	1063.94
437.835	1018.94
438.057	1015.94
438.278	1036.94
438.5	1072.94
438.721	1069.94
438.943	1096.94
439.165	1126.94
439.386	1100.94
439.608	1120.94
439.829	1099.94
440.05	1149.94
440.272	1152.94
440.493	1129.94
440.715	1133.94
440.936	1139.94
441.158	1125.94
441.379	1144.94
441.6	1177.94
441.822	1182.94
442.043	1299.94
442.264	1236.94
442.486	1226.94
442.707	1200.94
442.928	1163.94
443.149	1161.94
443.371	1180.94
443.592	1143.94
443.813	1162.94
444.034	1164.94
444.255	1211.94
444.476	1260.94
444.698	1215.94
444.919	1262.94
445.14	1309.94
445.361	1244.94
445.582	1224.94
445.803	1195.94
446.024	1159.94
446.245	1170.94
446.466	1177.94
446.687	1141.94
446.908	1118.94
447.129	1123.94
447.35	1121.94
447.571	1082.94
447.792	1086.94
448.013	1049.94
448.234	1031.94
448.455	1069.94
448.675	1087.94
448.896	1085.94
449.117	1120.94
449.338	1183.94
449.559	1221.94
449.779	1126.94
450	1030.94
450.221	1055.94
450.442	1050.94
450.662	1015.94
450.883	1034.94
451.104	1047.94
451.324	1031.94
451.545	1004.94
451.766	1044.94
451.986	1040.94
452.207	1091.94
452.428	1334.94
452.648	1694.94
452.869	1481.94
453.089	1149.94
453.31	1137.94
453.53	1104.94
453.751	1138.94
453.971	1190.94
454.192	1195.94
454.412	1077.94
454.633	1021.94
454.853	1006.94
455.073	991.94
455.294	986.94
455.514	976.94
455.734	983.94
455.955	1008.94
456.175	1002.94
456.395	1003.94
456.616	981.94
456.836	1006.94
457.056	1007.94
457.276	990.94
457.497	1058.94
457.717	1046.94
457.937	1026.94
458.157	1011.94
458.377	1061.94
458.598	1053.94
458.818	1082.94
459.038	1025.94
459.258	1053.94
459.478	1074.94
459.698	1067.94
459.918	1118.94
460.138	1120.94
460.358	1163.94
460.578	1110.94
460.798	1171.94
461.018	1190.94
461.238	1160.94
461.458	1183.94
461.678	1155.94
461.898	1210.94
462.118	1234.94
462.338	1235.94
462.558	1273.94
462.777	1258.94
462.997	1342.94
463.217	1371.94
463.437	1361.94
463.657	1382.94
463.876	1370.94
464.096	1352.94
464.316	1269.94
464.536	1308.94
464.755	1247.94
464.975	1247.94
465.195	1180.94
465.414	1167.94
465.634	1158.94
465.854	1090.94
466.073	1113.94
466.293	1089.94
466.512	1074.94
466.732	1118.94
466.951	1121.94
467.171	1158.94
467.391	1170.94
467.61	1109.94
467.829	1086.94
468.049	1055.94
468.268	1055.94
468.488	1056.94
468.707	1041.94
468.927	1048.94
469.146	1050.94
469.365	1065.94
469.585	1064.94
469.804	1089.94
470.023	1119.94
470.243	1124.94
470.462	1157.94
470.681	1190.94
470.901	1283.94
471.12	1440.94
471.339	1437.94
471.558	1245.94
471.777	1173.94
471.997	1112.94
472.216	1118.94
472.435	1073.94
472.654	1060.94
472.873	1017.94
473.092	1054.94
473.311	1080.94
473.53	1114.94
473.749	1101.94
473.968	1115.94
474.187	1085.94
474.406	1100.94
474.625	1099.94
474.844	1071.94
475.063	1075.94
475.282	1073.94
475.501	1078.94
475.72	1079.94
475.939	1094.94
476.158	1124.94
476.377	1153.94
476.596	1103.94
476.814	1122.94
477.033	1096.94
477.252	1150.94
477.471	1160.94
477.69	1197.94
477.908	1190.94
478.127	1194.94
478.346	1206.94
478.564	1220.94
478.783	1251.94
479.002	1266.94
479.22	1251.94
479.439	1261.94
479.658	1249.94
479.876	1279.94
480.095	1261.94
480.313	1308.94
480.532	1310.94
480.751	1273.94
480.969	1280.94
481.188	1235.94
481.406	1232.94
481.624	1250.94
481.843	1227.94
482.061	1287.94
482.28	1249.94
482.498	1267.94
482.717	1257.94
482.935	1299.94
483.153	1318.94
483.372	1309.94
483.59	1355.94
483.808	1350.94
484.027	1382.94
484.245	1399.94
484.463	1550.94
484.681	1683.94
484.9	1573.94
485.118	1513.94
485.336	1458.94
485.554	1465.94
485.772	1552.94
485.99	1675.94
486.209	1813.94
486.427	1578.94
486.645	1433.94
486.863	1408.94
487.081	1367.94
487.299	1372.94
487.517	1349.94
487.735	1408.94
487.953	1407.94
488.171	1360.94
488.389	1353.94
488.607	1354.94
488.825	1317.94
489.043	1305.94
489.261	1337.94
489.479	1302.94
489.696	1320.94
489.914	1309.94
490.132	1334.94
490.35	1355.94
490.568	1375.94
490.786	1384.94
491.003	1380.94
491.221	1423.94
491.439	1402.94
491.657	1420.94
491.874	1429.94
492.092	1473.94
492.31	1443.94
492.527	1471.94
492.745	1420.94
492.963	1409.94
493.18	1427.94
493.398	1377.94
493.615	1426.94
493.833	1441.94
494.05	1424.94
494.268	1398.94
494.485	1397.94
494.703	1413.94
494.92	1400.94
495.138	1371.94
495.355	1415.94
495.573	1393.94
495.79	1439.94
496.008	1419.94
496.225	1449.94
496.442	1484.94
496.66	1489.94
496.877	1525.94
497.094	1543.94
497.312	1538.94
497.529	1524.94
497.746	1555.94
497.963	1531.94
498.181	1583.94
498.398	1581.94
498.615	1633.94
498.832	1726.94
499.049	1747.94
499.267	1921.94
499.484	2029.94
499.701	2081.94
499.918	2146.94
500.135	2312.94
500.352	2390.94
500.569	2413.94
500.786	2389.94
501.003	2285.94
501.22	2203.94
501.437	2068.94
501.654	1947.94
501.871	1857.94
502.088	1776.94
502.305	1750.94
502.522	1695.94
502.739	1637.94
502.956	1557.94
503.172	1519.94
503.389	1513.94
503.606	1497.94
503.823	1478.94
504.04	1472.94
504.256	1461.94
504.473	1453.94
504.69	1457.94
504.907	1443.94
505.123	1387.94
505.34	1350.94
505.557	1306.94
505.773	1301.94
505.99	1353.94
506.207	1274.94
506.423	1263.94
506.64	1277.94
506.856	1257.94
507.073	1229.94
507.289	1246.94
507.506	1243.94
507.722	1259.94
507.939	1231.94
508.155	1199.94
508.372	1210.94
508.588	1187.94
508.805	1199.94
509.021	1215.94
509.238	1211.94
509.454	1287.94
509.67	1299.94
509.887	1216.94
510.103	1199.94
510.319	1202.94
510.536	1199.94
510.752	1180.94
510.968	1144.94
511.184	1148.94
511.401	1177.94
511.617	1138.94
511.833	1141.94
512.049	1149.94
512.265	1130.94
512.481	1151.94
512.698	1135.94
512.914	1139.94
513.13	1143.94
513.346	1164.94
513.562	1145.94
513.778	1149.94
513.994	1151.94
514.21	1185.94
514.426	1223.94
514.642	1289.94
514.858	1198.94
515.074	1159.94
515.29	1180.94
515.506	1149.94
515.721	1155.94
515.937	1194.94
516.153	1163.94
516.369	1192.94
516.585	1234.94
516.801	1249.94
517.016	1244.94
517.232	1232.94
517.448	1295.94
517.664	1296.94
517.879	1320.94
518.095	1352.94
518.311	1287.94
518.527	1259.94
518.742	1264.94
518.958	1279.94
519.173	1295.94
519.389	1213.94
519.605	1213.94
519.82	1174.94
520.036	1183.94
520.251	1159.94
520.467	1160.94
520.682	1149.94
520.898	1142.94
521.113	1121.94
521.329	1144.94
521.544	1162.94
521.76	1108.94
521.975	1122.94
522.19	1112.94
522.406	1122.94
522.621	1128.94
522.836	1123.94
523.052	1097.94
523.267	1082.94
523.482	1099.94
523.698	1126.94
523.913	1106.94
524.128	1123.94
524.343	1120.94
524.559	1110.94
524.774	1133.94
524.989	1136.94
525.204	1094.94
525.419	1113.94
525.634	1105.94
525.849	1094.94
526.064	1106.94
526.28	1118.94
526.495	1102.94
526.71	1103.94
526.925	1124.94
527.14	1125.94
527.355	1079.94
527.57	1089.94
527.785	1100.94
527.999	1099.94
528.214	1131.94
528.429	1119.94
528.644	1156.94
528.859	1137.94
529.074	1179.94
529.289	1200.94
529.503	1190.94
529.718	1163.94
529.933	1140.94
530.148	1142.94
530.363	1161.94
530.577	1124.94
530.792	1163.94
531.007	1163.94
531.221	1156.94
531.436	1199.94
531.651	1186.94
531.865	1194.94
532.08	1176.94
532.295	1223.94
532.509	1291.94
532.724	1288.94
532.938	1292.94
533.153	1350.94
533.367	1342.94
533.582	1398.94
533.796	1435.94
534.011	1389.94
534.225	1330.94
534.44	1337.94
534.654	1300.94
534.868	1310.94
535.083	1292.94
535.297	1254.94
535.511	1238.94
535.726	1210.94
535.94	1226.94
536.154	1217.94
536.369	1199.94
536.583	1181.94
536.797	1159.94
537.011	1134.94
537.225	1142.94
537.44	1151.94
537.654	1121.94
537.868	1120.94
538.082	1102.94
538.296	1078.94
538.51	1104.94
538.724	1107.94
538.938	1112.94
539.153	1089.94
539.367	1092.94
539.581	1093.94
539.795	1046.94
540.009	1055.94
540.222	1059.94
540.436	1066.94
540.65	1091.94
540.864	1098.94
541.078	1110.94
541.292	1138.94
541.506	1337.94
541.72	1383.94
541.934	1256.94
542.147	1199.94
542.361	1150.94
542.575	1125.94
542.789	1090.94
543.002	1062.94
543.216	1074.94
543.43	1053.94
543.644	1044.94
543.857	1074.94
544.071	1077.94
544.285	1098.94
544.498	1062.94
544.712	1069.94
544.925	1087.94
545.139	1091.94
545.352	1080.94
545.566	1075.94
545.779	1051.94
545.993	1079.94
546.206	1116.94
546.42	1096.94
546.633	1084.94
546.847	1090.94
547.06	1100.94
547.274	1093.94
547.487	1113.94
547.7	1074.94
547.914	1074.94
548.127	1074.94
548.34	1100.94
548.554	1073.94
548.767	1094.94
548.98	1047.94
549.193	1093.94
549.407	1104.94
549.62	1075.94
549.833	1067.94
550.046	1076.94
550.259	1049.94
550.473	1098.94
550.686	1099.94
550.899	1101.94
551.112	1054.94
551.325	1079.94
551.538	1033.94
551.751	1039.94
551.964	1032.94
552.177	1069.94
552.39	1077.94
552.603	1118.94
552.816	1144.94
553.029	1134.94
553.242	1145.94
553.455	1184.94
553.667	1181.94
553.88	1184.94
554.093	1184.94
554.306	1169.94
554.519	1174.94
554.732	1159.94
554.944	1198.94
555.157	1242.94
555.37	1231.94
555.583	1283.94
555.795	1314.94
556.008	1391.94
556.221	1457.94
556.433	1508.94
556.646	1550.94
556.859	1494.94
557.071	1478.94
557.284	1506.94
557.496	1452.94
557.709	1408.94
557.921	1454.94
558.134	1417.94
558.346	1452.94
558.559	1467.94
558.771	1547.94
558.984	1567.94
559.196	1622.94
559.409	1618.94
559.621	1530.94
559.833	1469.94
560.046	1458.94
560.258	1346.94
560.47	1312.94
560.683	1241.94
560.895	1219.94
561.107	1215.94
561.32	1171.94
561.532	1176.94
561.744	1136.94
561.956	1121.94
562.168	1119.94
562.381	1087.94
562.593	1078.94
562.805	1095.94
563.017	1103.94
563.229	1110.94
563.441	1171.94
563.653	1075.94
563.865	1012.94
564.077	982.94
564.289	994.94
564.501	988.94
564.713	1013.94
564.925	978.94
565.137	1007.94
565.349	984.94
565.561	990.94
565.773	1029.94
565.985	1002.94
566.197	1008.94
566.408	1055.94
566.62	1077.94
566.832	1106.94
567.044	1092.94
567.255	1066.94
567.467	1144.94
567.679	1141.94
567.891	1158.94
568.102	1277.94
568.314	1418.94
568.526	1230.94
568.737	1115.94
568.949	1033.94
569.161	974.94
569.372	928.94
569.584	899.94
569.795	884.94
570.007	869.94
570.218	895.94
570.43	907.94
570.641	860.94
570.853	851.94
571.064	821.94
571.276	843.94
571.487	833.94
571.698	780.94
571.91	789.94
572.121	815.94
572.333	773.94
572.544	745.94
572.755	816.94
572.966	891.94
573.178	857.94
573.389	765.94
573.6	758.94
573.811	727.94
574.023	728.94
574.234	721.94
574.445	723.94
574.656	715.94
574.867	710.94
575.078	729.94
575.289	699.94
575.501	685.94
575.712	710.94
575.923	723.94
576.134	705.94
576.345	729.94
576.556	717.94
576.767	726.94
576.978	737.94
577.188	735.94
577.399	715.94
577.61	726.94
577.821	724.94
578.032	734.94
578.243	752.94
578.454	753.94
578.665	758.94
578.875	777.94
579.086	789.94
579.297	810.94
579.508	852.94
579.718	907.94
579.929	995.94
580.14	1095.94
580.35	1132.94
580.561	1069.94
580.772	995.94
580.982	958.94
581.193	897.94
581.403	866.94
581.614	851.94
581.825	814.94
582.035	800.94
582.246	766.94
582.456	725.94
582.667	729.94
582.877	741.94
583.087	699.94
583.298	704.94
583.508	675.94
583.719	657.94
583.929	639.94
584.139	655.94
584.35	643.94
584.56	621.94
584.77	621.94
584.981	619.94
585.191	618.94
585.401	588.94
585.611	575.94
585.821	593.94
586.032	585.94
586.242	592.94
586.452	577.94
586.662	574.94
586.872	570.94
587.082	568.94
587.292	540.94
587.502	570.94
587.713	558.94
587.923	551.94
588.133	541.94
588.343	526.94
588.553	525.94
588.762	535.94
588.972	505.94
589.182	554.94
589.392	548.94
589.602	524.94
589.812	531.94
590.022	522.94
590.232	498.94
590.441	522.94
590.651	522.94
590.861	512.94
591.071	476.94
591.281	513.94
591.49	521.94
591.7	511.94
591.91	515.94
592.119	524.94
592.329	512.94
592.539	519.94
592.748	553.94
592.958	536.94
593.167	538.94
593.377	555.94
593.587	550.94
593.796	543.94
594.006	555.94
594.215	540.94
594.424	541.94
594.634	527.94
594.843	530.94
595.053	512.94
595.262	507.94
595.472	519.94
595.681	485.94
595.89	470.94
596.1	482.94
596.309	480.94
596.518	471.94
596.727	463.94
596.937	510.94
597.146	473.94
597.355	465.94
597.564	452.94
597.774	427.94
597.983	455.94
598.192	437.94
598.401	435.94
598.61	452.94
598.819	425.94
599.028	437.94
599.237	455.94
599.446	440.94
599.655	442.94
599.864	443.94
600.073	418.94
600.282	430.94
600.491	411.94
600.7	443.94
600.909	425.94
601.118	429.94
601.327	418.94
601.536	431.94
601.745	447.94
601.953	468.94
602.162	524.94
602.371	482.94
602.58	438.94
602.789	429.94
602.997	429.94
603.206	449.94
603.415	408.94
603.623	427.94
603.832	427.94
604.041	432.94
604.249	431.94
604.458	433.94
604.666	409.94
604.875	394.94
605.084	404.94
605.292	415.94
605.501	408.94
605.709	419.94
605.918	431.94
606.126	406.94
606.334	421.94
606.543	425.94
606.751	453.94
606.96	471.94
607.168	519.94
607.376	459.94
607.585	441.94
607.793	431.94
608.001	419.94
608.21	411.94
608.418	397.94
608.626	404.94
608.834	388.94
609.043	392.94
609.251	386.94
609.459	393.94
609.667	393.94
609.875	401.94
610.083	422.94
610.291	410.94
610.499	395.94
610.707	393.94
610.916	372.94
611.124	383.94
611.332	399.94
611.54	393.94
611.748	383.94
611.955	375.94
612.163	363.94
612.371	381.94
612.579	391.94
612.787	399.94
612.995	372.94
613.203	389.94
613.411	375.94
613.618	370.94
613.826	373.94
614.034	374.94
614.242	387.94
614.449	386.94
614.657	358.94
614.865	385.94
615.072	385.94
615.28	374.94
615.488	386.94
615.695	394.94
615.903	365.94
616.111	371.94
616.318	374.94
616.526	365.94
616.733	369.94
616.941	377.94
617.148	374.94
617.356	386.94
617.563	365.94
617.771	386.94
617.978	369.94
618.185	372.94
618.393	361.94
618.6	379.94
618.807	365.94
619.015	378.94
619.222	358.94
619.429	346.94
619.637	350.94
619.844	344.94
620.051	360.94
620.258	352.94
620.466	345.94
620.673	342.94
620.88	350.94
621.087	342.94
621.294	354.94
621.501	342.94
621.708	335.94
621.915	341.94
622.122	334.94
622.329	335.94
622.536	331.94
622.743	329.94
622.95	327.94
623.157	328.94
623.364	345.94
623.571	354.94
623.778	329.94
623.985	321.94
624.192	322.94
624.399	325.94
624.606	323.94
624.812	320.94
625.019	314.94
625.226	309.94
625.433	343.94
625.639	343.94
625.846	315.94
626.053	305.94
626.259	320.94
626.466	322.94
626.673	298.94
626.879	298.94
627.086	290.94
627.293	290.94
627.499	316.94
627.706	326.94
627.912	307.94
628.119	313.94
628.325	327.94
628.532	311.94
628.738	292.94
628.945	304.94
629.151	301.94
629.357	311.94
629.564	304.94
629.77	301.94
629.976	303.94
630.183	306.94
630.389	305.94
630.595	308.94
630.802	295.94
631.008	304.94
631.214	287.94
631.42	296.94
631.627	291.94
631.833	286.94
632.039	313.94
632.245	297.94
632.451	287.94
632.657	290.94
632.863	297.94
633.069	290.94
633.275	290.94
633.481	298.94
633.688	294.94
633.893	281.94
634.099	291.94
634.305	298.94
634.511	286.94
634.717	288.94
634.923	285.94
635.129	315.94
635.335	347.94
635.541	335.94
635.747	296.94
635.952	301.94
636.158	291.94
636.364	298.94
636.57	280.94
636.775	305.94
636.981	280.94
637.187	282.94
637.392	286.94
637.598	298.94
637.804	287.94
638.009	308.94
638.215	273.94
638.421	279.94
638.626	289.94
638.832	285.94
639.037	312.94
639.243	292.94
639.448	289.94
639.654	295.94
639.859	324.94
640.065	303.94
640.27	314.94
640.475	308.94
640.681	311.94
640.886	299.94
641.091	298.94
641.297	304.94
641.502	304.94
641.707	316.94
641.913	315.94
642.118	309.94
642.323	307.94
642.528	327.94
642.733	339.94
642.939	327.94
643.144	349.94
643.349	330.94
643.554	361.94
643.759	354.94
643.964	383.94
644.169	403.94
644.374	399.94
644.579	441.94
644.784	468.94
644.989	550.94
645.194	590.94
645.399	657.94
645.604	653.94
645.809	539.94
646.014	439.94
646.219	419.94
646.423	369.94
646.628	354.94
646.833	342.94
647.038	324.94
647.243	315.94
647.447	303.94
647.652	296.94
647.857	299.94
648.062	273.94
648.266	272.94
648.471	291.94
648.676	267.94
648.88	286.94
649.085	266.94
649.289	278.94
649.494	247.94
649.698	251.94
649.903	252.94
650.107	264.94
650.312	253.94
650.516	244.94
650.721	254.94
650.925	246.94
651.13	226.94
651.334	238.94
651.539	201.94
651.743	219.94
651.947	230.94
652.152	223.94
652.356	217.94
652.56	225.94
652.764	242.94
652.969	239.94
653.173	224.94
653.377	210.94
653.581	217.94
653.785	195.94
653.99	202.94
654.194	203.94
654.398	197.94
654.602	189.94
654.806	200.94
655.01	203.94
655.214	187.94
655.418	205.94
655.622	184.94
655.826	202.94
656.03	211.94
656.234	200.94
656.438	223.94
656.642	226.94
656.846	196.94
657.049	193.94
657.253	177.94
657.457	177.94
657.661	177.94
657.865	165.94
658.068	151.94
658.272	150.94
658.476	138.94
658.68	134.94
658.883	125.94
659.087	130.94
659.291	123.94
659.494	125.94
659.698	117.94
659.901	122.94
660.105	121.94
660.309	110.94
660.512	96.94
660.716	105.94
660.919	117.94
661.123	113.94
661.326	104.94
661.53	102.94
661.733	90.94
661.936	83.94
662.14	95.94
662.343	101.94
662.546	93.94
662.75	87.94
662.953	96.94
663.156	93.94
663.36	86.94
663.563	74.94
663.766	86.94
663.969	93.94
664.173	74.94
664.376	91.94
664.579	86.94
664.782	75.94
664.985	75.94
665.188	97.94
665.391	83.94
665.594	62.94
665.797	75.94
666	79.94
666.203	77.94
666.406	79.94
666.609	85.94
666.812	80.94
667.015	81.94
667.218	84.94
667.421	76.94
667.624	71.94
667.827	90.94
668.03	87.94
668.232	73.94
668.435	65.94
668.638	79.94
668.841	87.94
669.043	86.94
669.246	78.94
669.449	77.94
669.651	79.94
669.854	71.94
670.057	81.94
670.259	93.94
670.462	86.94
670.665	79.94
670.867	84.94
671.07	69.94
671.272	102.94
671.475	84.94
671.677	62.94
671.88	74.94
672.082	83.94
672.284	95.94
672.487	81.94
672.689	85.94
672.892	55.94
