Data from SnStandardFlinnAPT0064_LampEnergy5.5_LIBS07252019.E.O._I.C._HRD10591_15-17-42-493.txt Node
Date: Thu Jul 25 15:17:42 EDT 2019
User: cochatt
Spectrometer: HR+D1059
Trigger mode: 1
Integration Time (sec): 1.000000E-1
Scans to average: 1
Electric dark correction enabled: true
Nonlinearity correction enabled: false
Boxcar width: 0
XAxis mode: Wavelengths
Number of Pixels in Spectrum: 2048
>>>>>Begin Spectral Data<<<<<
223.165	-12.94
223.4	-12.94
223.635	-12.94
223.869	-8.94
224.104	-25.94
224.338	-17.94
224.573	-13.94
224.808	-0.94
225.042	-2.94
225.277	-3.94
225.511	-10.94
225.746	0.06
225.98	12.06
226.215	9.06
226.449	7.06
226.683	14.06
226.918	20.06
227.152	36.06
227.387	36.06
227.621	33.06
227.856	36.06
228.09	46.06
228.324	61.06
228.559	61.06
228.793	85.06
229.027	157.06
229.262	177.06
229.496	159.06
229.73	165.06
229.964	164.06
230.199	157.06
230.433	172.06
230.667	166.06
230.901	162.06
231.136	175.06
231.37	177.06
231.604	189.06
231.838	239.06
232.072	267.06
232.306	266.06
232.541	252.06
232.775	200.06
233.009	203.06
233.243	202.06
233.477	226.06
233.711	240.06
233.945	293.06
234.179	251.06
234.413	217.06
234.647	217.06
234.881	228.06
235.115	221.06
235.349	282.06
235.583	345.06
235.817	460.06
236.051	469.06
236.285	315.06
236.519	249.06
236.753	234.06
236.987	235.06
237.221	254.06
237.455	239.06
237.689	221.06
237.922	230.06
238.156	239.06
238.39	238.06
238.624	253.06
238.858	237.06
239.091	238.06
239.325	225.06
239.559	233.06
239.793	229.06
240.027	255.06
240.26	251.06
240.494	265.06
240.728	275.06
240.961	285.06
241.195	293.06
241.429	282.06
241.662	305.06
241.896	364.06
242.13	416.06
242.363	520.06
242.597	701.06
242.83	655.06
243.064	658.06
243.298	794.06
243.531	664.06
243.765	427.06
243.998	335.06
244.232	333.06
244.465	295.06
244.699	290.06
244.932	304.06
245.166	298.06
245.399	298.06
245.633	308.06
245.866	309.06
246.099	315.06
246.333	292.06
246.566	283.06
246.8	298.06
247.033	301.06
247.266	295.06
247.5	305.06
247.733	319.06
247.966	314.06
248.2	337.06
248.433	376.06
248.666	427.06
248.899	419.06
249.133	361.06
249.366	380.06
249.599	417.06
249.832	474.06
250.066	462.06
250.299	360.06
250.532	361.06
250.765	348.06
250.998	351.06
251.231	343.06
251.465	354.06
251.698	341.06
251.931	353.06
252.164	340.06
252.397	335.06
252.63	357.06
252.863	352.06
253.096	367.06
253.329	355.06
253.562	370.06
253.795	355.06
254.028	354.06
254.261	392.06
254.494	393.06
254.727	467.06
254.96	530.06
255.193	524.06
255.426	415.06
255.659	388.06
255.892	381.06
256.124	374.06
256.357	382.06
256.59	411.06
256.823	446.06
257.056	474.06
257.289	585.06
257.521	648.06
257.754	533.06
257.987	428.06
258.22	424.06
258.452	400.06
258.685	405.06
258.918	425.06
259.151	412.06
259.383	467.06
259.616	533.06
259.849	547.06
260.081	479.06
260.314	435.06
260.547	421.06
260.779	442.06
261.012	435.06
261.244	449.06
261.477	448.06
261.71	473.06
261.942	441.06
262.175	457.06
262.407	458.06
262.64	485.06
262.872	502.06
263.105	498.06
263.337	547.06
263.57	569.06
263.802	566.06
264.035	592.06
264.267	618.06
264.499	601.06
264.732	621.06
264.964	639.06
265.197	644.06
265.429	650.06
265.661	661.06
265.894	679.06
266.126	771.06
266.358	837.06
266.591	820.06
266.823	706.06
267.055	646.06
267.287	631.06
267.52	607.06
267.752	586.06
267.984	573.06
268.216	577.06
268.448	551.06
268.681	545.06
268.913	543.06
269.145	564.06
269.377	547.06
269.609	537.06
269.841	569.06
270.073	607.06
270.306	717.06
270.538	927.06
270.77	1399.06
271.002	1685.06
271.234	1145.06
271.466	759.06
271.698	641.06
271.93	600.06
272.162	591.06
272.394	580.06
272.626	553.06
272.858	541.06
273.09	535.06
273.322	541.06
273.553	527.06
273.785	549.06
274.017	524.06
274.249	531.06
274.481	551.06
274.713	521.06
274.945	535.06
275.176	538.06
275.408	530.06
275.64	547.06
275.872	537.06
276.104	553.06
276.335	557.06
276.567	567.06
276.799	579.06
277.031	592.06
277.262	578.06
277.494	586.06
277.726	657.06
277.957	766.06
278.189	869.06
278.421	817.06
278.652	705.06
278.884	698.06
279.115	641.06
279.347	583.06
279.579	580.06
279.81	600.06
280.042	607.06
280.273	609.06
280.505	620.06
280.736	625.06
280.968	681.06
281.199	748.06
281.431	852.06
281.662	863.06
281.894	744.06
282.125	661.06
282.356	683.06
282.588	732.06
282.819	720.06
283.051	749.06
283.282	834.06
283.513	1050.06
283.745	1508.06
283.976	2450.06
284.207	3552.06
284.439	3067.06
284.67	1805.06
284.901	1479.06
285.132	1447.06
285.364	1413.06
285.595	1103.06
285.826	995.06
286.057	1202.06
286.288	1636.06
286.52	2235.06
286.751	1995.06
286.982	1216.06
287.213	924.06
287.444	826.06
287.675	771.06
287.906	766.06
288.138	757.06
288.369	703.06
288.6	716.06
288.831	718.06
289.062	720.06
289.293	717.06
289.524	705.06
289.755	701.06
289.986	736.06
290.217	731.06
290.448	716.06
290.679	737.06
290.91	740.06
291.141	769.06
291.371	847.06
291.602	846.06
291.833	801.06
292.064	715.06
292.295	732.06
292.526	697.06
292.757	713.06
292.987	676.06
293.218	683.06
293.449	678.06
293.68	673.06
293.91	685.06
294.141	682.06
294.372	681.06
294.603	680.06
294.833	677.06
295.064	653.06
295.295	671.06
295.525	651.06
295.756	663.06
295.987	672.06
296.217	670.06
296.448	679.06
296.679	683.06
296.909	664.06
297.14	689.06
297.37	673.06
297.601	686.06
297.831	705.06
298.062	709.06
298.292	705.06
298.523	737.06
298.753	744.06
298.984	722.06
299.214	744.06
299.445	740.06
299.675	763.06
299.905	781.06
300.136	842.06
300.366	907.06
300.597	1146.06
300.827	1611.06
301.057	2211.06
301.288	2161.06
301.518	1357.06
301.748	1029.06
301.979	959.06
302.209	935.06
302.439	920.06
302.669	1029.06
302.9	1189.06
303.13	1745.06
303.36	2575.06
303.59	3535.06
303.82	2973.06
304.051	1693.06
304.281	1235.06
304.511	1015.06
304.741	939.06
304.971	900.06
305.201	887.06
305.431	825.06
305.661	808.06
305.891	800.06
306.121	784.06
306.352	798.06
306.582	785.06
306.812	775.06
307.042	773.06
307.272	799.06
307.502	766.06
307.731	783.06
307.961	759.06
308.191	779.06
308.421	804.06
308.651	787.06
308.881	775.06
309.111	766.06
309.341	768.06
309.571	792.06
309.8	791.06
310.03	805.06
310.26	827.06
310.49	798.06
310.72	811.06
310.949	800.06
311.179	821.06
311.409	810.06
311.639	793.06
311.868	809.06
312.098	831.06
312.328	840.06
312.557	844.06
312.787	844.06
313.017	847.06
313.246	861.06
313.476	831.06
313.706	879.06
313.935	939.06
314.165	983.06
314.394	1007.06
314.624	952.06
314.853	887.06
315.083	902.06
315.312	927.06
315.542	932.06
315.771	932.06
316.001	940.06
316.23	963.06
316.46	1013.06
316.689	1098.06
316.919	1328.06
317.148	1938.06
317.377	3007.06
317.607	4539.06
317.836	4713.06
318.065	2631.06
318.295	1616.06
318.524	1301.06
318.753	1169.06
318.983	1095.06
319.212	1056.06
319.441	1071.06
319.67	1004.06
319.9	992.06
320.129	979.06
320.358	995.06
320.587	963.06
320.816	982.06
321.046	991.06
321.275	998.06
321.504	1041.06
321.733	1015.06
321.962	1047.06
322.191	1036.06
322.42	1040.06
322.649	1035.06
322.878	1034.06
323.108	1024.06
323.337	1064.06
323.566	1049.06
323.795	1064.06
324.024	1100.06
324.253	1128.06
324.482	1140.06
324.71	1266.06
324.939	1331.06
325.168	1320.06
325.397	1399.06
325.626	1611.06
325.855	2305.06
326.084	3659.06
326.313	5599.06
326.542	5970.06
326.77	3572.06
326.999	2308.06
327.228	1911.06
327.457	1772.06
327.686	1835.06
327.914	1951.06
328.143	2243.06
328.372	2646.06
328.6	2891.06
328.829	2598.06
329.058	2291.06
329.287	2031.06
329.515	1828.06
329.744	1736.06
329.972	1630.06
330.201	1547.06
330.43	1484.06
330.658	1440.06
330.887	1452.06
331.115	1396.06
331.344	1411.06
331.572	1400.06
331.801	1375.06
332.03	1435.06
332.258	1461.06
332.486	1520.06
332.715	1772.06
332.943	2148.06
333.172	2662.06
333.4	2641.06
333.629	1992.06
333.857	1791.06
334.085	1770.06
334.314	1871.06
334.542	2049.06
334.771	2320.06
334.999	2788.06
335.227	3503.06
335.455	3819.06
335.684	3514.06
335.912	2938.06
336.14	2543.06
336.369	2281.06
336.597	2076.06
336.825	1963.06
337.053	1835.06
337.281	1663.06
337.51	1632.06
337.738	1608.06
337.966	1527.06
338.194	1479.06
338.422	1422.06
338.65	1358.06
338.878	1357.06
339.106	1324.06
339.334	1319.06
339.562	1295.06
339.79	1280.06
340.018	1287.06
340.246	1266.06
340.474	1252.06
340.702	1267.06
340.93	1235.06
341.158	1229.06
341.386	1239.06
341.614	1239.06
341.842	1214.06
342.07	1192.06
342.298	1194.06
342.526	1161.06
342.754	1173.06
342.981	1143.06
343.209	1173.06
343.437	1173.06
343.665	1216.06
343.893	1216.06
344.12	1186.06
344.348	1167.06
344.576	1159.06
344.804	1156.06
345.031	1082.06
345.259	1105.06
345.487	1103.06
345.714	1104.06
345.942	1070.06
346.17	1092.06
346.397	1092.06
346.625	1076.06
346.853	1091.06
347.08	1054.06
347.308	1075.06
347.535	1073.06
347.763	1082.06
347.99	1067.06
348.218	1075.06
348.445	1044.06
348.673	1042.06
348.9	1066.06
349.128	1064.06
349.355	1023.06
349.583	1052.06
349.81	1041.06
350.037	1025.06
350.265	1052.06
350.492	1048.06
350.72	1015.06
350.947	1031.06
351.174	1007.06
351.402	1043.06
351.629	1055.06
351.856	1036.06
352.083	1023.06
352.311	1011.06
352.538	1012.06
352.765	1021.06
352.992	1031.06
353.22	1041.06
353.447	1008.06
353.674	992.06
353.901	999.06
354.128	1036.06
354.355	1019.06
354.583	1041.06
354.81	1072.06
355.037	1036.06
355.264	1020.06
355.491	1051.06
355.718	1048.06
355.945	1062.06
356.172	1047.06
356.399	1062.06
356.626	1040.06
356.853	1062.06
357.08	1061.06
357.307	1086.06
357.534	1084.06
357.761	1098.06
357.988	1118.06
358.215	1067.06
358.441	1080.06
358.668	1069.06
358.895	1097.06
359.122	1077.06
359.349	1092.06
359.576	1084.06
359.802	1099.06
360.029	1065.06
360.256	1073.06
360.483	1077.06
360.709	1100.06
360.936	1086.06
361.163	1099.06
361.39	1108.06
361.616	1097.06
361.843	1105.06
362.07	1128.06
362.296	1101.06
362.523	1086.06
362.749	1081.06
362.976	1091.06
363.203	1095.06
363.429	1063.06
363.656	1094.06
363.882	1094.06
364.109	1086.06
364.335	1094.06
364.562	1092.06
364.788	1078.06
365.015	1089.06
365.241	1134.06
365.468	1152.06
365.694	1196.06
365.92	1171.06
366.147	1132.06
366.373	1137.06
366.599	1131.06
366.826	1100.06
367.052	1081.06
367.278	1124.06
367.505	1115.06
367.731	1075.06
367.957	1105.06
368.184	1121.06
368.41	1142.06
368.636	1138.06
368.862	1146.06
369.089	1136.06
369.315	1133.06
369.541	1153.06
369.767	1136.06
369.993	1103.06
370.219	1105.06
370.445	1137.06
370.672	1127.06
370.898	1145.06
371.124	1145.06
371.35	1158.06
371.576	1151.06
371.802	1171.06
372.028	1150.06
372.254	1169.06
372.48	1154.06
372.706	1169.06
372.932	1207.06
373.158	1181.06
373.384	1194.06
373.61	1201.06
373.835	1208.06
374.061	1168.06
374.287	1196.06
374.513	1181.06
374.739	1205.06
374.965	1243.06
375.191	1254.06
375.416	1213.06
375.642	1211.06
375.868	1192.06
376.094	1199.06
376.319	1197.06
376.545	1197.06
376.771	1201.06
376.997	1161.06
377.222	1153.06
377.448	1151.06
377.674	1157.06
377.899	1141.06
378.125	1138.06
378.35	1166.06
378.576	1192.06
378.802	1167.06
379.027	1211.06
379.253	1234.06
379.478	1294.06
379.704	1511.06
379.929	2152.06
380.155	3332.06
380.38	3607.06
380.606	2103.06
380.831	1524.06
381.057	1316.06
381.282	1233.06
381.507	1212.06
381.733	1210.06
381.958	1195.06
382.184	1159.06
382.409	1179.06
382.634	1139.06
382.86	1138.06
383.085	1160.06
383.31	1193.06
383.535	1170.06
383.761	1175.06
383.986	1139.06
384.211	1177.06
384.436	1188.06
384.662	1173.06
384.887	1204.06
385.112	1184.06
385.337	1209.06
385.562	1205.06
385.787	1237.06
386.013	1205.06
386.238	1220.06
386.463	1200.06
386.688	1217.06
386.913	1215.06
387.138	1175.06
387.363	1218.06
387.588	1201.06
387.813	1195.06
388.038	1196.06
388.263	1213.06
388.488	1215.06
388.713	1172.06
388.938	1199.06
389.163	1205.06
389.387	1221.06
389.612	1162.06
389.837	1196.06
390.062	1199.06
390.287	1219.06
390.512	1172.06
390.736	1213.06
390.961	1250.06
391.186	1226.06
391.411	1242.06
391.636	1268.06
391.86	1245.06
392.085	1285.06
392.31	1256.06
392.534	1238.06
392.759	1215.06
392.984	1224.06
393.208	1229.06
393.433	1227.06
393.658	1234.06
393.882	1205.06
394.107	1215.06
394.331	1242.06
394.556	1187.06
394.78	1233.06
395.005	1241.06
395.229	1226.06
395.454	1253.06
395.678	1239.06
395.903	1250.06
396.127	1248.06
396.352	1236.06
396.576	1232.06
396.801	1224.06
397.025	1248.06
397.249	1235.06
397.474	1266.06
397.698	1276.06
397.922	1293.06
398.147	1279.06
398.371	1280.06
398.595	1283.06
398.82	1334.06
399.044	1378.06
399.268	1460.06
399.492	1542.06
399.717	1591.06
399.941	1584.06
400.165	1516.06
400.389	1494.06
400.613	1438.06
400.837	1372.06
401.062	1363.06
401.286	1355.06
401.51	1335.06
401.734	1324.06
401.958	1335.06
402.182	1317.06
402.406	1343.06
402.63	1339.06
402.854	1314.06
403.078	1337.06
403.302	1341.06
403.526	1358.06
403.75	1371.06
403.974	1386.06
404.198	1357.06
404.422	1395.06
404.645	1376.06
404.869	1359.06
405.093	1394.06
405.317	1343.06
405.541	1391.06
405.765	1401.06
405.988	1386.06
406.212	1383.06
406.436	1363.06
406.66	1422.06
406.883	1413.06
407.107	1443.06
407.331	1424.06
407.555	1496.06
407.778	1465.06
408.002	1451.06
408.226	1487.06
408.449	1425.06
408.673	1401.06
408.896	1413.06
409.12	1395.06
409.344	1386.06
409.567	1341.06
409.791	1334.06
410.014	1366.06
410.238	1363.06
410.461	1382.06
410.685	1354.06
410.908	1336.06
411.132	1343.06
411.355	1316.06
411.578	1333.06
411.802	1327.06
412.025	1320.06
412.249	1313.06
412.472	1326.06
412.695	1310.06
412.919	1303.06
413.142	1284.06
413.365	1308.06
413.589	1284.06
413.812	1316.06
414.035	1330.06
414.258	1302.06
414.482	1290.06
414.705	1271.06
414.928	1311.06
415.151	1283.06
415.374	1300.06
415.597	1279.06
415.821	1259.06
416.044	1260.06
416.267	1255.06
416.49	1261.06
416.713	1236.06
416.936	1249.06
417.159	1235.06
417.382	1241.06
417.605	1214.06
417.828	1224.06
418.051	1268.06
418.274	1272.06
418.497	1236.06
418.72	1294.06
418.943	1268.06
419.166	1285.06
419.389	1397.06
419.611	1357.06
419.834	1331.06
420.057	1302.06
420.28	1250.06
420.503	1274.06
420.726	1256.06
420.948	1260.06
421.171	1248.06
421.394	1236.06
421.617	1260.06
421.839	1270.06
422.062	1257.06
422.285	1226.06
422.507	1297.06
422.73	1253.06
422.953	1322.06
423.175	1315.06
423.398	1333.06
423.621	1263.06
423.843	1246.06
424.066	1251.06
424.288	1246.06
424.511	1229.06
424.733	1267.06
424.956	1248.06
425.178	1233.06
425.401	1233.06
425.623	1237.06
425.846	1200.06
426.068	1215.06
426.291	1184.06
426.513	1184.06
426.735	1206.06
426.958	1195.06
427.18	1204.06
427.402	1199.06
427.625	1190.06
427.847	1156.06
428.069	1183.06
428.292	1155.06
428.514	1140.06
428.736	1141.06
428.958	1188.06
429.181	1128.06
429.403	1137.06
429.625	1153.06
429.847	1152.06
430.069	1192.06
430.292	1216.06
430.514	1241.06
430.736	1230.06
430.958	1164.06
431.18	1173.06
431.402	1165.06
431.624	1132.06
431.846	1131.06
432.068	1140.06
432.29	1143.06
432.512	1126.06
432.734	1159.06
432.956	1162.06
433.178	1163.06
433.4	1139.06
433.622	1187.06
433.844	1161.06
434.066	1152.06
434.287	1155.06
434.509	1117.06
434.731	1153.06
434.953	1173.06
435.175	1176.06
435.397	1198.06
435.618	1196.06
435.84	1159.06
436.062	1144.06
436.284	1175.06
436.505	1144.06
436.727	1143.06
436.949	1123.06
437.17	1145.06
437.392	1115.06
437.614	1112.06
437.835	1108.06
438.057	1109.06
438.278	1109.06
438.5	1116.06
438.721	1148.06
438.943	1156.06
439.165	1210.06
439.386	1209.06
439.608	1187.06
439.829	1201.06
440.05	1241.06
440.272	1240.06
440.493	1190.06
440.715	1184.06
440.936	1198.06
441.158	1212.06
441.379	1229.06
441.6	1258.06
441.822	1249.06
442.043	1347.06
442.264	1389.06
442.486	1291.06
442.707	1265.06
442.928	1220.06
443.149	1228.06
443.371	1236.06
443.592	1223.06
443.813	1260.06
444.034	1255.06
444.255	1310.06
444.476	1326.06
444.698	1317.06
444.919	1321.06
445.14	1360.06
445.361	1331.06
445.582	1272.06
445.803	1221.06
446.024	1207.06
446.245	1276.06
446.466	1207.06
446.687	1238.06
446.908	1221.06
447.129	1203.06
447.35	1168.06
447.571	1149.06
447.792	1144.06
448.013	1137.06
448.234	1140.06
448.455	1128.06
448.675	1143.06
448.896	1188.06
449.117	1206.06
449.338	1299.06
449.559	1361.06
449.779	1228.06
450	1167.06
450.221	1104.06
450.442	1128.06
450.662	1149.06
450.883	1150.06
451.104	1111.06
451.324	1087.06
451.545	1106.06
451.766	1111.06
451.986	1100.06
452.207	1225.06
452.428	1495.06
452.648	2138.06
452.869	1827.06
453.089	1306.06
453.31	1237.06
453.53	1228.06
453.751	1255.06
453.971	1342.06
454.192	1360.06
454.412	1143.06
454.633	1096.06
454.853	1073.06
455.073	1086.06
455.294	1093.06
455.514	1053.06
455.734	1037.06
455.955	1077.06
456.175	1075.06
456.395	1045.06
456.616	1079.06
456.836	1092.06
457.056	1097.06
457.276	1081.06
457.497	1108.06
457.717	1135.06
457.937	1119.06
458.157	1136.06
458.377	1101.06
458.598	1109.06
458.818	1139.06
459.038	1083.06
459.258	1122.06
459.478	1142.06
459.698	1161.06
459.918	1175.06
460.138	1190.06
460.358	1222.06
460.578	1217.06
460.798	1252.06
461.018	1242.06
461.238	1245.06
461.458	1285.06
461.678	1245.06
461.898	1288.06
462.118	1284.06
462.338	1319.06
462.558	1335.06
462.777	1339.06
462.997	1403.06
463.217	1467.06
463.437	1472.06
463.657	1547.06
463.876	1513.06
464.096	1433.06
464.316	1381.06
464.536	1380.06
464.755	1339.06
464.975	1268.06
465.195	1232.06
465.414	1243.06
465.634	1204.06
465.854	1192.06
466.073	1160.06
466.293	1164.06
466.512	1156.06
466.732	1194.06
466.951	1204.06
467.171	1312.06
467.391	1305.06
467.61	1203.06
467.829	1149.06
468.049	1162.06
468.268	1117.06
468.488	1142.06
468.707	1110.06
468.927	1144.06
469.146	1133.06
469.365	1143.06
469.585	1169.06
469.804	1158.06
470.023	1175.06
470.243	1178.06
470.462	1241.06
470.681	1308.06
470.901	1421.06
471.12	1628.06
471.339	1701.06
471.558	1375.06
471.777	1251.06
471.997	1183.06
472.216	1159.06
472.435	1149.06
472.654	1132.06
472.873	1091.06
473.092	1135.06
473.311	1117.06
473.53	1143.06
473.749	1177.06
473.968	1183.06
474.187	1159.06
474.406	1115.06
474.625	1139.06
474.844	1132.06
475.063	1141.06
475.282	1121.06
475.501	1123.06
475.72	1165.06
475.939	1167.06
476.158	1145.06
476.377	1194.06
476.596	1212.06
476.814	1177.06
477.033	1179.06
477.252	1220.06
477.471	1197.06
477.69	1246.06
477.908	1279.06
478.127	1322.06
478.346	1287.06
478.564	1315.06
478.783	1320.06
479.002	1350.06
479.22	1344.06
479.439	1338.06
479.658	1332.06
479.876	1347.06
480.095	1349.06
480.313	1390.06
480.532	1388.06
480.751	1393.06
480.969	1363.06
481.188	1356.06
481.406	1352.06
481.624	1323.06
481.843	1351.06
482.061	1370.06
482.28	1352.06
482.498	1335.06
482.717	1338.06
482.935	1382.06
483.153	1377.06
483.372	1395.06
483.59	1417.06
483.808	1428.06
484.027	1452.06
484.245	1536.06
484.463	1739.06
484.681	2000.06
484.9	1740.06
485.118	1620.06
485.336	1560.06
485.554	1580.06
485.772	1675.06
485.99	1949.06
486.209	2098.06
486.427	1778.06
486.645	1556.06
486.863	1516.06
487.081	1448.06
487.299	1430.06
487.517	1429.06
487.735	1453.06
487.953	1487.06
488.171	1451.06
488.389	1446.06
488.607	1441.06
488.825	1419.06
489.043	1411.06
489.261	1386.06
489.479	1385.06
489.696	1384.06
489.914	1408.06
490.132	1451.06
490.35	1430.06
490.568	1435.06
490.786	1451.06
491.003	1456.06
491.221	1490.06
491.439	1495.06
491.657	1507.06
491.874	1521.06
492.092	1525.06
492.31	1540.06
492.527	1545.06
492.745	1556.06
492.963	1508.06
493.18	1543.06
493.398	1516.06
493.615	1491.06
493.833	1479.06
494.05	1486.06
494.268	1491.06
494.485	1476.06
494.703	1499.06
494.92	1515.06
495.138	1503.06
495.355	1504.06
495.573	1486.06
495.79	1555.06
496.008	1527.06
496.225	1501.06
496.442	1531.06
496.66	1587.06
496.877	1660.06
497.094	1673.06
497.312	1564.06
497.529	1617.06
497.746	1641.06
497.963	1637.06
498.181	1630.06
498.398	1671.06
498.615	1764.06
498.832	1817.06
499.049	1887.06
499.267	2057.06
499.484	2196.06
499.701	2183.06
499.918	2193.06
500.135	2346.06
500.352	2479.06
500.569	2505.06
500.786	2495.06
501.003	2433.06
501.22	2271.06
501.437	2140.06
501.654	2067.06
501.871	1984.06
502.088	1872.06
502.305	1830.06
502.522	1768.06
502.739	1713.06
502.956	1657.06
503.172	1644.06
503.389	1567.06
503.606	1591.06
503.823	1549.06
504.04	1515.06
504.256	1568.06
504.473	1519.06
504.69	1523.06
504.907	1535.06
505.123	1477.06
505.34	1430.06
505.557	1443.06
505.773	1389.06
505.99	1387.06
506.207	1370.06
506.423	1352.06
506.64	1338.06
506.856	1318.06
507.073	1361.06
507.289	1336.06
507.506	1318.06
507.722	1305.06
507.939	1308.06
508.155	1272.06
508.372	1300.06
508.588	1265.06
508.805	1311.06
509.021	1284.06
509.238	1299.06
509.454	1339.06
509.67	1410.06
509.887	1317.06
510.103	1273.06
510.319	1246.06
510.536	1245.06
510.752	1259.06
510.968	1234.06
511.184	1220.06
511.401	1248.06
511.617	1203.06
511.833	1216.06
512.049	1225.06
512.265	1199.06
512.481	1229.06
512.698	1221.06
512.914	1243.06
513.13	1189.06
513.346	1196.06
513.562	1229.06
513.778	1238.06
513.994	1263.06
514.21	1271.06
514.426	1306.06
514.642	1408.06
514.858	1291.06
515.074	1243.06
515.29	1280.06
515.506	1290.06
515.721	1233.06
515.937	1252.06
516.153	1259.06
516.369	1290.06
516.585	1284.06
516.801	1301.06
517.016	1301.06
517.232	1335.06
517.448	1361.06
517.664	1383.06
517.879	1365.06
518.095	1366.06
518.311	1377.06
518.527	1373.06
518.742	1323.06
518.958	1355.06
519.173	1380.06
519.389	1358.06
519.605	1272.06
519.82	1260.06
520.036	1252.06
520.251	1259.06
520.467	1230.06
520.682	1241.06
520.898	1205.06
521.113	1178.06
521.329	1199.06
521.544	1204.06
521.76	1177.06
521.975	1210.06
522.19	1209.06
522.406	1188.06
522.621	1171.06
522.836	1140.06
523.052	1166.06
523.267	1167.06
523.482	1172.06
523.698	1160.06
523.913	1165.06
524.128	1195.06
524.343	1213.06
524.559	1173.06
524.774	1203.06
524.989	1192.06
525.204	1165.06
525.419	1168.06
525.634	1196.06
525.849	1165.06
526.064	1188.06
526.28	1197.06
526.495	1140.06
526.71	1151.06
526.925	1191.06
527.14	1189.06
527.355	1207.06
527.57	1168.06
527.785	1191.06
527.999	1170.06
528.214	1236.06
528.429	1231.06
528.644	1209.06
528.859	1234.06
529.074	1235.06
529.289	1306.06
529.503	1275.06
529.718	1241.06
529.933	1241.06
530.148	1200.06
530.363	1268.06
530.577	1238.06
530.792	1251.06
531.007	1242.06
531.221	1239.06
531.436	1247.06
531.651	1295.06
531.865	1275.06
532.08	1312.06
532.295	1319.06
532.509	1393.06
532.724	1415.06
532.938	1414.06
533.153	1455.06
533.367	1523.06
533.582	1607.06
533.796	1627.06
534.011	1558.06
534.225	1479.06
534.44	1425.06
534.654	1423.06
534.868	1384.06
535.083	1407.06
535.297	1362.06
535.511	1313.06
535.726	1321.06
535.94	1317.06
536.154	1292.06
536.369	1269.06
536.583	1219.06
536.797	1255.06
537.011	1227.06
537.225	1220.06
537.44	1191.06
537.654	1174.06
537.868	1174.06
538.082	1201.06
538.296	1180.06
538.51	1181.06
538.724	1165.06
538.938	1159.06
539.153	1164.06
539.367	1153.06
539.581	1169.06
539.795	1132.06
540.009	1135.06
540.222	1107.06
540.436	1116.06
540.65	1124.06
540.864	1142.06
541.078	1166.06
541.292	1250.06
541.506	1513.06
541.72	1576.06
541.934	1377.06
542.147	1287.06
542.361	1248.06
542.575	1183.06
542.789	1148.06
543.002	1129.06
543.216	1121.06
543.43	1108.06
543.644	1114.06
543.857	1123.06
544.071	1148.06
544.285	1145.06
544.498	1105.06
544.712	1129.06
544.925	1130.06
545.139	1165.06
545.352	1128.06
545.566	1153.06
545.779	1161.06
545.993	1165.06
546.206	1160.06
546.42	1141.06
546.633	1167.06
546.847	1144.06
547.06	1159.06
547.274	1188.06
547.487	1153.06
547.7	1160.06
547.914	1163.06
548.127	1118.06
548.34	1140.06
548.554	1127.06
548.767	1115.06
548.98	1130.06
549.193	1164.06
549.407	1153.06
549.62	1171.06
549.833	1175.06
550.046	1139.06
550.259	1159.06
550.473	1144.06
550.686	1154.06
550.899	1158.06
551.112	1163.06
551.325	1157.06
551.538	1136.06
551.751	1111.06
551.964	1107.06
552.177	1164.06
552.39	1173.06
552.603	1189.06
552.816	1170.06
553.029	1211.06
553.242	1226.06
553.455	1240.06
553.667	1230.06
553.88	1256.06
554.093	1256.06
554.306	1260.06
554.519	1248.06
554.732	1303.06
554.944	1309.06
555.157	1315.06
555.37	1353.06
555.583	1378.06
555.795	1407.06
556.008	1525.06
556.221	1659.06
556.433	1744.06
556.646	1733.06
556.859	1698.06
557.071	1619.06
557.284	1633.06
557.496	1568.06
557.709	1524.06
557.921	1508.06
558.134	1554.06
558.346	1546.06
558.559	1608.06
558.771	1700.06
558.984	1831.06
559.196	1887.06
559.409	1829.06
559.621	1703.06
559.833	1600.06
560.046	1524.06
560.258	1473.06
560.47	1432.06
560.683	1416.06
560.895	1337.06
561.107	1279.06
561.32	1260.06
561.532	1225.06
561.744	1219.06
561.956	1195.06
562.168	1204.06
562.381	1188.06
562.593	1135.06
562.805	1156.06
563.017	1157.06
563.229	1170.06
563.441	1325.06
563.653	1165.06
563.865	1081.06
564.077	1057.06
564.289	1062.06
564.501	1043.06
564.713	1043.06
564.925	1039.06
565.137	1057.06
565.349	1059.06
565.561	1017.06
565.773	1056.06
565.985	1076.06
566.197	1060.06
566.408	1098.06
566.62	1135.06
566.832	1169.06
567.044	1145.06
567.255	1168.06
567.467	1181.06
567.679	1175.06
567.891	1265.06
568.102	1407.06
568.314	1696.06
568.526	1371.06
568.737	1186.06
568.949	1110.06
569.161	1044.06
569.372	991.06
569.584	964.06
569.795	928.06
570.007	949.06
570.218	938.06
570.43	1020.06
570.641	931.06
570.853	859.06
571.064	873.06
571.276	875.06
571.487	875.06
571.698	841.06
571.91	850.06
572.121	842.06
572.333	838.06
572.544	839.06
572.755	879.06
572.966	1040.06
573.178	952.06
573.389	828.06
573.6	818.06
573.811	820.06
574.023	786.06
574.234	780.06
574.445	789.06
574.656	793.06
574.867	778.06
575.078	756.06
575.289	787.06
575.501	757.06
575.712	752.06
575.923	752.06
576.134	779.06
576.345	771.06
576.556	751.06
576.767	766.06
576.978	768.06
577.188	790.06
577.399	770.06
577.61	761.06
577.821	777.06
578.032	786.06
578.243	804.06
578.454	831.06
578.665	792.06
578.875	817.06
579.086	864.06
579.297	879.06
579.508	931.06
579.718	998.06
579.929	1141.06
580.14	1263.06
580.35	1323.06
580.561	1203.06
580.772	1129.06
580.982	1069.06
581.193	1011.06
581.403	953.06
581.614	913.06
581.825	873.06
582.035	840.06
582.246	812.06
582.456	791.06
582.667	794.06
582.877	787.06
583.087	779.06
583.298	725.06
583.508	712.06
583.719	708.06
583.929	693.06
584.139	693.06
584.35	675.06
584.56	678.06
584.77	661.06
584.981	651.06
585.191	649.06
585.401	640.06
585.611	640.06
585.821	625.06
586.032	634.06
586.242	603.06
586.452	601.06
586.662	596.06
586.872	614.06
587.082	605.06
587.292	567.06
587.502	572.06
587.713	573.06
587.923	572.06
588.133	563.06
588.343	579.06
588.553	553.06
588.762	565.06
588.972	569.06
589.182	563.06
589.392	595.06
589.602	548.06
589.812	569.06
590.022	555.06
590.232	547.06
590.441	553.06
590.651	558.06
590.861	556.06
591.071	538.06
591.281	549.06
591.49	544.06
591.7	544.06
591.91	564.06
592.119	553.06
592.329	552.06
592.539	557.06
592.748	564.06
592.958	559.06
593.167	559.06
593.377	560.06
593.587	584.06
593.796	579.06
594.006	571.06
594.215	582.06
594.424	584.06
594.634	565.06
594.843	564.06
595.053	551.06
595.262	531.06
595.472	545.06
595.681	526.06
595.89	508.06
596.1	502.06
596.309	511.06
596.518	495.06
596.727	497.06
596.937	486.06
597.146	487.06
597.355	475.06
597.564	488.06
597.774	488.06
597.983	478.06
598.192	469.06
598.401	460.06
598.61	453.06
598.819	473.06
599.028	467.06
599.237	467.06
599.446	466.06
599.655	457.06
599.864	457.06
600.073	439.06
600.282	454.06
600.491	457.06
600.7	454.06
600.909	456.06
601.118	450.06
601.327	456.06
601.536	446.06
601.745	463.06
601.953	532.06
602.162	579.06
602.371	501.06
602.58	460.06
602.789	445.06
602.997	453.06
603.206	452.06
603.415	472.06
603.623	437.06
603.832	449.06
604.041	433.06
604.249	434.06
604.458	428.06
604.666	411.06
604.875	410.06
605.084	430.06
605.292	439.06
605.501	441.06
605.709	446.06
605.918	439.06
606.126	450.06
606.334	460.06
606.543	455.06
606.751	459.06
606.96	537.06
607.168	602.06
607.376	515.06
607.585	465.06
607.793	456.06
608.001	422.06
608.21	436.06
608.418	442.06
608.626	425.06
608.834	418.06
609.043	435.06
609.251	415.06
609.459	418.06
609.667	423.06
609.875	422.06
610.083	426.06
610.291	438.06
610.499	415.06
610.707	399.06
610.916	402.06
611.124	408.06
611.332	421.06
611.54	409.06
611.748	383.06
611.955	411.06
612.163	388.06
612.371	394.06
612.579	404.06
612.787	432.06
612.995	420.06
613.203	390.06
613.411	407.06
613.618	385.06
613.826	419.06
614.034	389.06
614.242	403.06
614.449	401.06
614.657	393.06
614.865	421.06
615.072	398.06
615.28	410.06
615.488	403.06
615.695	401.06
615.903	402.06
616.111	405.06
616.318	419.06
616.526	415.06
616.733	403.06
616.941	400.06
617.148	396.06
617.356	407.06
617.563	387.06
617.771	400.06
617.978	367.06
618.185	356.06
618.393	388.06
618.6	375.06
618.807	382.06
619.015	377.06
619.222	365.06
619.429	371.06
619.637	377.06
619.844	363.06
620.051	357.06
620.258	373.06
620.466	351.06
620.673	375.06
620.88	357.06
621.087	345.06
621.294	339.06
621.501	351.06
621.708	343.06
621.915	376.06
622.122	363.06
622.329	365.06
622.536	367.06
622.743	351.06
622.95	367.06
623.157	353.06
623.364	355.06
623.571	339.06
623.778	346.06
623.985	377.06
624.192	347.06
624.399	334.06
624.606	362.06
624.812	351.06
625.019	349.06
625.226	341.06
625.433	333.06
625.639	329.06
625.846	339.06
626.053	317.06
626.259	317.06
626.466	324.06
626.673	329.06
626.879	322.06
627.086	336.06
627.293	337.06
627.499	339.06
627.706	323.06
627.912	333.06
628.119	335.06
628.325	347.06
628.532	320.06
628.738	314.06
628.945	323.06
629.151	313.06
629.357	331.06
629.564	296.06
629.77	329.06
629.976	311.06
630.183	295.06
630.389	320.06
630.595	317.06
630.802	316.06
631.008	319.06
631.214	336.06
631.42	305.06
631.627	308.06
631.833	308.06
632.039	312.06
632.245	299.06
632.451	329.06
632.657	327.06
632.863	308.06
633.069	299.06
633.275	305.06
633.481	299.06
633.688	309.06
633.893	296.06
634.099	305.06
634.305	306.06
634.511	307.06
634.717	319.06
634.923	304.06
635.129	338.06
635.335	395.06
635.541	343.06
635.747	317.06
635.952	310.06
636.158	290.06
636.364	306.06
636.57	302.06
636.775	306.06
636.981	310.06
637.187	295.06
637.392	304.06
637.598	308.06
637.804	325.06
638.009	308.06
638.215	322.06
638.421	304.06
638.626	298.06
638.832	307.06
639.037	311.06
639.243	316.06
639.448	290.06
639.654	307.06
639.859	299.06
640.065	307.06
640.27	311.06
640.475	327.06
640.681	320.06
640.886	320.06
641.091	308.06
641.297	320.06
641.502	301.06
641.707	342.06
641.913	327.06
642.118	344.06
642.323	339.06
642.528	347.06
642.733	348.06
642.939	346.06
643.144	358.06
643.349	355.06
643.554	390.06
643.759	407.06
643.964	400.06
644.169	411.06
644.374	437.06
644.579	479.06
644.784	526.06
644.989	586.06
645.194	652.06
645.399	778.06
645.604	824.06
645.809	645.06
646.014	513.06
646.219	442.06
646.423	405.06
646.628	384.06
646.833	362.06
647.038	344.06
647.243	337.06
647.447	327.06
647.652	318.06
647.857	307.06
648.062	297.06
648.266	292.06
648.471	306.06
648.676	288.06
648.88	272.06
649.085	277.06
649.289	294.06
649.494	269.06
649.698	279.06
649.903	250.06
650.107	273.06
650.312	259.06
650.516	245.06
650.721	259.06
650.925	236.06
651.13	224.06
651.334	233.06
651.539	251.06
651.743	232.06
651.947	239.06
652.152	229.06
652.356	246.06
652.56	256.06
652.764	293.06
652.969	264.06
653.173	247.06
653.377	228.06
653.581	227.06
653.785	225.06
653.99	205.06
654.194	208.06
654.398	195.06
654.602	197.06
654.806	224.06
655.01	191.06
655.214	193.06
655.418	198.06
655.622	208.06
655.826	195.06
656.03	209.06
656.234	214.06
656.438	240.06
656.642	228.06
656.846	203.06
657.049	205.06
657.253	191.06
657.457	180.06
657.661	166.06
657.865	169.06
658.068	160.06
658.272	155.06
658.476	157.06
658.68	140.06
658.883	145.06
659.087	139.06
659.291	128.06
659.494	123.06
659.698	111.06
659.901	137.06
660.105	125.06
660.309	108.06
660.512	127.06
660.716	121.06
660.919	103.06
661.123	108.06
661.326	113.06
661.53	95.06
661.733	105.06
661.936	102.06
662.14	103.06
662.343	99.06
662.546	101.06
662.75	75.06
662.953	87.06
663.156	87.06
663.36	82.06
663.563	83.06
663.766	95.06
663.969	86.06
664.173	96.06
664.376	84.06
664.579	82.06
664.782	89.06
664.985	81.06
665.188	89.06
665.391	83.06
665.594	90.06
665.797	89.06
666	88.06
666.203	74.06
666.406	71.06
666.609	79.06
666.812	74.06
667.015	79.06
667.218	79.06
667.421	72.06
667.624	86.06
667.827	94.06
668.03	81.06
668.232	72.06
668.435	95.06
668.638	81.06
668.841	99.06
669.043	91.06
669.246	95.06
669.449	74.06
669.651	92.06
669.854	95.06
670.057	91.06
670.259	75.06
670.462	85.06
670.665	90.06
670.867	77.06
671.07	82.06
671.272	89.06
671.475	90.06
671.677	83.06
671.88	81.06
672.082	90.06
672.284	87.06
672.487	80.06
672.689	96.06
672.892	77.06
