Data from SnStandardFlinnAPT0064_LampEnergy10_LIBS07252019.E.O._I.C._HRD10591_15-19-26-493.txt Node
Date: Thu Jul 25 15:19:26 EDT 2019
User: cochatt
Spectrometer: HR+D1059
Trigger mode: 1
Integration Time (sec): 1.000000E-1
Scans to average: 1
Electric dark correction enabled: true
Nonlinearity correction enabled: false
Boxcar width: 0
XAxis mode: Wavelengths
Number of Pixels in Spectrum: 2048
>>>>>Begin Spectral Data<<<<<
223.165	-29.25
223.4	-29.25
223.635	-29.25
223.869	-21.25
224.104	-19.25
224.338	-15.25
224.573	-23.25
224.808	-2.25
225.042	-0.25
225.277	1.75
225.511	5.75
225.746	-2.25
225.98	1.75
226.215	5.75
226.449	23.75
226.683	13.75
226.918	22.75
227.152	37.75
227.387	39.75
227.621	33.75
227.856	53.75
228.09	47.75
228.324	56.75
228.559	48.75
228.793	130.75
229.027	336.75
229.262	341.75
229.496	311.75
229.73	306.75
229.964	291.75
230.199	288.75
230.433	338.75
230.667	331.75
230.901	328.75
231.136	346.75
231.37	377.75
231.604	388.75
231.838	452.75
232.072	539.75
232.306	577.75
232.541	502.75
232.775	424.75
233.009	437.75
233.243	447.75
233.477	484.75
233.711	550.75
233.945	630.75
234.179	557.75
234.413	482.75
234.647	482.75
234.881	500.75
235.115	536.75
235.349	641.75
235.583	826.75
235.817	1070.75
236.051	1057.75
236.285	704.75
236.519	558.75
236.753	522.75
236.987	510.75
237.221	560.75
237.455	526.75
237.689	473.75
237.922	481.75
238.156	476.75
238.39	506.75
238.624	516.75
238.858	518.75
239.091	483.75
239.325	511.75
239.559	512.75
239.793	521.75
240.027	555.75
240.26	577.75
240.494	558.75
240.728	617.75
240.961	644.75
241.195	678.75
241.429	725.75
241.662	740.75
241.896	823.75
242.13	1026.75
242.363	1316.75
242.597	1739.75
242.83	1651.75
243.064	1647.75
243.298	1933.75
243.531	1608.75
243.765	1013.75
243.998	796.75
244.232	751.75
244.465	697.75
244.699	676.75
244.932	670.75
245.166	686.75
245.399	690.75
245.633	724.75
245.866	708.75
246.099	669.75
246.333	642.75
246.566	651.75
246.8	637.75
247.033	651.75
247.266	648.75
247.5	677.75
247.733	682.75
247.966	735.75
248.2	779.75
248.433	920.75
248.666	1035.75
248.899	967.75
249.133	884.75
249.366	891.75
249.599	1030.75
249.832	1144.75
250.066	1120.75
250.299	882.75
250.532	796.75
250.765	766.75
250.998	747.75
251.231	720.75
251.465	731.75
251.698	729.75
251.931	747.75
252.164	733.75
252.397	758.75
252.63	799.75
252.863	817.75
253.096	817.75
253.329	812.75
253.562	788.75
253.795	794.75
254.028	790.75
254.261	822.75
254.494	904.75
254.727	1030.75
254.96	1297.75
255.193	1282.75
255.426	996.75
255.659	903.75
255.892	884.75
256.124	908.75
256.357	884.75
256.59	924.75
256.823	994.75
257.056	1178.75
257.289	1388.75
257.521	1545.75
257.754	1239.75
257.987	995.75
258.22	933.75
258.452	906.75
258.685	931.75
258.918	986.75
259.151	1032.75
259.383	1111.75
259.616	1282.75
259.849	1314.75
260.081	1108.75
260.314	996.75
260.547	967.75
260.779	962.75
261.012	948.75
261.244	956.75
261.477	991.75
261.71	996.75
261.942	1008.75
262.175	992.75
262.407	1030.75
262.64	1008.75
262.872	1083.75
263.105	1097.75
263.337	1176.75
263.57	1240.75
263.802	1263.75
264.035	1269.75
264.267	1305.75
264.499	1363.75
264.732	1360.75
264.964	1393.75
265.197	1356.75
265.429	1407.75
265.661	1422.75
265.894	1535.75
266.126	1710.75
266.358	1993.75
266.591	1909.75
266.823	1596.75
267.055	1410.75
267.287	1351.75
267.52	1287.75
267.752	1306.75
267.984	1252.75
268.216	1266.75
268.448	1249.75
268.681	1180.75
268.913	1218.75
269.145	1245.75
269.377	1256.75
269.609	1228.75
269.841	1314.75
270.073	1377.75
270.306	1664.75
270.538	2286.75
270.77	3359.75
271.002	4144.75
271.234	3052.75
271.466	2010.75
271.698	1610.75
271.93	1454.75
272.162	1378.75
272.394	1335.75
272.626	1288.75
272.858	1227.75
273.09	1249.75
273.322	1231.75
273.553	1202.75
273.785	1212.75
274.017	1197.75
274.249	1206.75
274.481	1216.75
274.713	1233.75
274.945	1223.75
275.176	1237.75
275.408	1206.75
275.64	1234.75
275.872	1228.75
276.104	1262.75
276.335	1284.75
276.567	1257.75
276.799	1262.75
277.031	1336.75
277.262	1335.75
277.494	1410.75
277.726	1634.75
277.957	1925.75
278.189	2194.75
278.421	2048.75
278.652	1829.75
278.884	1746.75
279.115	1510.75
279.347	1470.75
279.579	1430.75
279.81	1466.75
280.042	1433.75
280.273	1436.75
280.505	1503.75
280.736	1507.75
280.968	1628.75
281.199	1822.75
281.431	2101.75
281.662	2204.75
281.894	1847.75
282.125	1674.75
282.356	1706.75
282.588	1699.75
282.819	1762.75
283.051	1915.75
283.282	2099.75
283.513	2571.75
283.745	3788.75
283.976	5964.75
284.207	8568.75
284.439	7792.75
284.67	4989.75
284.901	4111.75
285.132	4097.75
285.364	3876.75
285.595	2948.75
285.826	2560.75
286.057	3034.75
286.288	4146.75
286.52	5496.75
286.751	5268.75
286.982	3332.75
287.213	2460.75
287.444	2114.75
287.675	1930.75
287.906	1837.75
288.138	1802.75
288.369	1720.75
288.6	1705.75
288.831	1685.75
289.062	1693.75
289.293	1702.75
289.524	1752.75
289.755	1677.75
289.986	1690.75
290.217	1733.75
290.448	1682.75
290.679	1715.75
290.91	1824.75
291.141	1921.75
291.371	2052.75
291.602	2179.75
291.833	1977.75
292.064	1775.75
292.295	1664.75
292.526	1682.75
292.757	1673.75
292.987	1604.75
293.218	1592.75
293.449	1633.75
293.68	1623.75
293.91	1599.75
294.141	1576.75
294.372	1566.75
294.603	1603.75
294.833	1554.75
295.064	1553.75
295.295	1567.75
295.525	1595.75
295.756	1563.75
295.987	1546.75
296.217	1590.75
296.448	1576.75
296.679	1608.75
296.909	1601.75
297.14	1594.75
297.37	1616.75
297.601	1600.75
297.831	1648.75
298.062	1621.75
298.292	1639.75
298.523	1692.75
298.753	1718.75
298.984	1716.75
299.214	1714.75
299.445	1775.75
299.675	1806.75
299.905	1878.75
300.136	1933.75
300.366	2232.75
300.597	2850.75
300.827	4004.75
301.057	5530.75
301.288	5574.75
301.518	3685.75
301.748	2775.75
301.979	2446.75
302.209	2416.75
302.439	2419.75
302.669	2569.75
302.9	3089.75
303.13	4380.75
303.36	6510.75
303.59	8625.75
303.82	7656.75
304.051	4688.75
304.281	3302.75
304.511	2690.75
304.741	2448.75
304.971	2287.75
305.201	2151.75
305.431	2089.75
305.661	2014.75
305.891	1996.75
306.121	1872.75
306.352	1918.75
306.582	1859.75
306.812	1876.75
307.042	1882.75
307.272	1790.75
307.502	1842.75
307.731	1858.75
307.961	1808.75
308.191	1824.75
308.421	1825.75
308.651	1798.75
308.881	1799.75
309.111	1807.75
309.341	1827.75
309.571	1851.75
309.8	1874.75
310.03	1849.75
310.26	1872.75
310.49	1866.75
310.72	1879.75
310.949	1861.75
311.179	1926.75
311.409	1914.75
311.639	1915.75
311.868	1938.75
312.098	1897.75
312.328	1957.75
312.557	1950.75
312.787	1975.75
313.017	2003.75
313.246	1989.75
313.476	2042.75
313.706	2096.75
313.935	2187.75
314.165	2373.75
314.394	2481.75
314.624	2345.75
314.853	2204.75
315.083	2152.75
315.312	2211.75
315.542	2206.75
315.771	2265.75
316.001	2310.75
316.23	2396.75
316.46	2489.75
316.689	2748.75
316.919	3423.75
317.148	4805.75
317.377	7461.75
317.607	10991.75
317.836	11466.75
318.065	7224.75
318.295	4647.75
318.524	3729.75
318.753	3139.75
318.983	2887.75
319.212	2691.75
319.441	2635.75
319.67	2525.75
319.9	2460.75
320.129	2432.75
320.358	2386.75
320.587	2425.75
320.816	2372.75
321.046	2387.75
321.275	2399.75
321.504	2404.75
321.733	2419.75
321.962	2512.75
322.191	2607.75
322.42	2535.75
322.649	2482.75
322.878	2494.75
323.108	2544.75
323.337	2580.75
323.566	2638.75
323.795	2679.75
324.024	2751.75
324.253	2793.75
324.482	2899.75
324.71	3036.75
324.939	3254.75
325.168	3441.75
325.397	3523.75
325.626	4227.75
325.855	5961.75
326.084	9255.75
326.313	13192.75
326.542	13961.75
326.77	9868.75
326.999	6504.75
327.228	5319.75
327.457	5051.75
327.686	5139.75
327.914	5360.75
328.143	6312.75
328.372	7464.75
328.6	8079.75
328.829	7296.75
329.058	6036.75
329.287	5238.75
329.515	4766.75
329.744	4406.75
329.972	4121.75
330.201	3939.75
330.43	3780.75
330.658	3681.75
330.887	3640.75
331.115	3530.75
331.344	3548.75
331.572	3453.75
331.801	3522.75
332.03	3497.75
332.258	3602.75
332.486	3794.75
332.715	4382.75
332.943	5406.75
333.172	6858.75
333.4	6930.75
333.629	5167.75
333.857	4644.75
334.085	4592.75
334.314	4834.75
334.542	5290.75
334.771	6182.75
334.999	7641.75
335.227	9637.75
335.455	10899.75
335.684	9707.75
335.912	7959.75
336.14	6596.75
336.369	5828.75
336.597	5328.75
336.825	4833.75
337.053	4630.75
337.281	4313.75
337.51	4080.75
337.738	3927.75
337.966	3681.75
338.194	3606.75
338.422	3473.75
338.65	3425.75
338.878	3329.75
339.106	3228.75
339.334	3210.75
339.562	3139.75
339.79	3088.75
340.018	3050.75
340.246	3015.75
340.474	3035.75
340.702	3008.75
340.93	3008.75
341.158	3010.75
341.386	3013.75
341.614	2979.75
341.842	2930.75
342.07	2841.75
342.298	2796.75
342.526	2764.75
342.754	2715.75
342.981	2722.75
343.209	2681.75
343.437	2748.75
343.665	2754.75
343.893	2788.75
344.12	2829.75
344.348	2719.75
344.576	2754.75
344.804	2680.75
345.031	2647.75
345.259	2592.75
345.487	2563.75
345.714	2562.75
345.942	2523.75
346.17	2543.75
346.397	2496.75
346.625	2494.75
346.853	2468.75
347.08	2481.75
347.308	2555.75
347.535	2538.75
347.763	2480.75
347.99	2522.75
348.218	2474.75
348.445	2428.75
348.673	2424.75
348.9	2434.75
349.128	2464.75
349.355	2429.75
349.583	2423.75
349.81	2412.75
350.037	2407.75
350.265	2334.75
350.492	2424.75
350.72	2382.75
350.947	2382.75
351.174	2407.75
351.402	2408.75
351.629	2377.75
351.856	2383.75
352.083	2374.75
352.311	2381.75
352.538	2379.75
352.765	2347.75
352.992	2330.75
353.22	2350.75
353.447	2351.75
353.674	2369.75
353.901	2358.75
354.128	2356.75
354.355	2312.75
354.583	2374.75
354.81	2419.75
355.037	2444.75
355.264	2428.75
355.491	2387.75
355.718	2402.75
355.945	2426.75
356.172	2424.75
356.399	2428.75
356.626	2449.75
356.853	2487.75
357.08	2482.75
357.307	2528.75
357.534	2608.75
357.761	2548.75
357.988	2560.75
358.215	2542.75
358.441	2550.75
358.668	2516.75
358.895	2536.75
359.122	2464.75
359.349	2535.75
359.576	2520.75
359.802	2499.75
360.029	2469.75
360.256	2494.75
360.483	2495.75
360.709	2529.75
360.936	2522.75
361.163	2508.75
361.39	2507.75
361.616	2536.75
361.843	2525.75
362.07	2568.75
362.296	2570.75
362.523	2545.75
362.749	2554.75
362.976	2540.75
363.203	2518.75
363.429	2442.75
363.656	2500.75
363.882	2508.75
364.109	2515.75
364.335	2483.75
364.562	2505.75
364.788	2486.75
365.015	2507.75
365.241	2608.75
365.468	2771.75
365.694	2938.75
365.92	2842.75
366.147	2649.75
366.373	2585.75
366.599	2558.75
366.826	2511.75
367.052	2543.75
367.278	2606.75
367.505	2588.75
367.731	2570.75
367.957	2588.75
368.184	2604.75
368.41	2641.75
368.636	2646.75
368.862	2630.75
369.089	2583.75
369.315	2614.75
369.541	2644.75
369.767	2623.75
369.993	2587.75
370.219	2544.75
370.445	2626.75
370.672	2592.75
370.898	2606.75
371.124	2618.75
371.35	2664.75
371.576	2694.75
371.802	2694.75
372.028	2679.75
372.254	2679.75
372.48	2690.75
372.706	2715.75
372.932	2704.75
373.158	2743.75
373.384	2714.75
373.61	2707.75
373.835	2784.75
374.061	2730.75
374.287	2768.75
374.513	2825.75
374.739	2801.75
374.965	2814.75
375.191	2839.75
375.416	2843.75
375.642	2781.75
375.868	2766.75
376.094	2789.75
376.319	2732.75
376.545	2723.75
376.771	2673.75
376.997	2698.75
377.222	2664.75
377.448	2674.75
377.674	2676.75
377.899	2711.75
378.125	2668.75
378.35	2675.75
378.576	2684.75
378.802	2699.75
379.027	2777.75
379.253	2874.75
379.478	2987.75
379.704	3614.75
379.929	5308.75
380.155	8098.75
380.38	9062.75
380.606	5554.75
380.831	3856.75
381.057	3316.75
381.282	3070.75
381.507	2871.75
381.733	2838.75
381.958	2712.75
382.184	2750.75
382.409	2663.75
382.634	2656.75
382.86	2663.75
383.085	2658.75
383.31	2674.75
383.535	2634.75
383.761	2708.75
383.986	2686.75
384.211	2705.75
384.436	2728.75
384.662	2755.75
384.887	2738.75
385.112	2685.75
385.337	2731.75
385.562	2729.75
385.787	2775.75
386.013	2720.75
386.238	2757.75
386.463	2740.75
386.688	2721.75
386.913	2730.75
387.138	2760.75
387.363	2699.75
387.588	2737.75
387.813	2708.75
388.038	2706.75
388.263	2717.75
388.488	2728.75
388.713	2713.75
388.938	2731.75
389.163	2691.75
389.387	2758.75
389.612	2704.75
389.837	2723.75
390.062	2692.75
390.287	2732.75
390.512	2754.75
390.736	2816.75
390.961	2817.75
391.186	2811.75
391.411	2873.75
391.636	2862.75
391.86	2883.75
392.085	2891.75
392.31	2868.75
392.534	2806.75
392.759	2826.75
392.984	2787.75
393.208	2854.75
393.433	2862.75
393.658	2855.75
393.882	2752.75
394.107	2730.75
394.331	2755.75
394.556	2787.75
394.78	2804.75
395.005	2800.75
395.229	2762.75
395.454	2839.75
395.678	2875.75
395.903	2851.75
396.127	2834.75
396.352	2839.75
396.576	2816.75
396.801	2825.75
397.025	2878.75
397.249	2893.75
397.474	2866.75
397.698	2848.75
397.922	2906.75
398.147	2867.75
398.371	2892.75
398.595	2993.75
398.82	3040.75
399.044	3188.75
399.268	3330.75
399.492	3454.75
399.717	3584.75
399.941	3609.75
400.165	3424.75
400.389	3270.75
400.613	3179.75
400.837	3156.75
401.062	3046.75
401.286	3074.75
401.51	3064.75
401.734	2973.75
401.958	3012.75
402.182	3032.75
402.406	2969.75
402.63	3067.75
402.854	3066.75
403.078	3016.75
403.302	3033.75
403.526	3120.75
403.75	3099.75
403.974	3115.75
404.198	3068.75
404.422	3134.75
404.645	3141.75
404.869	3099.75
405.093	3119.75
405.317	3101.75
405.541	3189.75
405.765	3193.75
405.988	3271.75
406.212	3286.75
406.436	3153.75
406.66	3206.75
406.883	3246.75
407.107	3314.75
407.331	3410.75
407.555	3406.75
407.778	3370.75
408.002	3397.75
408.226	3336.75
408.449	3332.75
408.673	3265.75
408.896	3198.75
409.12	3188.75
409.344	3181.75
409.567	3117.75
409.791	3128.75
410.014	3080.75
410.238	3114.75
410.461	3120.75
410.685	3071.75
410.908	3067.75
411.132	3047.75
411.355	2989.75
411.578	2988.75
411.802	3039.75
412.025	3028.75
412.249	3026.75
412.472	2977.75
412.695	2955.75
412.919	2945.75
413.142	2967.75
413.365	2920.75
413.589	2961.75
413.812	2960.75
414.035	2917.75
414.258	2935.75
414.482	2964.75
414.705	2919.75
414.928	2934.75
415.151	2953.75
415.374	2882.75
415.597	2859.75
415.821	2876.75
416.044	2821.75
416.267	2871.75
416.49	2832.75
416.713	2832.75
416.936	2831.75
417.159	2808.75
417.382	2764.75
417.605	2776.75
417.828	2826.75
418.051	2813.75
418.274	2822.75
418.497	2878.75
418.72	2931.75
418.943	2844.75
419.166	3006.75
419.389	3118.75
419.611	3079.75
419.834	3000.75
420.057	2937.75
420.28	2870.75
420.503	2828.75
420.726	2753.75
420.948	2807.75
421.171	2794.75
421.394	2828.75
421.617	2833.75
421.839	2859.75
422.062	2846.75
422.285	2814.75
422.507	2927.75
422.73	2862.75
422.953	2916.75
423.175	2955.75
423.398	2937.75
423.621	2795.75
423.843	2819.75
424.066	2851.75
424.288	2826.75
424.511	2833.75
424.733	2820.75
424.956	2829.75
425.178	2812.75
425.401	2763.75
425.623	2783.75
425.846	2738.75
426.068	2730.75
426.291	2703.75
426.513	2686.75
426.735	2693.75
426.958	2732.75
427.18	2670.75
427.402	2716.75
427.625	2740.75
427.847	2640.75
428.069	2642.75
428.292	2680.75
428.514	2670.75
428.736	2667.75
428.958	2643.75
429.181	2606.75
429.403	2585.75
429.625	2626.75
429.847	2558.75
430.069	2667.75
430.292	2774.75
430.514	2840.75
430.736	2870.75
430.958	2704.75
431.18	2622.75
431.402	2612.75
431.624	2567.75
431.846	2595.75
432.068	2568.75
432.29	2573.75
432.512	2592.75
432.734	2619.75
432.956	2614.75
433.178	2632.75
433.4	2586.75
433.622	2610.75
433.844	2647.75
434.066	2606.75
434.287	2652.75
434.509	2634.75
434.731	2667.75
434.953	2723.75
435.175	2722.75
435.397	2767.75
435.618	2621.75
435.84	2619.75
436.062	2610.75
436.284	2616.75
436.505	2629.75
436.727	2631.75
436.949	2586.75
437.17	2555.75
437.392	2551.75
437.614	2508.75
437.835	2497.75
438.057	2515.75
438.278	2472.75
438.5	2475.75
438.721	2595.75
438.943	2623.75
439.165	2713.75
439.386	2740.75
439.608	2719.75
439.829	2748.75
440.05	2824.75
440.272	2872.75
440.493	2738.75
440.715	2690.75
440.936	2681.75
441.158	2692.75
441.379	2767.75
441.6	2838.75
441.822	2901.75
442.043	3094.75
442.264	3159.75
442.486	2972.75
442.707	2843.75
442.928	2777.75
443.149	2756.75
443.371	2786.75
443.592	2741.75
443.813	2836.75
444.034	2828.75
444.255	2922.75
444.476	2962.75
444.698	2937.75
444.919	2994.75
445.14	3033.75
445.361	2958.75
445.582	2879.75
445.803	2789.75
446.024	2785.75
446.245	2773.75
446.466	2792.75
446.687	2722.75
446.908	2642.75
447.129	2651.75
447.35	2640.75
447.571	2642.75
447.792	2571.75
448.013	2631.75
448.234	2576.75
448.455	2612.75
448.675	2626.75
448.896	2694.75
449.117	2822.75
449.338	3027.75
449.559	3113.75
449.779	2795.75
450	2607.75
450.221	2584.75
450.442	2502.75
450.662	2560.75
450.883	2512.75
451.104	2521.75
451.324	2572.75
451.545	2539.75
451.766	2567.75
451.986	2596.75
452.207	2852.75
452.428	3696.75
452.648	5758.75
452.869	4861.75
453.089	3318.75
453.31	3040.75
453.53	3038.75
453.751	3119.75
453.971	3256.75
454.192	3088.75
454.412	2712.75
454.633	2578.75
454.853	2492.75
455.073	2458.75
455.294	2459.75
455.514	2400.75
455.734	2369.75
455.955	2347.75
456.175	2427.75
456.395	2363.75
456.616	2435.75
456.836	2417.75
457.056	2452.75
457.276	2392.75
457.497	2593.75
457.717	2624.75
457.937	2548.75
458.157	2569.75
458.377	2526.75
458.598	2538.75
458.818	2647.75
459.038	2597.75
459.258	2588.75
459.478	2604.75
459.698	2642.75
459.918	2720.75
460.138	2666.75
460.358	2794.75
460.578	2817.75
460.798	2770.75
461.018	2826.75
461.238	2912.75
461.458	2826.75
461.678	2887.75
461.898	2987.75
462.118	2996.75
462.338	3061.75
462.558	3028.75
462.777	3107.75
462.997	3249.75
463.217	3336.75
463.437	3448.75
463.657	3526.75
463.876	3525.75
464.096	3375.75
464.316	3210.75
464.536	3110.75
464.755	3060.75
464.975	3044.75
465.195	2929.75
465.414	2842.75
465.634	2690.75
465.854	2738.75
466.073	2697.75
466.293	2740.75
466.512	2633.75
466.732	2708.75
466.951	2818.75
467.171	3029.75
467.391	2962.75
467.61	2740.75
467.829	2650.75
468.049	2613.75
468.268	2594.75
468.488	2574.75
468.707	2529.75
468.927	2584.75
469.146	2589.75
469.365	2679.75
469.585	2627.75
469.804	2684.75
470.023	2744.75
470.243	2790.75
470.462	2902.75
470.681	3026.75
470.901	3357.75
471.12	3783.75
471.339	3755.75
471.558	3196.75
471.777	2927.75
471.997	2774.75
472.216	2688.75
472.435	2694.75
472.654	2629.75
472.873	2643.75
473.092	2562.75
473.311	2615.75
473.53	2590.75
473.749	2725.75
473.968	2817.75
474.187	2663.75
474.406	2578.75
474.625	2631.75
474.844	2563.75
475.063	2596.75
475.282	2602.75
475.501	2589.75
475.72	2647.75
475.939	2674.75
476.158	2751.75
476.377	2761.75
476.596	2767.75
476.814	2730.75
477.033	2772.75
477.252	2795.75
477.471	2830.75
477.69	2870.75
477.908	2881.75
478.127	2950.75
478.346	2974.75
478.564	3011.75
478.783	3006.75
479.002	3079.75
479.22	3065.75
479.439	3032.75
479.658	3122.75
479.876	3101.75
480.095	3188.75
480.313	3213.75
480.532	3213.75
480.751	3206.75
480.969	3154.75
481.188	3122.75
481.406	3145.75
481.624	3144.75
481.843	3176.75
482.061	3230.75
482.28	3138.75
482.498	3174.75
482.717	3141.75
482.935	3239.75
483.153	3264.75
483.372	3271.75
483.59	3317.75
483.808	3415.75
484.027	3483.75
484.245	3611.75
484.463	4071.75
484.681	4532.75
484.9	4208.75
485.118	3952.75
485.336	3815.75
485.554	3881.75
485.772	4165.75
485.99	4556.75
486.209	4889.75
486.427	4196.75
486.645	3684.75
486.863	3540.75
487.081	3505.75
487.299	3396.75
487.517	3396.75
487.735	3381.75
487.953	3409.75
488.171	3344.75
488.389	3312.75
488.607	3256.75
488.825	3222.75
489.043	3261.75
489.261	3282.75
489.479	3199.75
489.696	3190.75
489.914	3236.75
490.132	3276.75
490.35	3261.75
490.568	3254.75
490.786	3336.75
491.003	3374.75
491.221	3385.75
491.439	3398.75
491.657	3386.75
491.874	3404.75
492.092	3376.75
492.31	3372.75
492.527	3380.75
492.745	3423.75
492.963	3372.75
493.18	3447.75
493.398	3413.75
493.615	3345.75
493.833	3360.75
494.05	3381.75
494.268	3412.75
494.485	3474.75
494.703	3440.75
494.92	3446.75
495.138	3362.75
495.355	3435.75
495.573	3467.75
495.79	3389.75
496.008	3498.75
496.225	3516.75
496.442	3522.75
496.66	3707.75
496.877	3878.75
497.094	3831.75
497.312	3686.75
497.529	3652.75
497.746	3738.75
497.963	3768.75
498.181	3817.75
498.398	3992.75
498.615	4020.75
498.832	4214.75
499.049	4421.75
499.267	4742.75
499.484	5035.75
499.701	5027.75
499.918	5141.75
500.135	5370.75
500.352	5571.75
500.569	5679.75
500.786	5664.75
501.003	5531.75
501.22	5176.75
501.437	4956.75
501.654	4749.75
501.871	4456.75
502.088	4312.75
502.305	4199.75
502.522	4078.75
502.739	3996.75
502.956	3806.75
503.172	3758.75
503.389	3632.75
503.606	3581.75
503.823	3614.75
504.04	3575.75
504.256	3478.75
504.473	3463.75
504.69	3533.75
504.907	3442.75
505.123	3407.75
505.34	3357.75
505.557	3253.75
505.773	3211.75
505.99	3140.75
506.207	3103.75
506.423	3108.75
506.64	3113.75
506.856	3051.75
507.073	3034.75
507.289	3023.75
507.506	3021.75
507.722	3030.75
507.939	2993.75
508.155	2996.75
508.372	2937.75
508.588	2869.75
508.805	2934.75
509.021	2923.75
509.238	2965.75
509.454	3146.75
509.67	3427.75
509.887	3189.75
510.103	3021.75
510.319	2933.75
510.536	2935.75
510.752	2894.75
510.968	2919.75
511.184	2870.75
511.401	2782.75
511.617	2832.75
511.833	2818.75
512.049	2812.75
512.265	2779.75
512.481	2781.75
512.698	2823.75
512.914	2850.75
513.13	2786.75
513.346	2783.75
513.562	2796.75
513.778	2847.75
513.994	2903.75
514.21	3002.75
514.426	3092.75
514.642	3305.75
514.858	2998.75
515.074	2968.75
515.29	2932.75
515.506	2859.75
515.721	2884.75
515.937	2954.75
516.153	2935.75
516.369	2914.75
516.585	2970.75
516.801	2974.75
517.016	3031.75
517.232	3119.75
517.448	3149.75
517.664	3198.75
517.879	3169.75
518.095	3192.75
518.311	3166.75
518.527	3176.75
518.742	3090.75
518.958	3165.75
519.173	3249.75
519.389	3067.75
519.605	3011.75
519.82	2838.75
520.036	2876.75
520.251	2852.75
520.467	2849.75
520.682	2823.75
520.898	2754.75
521.113	2801.75
521.329	2734.75
521.544	2736.75
521.76	2789.75
521.975	2786.75
522.19	2756.75
522.406	2745.75
522.621	2776.75
522.836	2718.75
523.052	2680.75
523.267	2729.75
523.482	2690.75
523.698	2686.75
523.913	2656.75
524.128	2720.75
524.343	2687.75
524.559	2743.75
524.774	2700.75
524.989	2715.75
525.204	2689.75
525.419	2680.75
525.634	2639.75
525.849	2723.75
526.064	2696.75
526.28	2688.75
526.495	2667.75
526.71	2714.75
526.925	2723.75
527.14	2676.75
527.355	2742.75
527.57	2717.75
527.785	2708.75
527.999	2727.75
528.214	2761.75
528.429	2812.75
528.644	2828.75
528.859	2844.75
529.074	2843.75
529.289	2834.75
529.503	2928.75
529.718	2915.75
529.933	2878.75
530.148	2841.75
530.363	2884.75
530.577	2885.75
530.792	2843.75
531.007	2880.75
531.221	2964.75
531.436	2996.75
531.651	3010.75
531.865	3058.75
532.08	3098.75
532.295	3192.75
532.509	3461.75
532.724	3467.75
532.938	3446.75
533.153	3586.75
533.367	3941.75
533.582	4128.75
533.796	4007.75
534.011	3886.75
534.225	3762.75
534.44	3497.75
534.654	3500.75
534.868	3383.75
535.083	3298.75
535.297	3272.75
535.511	3189.75
535.726	3130.75
535.94	3060.75
536.154	3087.75
536.369	2991.75
536.583	2924.75
536.797	2875.75
537.011	2891.75
537.225	2838.75
537.44	2820.75
537.654	2808.75
537.868	2820.75
538.082	2737.75
538.296	2764.75
538.51	2715.75
538.724	2792.75
538.938	2690.75
539.153	2720.75
539.367	2691.75
539.581	2712.75
539.795	2629.75
540.009	2622.75
540.222	2566.75
540.436	2619.75
540.65	2611.75
540.864	2693.75
541.078	2710.75
541.292	2856.75
541.506	3370.75
541.72	3562.75
541.934	3099.75
542.147	2921.75
542.361	2813.75
542.575	2705.75
542.789	2620.75
543.002	2555.75
543.216	2513.75
543.43	2550.75
543.644	2554.75
543.857	2571.75
544.071	2564.75
544.285	2524.75
544.498	2554.75
544.712	2560.75
544.925	2570.75
545.139	2556.75
545.352	2547.75
545.566	2527.75
545.779	2519.75
545.993	2570.75
546.206	2554.75
546.42	2570.75
546.633	2554.75
546.847	2524.75
547.06	2524.75
547.274	2540.75
547.487	2557.75
547.7	2554.75
547.914	2564.75
548.127	2544.75
548.34	2572.75
548.554	2537.75
548.767	2545.75
548.98	2583.75
549.193	2583.75
549.407	2528.75
549.62	2562.75
549.833	2599.75
550.046	2551.75
550.259	2537.75
550.473	2526.75
550.686	2538.75
550.899	2562.75
551.112	2547.75
551.325	2579.75
551.538	2578.75
551.751	2556.75
551.964	2620.75
552.177	2625.75
552.39	2622.75
552.603	2720.75
552.816	2766.75
553.029	2772.75
553.242	2798.75
553.455	2828.75
553.667	2851.75
553.88	2866.75
554.093	2844.75
554.306	2891.75
554.519	2930.75
554.732	3051.75
554.944	3056.75
555.157	3161.75
555.37	3212.75
555.583	3372.75
555.795	3510.75
556.008	3904.75
556.221	4286.75
556.433	4690.75
556.646	4627.75
556.859	4439.75
557.071	4235.75
557.284	4159.75
557.496	4024.75
557.709	3894.75
557.921	3852.75
558.134	3820.75
558.346	3917.75
558.559	4016.75
558.771	4349.75
558.984	4749.75
559.196	5120.75
559.409	4830.75
559.621	4494.75
559.833	4126.75
560.046	3954.75
560.258	3713.75
560.47	3516.75
560.683	3276.75
560.895	3258.75
561.107	3062.75
561.32	2950.75
561.532	2916.75
561.744	2866.75
561.956	2797.75
562.168	2820.75
562.381	2676.75
562.593	2724.75
562.805	2767.75
563.017	2723.75
563.229	2835.75
563.441	3271.75
563.653	2732.75
563.865	2520.75
564.077	2471.75
564.289	2403.75
564.501	2398.75
564.713	2422.75
564.925	2393.75
565.137	2362.75
565.349	2401.75
565.561	2408.75
565.773	2399.75
565.985	2469.75
566.197	2463.75
566.408	2478.75
566.62	2524.75
566.832	2622.75
567.044	2628.75
567.255	2639.75
567.467	2667.75
567.679	2807.75
567.891	2866.75
568.102	3156.75
568.314	3578.75
568.526	3217.75
568.737	2741.75
568.949	2543.75
569.161	2350.75
569.372	2272.75
569.584	2207.75
569.795	2201.75
570.007	2170.75
570.218	2201.75
570.43	2294.75
570.641	2129.75
570.853	2036.75
571.064	2007.75
571.276	1973.75
571.487	1910.75
571.698	1903.75
571.91	1886.75
572.121	1878.75
572.333	1838.75
572.544	1884.75
572.755	1999.75
572.966	2339.75
573.178	2162.75
573.389	1926.75
573.6	1836.75
573.811	1797.75
574.023	1798.75
574.234	1793.75
574.445	1710.75
574.656	1716.75
574.867	1744.75
575.078	1727.75
575.289	1735.75
575.501	1726.75
575.712	1723.75
575.923	1682.75
576.134	1735.75
576.345	1714.75
576.556	1711.75
576.767	1726.75
576.978	1784.75
577.188	1744.75
577.399	1763.75
577.61	1770.75
577.821	1815.75
578.032	1832.75
578.243	1843.75
578.454	1894.75
578.665	1897.75
578.875	1954.75
579.086	2034.75
579.297	2129.75
579.508	2278.75
579.718	2526.75
579.929	2964.75
580.14	3404.75
580.35	3472.75
580.561	3187.75
580.772	2846.75
580.982	2650.75
581.193	2394.75
581.403	2329.75
581.614	2206.75
581.825	2078.75
582.035	1981.75
582.246	1883.75
582.456	1874.75
582.667	1856.75
582.877	1794.75
583.087	1749.75
583.298	1668.75
583.508	1632.75
583.719	1635.75
583.929	1563.75
584.139	1578.75
584.35	1501.75
584.56	1475.75
584.77	1459.75
584.981	1423.75
585.191	1462.75
585.401	1446.75
585.611	1426.75
585.821	1381.75
586.032	1399.75
586.242	1336.75
586.452	1375.75
586.662	1322.75
586.872	1313.75
587.082	1305.75
587.292	1299.75
587.502	1242.75
587.713	1285.75
587.923	1220.75
588.133	1247.75
588.343	1211.75
588.553	1268.75
588.762	1230.75
588.972	1225.75
589.182	1274.75
589.392	1256.75
589.602	1203.75
589.812	1236.75
590.022	1192.75
590.232	1202.75
590.441	1198.75
590.651	1173.75
590.861	1192.75
591.071	1182.75
591.281	1176.75
591.49	1174.75
591.7	1193.75
591.91	1192.75
592.119	1206.75
592.329	1156.75
592.539	1204.75
592.748	1200.75
592.958	1229.75
593.167	1239.75
593.377	1200.75
593.587	1249.75
593.796	1230.75
594.006	1210.75
594.215	1214.75
594.424	1218.75
594.634	1179.75
594.843	1144.75
595.053	1148.75
595.262	1153.75
595.472	1118.75
595.681	1114.75
595.89	1055.75
596.1	1088.75
596.309	1083.75
596.518	1064.75
596.727	1067.75
596.937	1045.75
597.146	1088.75
597.355	1052.75
597.564	1022.75
597.774	1001.75
597.983	1012.75
598.192	995.75
598.401	988.75
598.61	928.75
598.819	974.75
599.028	957.75
599.237	969.75
599.446	974.75
599.655	946.75
599.864	964.75
600.073	937.75
600.282	924.75
600.491	940.75
600.7	954.75
600.909	950.75
601.118	949.75
601.327	963.75
601.536	950.75
601.745	983.75
601.953	1097.75
602.162	1230.75
602.371	1080.75
602.58	1011.75
602.789	987.75
602.997	952.75
603.206	945.75
603.415	944.75
603.623	911.75
603.832	911.75
604.041	901.75
604.249	892.75
604.458	906.75
604.666	880.75
604.875	889.75
605.084	893.75
605.292	889.75
605.501	900.75
605.709	918.75
605.918	908.75
606.126	898.75
606.334	931.75
606.543	944.75
606.751	1013.75
606.96	1116.75
607.168	1231.75
607.376	1061.75
607.585	976.75
607.793	948.75
608.001	942.75
608.21	935.75
608.418	889.75
608.626	854.75
608.834	858.75
609.043	887.75
609.251	846.75
609.459	867.75
609.667	830.75
609.875	839.75
610.083	831.75
610.291	834.75
610.499	809.75
610.707	821.75
610.916	838.75
611.124	828.75
611.332	834.75
611.54	847.75
611.748	818.75
611.955	822.75
612.163	803.75
612.371	800.75
612.579	797.75
612.787	793.75
612.995	803.75
613.203	800.75
613.411	800.75
613.618	789.75
613.826	783.75
614.034	798.75
614.242	780.75
614.449	791.75
614.657	778.75
614.865	786.75
615.072	803.75
615.28	809.75
615.488	773.75
615.695	789.75
615.903	794.75
616.111	786.75
616.318	766.75
616.526	794.75
616.733	775.75
616.941	760.75
617.148	776.75
617.356	783.75
617.563	800.75
617.771	784.75
617.978	771.75
618.185	777.75
618.393	747.75
618.6	754.75
618.807	742.75
619.015	764.75
619.222	731.75
619.429	733.75
619.637	721.75
619.844	713.75
620.051	723.75
620.258	721.75
620.466	699.75
620.673	701.75
620.88	708.75
621.087	703.75
621.294	705.75
621.501	715.75
621.708	696.75
621.915	708.75
622.122	680.75
622.329	676.75
622.536	699.75
622.743	688.75
622.95	728.75
623.157	676.75
623.364	692.75
623.571	680.75
623.778	715.75
623.985	704.75
624.192	691.75
624.399	683.75
624.606	682.75
624.812	654.75
625.019	676.75
625.226	673.75
625.433	664.75
625.639	659.75
625.846	640.75
626.053	646.75
626.259	640.75
626.466	615.75
626.673	622.75
626.879	615.75
627.086	618.75
627.293	629.75
627.499	621.75
627.706	619.75
627.912	651.75
628.119	618.75
628.325	640.75
628.532	632.75
628.738	660.75
628.945	609.75
629.151	653.75
629.357	630.75
629.564	612.75
629.77	588.75
629.976	598.75
630.183	599.75
630.389	617.75
630.595	587.75
630.802	599.75
631.008	601.75
631.214	604.75
631.42	613.75
631.627	606.75
631.833	599.75
632.039	613.75
632.245	564.75
632.451	596.75
632.657	592.75
632.863	603.75
633.069	591.75
633.275	576.75
633.481	594.75
633.688	582.75
633.893	601.75
634.099	589.75
634.305	602.75
634.511	614.75
634.717	617.75
634.923	615.75
635.129	690.75
635.335	772.75
635.541	684.75
635.747	648.75
635.952	626.75
636.158	610.75
636.364	609.75
636.57	611.75
636.775	606.75
636.981	586.75
637.187	586.75
637.392	595.75
637.598	606.75
637.804	594.75
638.009	611.75
638.215	607.75
638.421	602.75
638.626	597.75
638.832	596.75
639.037	591.75
639.243	594.75
639.448	603.75
639.654	595.75
639.859	610.75
640.065	632.75
640.27	630.75
640.475	624.75
640.681	628.75
640.886	602.75
641.091	609.75
641.297	648.75
641.502	649.75
641.707	630.75
641.913	684.75
642.118	682.75
642.323	660.75
642.528	710.75
642.733	715.75
642.939	734.75
643.144	743.75
643.349	792.75
643.554	837.75
643.759	857.75
643.964	889.75
644.169	965.75
644.374	1003.75
644.579	1119.75
644.784	1196.75
644.989	1404.75
645.194	1624.75
645.399	2017.75
645.604	2164.75
645.809	1608.75
646.014	1221.75
646.219	984.75
646.423	882.75
646.628	799.75
646.833	728.75
647.038	705.75
647.243	667.75
647.447	632.75
647.652	642.75
647.857	614.75
648.062	586.75
648.266	586.75
648.471	573.75
648.676	561.75
648.88	529.75
649.085	536.75
649.289	536.75
649.494	520.75
649.698	509.75
649.903	508.75
650.107	481.75
650.312	478.75
650.516	483.75
650.721	460.75
650.925	475.75
651.13	459.75
651.334	445.75
651.539	435.75
651.743	432.75
651.947	423.75
652.152	434.75
652.356	427.75
652.56	459.75
652.764	521.75
652.969	470.75
653.173	426.75
653.377	417.75
653.581	396.75
653.785	379.75
653.99	378.75
654.194	372.75
654.398	366.75
654.602	376.75
654.806	359.75
655.01	354.75
655.214	357.75
655.418	346.75
655.622	356.75
655.826	354.75
656.03	351.75
656.234	372.75
656.438	378.75
656.642	390.75
656.846	375.75
657.049	366.75
657.253	339.75
657.457	312.75
657.661	297.75
657.865	289.75
658.068	269.75
658.272	254.75
658.476	257.75
658.68	239.75
658.883	222.75
659.087	196.75
659.291	199.75
659.494	183.75
659.698	188.75
659.901	178.75
660.105	198.75
660.309	183.75
660.512	155.75
660.716	150.75
660.919	142.75
661.123	139.75
661.326	146.75
661.53	131.75
661.733	135.75
661.936	124.75
662.14	110.75
662.343	118.75
662.546	100.75
662.75	111.75
662.953	109.75
663.156	92.75
663.36	103.75
663.563	99.75
663.766	101.75
663.969	90.75
664.173	110.75
664.376	87.75
664.579	90.75
664.782	89.75
664.985	76.75
665.188	86.75
665.391	88.75
665.594	90.75
665.797	88.75
666	80.75
666.203	86.75
666.406	84.75
666.609	83.75
666.812	71.75
667.015	74.75
667.218	82.75
667.421	89.75
667.624	93.75
667.827	86.75
668.03	86.75
668.232	70.75
668.435	74.75
668.638	85.75
668.841	95.75
669.043	89.75
669.246	90.75
669.449	93.75
669.651	91.75
669.854	81.75
670.057	66.75
670.259	83.75
670.462	71.75
670.665	87.75
670.867	84.75
671.07	77.75
671.272	86.75
671.475	90.75
671.677	80.75
671.88	56.75
672.082	87.75
672.284	79.75
672.487	90.75
672.689	92.75
672.892	87.75
