Data from SnStandardFlinnAPT0064_LampEnergy5.5_LIBS07252019.E.O._I.C._HRD10591_15-15-32-491.txt Node
Date: Thu Jul 25 15:15:32 EDT 2019
User: cochatt
Spectrometer: HR+D1059
Trigger mode: 1
Integration Time (sec): 1.000000E-1
Scans to average: 1
Electric dark correction enabled: true
Nonlinearity correction enabled: false
Boxcar width: 0
XAxis mode: Wavelengths
Number of Pixels in Spectrum: 2048
>>>>>Begin Spectral Data<<<<<
223.165	-16.06
223.4	-16.06
223.635	-16.06
223.869	-27.06
224.104	-17.06
224.338	-13.06
224.573	-22.06
224.808	-13.06
225.042	-5.06
225.277	-6.06
225.511	-10.06
225.746	2.94
225.98	14.94
226.215	12.94
226.449	15.94
226.683	12.94
226.918	32.94
227.152	36.94
227.387	33.94
227.621	37.94
227.856	30.94
228.09	31.94
228.324	37.94
228.559	59.94
228.793	74.94
229.027	142.94
229.262	146.94
229.496	137.94
229.73	139.94
229.964	155.94
230.199	162.94
230.433	157.94
230.667	142.94
230.901	162.94
231.136	176.94
231.37	179.94
231.604	176.94
231.838	177.94
232.072	207.94
232.306	226.94
232.541	213.94
232.775	177.94
233.009	193.94
233.243	191.94
233.477	201.94
233.711	230.94
233.945	237.94
234.179	227.94
234.413	207.94
234.647	201.94
234.881	205.94
235.115	232.94
235.349	250.94
235.583	295.94
235.817	384.94
236.051	378.94
236.285	274.94
236.519	227.94
236.753	224.94
236.987	219.94
237.221	226.94
237.455	211.94
237.689	186.94
237.922	212.94
238.156	217.94
238.39	209.94
238.624	214.94
238.858	215.94
239.091	243.94
239.325	237.94
239.559	214.94
239.793	222.94
240.027	220.94
240.26	229.94
240.494	239.94
240.728	257.94
240.961	263.94
241.195	265.94
241.429	289.94
241.662	287.94
241.896	318.94
242.13	366.94
242.363	457.94
242.597	574.94
242.83	544.94
243.064	549.94
243.298	656.94
243.531	554.94
243.765	354.94
243.998	316.94
244.232	274.94
244.465	284.94
244.699	264.94
244.932	296.94
245.166	307.94
245.399	270.94
245.633	282.94
245.866	291.94
246.099	275.94
246.333	280.94
246.566	283.94
246.8	274.94
247.033	277.94
247.266	278.94
247.5	254.94
247.733	289.94
247.966	295.94
248.2	320.94
248.433	346.94
248.666	359.94
248.899	366.94
249.133	334.94
249.366	353.94
249.599	378.94
249.832	374.94
250.066	398.94
250.299	344.94
250.532	337.94
250.765	323.94
250.998	306.94
251.231	320.94
251.465	325.94
251.698	298.94
251.931	294.94
252.164	318.94
252.397	322.94
252.63	342.94
252.863	319.94
253.096	330.94
253.329	319.94
253.562	326.94
253.795	339.94
254.028	343.94
254.261	319.94
254.494	356.94
254.727	399.94
254.96	463.94
255.193	466.94
255.426	371.94
255.659	351.94
255.892	337.94
256.124	338.94
256.357	358.94
256.59	381.94
256.823	393.94
257.056	424.94
257.289	487.94
257.521	518.94
257.754	454.94
257.987	378.94
258.22	397.94
258.452	396.94
258.685	380.94
258.918	416.94
259.151	415.94
259.383	422.94
259.616	438.94
259.849	462.94
260.081	440.94
260.314	404.94
260.547	389.94
260.779	405.94
261.012	414.94
261.244	408.94
261.477	424.94
261.71	408.94
261.942	411.94
262.175	424.94
262.407	432.94
262.64	455.94
262.872	448.94
263.105	468.94
263.337	488.94
263.57	526.94
263.802	573.94
264.035	537.94
264.267	542.94
264.499	578.94
264.732	600.94
264.964	609.94
265.197	608.94
265.429	600.94
265.661	589.94
265.894	661.94
266.126	702.94
266.358	765.94
266.591	735.94
266.823	654.94
267.055	591.94
267.287	571.94
267.52	549.94
267.752	532.94
267.984	512.94
268.216	529.94
268.448	495.94
268.681	517.94
268.913	522.94
269.145	515.94
269.377	515.94
269.609	518.94
269.841	528.94
270.073	548.94
270.306	618.94
270.538	792.94
270.77	1094.94
271.002	1319.94
271.234	972.94
271.466	703.94
271.698	584.94
271.93	530.94
272.162	537.94
272.394	517.94
272.626	515.94
272.858	503.94
273.09	477.94
273.322	513.94
273.553	490.94
273.785	508.94
274.017	477.94
274.249	491.94
274.481	483.94
274.713	495.94
274.945	485.94
275.176	510.94
275.408	513.94
275.64	516.94
275.872	483.94
276.104	528.94
276.335	507.94
276.567	528.94
276.799	502.94
277.031	530.94
277.262	527.94
277.494	533.94
277.726	596.94
277.957	685.94
278.189	722.94
278.421	704.94
278.652	640.94
278.884	611.94
279.115	586.94
279.347	554.94
279.579	549.94
279.81	556.94
280.042	538.94
280.273	563.94
280.505	580.94
280.736	588.94
280.968	589.94
281.199	660.94
281.431	718.94
281.662	726.94
281.894	675.94
282.125	634.94
282.356	637.94
282.588	654.94
282.819	651.94
283.051	691.94
283.282	749.94
283.513	945.94
283.745	1247.94
283.976	1950.94
284.207	2732.94
284.439	2459.94
284.67	1520.94
284.901	1288.94
285.132	1216.94
285.364	1132.94
285.595	947.94
285.826	864.94
286.057	1020.94
286.288	1340.94
286.52	1768.94
286.751	1620.94
286.982	1066.94
287.213	817.94
287.444	754.94
287.675	706.94
287.906	690.94
288.138	658.94
288.369	670.94
288.6	687.94
288.831	660.94
289.062	679.94
289.293	680.94
289.524	678.94
289.755	678.94
289.986	683.94
290.217	683.94
290.448	716.94
290.679	687.94
290.91	683.94
291.141	701.94
291.371	733.94
291.602	738.94
291.833	695.94
292.064	687.94
292.295	657.94
292.526	656.94
292.757	654.94
292.987	641.94
293.218	631.94
293.449	658.94
293.68	645.94
293.91	657.94
294.141	647.94
294.372	627.94
294.603	636.94
294.833	641.94
295.064	638.94
295.295	615.94
295.525	626.94
295.756	636.94
295.987	651.94
296.217	642.94
296.448	634.94
296.679	608.94
296.909	635.94
297.14	641.94
297.37	646.94
297.601	647.94
297.831	663.94
298.062	670.94
298.292	670.94
298.523	663.94
298.753	666.94
298.984	680.94
299.214	696.94
299.445	702.94
299.675	690.94
299.905	695.94
300.136	743.94
300.366	803.94
300.597	951.94
300.827	1305.94
301.057	1796.94
301.288	1714.94
301.518	1155.94
301.748	916.94
301.979	874.94
302.209	854.94
302.439	882.94
302.669	906.94
302.9	1041.94
303.13	1383.94
303.36	1955.94
303.59	2618.94
303.82	2270.94
304.051	1420.94
304.281	1083.94
304.511	890.94
304.741	831.94
304.971	818.94
305.201	805.94
305.431	770.94
305.661	763.94
305.891	733.94
306.121	726.94
306.352	729.94
306.582	744.94
306.812	720.94
307.042	737.94
307.272	741.94
307.502	721.94
307.731	720.94
307.961	730.94
308.191	728.94
308.421	716.94
308.651	732.94
308.881	737.94
309.111	739.94
309.341	738.94
309.571	752.94
309.8	752.94
310.03	766.94
310.26	720.94
310.49	762.94
310.72	751.94
310.949	759.94
311.179	735.94
311.409	768.94
311.639	783.94
311.868	773.94
312.098	781.94
312.328	783.94
312.557	775.94
312.787	757.94
313.017	805.94
313.246	794.94
313.476	791.94
313.706	823.94
313.935	844.94
314.165	880.94
314.394	904.94
314.624	867.94
314.853	818.94
315.083	828.94
315.312	838.94
315.542	845.94
315.771	831.94
316.001	869.94
316.23	880.94
316.46	908.94
316.689	982.94
316.919	1150.94
317.148	1597.94
317.377	2356.94
317.607	3423.94
317.836	3560.94
318.065	2147.94
318.295	1456.94
318.524	1222.94
318.753	1086.94
318.983	1010.94
319.212	952.94
319.441	931.94
319.67	954.94
319.9	888.94
320.129	930.94
320.358	920.94
320.587	919.94
320.816	907.94
321.046	915.94
321.275	920.94
321.504	922.94
321.733	935.94
321.962	951.94
322.191	987.94
322.42	956.94
322.649	961.94
322.878	956.94
323.108	975.94
323.337	961.94
323.566	991.94
323.795	986.94
324.024	1026.94
324.253	1039.94
324.482	1079.94
324.71	1119.94
324.939	1196.94
325.168	1194.94
325.397	1239.94
325.626	1417.94
325.855	1920.94
326.084	2920.94
326.313	4242.94
326.542	4580.94
326.77	2983.94
326.999	2035.94
327.228	1726.94
327.457	1656.94
327.686	1678.94
327.914	1809.94
328.143	2011.94
328.372	2283.94
328.6	2533.94
328.829	2318.94
329.058	2125.94
329.287	1847.94
329.515	1718.94
329.744	1614.94
329.972	1522.94
330.201	1494.94
330.43	1436.94
330.658	1357.94
330.887	1352.94
331.115	1344.94
331.344	1328.94
331.572	1335.94
331.801	1318.94
332.03	1349.94
332.258	1362.94
332.486	1411.94
332.715	1561.94
332.943	1825.94
333.172	2178.94
333.4	2149.94
333.629	1771.94
333.857	1616.94
334.085	1669.94
334.314	1754.94
334.542	1841.94
334.771	2151.94
334.999	2535.94
335.227	3030.94
335.455	3401.94
335.684	3170.94
335.912	2747.94
336.14	2352.94
336.369	2130.94
336.597	1950.94
336.825	1811.94
337.053	1714.94
337.281	1651.94
337.51	1543.94
337.738	1476.94
337.966	1415.94
338.194	1372.94
338.422	1356.94
338.65	1304.94
338.878	1318.94
339.106	1234.94
339.334	1266.94
339.562	1220.94
339.79	1190.94
340.018	1210.94
340.246	1178.94
340.474	1159.94
340.702	1172.94
340.93	1203.94
341.158	1207.94
341.386	1150.94
341.614	1173.94
341.842	1122.94
342.07	1111.94
342.298	1119.94
342.526	1112.94
342.754	1077.94
342.981	1091.94
343.209	1082.94
343.437	1098.94
343.665	1117.94
343.893	1125.94
344.12	1139.94
344.348	1114.94
344.576	1106.94
344.804	1083.94
345.031	1044.94
345.259	1040.94
345.487	1024.94
345.714	1008.94
345.942	985.94
346.17	1011.94
346.397	984.94
346.625	995.94
346.853	993.94
347.08	987.94
347.308	1016.94
347.535	1014.94
347.763	1019.94
347.99	1008.94
348.218	1004.94
348.445	994.94
348.673	986.94
348.9	971.94
349.128	987.94
349.355	958.94
349.583	968.94
349.81	983.94
350.037	978.94
350.265	951.94
350.492	942.94
350.72	959.94
350.947	978.94
351.174	995.94
351.402	969.94
351.629	968.94
351.856	972.94
352.083	968.94
352.311	962.94
352.538	972.94
352.765	956.94
352.992	960.94
353.22	968.94
353.447	954.94
353.674	956.94
353.901	939.94
354.128	960.94
354.355	962.94
354.583	978.94
354.81	975.94
355.037	965.94
355.264	946.94
355.491	950.94
355.718	1002.94
355.945	975.94
356.172	976.94
356.399	1004.94
356.626	964.94
356.853	1004.94
357.08	989.94
357.307	1006.94
357.534	1049.94
357.761	1022.94
357.988	1038.94
358.215	1006.94
358.441	1027.94
358.668	1016.94
358.895	1008.94
359.122	996.94
359.349	1031.94
359.576	997.94
359.802	990.94
360.029	1006.94
360.256	1057.94
360.483	992.94
360.709	1001.94
360.936	1026.94
361.163	1034.94
361.39	1020.94
361.616	1027.94
361.843	996.94
362.07	1031.94
362.296	1028.94
362.523	996.94
362.749	1027.94
362.976	1012.94
363.203	1010.94
363.429	1015.94
363.656	1052.94
363.882	1021.94
364.109	1006.94
364.335	1008.94
364.562	1015.94
364.788	1027.94
365.015	1031.94
365.241	1022.94
365.468	1085.94
365.694	1107.94
365.92	1062.94
366.147	1057.94
366.373	1036.94
366.599	1027.94
366.826	1030.94
367.052	1063.94
367.278	1047.94
367.505	1058.94
367.731	1051.94
367.957	1066.94
368.184	1058.94
368.41	1065.94
368.636	1069.94
368.862	1079.94
369.089	1067.94
369.315	1068.94
369.541	1055.94
369.767	1060.94
369.993	1029.94
370.219	1073.94
370.445	1060.94
370.672	1059.94
370.898	1027.94
371.124	1060.94
371.35	1097.94
371.576	1102.94
371.802	1082.94
372.028	1104.94
372.254	1100.94
372.48	1108.94
372.706	1142.94
372.932	1120.94
373.158	1115.94
373.384	1134.94
373.61	1141.94
373.835	1152.94
374.061	1134.94
374.287	1129.94
374.513	1142.94
374.739	1170.94
374.965	1139.94
375.191	1144.94
375.416	1183.94
375.642	1116.94
375.868	1164.94
376.094	1126.94
376.319	1138.94
376.545	1086.94
376.771	1106.94
376.997	1107.94
377.222	1088.94
377.448	1137.94
377.674	1115.94
377.899	1130.94
378.125	1100.94
378.35	1103.94
378.576	1082.94
378.802	1113.94
379.027	1109.94
379.253	1173.94
379.478	1166.94
379.704	1358.94
379.929	1747.94
380.155	2572.94
380.38	2703.94
380.606	1790.94
380.831	1364.94
381.057	1229.94
381.282	1165.94
381.507	1132.94
381.733	1120.94
381.958	1116.94
382.184	1106.94
382.409	1091.94
382.634	1059.94
382.86	1079.94
383.085	1060.94
383.31	1103.94
383.535	1104.94
383.761	1093.94
383.986	1102.94
384.211	1138.94
384.436	1095.94
384.662	1120.94
384.887	1112.94
385.112	1112.94
385.337	1124.94
385.562	1125.94
385.787	1134.94
386.013	1136.94
386.238	1133.94
386.463	1124.94
386.688	1134.94
386.913	1146.94
387.138	1130.94
387.363	1135.94
387.588	1111.94
387.813	1129.94
388.038	1137.94
388.263	1137.94
388.488	1117.94
388.713	1135.94
388.938	1140.94
389.163	1142.94
389.387	1130.94
389.612	1107.94
389.837	1122.94
390.062	1099.94
390.287	1135.94
390.512	1138.94
390.736	1155.94
390.961	1182.94
391.186	1153.94
391.411	1191.94
391.636	1168.94
391.86	1221.94
392.085	1226.94
392.31	1207.94
392.534	1196.94
392.759	1154.94
392.984	1164.94
393.208	1162.94
393.433	1153.94
393.658	1140.94
393.882	1144.94
394.107	1169.94
394.331	1153.94
394.556	1149.94
394.78	1164.94
395.005	1181.94
395.229	1166.94
395.454	1174.94
395.678	1160.94
395.903	1198.94
396.127	1165.94
396.352	1164.94
396.576	1149.94
396.801	1204.94
397.025	1154.94
397.249	1213.94
397.474	1192.94
397.698	1196.94
397.922	1207.94
398.147	1227.94
398.371	1239.94
398.595	1253.94
398.82	1240.94
399.044	1339.94
399.268	1390.94
399.492	1455.94
399.717	1508.94
399.941	1481.94
400.165	1446.94
400.389	1406.94
400.613	1330.94
400.837	1311.94
401.062	1260.94
401.286	1252.94
401.51	1278.94
401.734	1278.94
401.958	1247.94
402.182	1288.94
402.406	1259.94
402.63	1245.94
402.854	1292.94
403.078	1298.94
403.302	1274.94
403.526	1307.94
403.75	1310.94
403.974	1308.94
404.198	1292.94
404.422	1316.94
404.645	1307.94
404.869	1311.94
405.093	1295.94
405.317	1293.94
405.541	1334.94
405.765	1326.94
405.988	1334.94
406.212	1343.94
406.436	1304.94
406.66	1366.94
406.883	1349.94
407.107	1356.94
407.331	1388.94
407.555	1440.94
407.778	1416.94
408.002	1361.94
408.226	1348.94
408.449	1376.94
408.673	1350.94
408.896	1329.94
409.12	1330.94
409.344	1330.94
409.567	1302.94
409.791	1366.94
410.014	1285.94
410.238	1275.94
410.461	1300.94
410.685	1296.94
410.908	1309.94
411.132	1262.94
411.355	1265.94
411.578	1248.94
411.802	1274.94
412.025	1265.94
412.249	1296.94
412.472	1247.94
412.695	1224.94
412.919	1205.94
413.142	1218.94
413.365	1250.94
413.589	1241.94
413.812	1250.94
414.035	1198.94
414.258	1234.94
414.482	1231.94
414.705	1207.94
414.928	1258.94
415.151	1231.94
415.374	1234.94
415.597	1218.94
415.821	1201.94
416.044	1205.94
416.267	1164.94
416.49	1212.94
416.713	1185.94
416.936	1198.94
417.159	1142.94
417.382	1196.94
417.605	1179.94
417.828	1180.94
418.051	1185.94
418.274	1191.94
418.497	1174.94
418.72	1187.94
418.943	1212.94
419.166	1254.94
419.389	1308.94
419.611	1329.94
419.834	1262.94
420.057	1247.94
420.28	1230.94
420.503	1182.94
420.726	1179.94
420.948	1219.94
421.171	1168.94
421.394	1197.94
421.617	1210.94
421.839	1202.94
422.062	1215.94
422.285	1183.94
422.507	1202.94
422.73	1169.94
422.953	1178.94
423.175	1214.94
423.398	1239.94
423.621	1188.94
423.843	1232.94
424.066	1228.94
424.288	1243.94
424.511	1195.94
424.733	1209.94
424.956	1196.94
425.178	1173.94
425.401	1186.94
425.623	1202.94
425.846	1175.94
426.068	1140.94
426.291	1130.94
426.513	1151.94
426.735	1119.94
426.958	1139.94
427.18	1113.94
427.402	1130.94
427.625	1103.94
427.847	1102.94
428.069	1107.94
428.292	1119.94
428.514	1088.94
428.736	1111.94
428.958	1132.94
429.181	1138.94
429.403	1092.94
429.625	1090.94
429.847	1092.94
430.069	1112.94
430.292	1164.94
430.514	1175.94
430.736	1162.94
430.958	1127.94
431.18	1097.94
431.402	1077.94
431.624	1104.94
431.846	1074.94
432.068	1093.94
432.29	1104.94
432.512	1075.94
432.734	1107.94
432.956	1108.94
433.178	1106.94
433.4	1088.94
433.622	1126.94
433.844	1133.94
434.066	1094.94
434.287	1124.94
434.509	1083.94
434.731	1106.94
434.953	1130.94
435.175	1140.94
435.397	1155.94
435.618	1107.94
435.84	1112.94
436.062	1099.94
436.284	1103.94
436.505	1087.94
436.727	1131.94
436.949	1070.94
437.17	1085.94
437.392	1075.94
437.614	1084.94
437.835	1028.94
438.057	1041.94
438.278	1055.94
438.5	1064.94
438.721	1094.94
438.943	1093.94
439.165	1088.94
439.386	1115.94
439.608	1124.94
439.829	1141.94
440.05	1167.94
440.272	1177.94
440.493	1139.94
440.715	1140.94
440.936	1124.94
441.158	1182.94
441.379	1142.94
441.6	1190.94
441.822	1206.94
442.043	1255.94
442.264	1275.94
442.486	1178.94
442.707	1209.94
442.928	1182.94
443.149	1177.94
443.371	1194.94
443.592	1192.94
443.813	1233.94
444.034	1196.94
444.255	1206.94
444.476	1233.94
444.698	1285.94
444.919	1276.94
445.14	1322.94
445.361	1277.94
445.582	1216.94
445.803	1207.94
446.024	1182.94
446.245	1182.94
446.466	1188.94
446.687	1142.94
446.908	1133.94
447.129	1154.94
447.35	1119.94
447.571	1137.94
447.792	1088.94
448.013	1101.94
448.234	1087.94
448.455	1099.94
448.675	1097.94
448.896	1106.94
449.117	1109.94
449.338	1220.94
449.559	1262.94
449.779	1136.94
450	1105.94
450.221	1050.94
450.442	1067.94
450.662	1022.94
450.883	1059.94
451.104	1043.94
451.324	1063.94
451.545	1056.94
451.766	1056.94
451.986	1060.94
452.207	1102.94
452.428	1281.94
452.648	1692.94
452.869	1479.94
453.089	1202.94
453.31	1151.94
453.53	1106.94
453.751	1160.94
453.971	1194.94
454.192	1176.94
454.412	1083.94
454.633	1028.94
454.853	1040.94
455.073	1008.94
455.294	1021.94
455.514	993.94
455.734	1012.94
455.955	1010.94
456.175	992.94
456.395	1010.94
456.616	993.94
456.836	1015.94
457.056	1044.94
457.276	1023.94
457.497	1058.94
457.717	1090.94
457.937	1066.94
458.157	1052.94
458.377	1043.94
458.598	1063.94
458.818	1047.94
459.038	1029.94
459.258	1115.94
459.478	1101.94
459.698	1068.94
459.918	1135.94
460.138	1136.94
460.358	1136.94
460.578	1163.94
460.798	1191.94
461.018	1176.94
461.238	1178.94
461.458	1182.94
461.678	1211.94
461.898	1252.94
462.118	1219.94
462.338	1222.94
462.558	1271.94
462.777	1300.94
462.997	1343.94
463.217	1385.94
463.437	1432.94
463.657	1414.94
463.876	1376.94
464.096	1322.94
464.316	1262.94
464.536	1304.94
464.755	1300.94
464.975	1229.94
465.195	1167.94
465.414	1175.94
465.634	1146.94
465.854	1121.94
466.073	1111.94
466.293	1098.94
466.512	1131.94
466.732	1091.94
466.951	1166.94
467.171	1234.94
467.391	1169.94
467.61	1097.94
467.829	1102.94
468.049	1085.94
468.268	1068.94
468.488	1059.94
468.707	1053.94
468.927	1079.94
469.146	1062.94
469.365	1124.94
469.585	1093.94
469.804	1115.94
470.023	1118.94
470.243	1140.94
470.462	1189.94
470.681	1204.94
470.901	1320.94
471.12	1461.94
471.339	1504.94
471.558	1287.94
471.777	1172.94
471.997	1138.94
472.216	1118.94
472.435	1110.94
472.654	1063.94
472.873	1071.94
473.092	1055.94
473.311	1047.94
473.53	1060.94
473.749	1073.94
473.968	1145.94
474.187	1110.94
474.406	1067.94
474.625	1084.94
474.844	1097.94
475.063	1097.94
475.282	1088.94
475.501	1066.94
475.72	1100.94
475.939	1103.94
476.158	1129.94
476.377	1130.94
476.596	1111.94
476.814	1127.94
477.033	1112.94
477.252	1148.94
477.471	1160.94
477.69	1172.94
477.908	1210.94
478.127	1231.94
478.346	1239.94
478.564	1263.94
478.783	1268.94
479.002	1310.94
479.22	1302.94
479.439	1288.94
479.658	1251.94
479.876	1252.94
480.095	1311.94
480.313	1324.94
480.532	1343.94
480.751	1330.94
480.969	1303.94
481.188	1294.94
481.406	1276.94
481.624	1244.94
481.843	1285.94
482.061	1269.94
482.28	1306.94
482.498	1262.94
482.717	1276.94
482.935	1302.94
483.153	1294.94
483.372	1401.94
483.59	1346.94
483.808	1358.94
484.027	1366.94
484.245	1438.94
484.463	1560.94
484.681	1725.94
484.9	1563.94
485.118	1494.94
485.336	1493.94
485.554	1530.94
485.772	1575.94
485.99	1753.94
486.209	1883.94
486.427	1618.94
486.645	1493.94
486.863	1404.94
487.081	1400.94
487.299	1408.94
487.517	1407.94
487.735	1369.94
487.953	1402.94
488.171	1406.94
488.389	1419.94
488.607	1380.94
488.825	1355.94
489.043	1335.94
489.261	1334.94
489.479	1339.94
489.696	1335.94
489.914	1342.94
490.132	1348.94
490.35	1390.94
490.568	1406.94
490.786	1403.94
491.003	1429.94
491.221	1414.94
491.439	1423.94
491.657	1415.94
491.874	1453.94
492.092	1500.94
492.31	1489.94
492.527	1457.94
492.745	1493.94
492.963	1442.94
493.18	1473.94
493.398	1422.94
493.615	1426.94
493.833	1447.94
494.05	1429.94
494.268	1432.94
494.485	1439.94
494.703	1420.94
494.92	1432.94
495.138	1450.94
495.355	1454.94
495.573	1433.94
495.79	1444.94
496.008	1444.94
496.225	1479.94
496.442	1456.94
496.66	1518.94
496.877	1508.94
497.094	1546.94
497.312	1524.94
497.529	1548.94
497.746	1568.94
497.963	1580.94
498.181	1611.94
498.398	1651.94
498.615	1696.94
498.832	1738.94
499.049	1829.94
499.267	1937.94
499.484	2009.94
499.701	2103.94
499.918	2216.94
500.135	2287.94
500.352	2430.94
500.569	2430.94
500.786	2398.94
501.003	2354.94
501.22	2244.94
501.437	2132.94
501.654	1955.94
501.871	1942.94
502.088	1813.94
502.305	1772.94
502.522	1667.94
502.739	1652.94
502.956	1589.94
503.172	1588.94
503.389	1543.94
503.606	1486.94
503.823	1498.94
504.04	1462.94
504.256	1442.94
504.473	1492.94
504.69	1468.94
504.907	1445.94
505.123	1418.94
505.34	1376.94
505.557	1370.94
505.773	1347.94
505.99	1347.94
506.207	1296.94
506.423	1253.94
506.64	1265.94
506.856	1276.94
507.073	1272.94
507.289	1270.94
507.506	1271.94
507.722	1250.94
507.939	1258.94
508.155	1226.94
508.372	1211.94
508.588	1214.94
508.805	1183.94
509.021	1230.94
509.238	1228.94
509.454	1279.94
509.67	1324.94
509.887	1228.94
510.103	1228.94
510.319	1196.94
510.536	1201.94
510.752	1195.94
510.968	1201.94
511.184	1171.94
511.401	1155.94
511.617	1139.94
511.833	1158.94
512.049	1180.94
512.265	1183.94
512.481	1175.94
512.698	1166.94
512.914	1163.94
513.13	1166.94
513.346	1190.94
513.562	1161.94
513.778	1157.94
513.994	1148.94
514.21	1218.94
514.426	1241.94
514.642	1285.94
514.858	1188.94
515.074	1200.94
515.29	1190.94
515.506	1172.94
515.721	1191.94
515.937	1201.94
516.153	1208.94
516.369	1182.94
516.585	1224.94
516.801	1218.94
517.016	1266.94
517.232	1294.94
517.448	1314.94
517.664	1304.94
517.879	1302.94
518.095	1322.94
518.311	1306.94
518.527	1315.94
518.742	1278.94
518.958	1254.94
519.173	1305.94
519.389	1248.94
519.605	1220.94
519.82	1180.94
520.036	1194.94
520.251	1170.94
520.467	1169.94
520.682	1165.94
520.898	1178.94
521.113	1145.94
521.329	1150.94
521.544	1158.94
521.76	1137.94
521.975	1184.94
522.19	1134.94
522.406	1100.94
522.621	1154.94
522.836	1111.94
523.052	1130.94
523.267	1122.94
523.482	1111.94
523.698	1119.94
523.913	1105.94
524.128	1126.94
524.343	1106.94
524.559	1140.94
524.774	1124.94
524.989	1118.94
525.204	1116.94
525.419	1139.94
525.634	1133.94
525.849	1118.94
526.064	1122.94
526.28	1125.94
526.495	1122.94
526.71	1123.94
526.925	1156.94
527.14	1092.94
527.355	1122.94
527.57	1148.94
527.785	1139.94
527.999	1155.94
528.214	1144.94
528.429	1172.94
528.644	1179.94
528.859	1203.94
529.074	1222.94
529.289	1242.94
529.503	1222.94
529.718	1221.94
529.933	1182.94
530.148	1175.94
530.363	1180.94
530.577	1145.94
530.792	1144.94
531.007	1197.94
531.221	1170.94
531.436	1198.94
531.651	1173.94
531.865	1222.94
532.08	1227.94
532.295	1272.94
532.509	1306.94
532.724	1313.94
532.938	1296.94
533.153	1351.94
533.367	1370.94
533.582	1433.94
533.796	1440.94
534.011	1432.94
534.225	1406.94
534.44	1315.94
534.654	1324.94
534.868	1310.94
535.083	1312.94
535.297	1282.94
535.511	1240.94
535.726	1240.94
535.94	1238.94
536.154	1207.94
536.369	1189.94
536.583	1178.94
536.797	1182.94
537.011	1177.94
537.225	1141.94
537.44	1151.94
537.654	1162.94
537.868	1137.94
538.082	1106.94
538.296	1118.94
538.51	1151.94
538.724	1108.94
538.938	1115.94
539.153	1090.94
539.367	1152.94
539.581	1099.94
539.795	1052.94
540.009	1102.94
540.222	1081.94
540.436	1069.94
540.65	1099.94
540.864	1113.94
541.078	1140.94
541.292	1181.94
541.506	1350.94
541.72	1389.94
541.934	1235.94
542.147	1224.94
542.361	1155.94
542.575	1134.94
542.789	1102.94
543.002	1060.94
543.216	1083.94
543.43	1026.94
543.644	1028.94
543.857	1033.94
544.071	1104.94
544.285	1099.94
544.498	1080.94
544.712	1092.94
544.925	1121.94
545.139	1129.94
545.352	1098.94
545.566	1086.94
545.779	1103.94
545.993	1109.94
546.206	1123.94
546.42	1070.94
546.633	1094.94
546.847	1087.94
547.06	1069.94
547.274	1104.94
547.487	1120.94
547.7	1131.94
547.914	1113.94
548.127	1078.94
548.34	1087.94
548.554	1070.94
548.767	1084.94
548.98	1115.94
549.193	1090.94
549.407	1124.94
549.62	1094.94
549.833	1119.94
550.046	1100.94
550.259	1086.94
550.473	1087.94
550.686	1103.94
550.899	1084.94
551.112	1112.94
551.325	1114.94
551.538	1077.94
551.751	1036.94
551.964	1061.94
552.177	1089.94
552.39	1101.94
552.603	1126.94
552.816	1174.94
553.029	1133.94
553.242	1168.94
553.455	1183.94
553.667	1179.94
553.88	1192.94
554.093	1191.94
554.306	1204.94
554.519	1172.94
554.732	1224.94
554.944	1237.94
555.157	1245.94
555.37	1302.94
555.583	1322.94
555.795	1353.94
556.008	1388.94
556.221	1516.94
556.433	1558.94
556.646	1540.94
556.859	1514.94
557.071	1551.94
557.284	1481.94
557.496	1477.94
557.709	1447.94
557.921	1437.94
558.134	1431.94
558.346	1451.94
558.559	1496.94
558.771	1526.94
558.984	1633.94
559.196	1706.94
559.409	1680.94
559.621	1564.94
559.833	1494.94
560.046	1460.94
560.258	1393.94
560.47	1368.94
560.683	1316.94
560.895	1269.94
561.107	1220.94
561.32	1198.94
561.532	1171.94
561.744	1168.94
561.956	1123.94
562.168	1136.94
562.381	1090.94
562.593	1100.94
562.805	1095.94
563.017	1110.94
563.229	1092.94
563.441	1166.94
563.653	1095.94
563.865	1040.94
564.077	986.94
564.289	976.94
564.501	1005.94
564.713	1008.94
564.925	1024.94
565.137	1013.94
565.349	1040.94
565.561	994.94
565.773	1027.94
565.985	1032.94
566.197	1046.94
566.408	1032.94
566.62	1075.94
566.832	1121.94
567.044	1130.94
567.255	1139.94
567.467	1109.94
567.679	1142.94
567.891	1166.94
568.102	1297.94
568.314	1460.94
568.526	1282.94
568.737	1144.94
568.949	1050.94
569.161	966.94
569.372	951.94
569.584	944.94
569.795	911.94
570.007	899.94
570.218	890.94
570.43	913.94
570.641	845.94
570.853	839.94
571.064	858.94
571.276	844.94
571.487	818.94
571.698	826.94
571.91	802.94
572.121	801.94
572.333	796.94
572.544	786.94
572.755	813.94
572.966	935.94
573.178	831.94
573.389	790.94
573.6	783.94
573.811	758.94
574.023	739.94
574.234	745.94
574.445	727.94
574.656	752.94
574.867	720.94
575.078	727.94
575.289	737.94
575.501	748.94
575.712	722.94
575.923	695.94
576.134	711.94
576.345	733.94
576.556	714.94
576.767	734.94
576.978	735.94
577.188	739.94
577.399	730.94
577.61	736.94
577.821	720.94
578.032	751.94
578.243	758.94
578.454	760.94
578.665	785.94
578.875	783.94
579.086	812.94
579.297	817.94
579.508	848.94
579.718	935.94
579.929	1016.94
580.14	1132.94
580.35	1143.94
580.561	1109.94
580.772	1028.94
580.982	972.94
581.193	919.94
581.403	892.94
581.614	868.94
581.825	822.94
582.035	782.94
582.246	742.94
582.456	750.94
582.667	772.94
582.877	724.94
583.087	712.94
583.298	680.94
583.508	692.94
583.719	667.94
583.929	661.94
584.139	658.94
584.35	628.94
584.56	626.94
584.77	616.94
584.981	634.94
585.191	620.94
585.401	602.94
585.611	602.94
585.821	599.94
586.032	564.94
586.242	583.94
586.452	586.94
586.662	599.94
586.872	566.94
587.082	562.94
587.292	550.94
587.502	554.94
587.713	568.94
587.923	541.94
588.133	542.94
588.343	519.94
588.553	533.94
588.762	541.94
588.972	540.94
589.182	550.94
589.392	524.94
589.602	519.94
589.812	511.94
590.022	529.94
590.232	508.94
590.441	514.94
590.651	539.94
590.861	535.94
591.071	530.94
591.281	530.94
591.49	499.94
591.7	519.94
591.91	534.94
592.119	527.94
592.329	532.94
592.539	522.94
592.748	559.94
592.958	544.94
593.167	544.94
593.377	566.94
593.587	551.94
593.796	560.94
594.006	552.94
594.215	553.94
594.424	533.94
594.634	528.94
594.843	538.94
595.053	518.94
595.262	528.94
595.472	508.94
595.681	508.94
595.89	499.94
596.1	515.94
596.309	475.94
596.518	469.94
596.727	457.94
596.937	460.94
597.146	468.94
597.355	470.94
597.564	463.94
597.774	443.94
597.983	445.94
598.192	452.94
598.401	436.94
598.61	453.94
598.819	473.94
599.028	443.94
599.237	439.94
599.446	438.94
599.655	444.94
599.864	437.94
600.073	440.94
600.282	452.94
600.491	433.94
600.7	439.94
600.909	430.94
601.118	426.94
601.327	442.94
601.536	452.94
601.745	442.94
601.953	472.94
602.162	495.94
602.371	480.94
602.58	446.94
602.789	441.94
602.997	432.94
603.206	447.94
603.415	431.94
603.623	408.94
603.832	431.94
604.041	427.94
604.249	401.94
604.458	410.94
604.666	408.94
604.875	389.94
605.084	408.94
605.292	405.94
605.501	410.94
605.709	437.94
605.918	435.94
606.126	403.94
606.334	422.94
606.543	436.94
606.751	423.94
606.96	462.94
607.168	540.94
607.376	463.94
607.585	452.94
607.793	432.94
608.001	419.94
608.21	416.94
608.418	398.94
608.626	408.94
608.834	422.94
609.043	400.94
609.251	412.94
609.459	407.94
609.667	414.94
609.875	384.94
610.083	404.94
610.291	389.94
610.499	394.94
610.707	386.94
610.916	393.94
611.124	382.94
611.332	372.94
611.54	391.94
611.748	408.94
611.955	401.94
612.163	392.94
612.371	385.94
612.579	380.94
612.787	384.94
612.995	383.94
613.203	402.94
613.411	380.94
613.618	369.94
613.826	362.94
614.034	355.94
614.242	394.94
614.449	370.94
614.657	379.94
614.865	385.94
615.072	384.94
615.28	383.94
615.488	394.94
615.695	364.94
615.903	367.94
616.111	372.94
616.318	394.94
616.526	386.94
616.733	374.94
616.941	366.94
617.148	368.94
617.356	375.94
617.563	363.94
617.771	378.94
617.978	364.94
618.185	362.94
618.393	354.94
618.6	370.94
618.807	372.94
619.015	366.94
619.222	350.94
619.429	365.94
619.637	374.94
619.844	357.94
620.051	358.94
620.258	354.94
620.466	354.94
620.673	339.94
620.88	329.94
621.087	334.94
621.294	320.94
621.501	330.94
621.708	341.94
621.915	348.94
622.122	336.94
622.329	357.94
622.536	351.94
622.743	332.94
622.95	332.94
623.157	344.94
623.364	333.94
623.571	359.94
623.778	344.94
623.985	339.94
624.192	319.94
624.399	326.94
624.606	327.94
624.812	323.94
625.019	310.94
625.226	323.94
625.433	308.94
625.639	330.94
625.846	326.94
626.053	293.94
626.259	310.94
626.466	295.94
626.673	302.94
626.879	310.94
627.086	323.94
627.293	299.94
627.499	298.94
627.706	317.94
627.912	335.94
628.119	312.94
628.325	307.94
628.532	311.94
628.738	313.94
628.945	308.94
629.151	310.94
629.357	300.94
629.564	313.94
629.77	302.94
629.976	290.94
630.183	301.94
630.389	282.94
630.595	282.94
630.802	281.94
631.008	295.94
631.214	311.94
631.42	307.94
631.627	291.94
631.833	284.94
632.039	266.94
632.245	283.94
632.451	300.94
632.657	289.94
632.863	294.94
633.069	287.94
633.275	291.94
633.481	292.94
633.688	289.94
633.893	284.94
634.099	305.94
634.305	276.94
634.511	287.94
634.717	301.94
634.923	274.94
635.129	335.94
635.335	353.94
635.541	325.94
635.747	313.94
635.952	308.94
636.158	302.94
636.364	290.94
636.57	306.94
636.775	312.94
636.981	288.94
637.187	302.94
637.392	298.94
637.598	273.94
637.804	285.94
638.009	287.94
638.215	298.94
638.421	285.94
638.626	282.94
638.832	302.94
639.037	300.94
639.243	283.94
639.448	288.94
639.654	298.94
639.859	286.94
640.065	304.94
640.27	302.94
640.475	297.94
640.681	293.94
640.886	289.94
641.091	315.94
641.297	300.94
641.502	312.94
641.707	308.94
641.913	329.94
642.118	330.94
642.323	307.94
642.528	318.94
642.733	317.94
642.939	344.94
643.144	321.94
643.349	357.94
643.554	347.94
643.759	355.94
643.964	375.94
644.169	388.94
644.374	422.94
644.579	448.94
644.784	478.94
644.989	541.94
645.194	584.94
645.399	635.94
645.604	661.94
645.809	524.94
646.014	462.94
646.219	413.94
646.423	374.94
646.628	342.94
646.833	306.94
647.038	312.94
647.243	297.94
647.447	302.94
647.652	310.94
647.857	284.94
648.062	291.94
648.266	290.94
648.471	281.94
648.676	274.94
648.88	271.94
649.085	267.94
649.289	257.94
649.494	257.94
649.698	251.94
649.903	263.94
650.107	250.94
650.312	250.94
650.516	261.94
650.721	241.94
650.925	223.94
651.13	234.94
651.334	234.94
651.539	238.94
651.743	226.94
651.947	215.94
652.152	207.94
652.356	223.94
652.56	232.94
652.764	268.94
652.969	227.94
653.173	212.94
653.377	211.94
653.581	205.94
653.785	219.94
653.99	188.94
654.194	218.94
654.398	190.94
654.602	203.94
654.806	192.94
655.01	199.94
655.214	195.94
655.418	197.94
655.622	190.94
655.826	212.94
656.03	210.94
656.234	217.94
656.438	222.94
656.642	221.94
656.846	206.94
657.049	204.94
657.253	191.94
657.457	180.94
657.661	178.94
657.865	163.94
658.068	152.94
658.272	146.94
658.476	158.94
658.68	147.94
658.883	146.94
659.087	139.94
659.291	116.94
659.494	116.94
659.698	116.94
659.901	110.94
660.105	119.94
660.309	109.94
660.512	104.94
660.716	111.94
660.919	109.94
661.123	126.94
661.326	99.94
661.53	96.94
661.733	94.94
661.936	99.94
662.14	94.94
662.343	72.94
662.546	96.94
662.75	86.94
662.953	79.94
663.156	84.94
663.36	76.94
663.563	81.94
663.766	91.94
663.969	91.94
664.173	76.94
664.376	92.94
664.579	84.94
664.782	66.94
664.985	83.94
665.188	74.94
665.391	76.94
665.594	79.94
665.797	72.94
666	68.94
666.203	96.94
666.406	84.94
666.609	71.94
666.812	80.94
667.015	63.94
667.218	75.94
667.421	72.94
667.624	88.94
667.827	70.94
668.03	78.94
668.232	71.94
668.435	66.94
668.638	71.94
668.841	64.94
669.043	70.94
669.246	74.94
669.449	80.94
669.651	74.94
669.854	66.94
670.057	86.94
670.259	64.94
670.462	82.94
670.665	79.94
670.867	76.94
671.07	86.94
671.272	82.94
671.475	71.94
671.677	69.94
671.88	81.94
672.082	67.94
672.284	87.94
672.487	78.94
672.689	89.94
672.892	69.94
