Data from SnStandardFlinnAPT0064_QswitchEnergy10_LIBS07252019.E.O._I.C._HRD10591_15-28-34-973.txt Node
Date: Thu Jul 25 15:28:34 EDT 2019
User: cochatt
Spectrometer: HR+D1059
Trigger mode: 1
Integration Time (sec): 1.000000E-1
Scans to average: 1
Electric dark correction enabled: true
Nonlinearity correction enabled: false
Boxcar width: 0
XAxis mode: Wavelengths
Number of Pixels in Spectrum: 2048
>>>>>Begin Spectral Data<<<<<
223.165	-18.94
223.4	-18.94
223.635	-18.94
223.869	-6.94
224.104	-19.94
224.338	-4.94
224.573	-13.94
224.808	-16.94
225.042	-6.94
225.277	-14.94
225.511	-4.94
225.746	3.06
225.98	10.06
226.215	13.06
226.449	21.06
226.683	10.06
226.918	25.06
227.152	26.06
227.387	42.06
227.621	33.06
227.856	28.06
228.09	42.06
228.324	55.06
228.559	53.06
228.793	55.06
229.027	72.06
229.262	79.06
229.496	73.06
229.73	84.06
229.964	62.06
230.199	66.06
230.433	83.06
230.667	93.06
230.901	78.06
231.136	94.06
231.37	98.06
231.604	93.06
231.838	91.06
232.072	119.06
232.306	111.06
232.541	87.06
232.775	80.06
233.009	86.06
233.243	83.06
233.477	87.06
233.711	85.06
233.945	112.06
234.179	106.06
234.413	73.06
234.647	79.06
234.881	86.06
235.115	80.06
235.349	107.06
235.583	103.06
235.817	149.06
236.051	139.06
236.285	99.06
236.519	87.06
236.753	79.06
236.987	83.06
237.221	77.06
237.455	73.06
237.689	72.06
237.922	76.06
238.156	75.06
238.39	94.06
238.624	86.06
238.858	96.06
239.091	68.06
239.325	66.06
239.559	86.06
239.793	87.06
240.027	84.06
240.26	77.06
240.494	93.06
240.728	89.06
240.961	80.06
241.195	88.06
241.429	91.06
241.662	90.06
241.896	90.06
242.13	99.06
242.363	121.06
242.597	161.06
242.83	137.06
243.064	132.06
243.298	181.06
243.531	153.06
243.765	102.06
243.998	85.06
244.232	85.06
244.465	84.06
244.699	86.06
244.932	75.06
245.166	72.06
245.399	94.06
245.633	87.06
245.866	91.06
246.099	85.06
246.333	79.06
246.566	82.06
246.8	83.06
247.033	84.06
247.266	73.06
247.5	77.06
247.733	82.06
247.966	80.06
248.2	92.06
248.433	112.06
248.666	139.06
248.899	116.06
249.133	93.06
249.366	100.06
249.599	110.06
249.832	126.06
250.066	134.06
250.299	97.06
250.532	85.06
250.765	83.06
250.998	94.06
251.231	71.06
251.465	76.06
251.698	88.06
251.931	89.06
252.164	82.06
252.397	95.06
252.63	107.06
252.863	93.06
253.096	106.06
253.329	86.06
253.562	89.06
253.795	86.06
254.028	95.06
254.261	100.06
254.494	94.06
254.727	132.06
254.96	162.06
255.193	146.06
255.426	101.06
255.659	100.06
255.892	86.06
256.124	102.06
256.357	95.06
256.59	99.06
256.823	87.06
257.056	123.06
257.289	149.06
257.521	183.06
257.754	118.06
257.987	85.06
258.22	83.06
258.452	85.06
258.685	93.06
258.918	91.06
259.151	97.06
259.383	122.06
259.616	143.06
259.849	160.06
260.081	112.06
260.314	107.06
260.547	92.06
260.779	90.06
261.012	93.06
261.244	87.06
261.477	85.06
261.71	86.06
261.942	88.06
262.175	86.06
262.407	72.06
262.64	88.06
262.872	87.06
263.105	87.06
263.337	82.06
263.57	78.06
263.802	89.06
264.035	85.06
264.267	75.06
264.499	65.06
264.732	76.06
264.964	86.06
265.197	80.06
265.429	99.06
265.661	95.06
265.894	100.06
266.126	123.06
266.358	159.06
266.591	137.06
266.823	117.06
267.055	79.06
267.287	98.06
267.52	70.06
267.752	88.06
267.984	75.06
268.216	92.06
268.448	88.06
268.681	97.06
268.913	95.06
269.145	84.06
269.377	96.06
269.609	77.06
269.841	94.06
270.073	102.06
270.306	127.06
270.538	202.06
270.77	337.06
271.002	391.06
271.234	205.06
271.466	119.06
271.698	98.06
271.93	101.06
272.162	104.06
272.394	91.06
272.626	86.06
272.858	82.06
273.09	81.06
273.322	91.06
273.553	84.06
273.785	87.06
274.017	83.06
274.249	97.06
274.481	88.06
274.713	80.06
274.945	87.06
275.176	90.06
275.408	95.06
275.64	96.06
275.872	93.06
276.104	92.06
276.335	109.06
276.567	97.06
276.799	93.06
277.031	93.06
277.262	97.06
277.494	111.06
277.726	124.06
277.957	191.06
278.189	258.06
278.421	254.06
278.652	198.06
278.884	187.06
279.115	136.06
279.347	103.06
279.579	101.06
279.81	101.06
280.042	106.06
280.273	106.06
280.505	116.06
280.736	109.06
280.968	115.06
281.199	190.06
281.431	261.06
281.662	274.06
281.894	183.06
282.125	114.06
282.356	112.06
282.588	116.06
282.819	118.06
283.051	110.06
283.282	132.06
283.513	192.06
283.745	314.06
283.976	596.06
284.207	827.06
284.439	606.06
284.67	290.06
284.901	252.06
285.132	374.06
285.364	419.06
285.595	248.06
285.826	193.06
286.057	279.06
286.288	437.06
286.52	656.06
286.751	522.06
286.982	212.06
287.213	115.06
287.444	107.06
287.675	104.06
287.906	111.06
288.138	99.06
288.369	93.06
288.6	92.06
288.831	86.06
289.062	100.06
289.293	107.06
289.524	108.06
289.755	90.06
289.986	88.06
290.217	101.06
290.448	95.06
290.679	98.06
290.91	148.06
291.141	181.06
291.371	279.06
291.602	332.06
291.833	219.06
292.064	129.06
292.295	105.06
292.526	84.06
292.757	85.06
292.987	74.06
293.218	96.06
293.449	101.06
293.68	88.06
293.91	96.06
294.141	85.06
294.372	91.06
294.603	98.06
294.833	95.06
295.064	97.06
295.295	93.06
295.525	85.06
295.756	106.06
295.987	102.06
296.217	100.06
296.448	105.06
296.679	97.06
296.909	100.06
297.14	110.06
297.37	90.06
297.601	103.06
297.831	106.06
298.062	98.06
298.292	101.06
298.523	105.06
298.753	95.06
298.984	100.06
299.214	100.06
299.445	108.06
299.675	114.06
299.905	127.06
300.136	135.06
300.366	170.06
300.597	298.06
300.827	491.06
301.057	726.06
301.288	642.06
301.518	275.06
301.748	157.06
301.979	123.06
302.209	148.06
302.439	152.06
302.669	176.06
302.9	305.06
303.13	553.06
303.36	961.06
303.59	1340.06
303.82	902.06
304.051	327.06
304.281	170.06
304.511	129.06
304.741	119.06
304.971	117.06
305.201	107.06
305.431	123.06
305.661	113.06
305.891	91.06
306.121	103.06
306.352	122.06
306.582	102.06
306.812	101.06
307.042	102.06
307.272	108.06
307.502	111.06
307.731	104.06
307.961	105.06
308.191	96.06
308.421	106.06
308.651	122.06
308.881	101.06
309.111	97.06
309.341	109.06
309.571	119.06
309.8	99.06
310.03	106.06
310.26	116.06
310.49	129.06
310.72	104.06
310.949	112.06
311.179	115.06
311.409	103.06
311.639	115.06
311.868	119.06
312.098	101.06
312.328	117.06
312.557	119.06
312.787	103.06
313.017	113.06
313.246	141.06
313.476	122.06
313.706	135.06
313.935	179.06
314.165	217.06
314.394	254.06
314.624	200.06
314.853	127.06
315.083	130.06
315.312	146.06
315.542	151.06
315.771	142.06
316.001	133.06
316.23	163.06
316.46	159.06
316.689	208.06
316.919	266.06
317.148	535.06
317.377	949.06
317.607	1597.06
317.836	1488.06
318.065	588.06
318.295	239.06
318.524	168.06
318.753	163.06
318.983	129.06
319.212	138.06
319.441	133.06
319.67	126.06
319.9	120.06
320.129	121.06
320.358	133.06
320.587	118.06
320.816	120.06
321.046	131.06
321.275	122.06
321.504	123.06
321.733	164.06
321.962	173.06
322.191	179.06
322.42	143.06
322.649	145.06
322.878	118.06
323.108	134.06
323.337	118.06
323.566	131.06
323.795	131.06
324.024	138.06
324.253	160.06
324.482	185.06
324.71	232.06
324.939	290.06
325.168	244.06
325.397	200.06
325.626	284.06
325.855	533.06
326.084	1011.06
326.313	1716.06
326.542	1663.06
326.77	664.06
326.999	281.06
327.228	230.06
327.457	250.06
327.686	253.06
327.914	174.06
328.143	146.06
328.372	139.06
328.6	129.06
328.829	126.06
329.058	120.06
329.287	115.06
329.515	130.06
329.744	130.06
329.972	122.06
330.201	124.06
330.43	122.06
330.658	121.06
330.887	115.06
331.115	114.06
331.344	119.06
331.572	125.06
331.801	137.06
332.03	136.06
332.258	147.06
332.486	194.06
332.715	315.06
332.943	549.06
333.172	847.06
333.4	725.06
333.629	269.06
333.857	159.06
334.085	154.06
334.314	134.06
334.542	124.06
334.771	118.06
334.999	120.06
335.227	125.06
335.455	135.06
335.684	129.06
335.912	117.06
336.14	115.06
336.369	109.06
336.597	116.06
336.825	113.06
337.053	110.06
337.281	105.06
337.51	121.06
337.738	123.06
337.966	107.06
338.194	125.06
338.422	114.06
338.65	114.06
338.878	132.06
339.106	127.06
339.334	129.06
339.562	125.06
339.79	116.06
340.018	124.06
340.246	110.06
340.474	122.06
340.702	104.06
340.93	104.06
341.158	122.06
341.386	128.06
341.614	106.06
341.842	118.06
342.07	136.06
342.298	122.06
342.526	122.06
342.754	117.06
342.981	123.06
343.209	120.06
343.437	116.06
343.665	122.06
343.893	121.06
344.12	119.06
344.348	122.06
344.576	121.06
344.804	110.06
345.031	127.06
345.259	123.06
345.487	99.06
345.714	111.06
345.942	117.06
346.17	115.06
346.397	115.06
346.625	107.06
346.853	102.06
347.08	116.06
347.308	117.06
347.535	102.06
347.763	112.06
347.99	115.06
348.218	107.06
348.445	114.06
348.673	116.06
348.9	111.06
349.128	136.06
349.355	127.06
349.583	121.06
349.81	116.06
350.037	106.06
350.265	121.06
350.492	133.06
350.72	121.06
350.947	111.06
351.174	122.06
351.402	116.06
351.629	115.06
351.856	125.06
352.083	116.06
352.311	115.06
352.538	118.06
352.765	125.06
352.992	113.06
353.22	127.06
353.447	113.06
353.674	109.06
353.901	117.06
354.128	98.06
354.355	105.06
354.583	131.06
354.81	106.06
355.037	100.06
355.264	106.06
355.491	122.06
355.718	108.06
355.945	122.06
356.172	122.06
356.399	116.06
356.626	107.06
356.853	109.06
357.08	123.06
357.307	109.06
357.534	114.06
357.761	104.06
357.988	104.06
358.215	105.06
358.441	114.06
358.668	117.06
358.895	127.06
359.122	122.06
359.349	116.06
359.576	123.06
359.802	135.06
360.029	123.06
360.256	120.06
360.483	108.06
360.709	123.06
360.936	122.06
361.163	136.06
361.39	101.06
361.616	117.06
361.843	120.06
362.07	125.06
362.296	119.06
362.523	108.06
362.749	103.06
362.976	104.06
363.203	100.06
363.429	102.06
363.656	115.06
363.882	118.06
364.109	130.06
364.335	133.06
364.562	115.06
364.788	109.06
365.015	120.06
365.241	138.06
365.468	209.06
365.694	310.06
365.92	241.06
366.147	118.06
366.373	99.06
366.599	87.06
366.826	98.06
367.052	115.06
367.278	109.06
367.505	105.06
367.731	109.06
367.957	99.06
368.184	129.06
368.41	135.06
368.636	126.06
368.862	121.06
369.089	106.06
369.315	114.06
369.541	106.06
369.767	120.06
369.993	120.06
370.219	104.06
370.445	111.06
370.672	109.06
370.898	105.06
371.124	119.06
371.35	118.06
371.576	111.06
371.802	109.06
372.028	108.06
372.254	122.06
372.48	112.06
372.706	125.06
372.932	120.06
373.158	113.06
373.384	123.06
373.61	126.06
373.835	143.06
374.061	114.06
374.287	136.06
374.513	103.06
374.739	125.06
374.965	114.06
375.191	114.06
375.416	115.06
375.642	131.06
375.868	121.06
376.094	114.06
376.319	119.06
376.545	113.06
376.771	119.06
376.997	119.06
377.222	113.06
377.448	122.06
377.674	119.06
377.899	106.06
378.125	107.06
378.35	126.06
378.576	121.06
378.802	139.06
379.027	130.06
379.253	148.06
379.478	195.06
379.704	314.06
379.929	837.06
380.155	1713.06
380.38	1802.06
380.606	577.06
380.831	217.06
381.057	139.06
381.282	125.06
381.507	101.06
381.733	114.06
381.958	105.06
382.184	115.06
382.409	112.06
382.634	118.06
382.86	111.06
383.085	106.06
383.31	115.06
383.535	106.06
383.761	110.06
383.986	114.06
384.211	122.06
384.436	118.06
384.662	98.06
384.887	117.06
385.112	104.06
385.337	103.06
385.562	105.06
385.787	111.06
386.013	113.06
386.238	110.06
386.463	109.06
386.688	106.06
386.913	121.06
387.138	115.06
387.363	117.06
387.588	99.06
387.813	121.06
388.038	113.06
388.263	111.06
388.488	125.06
388.713	116.06
388.938	113.06
389.163	110.06
389.387	107.06
389.612	105.06
389.837	106.06
390.062	92.06
390.287	122.06
390.512	112.06
390.736	116.06
390.961	120.06
391.186	117.06
391.411	105.06
391.636	113.06
391.86	103.06
392.085	94.06
392.31	113.06
392.534	107.06
392.759	99.06
392.984	118.06
393.208	117.06
393.433	162.06
393.658	157.06
393.882	121.06
394.107	105.06
394.331	103.06
394.556	92.06
394.78	113.06
395.005	115.06
395.229	102.06
395.454	100.06
395.678	105.06
395.903	123.06
396.127	95.06
396.352	114.06
396.576	110.06
396.801	114.06
397.025	138.06
397.249	107.06
397.474	92.06
397.698	104.06
397.922	98.06
398.147	110.06
398.371	112.06
398.595	105.06
398.82	99.06
399.044	112.06
399.268	103.06
399.492	106.06
399.717	100.06
399.941	119.06
400.165	113.06
400.389	109.06
400.613	99.06
400.837	99.06
401.062	94.06
401.286	99.06
401.51	93.06
401.734	102.06
401.958	98.06
402.182	84.06
402.406	101.06
402.63	106.06
402.854	99.06
403.078	96.06
403.302	99.06
403.526	110.06
403.75	113.06
403.974	77.06
404.198	87.06
404.422	105.06
404.645	113.06
404.869	108.06
405.093	106.06
405.317	115.06
405.541	98.06
405.765	139.06
405.988	159.06
406.212	113.06
406.436	106.06
406.66	102.06
406.883	90.06
407.107	113.06
407.331	79.06
407.555	93.06
407.778	99.06
408.002	99.06
408.226	98.06
408.449	110.06
408.673	106.06
408.896	95.06
409.12	99.06
409.344	106.06
409.567	95.06
409.791	106.06
410.014	94.06
410.238	106.06
410.461	107.06
410.685	112.06
410.908	94.06
411.132	106.06
411.355	98.06
411.578	100.06
411.802	98.06
412.025	88.06
412.249	117.06
412.472	111.06
412.695	114.06
412.919	102.06
413.142	107.06
413.365	99.06
413.589	99.06
413.812	110.06
414.035	121.06
414.258	112.06
414.482	105.06
414.705	116.06
414.928	110.06
415.151	97.06
415.374	109.06
415.597	102.06
415.821	108.06
416.044	111.06
416.267	94.06
416.49	95.06
416.713	112.06
416.936	102.06
417.159	104.06
417.382	84.06
417.605	90.06
417.828	93.06
418.051	98.06
418.274	97.06
418.497	113.06
418.72	101.06
418.943	94.06
419.166	123.06
419.389	115.06
419.611	106.06
419.834	107.06
420.057	112.06
420.28	106.06
420.503	103.06
420.726	112.06
420.948	97.06
421.171	102.06
421.394	97.06
421.617	96.06
421.839	97.06
422.062	110.06
422.285	106.06
422.507	128.06
422.73	141.06
422.953	151.06
423.175	105.06
423.398	101.06
423.621	98.06
423.843	105.06
424.066	101.06
424.288	92.06
424.511	95.06
424.733	93.06
424.956	101.06
425.178	92.06
425.401	84.06
425.623	96.06
425.846	112.06
426.068	101.06
426.291	104.06
426.513	93.06
426.735	110.06
426.958	108.06
427.18	99.06
427.402	115.06
427.625	87.06
427.847	94.06
428.069	97.06
428.292	114.06
428.514	105.06
428.736	89.06
428.958	95.06
429.181	98.06
429.403	103.06
429.625	98.06
429.847	110.06
430.069	103.06
430.292	105.06
430.514	110.06
430.736	100.06
430.958	98.06
431.18	103.06
431.402	114.06
431.624	102.06
431.846	86.06
432.068	107.06
432.29	109.06
432.512	107.06
432.734	97.06
432.956	95.06
433.178	99.06
433.4	103.06
433.622	97.06
433.844	104.06
434.066	98.06
434.287	103.06
434.509	101.06
434.731	101.06
434.953	96.06
435.175	80.06
435.397	92.06
435.618	97.06
435.84	81.06
436.062	98.06
436.284	94.06
436.505	102.06
436.727	110.06
436.949	109.06
437.17	104.06
437.392	113.06
437.614	107.06
437.835	93.06
438.057	111.06
438.278	104.06
438.5	90.06
438.721	93.06
438.943	101.06
439.165	95.06
439.386	98.06
439.608	98.06
439.829	99.06
440.05	118.06
440.272	118.06
440.493	117.06
440.715	114.06
440.936	105.06
441.158	107.06
441.379	122.06
441.6	94.06
441.822	115.06
442.043	121.06
442.264	135.06
442.486	129.06
442.707	114.06
442.928	88.06
443.149	97.06
443.371	100.06
443.592	95.06
443.813	98.06
444.034	111.06
444.255	98.06
444.476	87.06
444.698	90.06
444.919	98.06
445.14	167.06
445.361	148.06
445.582	106.06
445.803	98.06
446.024	103.06
446.245	117.06
446.466	121.06
446.687	115.06
446.908	94.06
447.129	81.06
447.35	119.06
447.571	106.06
447.792	95.06
448.013	97.06
448.234	109.06
448.455	102.06
448.675	96.06
448.896	115.06
449.117	113.06
449.338	135.06
449.559	158.06
449.779	124.06
450	102.06
450.221	89.06
450.442	125.06
450.662	123.06
450.883	116.06
451.104	112.06
451.324	131.06
451.545	125.06
451.766	123.06
451.986	136.06
452.207	228.06
452.428	614.06
452.648	1505.06
452.869	856.06
453.089	225.06
453.31	141.06
453.53	127.06
453.751	163.06
453.971	160.06
454.192	148.06
454.412	125.06
454.633	98.06
454.853	103.06
455.073	94.06
455.294	89.06
455.514	95.06
455.734	98.06
455.955	105.06
456.175	93.06
456.395	94.06
456.616	103.06
456.836	105.06
457.056	101.06
457.276	105.06
457.497	130.06
457.717	127.06
457.937	91.06
458.157	103.06
458.377	95.06
458.598	86.06
458.818	94.06
459.038	91.06
459.258	94.06
459.478	82.06
459.698	89.06
459.918	96.06
460.138	86.06
460.358	90.06
460.578	79.06
460.798	89.06
461.018	91.06
461.238	92.06
461.458	87.06
461.678	99.06
461.898	90.06
462.118	106.06
462.338	100.06
462.558	101.06
462.777	104.06
462.997	95.06
463.217	111.06
463.437	136.06
463.657	195.06
463.876	185.06
464.096	127.06
464.316	101.06
464.536	106.06
464.755	101.06
464.975	88.06
465.195	104.06
465.414	103.06
465.634	98.06
465.854	89.06
466.073	101.06
466.293	92.06
466.512	91.06
466.732	125.06
466.951	118.06
467.171	141.06
467.391	143.06
467.61	114.06
467.829	98.06
468.049	103.06
468.268	95.06
468.488	88.06
468.707	94.06
468.927	99.06
469.146	90.06
469.365	100.06
469.585	107.06
469.804	110.06
470.023	94.06
470.243	98.06
470.462	103.06
470.681	112.06
470.901	131.06
471.12	182.06
471.339	213.06
471.558	137.06
471.777	129.06
471.997	90.06
472.216	106.06
472.435	84.06
472.654	98.06
472.873	104.06
473.092	94.06
473.311	107.06
473.53	104.06
473.749	87.06
473.968	111.06
474.187	109.06
474.406	87.06
474.625	100.06
474.844	97.06
475.063	93.06
475.282	90.06
475.501	94.06
475.72	98.06
475.939	95.06
476.158	117.06
476.377	104.06
476.596	106.06
476.814	96.06
477.033	103.06
477.252	115.06
477.471	110.06
477.69	85.06
477.908	106.06
478.127	104.06
478.346	98.06
478.564	91.06
478.783	113.06
479.002	105.06
479.22	102.06
479.439	91.06
479.658	109.06
479.876	94.06
480.095	97.06
480.313	98.06
480.532	94.06
480.751	89.06
480.969	102.06
481.188	91.06
481.406	125.06
481.624	100.06
481.843	125.06
482.061	119.06
482.28	103.06
482.498	93.06
482.717	107.06
482.935	98.06
483.153	91.06
483.372	90.06
483.59	94.06
483.808	104.06
484.027	104.06
484.245	128.06
484.463	179.06
484.681	237.06
484.9	159.06
485.118	133.06
485.336	115.06
485.554	104.06
485.772	127.06
485.99	192.06
486.209	242.06
486.427	165.06
486.645	130.06
486.863	118.06
487.081	116.06
487.299	99.06
487.517	98.06
487.735	103.06
487.953	100.06
488.171	107.06
488.389	97.06
488.607	106.06
488.825	107.06
489.043	97.06
489.261	102.06
489.479	83.06
489.696	100.06
489.914	95.06
490.132	96.06
490.35	121.06
490.568	103.06
490.786	97.06
491.003	122.06
491.221	120.06
491.439	119.06
491.657	111.06
491.874	110.06
492.092	115.06
492.31	121.06
492.527	113.06
492.745	88.06
492.963	109.06
493.18	98.06
493.398	98.06
493.615	111.06
493.833	113.06
494.05	116.06
494.268	98.06
494.485	109.06
494.703	101.06
494.92	103.06
495.138	102.06
495.355	105.06
495.573	131.06
495.79	126.06
496.008	107.06
496.225	108.06
496.442	119.06
496.66	134.06
496.877	163.06
497.094	173.06
497.312	113.06
497.529	99.06
497.746	85.06
497.963	101.06
498.181	116.06
498.398	104.06
498.615	108.06
498.832	113.06
499.049	116.06
499.267	143.06
499.484	157.06
499.701	123.06
499.918	109.06
500.135	104.06
500.352	103.06
500.569	111.06
500.786	111.06
501.003	94.06
501.22	105.06
501.437	96.06
501.654	97.06
501.871	94.06
502.088	106.06
502.305	107.06
502.522	113.06
502.739	102.06
502.956	96.06
503.172	104.06
503.389	99.06
503.606	101.06
503.823	106.06
504.04	111.06
504.256	113.06
504.473	115.06
504.69	99.06
504.907	98.06
505.123	119.06
505.34	103.06
505.557	112.06
505.773	104.06
505.99	115.06
506.207	99.06
506.423	111.06
506.64	108.06
506.856	90.06
507.073	98.06
507.289	88.06
507.506	91.06
507.722	94.06
507.939	105.06
508.155	97.06
508.372	114.06
508.588	93.06
508.805	91.06
509.021	101.06
509.238	98.06
509.454	145.06
509.67	163.06
509.887	106.06
510.103	104.06
510.319	106.06
510.536	99.06
510.752	109.06
510.968	105.06
511.184	103.06
511.401	113.06
511.617	113.06
511.833	102.06
512.049	113.06
512.265	89.06
512.481	98.06
512.698	91.06
512.914	111.06
513.13	110.06
513.346	101.06
513.562	81.06
513.778	106.06
513.994	94.06
514.21	108.06
514.426	153.06
514.642	202.06
514.858	119.06
515.074	105.06
515.29	105.06
515.506	106.06
515.721	105.06
515.937	84.06
516.153	104.06
516.369	89.06
516.585	94.06
516.801	104.06
517.016	82.06
517.232	92.06
517.448	100.06
517.664	114.06
517.879	110.06
518.095	114.06
518.311	99.06
518.527	107.06
518.742	91.06
518.958	109.06
519.173	163.06
519.389	126.06
519.605	96.06
519.82	113.06
520.036	102.06
520.251	94.06
520.467	92.06
520.682	94.06
520.898	114.06
521.113	111.06
521.329	106.06
521.544	98.06
521.76	93.06
521.975	121.06
522.19	107.06
522.406	93.06
522.621	88.06
522.836	98.06
523.052	101.06
523.267	101.06
523.482	101.06
523.698	102.06
523.913	102.06
524.128	91.06
524.343	91.06
524.559	98.06
524.774	95.06
524.989	115.06
525.204	100.06
525.419	96.06
525.634	112.06
525.849	109.06
526.064	89.06
526.28	86.06
526.495	105.06
526.71	96.06
526.925	93.06
527.14	94.06
527.355	97.06
527.57	90.06
527.785	101.06
527.999	120.06
528.214	104.06
528.429	101.06
528.644	102.06
528.859	101.06
529.074	108.06
529.289	92.06
529.503	97.06
529.718	96.06
529.933	94.06
530.148	102.06
530.363	99.06
530.577	88.06
530.792	89.06
531.007	95.06
531.221	103.06
531.436	93.06
531.651	94.06
531.865	102.06
532.08	82.06
532.295	99.06
532.509	141.06
532.724	126.06
532.938	105.06
533.153	104.06
533.367	102.06
533.582	99.06
533.796	105.06
534.011	93.06
534.225	86.06
534.44	109.06
534.654	102.06
534.868	88.06
535.083	98.06
535.297	103.06
535.511	109.06
535.726	93.06
535.94	94.06
536.154	98.06
536.369	104.06
536.583	97.06
536.797	104.06
537.011	102.06
537.225	81.06
537.44	99.06
537.654	100.06
537.868	102.06
538.082	104.06
538.296	100.06
538.51	95.06
538.724	90.06
538.938	97.06
539.153	95.06
539.367	103.06
539.581	98.06
539.795	96.06
540.009	102.06
540.222	101.06
540.436	96.06
540.65	107.06
540.864	98.06
541.078	124.06
541.292	150.06
541.506	198.06
541.72	198.06
541.934	134.06
542.147	107.06
542.361	104.06
542.575	98.06
542.789	98.06
543.002	108.06
543.216	108.06
543.43	107.06
543.644	95.06
543.857	113.06
544.071	104.06
544.285	102.06
544.498	96.06
544.712	98.06
544.925	96.06
545.139	75.06
545.352	105.06
545.566	98.06
545.779	98.06
545.993	98.06
546.206	105.06
546.42	104.06
546.633	101.06
546.847	102.06
547.06	102.06
547.274	103.06
547.487	109.06
547.7	106.06
547.914	114.06
548.127	106.06
548.34	99.06
548.554	111.06
548.767	110.06
548.98	111.06
549.193	110.06
549.407	106.06
549.62	109.06
549.833	115.06
550.046	103.06
550.259	111.06
550.473	104.06
550.686	99.06
550.899	90.06
551.112	107.06
551.325	96.06
551.538	114.06
551.751	94.06
551.964	112.06
552.177	99.06
552.39	95.06
552.603	115.06
552.816	99.06
553.029	95.06
553.242	105.06
553.455	102.06
553.667	100.06
553.88	106.06
554.093	106.06
554.306	106.06
554.519	100.06
554.732	95.06
554.944	101.06
555.157	102.06
555.37	106.06
555.583	105.06
555.795	103.06
556.008	105.06
556.221	151.06
556.433	129.06
556.646	119.06
556.859	105.06
557.071	107.06
557.284	145.06
557.496	96.06
557.709	91.06
557.921	105.06
558.134	100.06
558.346	94.06
558.559	114.06
558.771	104.06
558.984	83.06
559.196	100.06
559.409	98.06
559.621	105.06
559.833	98.06
560.046	97.06
560.258	95.06
560.47	110.06
560.683	102.06
560.895	91.06
561.107	109.06
561.32	95.06
561.532	109.06
561.744	89.06
561.956	102.06
562.168	111.06
562.381	97.06
562.593	102.06
562.805	147.06
563.017	179.06
563.229	309.06
563.441	718.06
563.653	212.06
563.865	115.06
564.077	103.06
564.289	104.06
564.501	97.06
564.713	104.06
564.925	91.06
565.137	91.06
565.349	118.06
565.561	113.06
565.773	112.06
565.985	89.06
566.197	81.06
566.408	100.06
566.62	102.06
566.832	99.06
567.044	98.06
567.255	118.06
567.467	98.06
567.679	113.06
567.891	135.06
568.102	184.06
568.314	236.06
568.526	153.06
568.737	122.06
568.949	105.06
569.161	104.06
569.372	96.06
569.584	98.06
569.795	104.06
570.007	110.06
570.218	149.06
570.43	185.06
570.641	133.06
570.853	101.06
571.064	94.06
571.276	102.06
571.487	98.06
571.698	106.06
571.91	94.06
572.121	104.06
572.333	94.06
572.544	112.06
572.755	151.06
572.966	204.06
573.178	144.06
573.389	96.06
573.6	97.06
573.811	97.06
574.023	94.06
574.234	103.06
574.445	110.06
574.656	95.06
574.867	91.06
575.078	91.06
575.289	79.06
575.501	108.06
575.712	109.06
575.923	92.06
576.134	85.06
576.345	83.06
576.556	102.06
576.767	98.06
576.978	90.06
577.188	93.06
577.399	102.06
577.61	106.06
577.821	100.06
578.032	94.06
578.243	99.06
578.454	113.06
578.665	93.06
578.875	97.06
579.086	86.06
579.297	81.06
579.508	97.06
579.718	90.06
579.929	88.06
580.14	90.06
580.35	98.06
580.561	85.06
580.772	84.06
580.982	90.06
581.193	94.06
581.403	108.06
581.614	115.06
581.825	99.06
582.035	105.06
582.246	101.06
582.456	67.06
582.667	116.06
582.877	129.06
583.087	129.06
583.298	96.06
583.508	90.06
583.719	106.06
583.929	101.06
584.139	91.06
584.35	76.06
584.56	92.06
584.77	98.06
584.981	84.06
585.191	91.06
585.401	85.06
585.611	94.06
585.821	101.06
586.032	104.06
586.242	101.06
586.452	83.06
586.662	104.06
586.872	95.06
587.082	91.06
587.292	81.06
587.502	112.06
587.713	95.06
587.923	98.06
588.133	87.06
588.343	100.06
588.553	95.06
588.762	90.06
588.972	90.06
589.182	131.06
589.392	107.06
589.602	88.06
589.812	98.06
590.022	92.06
590.232	105.06
590.441	89.06
590.651	100.06
590.861	98.06
591.071	94.06
591.281	102.06
591.49	104.06
591.7	88.06
591.91	90.06
592.119	84.06
592.329	90.06
592.539	87.06
592.748	88.06
592.958	104.06
593.167	95.06
593.377	83.06
593.587	96.06
593.796	99.06
594.006	91.06
594.215	87.06
594.424	84.06
594.634	110.06
594.843	88.06
595.053	87.06
595.262	92.06
595.472	103.06
595.681	119.06
595.89	96.06
596.1	93.06
596.309	82.06
596.518	96.06
596.727	98.06
596.937	93.06
597.146	112.06
597.355	93.06
597.564	89.06
597.774	90.06
597.983	98.06
598.192	87.06
598.401	102.06
598.61	96.06
598.819	83.06
599.028	100.06
599.237	101.06
599.446	102.06
599.655	95.06
599.864	90.06
600.073	96.06
600.282	99.06
600.491	98.06
600.7	92.06
600.909	89.06
601.118	105.06
601.327	104.06
601.536	87.06
601.745	97.06
601.953	131.06
602.162	165.06
602.371	110.06
602.58	110.06
602.789	88.06
602.997	89.06
603.206	74.06
603.415	91.06
603.623	76.06
603.832	104.06
604.041	109.06
604.249	101.06
604.458	104.06
604.666	88.06
604.875	95.06
605.084	103.06
605.292	97.06
605.501	113.06
605.709	110.06
605.918	98.06
606.126	102.06
606.334	97.06
606.543	117.06
606.751	121.06
606.96	161.06
607.168	171.06
607.376	127.06
607.585	105.06
607.793	104.06
608.001	86.06
608.21	97.06
608.418	90.06
608.626	97.06
608.834	93.06
609.043	102.06
609.251	100.06
609.459	94.06
609.667	90.06
609.875	74.06
610.083	102.06
610.291	98.06
610.499	89.06
610.707	87.06
610.916	89.06
611.124	92.06
611.332	96.06
611.54	103.06
611.748	94.06
611.955	95.06
612.163	88.06
612.371	87.06
612.579	97.06
612.787	102.06
612.995	85.06
613.203	87.06
613.411	85.06
613.618	89.06
613.826	92.06
614.034	110.06
614.242	90.06
614.449	92.06
614.657	80.06
614.865	84.06
615.072	107.06
615.28	115.06
615.488	109.06
615.695	98.06
615.903	117.06
616.111	93.06
616.318	95.06
616.526	83.06
616.733	111.06
616.941	91.06
617.148	100.06
617.356	95.06
617.563	91.06
617.771	85.06
617.978	97.06
618.185	80.06
618.393	87.06
618.6	85.06
618.807	104.06
619.015	87.06
619.222	97.06
619.429	92.06
619.637	95.06
619.844	91.06
620.051	80.06
620.258	96.06
620.466	90.06
620.673	90.06
620.88	105.06
621.087	98.06
621.294	86.06
621.501	92.06
621.708	99.06
621.915	111.06
622.122	100.06
622.329	101.06
622.536	91.06
622.743	83.06
622.95	98.06
623.157	89.06
623.364	94.06
623.571	94.06
623.778	83.06
623.985	103.06
624.192	99.06
624.399	88.06
624.606	103.06
624.812	97.06
625.019	88.06
625.226	95.06
625.433	90.06
625.639	93.06
625.846	88.06
626.053	87.06
626.259	91.06
626.466	80.06
626.673	92.06
626.879	86.06
627.086	106.06
627.293	90.06
627.499	78.06
627.706	79.06
627.912	80.06
628.119	70.06
628.325	95.06
628.532	100.06
628.738	87.06
628.945	85.06
629.151	96.06
629.357	97.06
629.564	89.06
629.77	85.06
629.976	85.06
630.183	90.06
630.389	87.06
630.595	97.06
630.802	100.06
631.008	89.06
631.214	97.06
631.42	84.06
631.627	93.06
631.833	87.06
632.039	101.06
632.245	84.06
632.451	98.06
632.657	96.06
632.863	87.06
633.069	96.06
633.275	75.06
633.481	90.06
633.688	75.06
633.893	83.06
634.099	87.06
634.305	93.06
634.511	86.06
634.717	96.06
634.923	92.06
635.129	125.06
635.335	127.06
635.541	107.06
635.747	109.06
635.952	79.06
636.158	87.06
636.364	79.06
636.57	87.06
636.775	102.06
636.981	104.06
637.187	103.06
637.392	104.06
637.598	95.06
637.804	83.06
638.009	89.06
638.215	72.06
638.421	90.06
638.626	85.06
638.832	94.06
639.037	97.06
639.243	90.06
639.448	75.06
639.654	96.06
639.859	87.06
640.065	89.06
640.27	99.06
640.475	74.06
640.681	83.06
640.886	91.06
641.091	90.06
641.297	86.06
641.502	90.06
641.707	84.06
641.913	83.06
642.118	104.06
642.323	71.06
642.528	93.06
642.733	96.06
642.939	91.06
643.144	89.06
643.349	65.06
643.554	87.06
643.759	86.06
643.964	81.06
644.169	89.06
644.374	80.06
644.579	78.06
644.784	87.06
644.989	90.06
645.194	78.06
645.399	90.06
645.604	103.06
645.809	97.06
646.014	89.06
646.219	84.06
646.423	93.06
646.628	92.06
646.833	92.06
647.038	90.06
647.243	81.06
647.447	98.06
647.652	92.06
647.857	93.06
648.062	91.06
648.266	90.06
648.471	79.06
648.676	81.06
648.88	93.06
649.085	74.06
649.289	90.06
649.494	90.06
649.698	85.06
649.903	88.06
650.107	89.06
650.312	102.06
650.516	93.06
650.721	79.06
650.925	86.06
651.13	88.06
651.334	79.06
651.539	86.06
651.743	88.06
651.947	97.06
652.152	104.06
652.356	99.06
652.56	113.06
652.764	112.06
652.969	98.06
653.173	76.06
653.377	91.06
653.581	84.06
653.785	81.06
653.99	87.06
654.194	96.06
654.398	91.06
654.602	81.06
654.806	78.06
655.01	88.06
655.214	73.06
655.418	94.06
655.622	69.06
655.826	79.06
656.03	86.06
656.234	66.06
656.438	90.06
656.642	88.06
656.846	81.06
657.049	83.06
657.253	91.06
657.457	79.06
657.661	79.06
657.865	69.06
658.068	58.06
658.272	77.06
658.476	90.06
658.68	77.06
658.883	76.06
659.087	73.06
659.291	91.06
659.494	96.06
659.698	76.06
659.901	88.06
660.105	89.06
660.309	75.06
660.512	79.06
660.716	95.06
660.919	82.06
661.123	79.06
661.326	78.06
661.53	75.06
661.733	76.06
661.936	86.06
662.14	78.06
662.343	87.06
662.546	90.06
662.75	88.06
662.953	90.06
663.156	72.06
663.36	81.06
663.563	80.06
663.766	87.06
663.969	66.06
664.173	73.06
664.376	80.06
664.579	91.06
664.782	85.06
664.985	89.06
665.188	78.06
665.391	80.06
665.594	70.06
665.797	85.06
666	71.06
666.203	80.06
666.406	94.06
666.609	81.06
666.812	68.06
667.015	74.06
667.218	88.06
667.421	77.06
667.624	74.06
667.827	94.06
668.03	84.06
668.232	83.06
668.435	82.06
668.638	79.06
668.841	75.06
669.043	58.06
669.246	89.06
669.449	75.06
669.651	82.06
669.854	74.06
670.057	74.06
670.259	80.06
670.462	80.06
670.665	77.06
670.867	86.06
671.07	81.06
671.272	83.06
671.475	83.06
671.677	85.06
671.88	80.06
672.082	94.06
672.284	84.06
672.487	82.06
672.689	84.06
672.892	81.06
