Data from SnStandardFlinnAPT0064_LampEnergy10_LIBS07252019.E.O._I.C._HRD10591_15-21-44-494.txt Node
Date: Thu Jul 25 15:21:44 EDT 2019
User: cochatt
Spectrometer: HR+D1059
Trigger mode: 1
Integration Time (sec): 1.000000E-1
Scans to average: 1
Electric dark correction enabled: true
Nonlinearity correction enabled: false
Boxcar width: 0
XAxis mode: Wavelengths
Number of Pixels in Spectrum: 2048
>>>>>Begin Spectral Data<<<<<
223.165	-3.25
223.4	-3.25
223.635	-3.25
223.869	-11.25
224.104	-16.25
224.338	-21.25
224.573	-22.25
224.808	-6.25
225.042	-21.25
225.277	-6.25
225.511	-9.25
225.746	-7.25
225.98	20.75
226.215	4.75
226.449	7.75
226.683	23.75
226.918	23.75
227.152	43.75
227.387	38.75
227.621	27.75
227.856	34.75
228.09	45.75
228.324	49.75
228.559	56.75
228.793	127.75
229.027	299.75
229.262	348.75
229.496	301.75
229.73	313.75
229.964	307.75
230.199	307.75
230.433	312.75
230.667	296.75
230.901	317.75
231.136	310.75
231.37	354.75
231.604	373.75
231.838	449.75
232.072	510.75
232.306	528.75
232.541	464.75
232.775	414.75
233.009	417.75
233.243	402.75
233.477	450.75
233.711	509.75
233.945	561.75
234.179	478.75
234.413	459.75
234.647	470.75
234.881	454.75
235.115	515.75
235.349	606.75
235.583	757.75
235.817	957.75
236.051	913.75
236.285	638.75
236.519	513.75
236.753	485.75
236.987	501.75
237.221	519.75
237.455	502.75
237.689	446.75
237.922	446.75
238.156	440.75
238.39	472.75
238.624	496.75
238.858	448.75
239.091	500.75
239.325	477.75
239.559	485.75
239.793	517.75
240.027	518.75
240.26	515.75
240.494	546.75
240.728	594.75
240.961	624.75
241.195	631.75
241.429	660.75
241.662	693.75
241.896	766.75
242.13	915.75
242.363	1185.75
242.597	1498.75
242.83	1476.75
243.064	1470.75
243.298	1686.75
243.531	1405.75
243.765	936.75
243.998	753.75
244.232	692.75
244.465	663.75
244.699	667.75
244.932	687.75
245.166	635.75
245.399	655.75
245.633	673.75
245.866	665.75
246.099	667.75
246.333	637.75
246.566	633.75
246.8	641.75
247.033	640.75
247.266	632.75
247.5	625.75
247.733	643.75
247.966	688.75
248.2	760.75
248.433	851.75
248.666	976.75
248.899	951.75
249.133	848.75
249.366	862.75
249.599	938.75
249.832	1055.75
250.066	1060.75
250.299	825.75
250.532	774.75
250.765	759.75
250.998	733.75
251.231	740.75
251.465	707.75
251.698	733.75
251.931	722.75
252.164	725.75
252.397	783.75
252.63	783.75
252.863	807.75
253.096	791.75
253.329	783.75
253.562	768.75
253.795	799.75
254.028	764.75
254.261	822.75
254.494	883.75
254.727	981.75
254.96	1182.75
255.193	1180.75
255.426	958.75
255.659	842.75
255.892	846.75
256.124	844.75
256.357	860.75
256.59	915.75
256.823	973.75
257.056	1094.75
257.289	1331.75
257.521	1459.75
257.754	1192.75
257.987	960.75
258.22	899.75
258.452	925.75
258.685	928.75
258.918	938.75
259.151	987.75
259.383	1075.75
259.616	1198.75
259.849	1246.75
260.081	1083.75
260.314	987.75
260.547	967.75
260.779	942.75
261.012	943.75
261.244	947.75
261.477	963.75
261.71	977.75
261.942	1011.75
262.175	996.75
262.407	1039.75
262.64	1035.75
262.872	1086.75
263.105	1143.75
263.337	1224.75
263.57	1269.75
263.802	1289.75
264.035	1299.75
264.267	1342.75
264.499	1363.75
264.732	1415.75
264.964	1457.75
265.197	1414.75
265.429	1421.75
265.661	1480.75
265.894	1571.75
266.126	1754.75
266.358	1935.75
266.591	1871.75
266.823	1631.75
267.055	1436.75
267.287	1389.75
267.52	1321.75
267.752	1291.75
267.984	1278.75
268.216	1245.75
268.448	1239.75
268.681	1225.75
268.913	1200.75
269.145	1226.75
269.377	1220.75
269.609	1254.75
269.841	1280.75
270.073	1327.75
270.306	1539.75
270.538	2074.75
270.77	3053.75
271.002	3743.75
271.234	2656.75
271.466	1842.75
271.698	1531.75
271.93	1391.75
272.162	1302.75
272.394	1295.75
272.626	1231.75
272.858	1225.75
273.09	1193.75
273.322	1185.75
273.553	1171.75
273.785	1184.75
274.017	1204.75
274.249	1197.75
274.481	1219.75
274.713	1214.75
274.945	1187.75
275.176	1181.75
275.408	1182.75
275.64	1194.75
275.872	1205.75
276.104	1265.75
276.335	1246.75
276.567	1246.75
276.799	1246.75
277.031	1296.75
277.262	1351.75
277.494	1381.75
277.726	1543.75
277.957	1837.75
278.189	2068.75
278.421	1931.75
278.652	1737.75
278.884	1604.75
279.115	1505.75
279.347	1395.75
279.579	1363.75
279.81	1401.75
280.042	1403.75
280.273	1421.75
280.505	1391.75
280.736	1449.75
280.968	1540.75
281.199	1762.75
281.431	1985.75
281.662	2056.75
281.894	1737.75
282.125	1636.75
282.356	1621.75
282.588	1620.75
282.819	1715.75
283.051	1771.75
283.282	1950.75
283.513	2406.75
283.745	3443.75
283.976	5385.75
284.207	7548.75
284.439	6888.75
284.67	4356.75
284.901	3612.75
285.132	3641.75
285.364	3485.75
285.595	2687.75
285.826	2383.75
286.057	2775.75
286.288	3694.75
286.52	5052.75
286.751	4642.75
286.982	3006.75
287.213	2273.75
287.444	1956.75
287.675	1856.75
287.906	1823.75
288.138	1724.75
288.369	1675.75
288.6	1681.75
288.831	1641.75
289.062	1652.75
289.293	1687.75
289.524	1701.75
289.755	1678.75
289.986	1685.75
290.217	1704.75
290.448	1746.75
290.679	1703.75
290.91	1748.75
291.141	1862.75
291.371	2021.75
291.602	2105.75
291.833	1938.75
292.064	1726.75
292.295	1688.75
292.526	1616.75
292.757	1608.75
292.987	1599.75
293.218	1566.75
293.449	1589.75
293.68	1615.75
293.91	1603.75
294.141	1573.75
294.372	1563.75
294.603	1555.75
294.833	1541.75
295.064	1543.75
295.295	1575.75
295.525	1560.75
295.756	1553.75
295.987	1511.75
296.217	1549.75
296.448	1573.75
296.679	1527.75
296.909	1545.75
297.14	1553.75
297.37	1603.75
297.601	1629.75
297.831	1633.75
298.062	1626.75
298.292	1620.75
298.523	1663.75
298.753	1688.75
298.984	1696.75
299.214	1694.75
299.445	1740.75
299.675	1736.75
299.905	1812.75
300.136	1939.75
300.366	2114.75
300.597	2694.75
300.827	3725.75
301.057	4993.75
301.288	5026.75
301.518	3285.75
301.748	2530.75
301.979	2304.75
302.209	2254.75
302.439	2270.75
302.669	2373.75
302.9	2874.75
303.13	4053.75
303.36	5862.75
303.59	7748.75
303.82	6758.75
304.051	4130.75
304.281	2949.75
304.511	2507.75
304.741	2315.75
304.971	2171.75
305.201	2061.75
305.431	1971.75
305.661	1886.75
305.891	1910.75
306.121	1849.75
306.352	1847.75
306.582	1809.75
306.812	1753.75
307.042	1813.75
307.272	1807.75
307.502	1806.75
307.731	1826.75
307.961	1746.75
308.191	1785.75
308.421	1825.75
308.651	1773.75
308.881	1768.75
309.111	1783.75
309.341	1819.75
309.571	1804.75
309.8	1823.75
310.03	1823.75
310.26	1871.75
310.49	1831.75
310.72	1856.75
310.949	1861.75
311.179	1906.75
311.409	1906.75
311.639	1904.75
311.868	1898.75
312.098	1875.75
312.328	1917.75
312.557	1949.75
312.787	1962.75
313.017	1943.75
313.246	1982.75
313.476	1946.75
313.706	2088.75
313.935	2190.75
314.165	2320.75
314.394	2450.75
314.624	2335.75
314.853	2159.75
315.083	2097.75
315.312	2167.75
315.542	2135.75
315.771	2199.75
316.001	2209.75
316.23	2321.75
316.46	2389.75
316.689	2642.75
316.919	3166.75
317.148	4448.75
317.377	6709.75
317.607	9761.75
317.836	10243.75
318.065	6363.75
318.295	4090.75
318.524	3331.75
318.753	2908.75
318.983	2694.75
319.212	2549.75
319.441	2509.75
319.67	2375.75
319.9	2362.75
320.129	2379.75
320.358	2297.75
320.587	2325.75
320.816	2260.75
321.046	2319.75
321.275	2306.75
321.504	2339.75
321.733	2486.75
321.962	2465.75
322.191	2503.75
322.42	2475.75
322.649	2433.75
322.878	2474.75
323.108	2430.75
323.337	2543.75
323.566	2536.75
323.795	2623.75
324.024	2594.75
324.253	2671.75
324.482	2837.75
324.71	2934.75
324.939	3134.75
325.168	3165.75
325.397	3301.75
325.626	3937.75
325.855	5449.75
326.084	8297.75
326.313	12049.75
326.542	12873.75
326.77	8783.75
326.999	5813.75
327.228	4912.75
327.457	4653.75
327.686	4699.75
327.914	4967.75
328.143	5860.75
328.372	6983.75
328.6	7526.75
328.829	6734.75
329.058	5652.75
329.287	4959.75
329.515	4553.75
329.744	4263.75
329.972	3987.75
330.201	3842.75
330.43	3709.75
330.658	3557.75
330.887	3585.75
331.115	3488.75
331.344	3426.75
331.572	3389.75
331.801	3457.75
332.03	3474.75
332.258	3556.75
332.486	3717.75
332.715	4187.75
332.943	5165.75
333.172	6456.75
333.4	6379.75
333.629	4906.75
333.857	4424.75
334.085	4473.75
334.314	4691.75
334.542	5021.75
334.771	5860.75
334.999	7185.75
335.227	9019.75
335.455	10129.75
335.684	8984.75
335.912	7493.75
336.14	6292.75
336.369	5616.75
336.597	5154.75
336.825	4685.75
337.053	4520.75
337.281	4266.75
337.51	4003.75
337.738	3852.75
337.966	3726.75
338.194	3610.75
338.422	3442.75
338.65	3398.75
338.878	3308.75
339.106	3217.75
339.334	3201.75
339.562	3158.75
339.79	3091.75
340.018	3049.75
340.246	3016.75
340.474	3030.75
340.702	3001.75
340.93	3009.75
341.158	3000.75
341.386	2957.75
341.614	2935.75
341.842	2892.75
342.07	2852.75
342.298	2793.75
342.526	2749.75
342.754	2788.75
342.981	2695.75
343.209	2726.75
343.437	2720.75
343.665	2801.75
343.893	2789.75
344.12	2775.75
344.348	2723.75
344.576	2689.75
344.804	2704.75
345.031	2624.75
345.259	2585.75
345.487	2563.75
345.714	2564.75
345.942	2551.75
346.17	2513.75
346.397	2505.75
346.625	2455.75
346.853	2508.75
347.08	2533.75
347.308	2515.75
347.535	2485.75
347.763	2443.75
347.99	2454.75
348.218	2475.75
348.445	2442.75
348.673	2451.75
348.9	2433.75
349.128	2460.75
349.355	2408.75
349.583	2419.75
349.81	2410.75
350.037	2403.75
350.265	2385.75
350.492	2360.75
350.72	2386.75
350.947	2378.75
351.174	2419.75
351.402	2398.75
351.629	2383.75
351.856	2385.75
352.083	2435.75
352.311	2401.75
352.538	2354.75
352.765	2327.75
352.992	2305.75
353.22	2351.75
353.447	2342.75
353.674	2369.75
353.901	2348.75
354.128	2342.75
354.355	2365.75
354.583	2378.75
354.81	2424.75
355.037	2433.75
355.264	2410.75
355.491	2441.75
355.718	2411.75
355.945	2408.75
356.172	2438.75
356.399	2414.75
356.626	2431.75
356.853	2537.75
357.08	2507.75
357.307	2486.75
357.534	2598.75
357.761	2533.75
357.988	2527.75
358.215	2530.75
358.441	2546.75
358.668	2510.75
358.895	2591.75
359.122	2513.75
359.349	2519.75
359.576	2524.75
359.802	2518.75
360.029	2521.75
360.256	2518.75
360.483	2559.75
360.709	2564.75
360.936	2568.75
361.163	2527.75
361.39	2518.75
361.616	2514.75
361.843	2586.75
362.07	2565.75
362.296	2615.75
362.523	2532.75
362.749	2571.75
362.976	2522.75
363.203	2550.75
363.429	2510.75
363.656	2548.75
363.882	2541.75
364.109	2513.75
364.335	2509.75
364.562	2508.75
364.788	2522.75
365.015	2562.75
365.241	2610.75
365.468	2801.75
365.694	2936.75
365.92	2823.75
366.147	2619.75
366.373	2570.75
366.599	2581.75
366.826	2597.75
367.052	2559.75
367.278	2612.75
367.505	2613.75
367.731	2577.75
367.957	2579.75
368.184	2679.75
368.41	2638.75
368.636	2661.75
368.862	2651.75
369.089	2630.75
369.315	2623.75
369.541	2663.75
369.767	2615.75
369.993	2624.75
370.219	2598.75
370.445	2662.75
370.672	2693.75
370.898	2650.75
371.124	2689.75
371.35	2705.75
371.576	2706.75
371.802	2738.75
372.028	2707.75
372.254	2770.75
372.48	2750.75
372.706	2794.75
372.932	2782.75
373.158	2737.75
373.384	2754.75
373.61	2787.75
373.835	2806.75
374.061	2823.75
374.287	2821.75
374.513	2856.75
374.739	2868.75
374.965	2917.75
375.191	2869.75
375.416	2889.75
375.642	2806.75
375.868	2842.75
376.094	2841.75
376.319	2812.75
376.545	2746.75
376.771	2768.75
376.997	2750.75
377.222	2685.75
377.448	2733.75
377.674	2733.75
377.899	2703.75
378.125	2738.75
378.35	2694.75
378.576	2735.75
378.802	2803.75
379.027	2806.75
379.253	2865.75
379.478	3042.75
379.704	3517.75
379.929	5029.75
380.155	7604.75
380.38	8270.75
380.606	5162.75
380.831	3709.75
381.057	3233.75
381.282	2970.75
381.507	2839.75
381.733	2752.75
381.958	2725.75
382.184	2737.75
382.409	2703.75
382.634	2635.75
382.86	2698.75
383.085	2698.75
383.31	2670.75
383.535	2658.75
383.761	2706.75
383.986	2664.75
384.211	2725.75
384.436	2741.75
384.662	2824.75
384.887	2793.75
385.112	2787.75
385.337	2801.75
385.562	2809.75
385.787	2770.75
386.013	2812.75
386.238	2771.75
386.463	2759.75
386.688	2808.75
386.913	2729.75
387.138	2787.75
387.363	2765.75
387.588	2749.75
387.813	2769.75
388.038	2752.75
388.263	2777.75
388.488	2738.75
388.713	2746.75
388.938	2733.75
389.163	2724.75
389.387	2784.75
389.612	2703.75
389.837	2726.75
390.062	2794.75
390.287	2809.75
390.512	2753.75
390.736	2858.75
390.961	2837.75
391.186	2839.75
391.411	2905.75
391.636	2954.75
391.86	2933.75
392.085	2888.75
392.31	2866.75
392.534	2826.75
392.759	2792.75
392.984	2847.75
393.208	2797.75
393.433	2815.75
393.658	2739.75
393.882	2739.75
394.107	2810.75
394.331	2804.75
394.556	2789.75
394.78	2824.75
395.005	2820.75
395.229	2819.75
395.454	2867.75
395.678	2864.75
395.903	2819.75
396.127	2834.75
396.352	2878.75
396.576	2842.75
396.801	2819.75
397.025	2845.75
397.249	2893.75
397.474	2905.75
397.698	2895.75
397.922	2894.75
398.147	2918.75
398.371	2978.75
398.595	2993.75
398.82	3043.75
399.044	3181.75
399.268	3335.75
399.492	3526.75
399.717	3686.75
399.941	3673.75
400.165	3523.75
400.389	3424.75
400.613	3247.75
400.837	3138.75
401.062	3137.75
401.286	3070.75
401.51	3032.75
401.734	3024.75
401.958	3040.75
402.182	3036.75
402.406	3027.75
402.63	3084.75
402.854	3116.75
403.078	3081.75
403.302	3111.75
403.526	3136.75
403.75	3113.75
403.974	3186.75
404.198	3075.75
404.422	3142.75
404.645	3154.75
404.869	3136.75
405.093	3193.75
405.317	3174.75
405.541	3238.75
405.765	3208.75
405.988	3269.75
406.212	3285.75
406.436	3215.75
406.66	3268.75
406.883	3298.75
407.107	3315.75
407.331	3394.75
407.555	3488.75
407.778	3443.75
408.002	3376.75
408.226	3393.75
408.449	3386.75
408.673	3249.75
408.896	3273.75
409.12	3234.75
409.344	3214.75
409.567	3144.75
409.791	3181.75
410.014	3146.75
410.238	3146.75
410.461	3075.75
410.685	3133.75
410.908	3133.75
411.132	3077.75
411.355	3018.75
411.578	3026.75
411.802	3003.75
412.025	3031.75
412.249	3079.75
412.472	3041.75
412.695	2982.75
412.919	2937.75
413.142	3008.75
413.365	3025.75
413.589	2972.75
413.812	2949.75
414.035	2964.75
414.258	2978.75
414.482	2979.75
414.705	2990.75
414.928	2944.75
415.151	2968.75
415.374	2910.75
415.597	2894.75
415.821	2886.75
416.044	2830.75
416.267	2865.75
416.49	2895.75
416.713	2875.75
416.936	2877.75
417.159	2867.75
417.382	2798.75
417.605	2807.75
417.828	2848.75
418.051	2829.75
418.274	2873.75
418.497	2888.75
418.72	2968.75
418.943	2879.75
419.166	3034.75
419.389	3225.75
419.611	3158.75
419.834	3075.75
420.057	2929.75
420.28	2899.75
420.503	2889.75
420.726	2776.75
420.948	2837.75
421.171	2837.75
421.394	2887.75
421.617	2839.75
421.839	2855.75
422.062	2885.75
422.285	2855.75
422.507	2903.75
422.73	2948.75
422.953	2945.75
423.175	2913.75
423.398	2943.75
423.621	2856.75
423.843	2953.75
424.066	2934.75
424.288	2848.75
424.511	2826.75
424.733	2886.75
424.956	2833.75
425.178	2776.75
425.401	2801.75
425.623	2818.75
425.846	2788.75
426.068	2778.75
426.291	2763.75
426.513	2770.75
426.735	2744.75
426.958	2696.75
427.18	2683.75
427.402	2751.75
427.625	2705.75
427.847	2687.75
428.069	2640.75
428.292	2705.75
428.514	2681.75
428.736	2638.75
428.958	2652.75
429.181	2589.75
429.403	2643.75
429.625	2671.75
429.847	2666.75
430.069	2744.75
430.292	2757.75
430.514	2862.75
430.736	2808.75
430.958	2685.75
431.18	2647.75
431.402	2618.75
431.624	2594.75
431.846	2613.75
432.068	2626.75
432.29	2583.75
432.512	2539.75
432.734	2640.75
432.956	2607.75
433.178	2625.75
433.4	2637.75
433.622	2656.75
433.844	2669.75
434.066	2660.75
434.287	2617.75
434.509	2687.75
434.731	2693.75
434.953	2728.75
435.175	2754.75
435.397	2745.75
435.618	2693.75
435.84	2673.75
436.062	2606.75
436.284	2575.75
436.505	2599.75
436.727	2597.75
436.949	2622.75
437.17	2606.75
437.392	2622.75
437.614	2578.75
437.835	2506.75
438.057	2539.75
438.278	2484.75
438.5	2496.75
438.721	2590.75
438.943	2661.75
439.165	2688.75
439.386	2700.75
439.608	2687.75
439.829	2693.75
440.05	2819.75
440.272	2848.75
440.493	2708.75
440.715	2672.75
440.936	2730.75
441.158	2758.75
441.379	2747.75
441.6	2825.75
441.822	2904.75
442.043	3027.75
442.264	3130.75
442.486	2979.75
442.707	2875.75
442.928	2793.75
443.149	2775.75
443.371	2738.75
443.592	2833.75
443.813	2821.75
444.034	2853.75
444.255	2898.75
444.476	2919.75
444.698	2982.75
444.919	3022.75
445.14	3089.75
445.361	2972.75
445.582	2895.75
445.803	2806.75
446.024	2802.75
446.245	2800.75
446.466	2806.75
446.687	2722.75
446.908	2769.75
447.129	2691.75
447.35	2621.75
447.571	2644.75
447.792	2550.75
448.013	2626.75
448.234	2614.75
448.455	2528.75
448.675	2639.75
448.896	2689.75
449.117	2760.75
449.338	2923.75
449.559	3048.75
449.779	2742.75
450	2638.75
450.221	2557.75
450.442	2518.75
450.662	2563.75
450.883	2571.75
451.104	2467.75
451.324	2483.75
451.545	2555.75
451.766	2525.75
451.986	2521.75
452.207	2768.75
452.428	3585.75
452.648	5377.75
452.869	4474.75
453.089	3125.75
453.31	2929.75
453.53	2920.75
453.751	2968.75
453.971	3135.75
454.192	3030.75
454.412	2612.75
454.633	2555.75
454.853	2475.75
455.073	2433.75
455.294	2431.75
455.514	2395.75
455.734	2392.75
455.955	2372.75
456.175	2456.75
456.395	2397.75
456.616	2427.75
456.836	2449.75
457.056	2501.75
457.276	2489.75
457.497	2656.75
457.717	2655.75
457.937	2577.75
458.157	2563.75
458.377	2531.75
458.598	2596.75
458.818	2620.75
459.038	2577.75
459.258	2560.75
459.478	2647.75
459.698	2693.75
459.918	2662.75
460.138	2735.75
460.358	2809.75
460.578	2823.75
460.798	2871.75
461.018	2865.75
461.238	2848.75
461.458	2855.75
461.678	2888.75
461.898	2960.75
462.118	2963.75
462.338	3024.75
462.558	3041.75
462.777	3112.75
462.997	3218.75
463.217	3380.75
463.437	3445.75
463.657	3535.75
463.876	3510.75
464.096	3338.75
464.316	3209.75
464.536	3143.75
464.755	3034.75
464.975	3010.75
465.195	2895.75
465.414	2855.75
465.634	2754.75
465.854	2714.75
466.073	2683.75
466.293	2701.75
466.512	2655.75
466.732	2681.75
466.951	2751.75
467.171	2979.75
467.391	2922.75
467.61	2715.75
467.829	2577.75
468.049	2616.75
468.268	2574.75
468.488	2517.75
468.707	2543.75
468.927	2567.75
469.146	2485.75
469.365	2638.75
469.585	2628.75
469.804	2660.75
470.023	2706.75
470.243	2720.75
470.462	2829.75
470.681	2965.75
470.901	3314.75
471.12	3671.75
471.339	3647.75
471.558	3098.75
471.777	2908.75
471.997	2786.75
472.216	2658.75
472.435	2637.75
472.654	2600.75
472.873	2532.75
473.092	2615.75
473.311	2579.75
473.53	2613.75
473.749	2670.75
473.968	2735.75
474.187	2659.75
474.406	2593.75
474.625	2592.75
474.844	2585.75
475.063	2639.75
475.282	2563.75
475.501	2638.75
475.72	2657.75
475.939	2688.75
476.158	2767.75
476.377	2842.75
476.596	2714.75
476.814	2720.75
477.033	2692.75
477.252	2719.75
477.471	2780.75
477.69	2856.75
477.908	2918.75
478.127	2884.75
478.346	2960.75
478.564	3014.75
478.783	2983.75
479.002	3064.75
479.22	3081.75
479.439	3088.75
479.658	3110.75
479.876	3122.75
480.095	3153.75
480.313	3201.75
480.532	3134.75
480.751	3226.75
480.969	3174.75
481.188	3168.75
481.406	3128.75
481.624	3156.75
481.843	3134.75
482.061	3178.75
482.28	3133.75
482.498	3099.75
482.717	3110.75
482.935	3186.75
483.153	3219.75
483.372	3327.75
483.59	3271.75
483.808	3314.75
484.027	3345.75
484.245	3577.75
484.463	3927.75
484.681	4306.75
484.9	4007.75
485.118	3825.75
485.336	3678.75
485.554	3753.75
485.772	3963.75
485.99	4410.75
486.209	4753.75
486.427	4051.75
486.645	3649.75
486.863	3502.75
487.081	3440.75
487.299	3368.75
487.517	3334.75
487.735	3338.75
487.953	3346.75
488.171	3325.75
488.389	3315.75
488.607	3275.75
488.825	3242.75
489.043	3169.75
489.261	3251.75
489.479	3233.75
489.696	3231.75
489.914	3284.75
490.132	3266.75
490.35	3287.75
490.568	3309.75
490.786	3330.75
491.003	3370.75
491.221	3328.75
491.439	3365.75
491.657	3353.75
491.874	3326.75
492.092	3411.75
492.31	3418.75
492.527	3402.75
492.745	3432.75
492.963	3342.75
493.18	3345.75
493.398	3338.75
493.615	3381.75
493.833	3333.75
494.05	3400.75
494.268	3416.75
494.485	3389.75
494.703	3417.75
494.92	3420.75
495.138	3393.75
495.355	3409.75
495.573	3424.75
495.79	3429.75
496.008	3450.75
496.225	3467.75
496.442	3549.75
496.66	3622.75
496.877	3842.75
497.094	3790.75
497.312	3689.75
497.529	3712.75
497.746	3711.75
497.963	3803.75
498.181	3848.75
498.398	3922.75
498.615	4054.75
498.832	4187.75
499.049	4413.75
499.267	4783.75
499.484	5086.75
499.701	5090.75
499.918	5101.75
500.135	5390.75
500.352	5706.75
500.569	5740.75
500.786	5687.75
501.003	5559.75
501.22	5284.75
501.437	5005.75
501.654	4718.75
501.871	4582.75
502.088	4327.75
502.305	4194.75
502.522	4060.75
502.739	4051.75
502.956	3858.75
503.172	3829.75
503.389	3658.75
503.606	3665.75
503.823	3617.75
504.04	3542.75
504.256	3599.75
504.473	3586.75
504.69	3538.75
504.907	3509.75
505.123	3461.75
505.34	3331.75
505.557	3279.75
505.773	3221.75
505.99	3267.75
506.207	3131.75
506.423	3073.75
506.64	3144.75
506.856	3073.75
507.073	3073.75
507.289	3024.75
507.506	3012.75
507.722	3024.75
507.939	2959.75
508.155	2975.75
508.372	2972.75
508.588	2948.75
508.805	2995.75
509.021	2972.75
509.238	2989.75
509.454	3103.75
509.67	3342.75
509.887	3152.75
510.103	2991.75
510.319	2964.75
510.536	2935.75
510.752	2910.75
510.968	2863.75
511.184	2830.75
511.401	2836.75
511.617	2831.75
511.833	2853.75
512.049	2817.75
512.265	2905.75
512.481	2833.75
512.698	2794.75
512.914	2850.75
513.13	2769.75
513.346	2843.75
513.562	2762.75
513.778	2786.75
513.994	2886.75
514.21	2952.75
514.426	3079.75
514.642	3262.75
514.858	2974.75
515.074	2920.75
515.29	2891.75
515.506	2912.75
515.721	2907.75
515.937	2898.75
516.153	2900.75
516.369	2949.75
516.585	2972.75
516.801	3021.75
517.016	3073.75
517.232	3104.75
517.448	3142.75
517.664	3232.75
517.879	3217.75
518.095	3199.75
518.311	3211.75
518.527	3163.75
518.742	3173.75
518.958	3190.75
519.173	3230.75
519.389	3121.75
519.605	2989.75
519.82	2920.75
520.036	2899.75
520.251	2848.75
520.467	2846.75
520.682	2832.75
520.898	2816.75
521.113	2770.75
521.329	2777.75
521.544	2741.75
521.76	2790.75
521.975	2798.75
522.19	2810.75
522.406	2757.75
522.621	2767.75
522.836	2713.75
523.052	2761.75
523.267	2711.75
523.482	2741.75
523.698	2690.75
523.913	2695.75
524.128	2688.75
524.343	2737.75
524.559	2672.75
524.774	2690.75
524.989	2672.75
525.204	2687.75
525.419	2640.75
525.634	2699.75
525.849	2695.75
526.064	2701.75
526.28	2683.75
526.495	2690.75
526.71	2723.75
526.925	2726.75
527.14	2666.75
527.355	2701.75
527.57	2714.75
527.785	2750.75
527.999	2744.75
528.214	2729.75
528.429	2772.75
528.644	2766.75
528.859	2924.75
529.074	2902.75
529.289	2881.75
529.503	2893.75
529.718	2863.75
529.933	2916.75
530.148	2841.75
530.363	2896.75
530.577	2866.75
530.792	2903.75
531.007	2868.75
531.221	2926.75
531.436	2942.75
531.651	2951.75
531.865	2992.75
532.08	3071.75
532.295	3186.75
532.509	3305.75
532.724	3444.75
532.938	3393.75
533.153	3495.75
533.367	3781.75
533.582	3903.75
533.796	3826.75
534.011	3730.75
534.225	3524.75
534.44	3490.75
534.654	3373.75
534.868	3332.75
535.083	3234.75
535.297	3179.75
535.511	3142.75
535.726	3083.75
535.94	3111.75
536.154	2975.75
536.369	2970.75
536.583	2896.75
536.797	2877.75
537.011	2880.75
537.225	2861.75
537.44	2802.75
537.654	2781.75
537.868	2724.75
538.082	2731.75
538.296	2610.75
538.51	2639.75
538.724	2769.75
538.938	2663.75
539.153	2688.75
539.367	2660.75
539.581	2586.75
539.795	2600.75
540.009	2600.75
540.222	2564.75
540.436	2625.75
540.65	2603.75
540.864	2614.75
541.078	2641.75
541.292	2813.75
541.506	3249.75
541.72	3405.75
541.934	3024.75
542.147	2813.75
542.361	2731.75
542.575	2605.75
542.789	2599.75
543.002	2538.75
543.216	2530.75
543.43	2529.75
543.644	2518.75
543.857	2513.75
544.071	2521.75
544.285	2498.75
544.498	2518.75
544.712	2538.75
544.925	2534.75
545.139	2513.75
545.352	2554.75
545.566	2515.75
545.779	2506.75
545.993	2552.75
546.206	2547.75
546.42	2514.75
546.633	2510.75
546.847	2485.75
547.06	2567.75
547.274	2506.75
547.487	2531.75
547.7	2551.75
547.914	2541.75
548.127	2551.75
548.34	2511.75
548.554	2508.75
548.767	2537.75
548.98	2529.75
549.193	2540.75
549.407	2562.75
549.62	2530.75
549.833	2594.75
550.046	2524.75
550.259	2516.75
550.473	2530.75
550.686	2525.75
550.899	2534.75
551.112	2537.75
551.325	2529.75
551.538	2494.75
551.751	2507.75
551.964	2556.75
552.177	2578.75
552.39	2614.75
552.603	2617.75
552.816	2705.75
553.029	2727.75
553.242	2754.75
553.455	2752.75
553.667	2820.75
553.88	2811.75
554.093	2824.75
554.306	2829.75
554.519	2893.75
554.732	2928.75
554.944	2933.75
555.157	2975.75
555.37	3063.75
555.583	3165.75
555.795	3390.75
556.008	3647.75
556.221	4086.75
556.433	4392.75
556.646	4328.75
556.859	4107.75
557.071	4007.75
557.284	3952.75
557.496	3693.75
557.709	3676.75
557.921	3645.75
558.134	3634.75
558.346	3677.75
558.559	3769.75
558.771	4040.75
558.984	4366.75
559.196	4728.75
559.409	4484.75
559.621	4086.75
559.833	3860.75
560.046	3690.75
560.258	3465.75
560.47	3328.75
560.683	3158.75
560.895	3022.75
561.107	2978.75
561.32	2906.75
561.532	2861.75
561.744	2767.75
561.956	2668.75
562.168	2659.75
562.381	2603.75
562.593	2602.75
562.805	2663.75
563.017	2637.75
563.229	2743.75
563.441	3213.75
563.653	2625.75
563.865	2475.75
564.077	2404.75
564.289	2319.75
564.501	2341.75
564.713	2366.75
564.925	2337.75
565.137	2326.75
565.349	2347.75
565.561	2342.75
565.773	2387.75
565.985	2398.75
566.197	2376.75
566.408	2450.75
566.62	2516.75
566.832	2567.75
567.044	2607.75
567.255	2575.75
567.467	2627.75
567.679	2696.75
567.891	2787.75
568.102	3059.75
568.314	3460.75
568.526	3085.75
568.737	2689.75
568.949	2437.75
569.161	2359.75
569.372	2250.75
569.584	2178.75
569.795	2166.75
570.007	2100.75
570.218	2177.75
570.43	2214.75
570.641	2065.75
570.853	2013.75
571.064	1955.75
571.276	1954.75
571.487	1927.75
571.698	1888.75
571.91	1855.75
572.121	1853.75
572.333	1863.75
572.544	1861.75
572.755	1947.75
572.966	2278.75
573.178	2106.75
573.389	1863.75
573.6	1825.75
573.811	1770.75
574.023	1753.75
574.234	1718.75
574.445	1697.75
574.656	1720.75
574.867	1718.75
575.078	1707.75
575.289	1687.75
575.501	1695.75
575.712	1670.75
575.923	1709.75
576.134	1674.75
576.345	1710.75
576.556	1713.75
576.767	1670.75
576.978	1688.75
577.188	1725.75
577.399	1705.75
577.61	1733.75
577.821	1723.75
578.032	1754.75
578.243	1813.75
578.454	1832.75
578.665	1874.75
578.875	1901.75
579.086	1956.75
579.297	2020.75
579.508	2202.75
579.718	2357.75
579.929	2695.75
580.14	3170.75
580.35	3248.75
580.561	2898.75
580.772	2668.75
580.982	2496.75
581.193	2234.75
581.403	2187.75
581.614	2046.75
581.825	2004.75
582.035	1942.75
582.246	1862.75
582.456	1830.75
582.667	1749.75
582.877	1769.75
583.087	1686.75
583.298	1653.75
583.508	1610.75
583.719	1571.75
583.929	1536.75
584.139	1513.75
584.35	1472.75
584.56	1464.75
584.77	1453.75
584.981	1444.75
585.191	1400.75
585.401	1384.75
585.611	1355.75
585.821	1363.75
586.032	1337.75
586.242	1349.75
586.452	1331.75
586.662	1325.75
586.872	1279.75
587.082	1284.75
587.292	1233.75
587.502	1228.75
587.713	1259.75
587.923	1232.75
588.133	1245.75
588.343	1236.75
588.553	1193.75
588.762	1202.75
588.972	1200.75
589.182	1230.75
589.392	1221.75
589.602	1215.75
589.812	1202.75
590.022	1190.75
590.232	1198.75
590.441	1203.75
590.651	1157.75
590.861	1165.75
591.071	1167.75
591.281	1183.75
591.49	1186.75
591.7	1194.75
591.91	1174.75
592.119	1183.75
592.329	1172.75
592.539	1190.75
592.748	1221.75
592.958	1213.75
593.167	1189.75
593.377	1217.75
593.587	1239.75
593.796	1206.75
594.006	1200.75
594.215	1230.75
594.424	1203.75
594.634	1202.75
594.843	1166.75
595.053	1147.75
595.262	1135.75
595.472	1131.75
595.681	1109.75
595.89	1111.75
596.1	1080.75
596.309	1080.75
596.518	1071.75
596.727	1024.75
596.937	1030.75
597.146	1011.75
597.355	1009.75
597.564	969.75
597.774	983.75
597.983	952.75
598.192	970.75
598.401	984.75
598.61	984.75
598.819	959.75
599.028	961.75
599.237	986.75
599.446	950.75
599.655	948.75
599.864	960.75
600.073	926.75
600.282	939.75
600.491	927.75
600.7	920.75
600.909	931.75
601.118	953.75
601.327	933.75
601.536	938.75
601.745	974.75
601.953	1043.75
602.162	1180.75
602.371	1026.75
602.58	983.75
602.789	960.75
602.997	931.75
603.206	931.75
603.415	920.75
603.623	917.75
603.832	905.75
604.041	895.75
604.249	896.75
604.458	859.75
604.666	917.75
604.875	897.75
605.084	858.75
605.292	868.75
605.501	894.75
605.709	895.75
605.918	890.75
606.126	897.75
606.334	897.75
606.543	938.75
606.751	987.75
606.96	1101.75
607.168	1182.75
607.376	1045.75
607.585	947.75
607.793	923.75
608.001	922.75
608.21	878.75
608.418	911.75
608.626	860.75
608.834	879.75
609.043	890.75
609.251	866.75
609.459	851.75
609.667	816.75
609.875	845.75
610.083	816.75
610.291	838.75
610.499	839.75
610.707	823.75
610.916	819.75
611.124	821.75
611.332	815.75
611.54	815.75
611.748	793.75
611.955	793.75
612.163	793.75
612.371	825.75
612.579	809.75
612.787	783.75
612.995	805.75
613.203	814.75
613.411	782.75
613.618	778.75
613.826	754.75
614.034	801.75
614.242	789.75
614.449	793.75
614.657	775.75
614.865	781.75
615.072	821.75
615.28	817.75
615.488	784.75
615.695	789.75
615.903	789.75
616.111	786.75
616.318	765.75
616.526	793.75
616.733	777.75
616.941	771.75
617.148	762.75
617.356	779.75
617.563	746.75
617.771	760.75
617.978	759.75
618.185	753.75
618.393	725.75
618.6	758.75
618.807	727.75
619.015	755.75
619.222	740.75
619.429	714.75
619.637	715.75
619.844	730.75
620.051	741.75
620.258	731.75
620.466	722.75
620.673	694.75
620.88	693.75
621.087	698.75
621.294	695.75
621.501	681.75
621.708	688.75
621.915	689.75
622.122	706.75
622.329	706.75
622.536	715.75
622.743	698.75
622.95	687.75
623.157	687.75
623.364	694.75
623.571	678.75
623.778	664.75
623.985	673.75
624.192	675.75
624.399	661.75
624.606	648.75
624.812	653.75
625.019	643.75
625.226	657.75
625.433	646.75
625.639	643.75
625.846	633.75
626.053	613.75
626.259	627.75
626.466	624.75
626.673	648.75
626.879	598.75
627.086	609.75
627.293	612.75
627.499	610.75
627.706	637.75
627.912	624.75
628.119	627.75
628.325	633.75
628.532	629.75
628.738	633.75
628.945	621.75
629.151	612.75
629.357	627.75
629.564	607.75
629.77	618.75
629.976	590.75
630.183	628.75
630.389	615.75
630.595	603.75
630.802	590.75
631.008	591.75
631.214	589.75
631.42	616.75
631.627	574.75
631.833	588.75
632.039	585.75
632.245	564.75
632.451	605.75
632.657	602.75
632.863	576.75
633.069	559.75
633.275	582.75
633.481	554.75
633.688	567.75
633.893	599.75
634.099	578.75
634.305	589.75
634.511	581.75
634.717	614.75
634.923	599.75
635.129	667.75
635.335	730.75
635.541	677.75
635.747	625.75
635.952	588.75
636.158	593.75
636.364	591.75
636.57	577.75
636.775	607.75
636.981	581.75
637.187	562.75
637.392	556.75
637.598	554.75
637.804	562.75
638.009	598.75
638.215	567.75
638.421	594.75
638.626	580.75
638.832	594.75
639.037	575.75
639.243	595.75
639.448	578.75
639.654	591.75
639.859	607.75
640.065	584.75
640.27	616.75
640.475	600.75
640.681	622.75
640.886	618.75
641.091	607.75
641.297	605.75
641.502	609.75
641.707	630.75
641.913	633.75
642.118	644.75
642.323	656.75
642.528	667.75
642.733	679.75
642.939	719.75
643.144	723.75
643.349	728.75
643.554	787.75
643.759	810.75
643.964	836.75
644.169	886.75
644.374	941.75
644.579	995.75
644.784	1106.75
644.989	1257.75
645.194	1498.75
645.399	1873.75
645.604	1965.75
645.809	1470.75
646.014	1104.75
646.219	923.75
646.423	818.75
646.628	741.75
646.833	693.75
647.038	656.75
647.243	657.75
647.447	613.75
647.652	593.75
647.857	575.75
648.062	562.75
648.266	543.75
648.471	562.75
648.676	531.75
648.88	536.75
649.085	523.75
649.289	528.75
649.494	494.75
649.698	493.75
649.903	503.75
650.107	475.75
650.312	479.75
650.516	486.75
650.721	463.75
650.925	446.75
651.13	443.75
651.334	454.75
651.539	436.75
651.743	416.75
651.947	400.75
652.152	412.75
652.356	424.75
652.56	459.75
652.764	482.75
652.969	451.75
653.173	405.75
653.377	402.75
653.581	400.75
653.785	374.75
653.99	373.75
654.194	372.75
654.398	361.75
654.602	353.75
654.806	350.75
655.01	368.75
655.214	358.75
655.418	366.75
655.622	354.75
655.826	375.75
656.03	371.75
656.234	362.75
656.438	372.75
656.642	383.75
656.846	351.75
657.049	345.75
657.253	336.75
657.457	321.75
657.661	294.75
657.865	260.75
658.068	257.75
658.272	251.75
658.476	213.75
658.68	214.75
658.883	211.75
659.087	198.75
659.291	201.75
659.494	197.75
659.698	195.75
659.901	176.75
660.105	185.75
660.309	163.75
660.512	153.75
660.716	152.75
660.919	160.75
661.123	144.75
661.326	146.75
661.53	119.75
661.733	131.75
661.936	118.75
662.14	132.75
662.343	111.75
662.546	98.75
662.75	97.75
662.953	94.75
663.156	84.75
663.36	94.75
663.563	87.75
663.766	93.75
663.969	109.75
664.173	83.75
664.376	102.75
664.579	99.75
664.782	96.75
664.985	90.75
665.188	84.75
665.391	88.75
665.594	71.75
665.797	83.75
666	77.75
666.203	86.75
666.406	74.75
666.609	68.75
666.812	86.75
667.015	88.75
667.218	83.75
667.421	76.75
667.624	75.75
667.827	101.75
668.03	73.75
668.232	74.75
668.435	90.75
668.638	94.75
668.841	100.75
669.043	74.75
669.246	75.75
669.449	83.75
669.651	81.75
669.854	75.75
670.057	72.75
670.259	80.75
670.462	75.75
670.665	94.75
670.867	64.75
671.07	77.75
671.272	70.75
671.475	93.75
671.677	83.75
671.88	80.75
672.082	75.75
672.284	86.75
672.487	83.75
672.689	87.75
672.892	88.75
