Data from SnStandardFlinnAPT0064_LampEnergy5.5_LIBS07252019.E.O._I.C._HRD10591_15-15-46-491.txt Node
Date: Thu Jul 25 15:15:46 EDT 2019
User: cochatt
Spectrometer: HR+D1059
Trigger mode: 1
Integration Time (sec): 1.000000E-1
Scans to average: 1
Electric dark correction enabled: true
Nonlinearity correction enabled: false
Boxcar width: 0
XAxis mode: Wavelengths
Number of Pixels in Spectrum: 2048
>>>>>Begin Spectral Data<<<<<
223.165	-9.25
223.4	-9.25
223.635	-9.25
223.869	-23.25
224.104	-10.25
224.338	-16.25
224.573	-21.25
224.808	10.75
225.042	-7.25
225.277	4.75
225.511	-12.25
225.746	6.75
225.98	17.75
226.215	0.75
226.449	11.75
226.683	8.75
226.918	13.75
227.152	24.75
227.387	26.75
227.621	25.75
227.856	41.75
228.09	41.75
228.324	41.75
228.559	52.75
228.793	81.75
229.027	156.75
229.262	155.75
229.496	159.75
229.73	150.75
229.964	155.75
230.199	145.75
230.433	153.75
230.667	166.75
230.901	173.75
231.136	171.75
231.37	167.75
231.604	179.75
231.838	195.75
232.072	226.75
232.306	237.75
232.541	200.75
232.775	185.75
233.009	185.75
233.243	198.75
233.477	210.75
233.711	219.75
233.945	257.75
234.179	227.75
234.413	215.75
234.647	223.75
234.881	208.75
235.115	244.75
235.349	255.75
235.583	310.75
235.817	397.75
236.051	372.75
236.285	280.75
236.519	225.75
236.753	227.75
236.987	216.75
237.221	228.75
237.455	215.75
237.689	212.75
237.922	212.75
238.156	198.75
238.39	201.75
238.624	221.75
238.858	235.75
239.091	227.75
239.325	229.75
239.559	235.75
239.793	221.75
240.027	226.75
240.26	229.75
240.494	244.75
240.728	245.75
240.961	269.75
241.195	258.75
241.429	273.75
241.662	289.75
241.896	313.75
242.13	373.75
242.363	447.75
242.597	563.75
242.83	554.75
243.064	578.75
243.298	658.75
243.531	580.75
243.765	366.75
243.998	321.75
244.232	290.75
244.465	299.75
244.699	293.75
244.932	288.75
245.166	284.75
245.399	276.75
245.633	296.75
245.866	286.75
246.099	295.75
246.333	269.75
246.566	283.75
246.8	288.75
247.033	290.75
247.266	280.75
247.5	280.75
247.733	304.75
247.966	289.75
248.2	315.75
248.433	360.75
248.666	397.75
248.899	381.75
249.133	319.75
249.366	350.75
249.599	380.75
249.832	391.75
250.066	402.75
250.299	358.75
250.532	332.75
250.765	322.75
250.998	329.75
251.231	324.75
251.465	322.75
251.698	314.75
251.931	312.75
252.164	323.75
252.397	313.75
252.63	335.75
252.863	334.75
253.096	333.75
253.329	356.75
253.562	332.75
253.795	348.75
254.028	355.75
254.261	346.75
254.494	351.75
254.727	414.75
254.96	482.75
255.193	477.75
255.426	397.75
255.659	363.75
255.892	377.75
256.124	371.75
256.357	371.75
256.59	379.75
256.823	402.75
257.056	441.75
257.289	479.75
257.521	546.75
257.754	437.75
257.987	409.75
258.22	395.75
258.452	403.75
258.685	407.75
258.918	390.75
259.151	410.75
259.383	439.75
259.616	452.75
259.849	477.75
260.081	453.75
260.314	421.75
260.547	423.75
260.779	416.75
261.012	427.75
261.244	411.75
261.477	396.75
261.71	457.75
261.942	435.75
262.175	429.75
262.407	454.75
262.64	471.75
262.872	462.75
263.105	480.75
263.337	503.75
263.57	542.75
263.802	545.75
264.035	561.75
264.267	584.75
264.499	598.75
264.732	612.75
264.964	622.75
265.197	612.75
265.429	597.75
265.661	616.75
265.894	641.75
266.126	713.75
266.358	757.75
266.591	743.75
266.823	685.75
267.055	596.75
267.287	573.75
267.52	563.75
267.752	571.75
267.984	539.75
268.216	534.75
268.448	534.75
268.681	537.75
268.913	514.75
269.145	515.75
269.377	534.75
269.609	540.75
269.841	516.75
270.073	573.75
270.306	643.75
270.538	820.75
270.77	1157.75
271.002	1390.75
271.234	990.75
271.466	673.75
271.698	629.75
271.93	578.75
272.162	546.75
272.394	533.75
272.626	520.75
272.858	510.75
273.09	536.75
273.322	517.75
273.553	510.75
273.785	492.75
274.017	507.75
274.249	502.75
274.481	503.75
274.713	537.75
274.945	521.75
275.176	522.75
275.408	513.75
275.64	500.75
275.872	526.75
276.104	528.75
276.335	528.75
276.567	517.75
276.799	542.75
277.031	525.75
277.262	560.75
277.494	569.75
277.726	612.75
277.957	663.75
278.189	734.75
278.421	701.75
278.652	635.75
278.884	626.75
279.115	621.75
279.347	584.75
279.579	558.75
279.81	579.75
280.042	568.75
280.273	580.75
280.505	592.75
280.736	589.75
280.968	632.75
281.199	661.75
281.431	742.75
281.662	757.75
281.894	678.75
282.125	637.75
282.356	667.75
282.588	654.75
282.819	681.75
283.051	714.75
283.282	774.75
283.513	918.75
283.745	1271.75
283.976	1973.75
284.207	2784.75
284.439	2473.75
284.67	1553.75
284.901	1281.75
285.132	1238.75
285.364	1188.75
285.595	958.75
285.826	894.75
286.057	1040.75
286.288	1365.75
286.52	1821.75
286.751	1668.75
286.982	1106.75
287.213	825.75
287.444	766.75
287.675	735.75
287.906	710.75
288.138	711.75
288.369	689.75
288.6	689.75
288.831	684.75
289.062	698.75
289.293	679.75
289.524	668.75
289.755	703.75
289.986	702.75
290.217	698.75
290.448	702.75
290.679	703.75
290.91	707.75
291.141	720.75
291.371	765.75
291.602	765.75
291.833	724.75
292.064	688.75
292.295	675.75
292.526	686.75
292.757	674.75
292.987	655.75
293.218	650.75
293.449	670.75
293.68	650.75
293.91	656.75
294.141	636.75
294.372	667.75
294.603	623.75
294.833	640.75
295.064	649.75
295.295	679.75
295.525	623.75
295.756	656.75
295.987	660.75
296.217	643.75
296.448	651.75
296.679	652.75
296.909	616.75
297.14	657.75
297.37	673.75
297.601	673.75
297.831	689.75
298.062	693.75
298.292	683.75
298.523	700.75
298.753	680.75
298.984	698.75
299.214	709.75
299.445	710.75
299.675	699.75
299.905	748.75
300.136	765.75
300.366	825.75
300.597	1014.75
300.827	1349.75
301.057	1777.75
301.288	1785.75
301.518	1223.75
301.748	930.75
301.979	887.75
302.209	878.75
302.439	879.75
302.669	914.75
302.9	1068.75
303.13	1398.75
303.36	2047.75
303.59	2698.75
303.82	2382.75
304.051	1437.75
304.281	1111.75
304.511	943.75
304.741	877.75
304.971	831.75
305.201	791.75
305.431	799.75
305.661	791.75
305.891	780.75
306.121	772.75
306.352	741.75
306.582	745.75
306.812	744.75
307.042	740.75
307.272	728.75
307.502	733.75
307.731	777.75
307.961	744.75
308.191	750.75
308.421	747.75
308.651	743.75
308.881	749.75
309.111	754.75
309.341	734.75
309.571	738.75
309.8	755.75
310.03	749.75
310.26	759.75
310.49	749.75
310.72	763.75
310.949	764.75
311.179	770.75
311.409	755.75
311.639	788.75
311.868	767.75
312.098	788.75
312.328	813.75
312.557	788.75
312.787	782.75
313.017	804.75
313.246	796.75
313.476	820.75
313.706	855.75
313.935	854.75
314.165	879.75
314.394	927.75
314.624	894.75
314.853	871.75
315.083	854.75
315.312	872.75
315.542	876.75
315.771	875.75
316.001	901.75
316.23	916.75
316.46	946.75
316.689	1027.75
316.919	1189.75
317.148	1615.75
317.377	2411.75
317.607	3576.75
317.836	3669.75
318.065	2233.75
318.295	1494.75
318.524	1238.75
318.753	1111.75
318.983	1033.75
319.212	965.75
319.441	967.75
319.67	942.75
319.9	951.75
320.129	955.75
320.358	927.75
320.587	937.75
320.816	966.75
321.046	955.75
321.275	970.75
321.504	942.75
321.733	952.75
321.962	960.75
322.191	989.75
322.42	1008.75
322.649	985.75
322.878	971.75
323.108	991.75
323.337	987.75
323.566	1017.75
323.795	1032.75
324.024	1051.75
324.253	1065.75
324.482	1124.75
324.71	1149.75
324.939	1215.75
325.168	1212.75
325.397	1270.75
325.626	1463.75
325.855	1965.75
326.084	3022.75
326.313	4358.75
326.542	4693.75
326.77	3001.75
326.999	2053.75
327.228	1758.75
327.457	1695.75
327.686	1697.75
327.914	1829.75
328.143	2052.75
328.372	2357.75
328.6	2517.75
328.829	2384.75
329.058	2099.75
329.287	1843.75
329.515	1726.75
329.744	1639.75
329.972	1556.75
330.201	1515.75
330.43	1432.75
330.658	1425.75
330.887	1406.75
331.115	1356.75
331.344	1359.75
331.572	1340.75
331.801	1371.75
332.03	1361.75
332.258	1396.75
332.486	1442.75
332.715	1590.75
332.943	1920.75
333.172	2237.75
333.4	2236.75
333.629	1812.75
333.857	1686.75
334.085	1670.75
334.314	1782.75
334.542	1877.75
334.771	2168.75
334.999	2530.75
335.227	3021.75
335.455	3388.75
335.684	3187.75
335.912	2774.75
336.14	2388.75
336.369	2164.75
336.597	2010.75
336.825	1836.75
337.053	1744.75
337.281	1621.75
337.51	1575.75
337.738	1506.75
337.966	1439.75
338.194	1416.75
338.422	1403.75
338.65	1325.75
338.878	1328.75
339.106	1294.75
339.334	1262.75
339.562	1252.75
339.79	1232.75
340.018	1214.75
340.246	1212.75
340.474	1198.75
340.702	1201.75
340.93	1192.75
341.158	1220.75
341.386	1188.75
341.614	1183.75
341.842	1158.75
342.07	1148.75
342.298	1117.75
342.526	1121.75
342.754	1113.75
342.981	1107.75
343.209	1131.75
343.437	1115.75
343.665	1149.75
343.893	1170.75
344.12	1173.75
344.348	1122.75
344.576	1137.75
344.804	1127.75
345.031	1075.75
345.259	1050.75
345.487	1081.75
345.714	1076.75
345.942	1045.75
346.17	1025.75
346.397	1022.75
346.625	1029.75
346.853	981.75
347.08	1015.75
347.308	1024.75
347.535	1039.75
347.763	1028.75
347.99	1009.75
348.218	1023.75
348.445	1014.75
348.673	1005.75
348.9	1008.75
349.128	1028.75
349.355	976.75
349.583	1005.75
349.81	1005.75
350.037	989.75
350.265	971.75
350.492	991.75
350.72	1000.75
350.947	1008.75
351.174	996.75
351.402	1005.75
351.629	1003.75
351.856	1007.75
352.083	992.75
352.311	987.75
352.538	985.75
352.765	994.75
352.992	988.75
353.22	956.75
353.447	969.75
353.674	977.75
353.901	988.75
354.128	957.75
354.355	995.75
354.583	982.75
354.81	1003.75
355.037	997.75
355.264	1004.75
355.491	987.75
355.718	980.75
355.945	1013.75
356.172	984.75
356.399	1005.75
356.626	999.75
356.853	1009.75
357.08	990.75
357.307	1019.75
357.534	1014.75
357.761	1041.75
357.988	1093.75
358.215	1023.75
358.441	1015.75
358.668	1020.75
358.895	1062.75
359.122	1038.75
359.349	1058.75
359.576	1053.75
359.802	1024.75
360.029	1019.75
360.256	1032.75
360.483	1057.75
360.709	1051.75
360.936	1041.75
361.163	1050.75
361.39	1036.75
361.616	1057.75
361.843	1032.75
362.07	1049.75
362.296	1078.75
362.523	1060.75
362.749	1060.75
362.976	1052.75
363.203	1060.75
363.429	1060.75
363.656	1042.75
363.882	1050.75
364.109	1035.75
364.335	1028.75
364.562	1029.75
364.788	1029.75
365.015	1046.75
365.241	1068.75
365.468	1100.75
365.694	1117.75
365.92	1136.75
366.147	1069.75
366.373	1067.75
366.599	1035.75
366.826	1061.75
367.052	1068.75
367.278	1062.75
367.505	1072.75
367.731	1101.75
367.957	1072.75
368.184	1055.75
368.41	1082.75
368.636	1095.75
368.862	1116.75
369.089	1101.75
369.315	1099.75
369.541	1087.75
369.767	1097.75
369.993	1077.75
370.219	1111.75
370.445	1057.75
370.672	1089.75
370.898	1113.75
371.124	1084.75
371.35	1115.75
371.576	1139.75
371.802	1121.75
372.028	1096.75
372.254	1096.75
372.48	1127.75
372.706	1117.75
372.932	1151.75
373.158	1145.75
373.384	1156.75
373.61	1143.75
373.835	1144.75
374.061	1149.75
374.287	1161.75
374.513	1155.75
374.739	1170.75
374.965	1172.75
375.191	1184.75
375.416	1182.75
375.642	1164.75
375.868	1187.75
376.094	1154.75
376.319	1120.75
376.545	1140.75
376.771	1121.75
376.997	1127.75
377.222	1155.75
377.448	1122.75
377.674	1097.75
377.899	1110.75
378.125	1115.75
378.35	1130.75
378.576	1103.75
378.802	1158.75
379.027	1147.75
379.253	1183.75
379.478	1211.75
379.704	1382.75
379.929	1847.75
380.155	2671.75
380.38	2785.75
380.606	1835.75
380.831	1389.75
381.057	1242.75
381.282	1203.75
381.507	1155.75
381.733	1142.75
381.958	1113.75
382.184	1124.75
382.409	1137.75
382.634	1137.75
382.86	1110.75
383.085	1108.75
383.31	1126.75
383.535	1093.75
383.761	1109.75
383.986	1123.75
384.211	1125.75
384.436	1120.75
384.662	1149.75
384.887	1199.75
385.112	1101.75
385.337	1153.75
385.562	1163.75
385.787	1165.75
386.013	1150.75
386.238	1181.75
386.463	1179.75
386.688	1176.75
386.913	1157.75
387.138	1143.75
387.363	1140.75
387.588	1165.75
387.813	1170.75
388.038	1171.75
388.263	1155.75
388.488	1168.75
388.713	1158.75
388.938	1151.75
389.163	1147.75
389.387	1173.75
389.612	1136.75
389.837	1168.75
390.062	1140.75
390.287	1165.75
390.512	1147.75
390.736	1203.75
390.961	1195.75
391.186	1211.75
391.411	1205.75
391.636	1190.75
391.86	1240.75
392.085	1212.75
392.31	1201.75
392.534	1198.75
392.759	1150.75
392.984	1183.75
393.208	1189.75
393.433	1169.75
393.658	1165.75
393.882	1151.75
394.107	1133.75
394.331	1166.75
394.556	1154.75
394.78	1189.75
395.005	1179.75
395.229	1154.75
395.454	1202.75
395.678	1195.75
395.903	1216.75
396.127	1234.75
396.352	1184.75
396.576	1187.75
396.801	1172.75
397.025	1192.75
397.249	1216.75
397.474	1231.75
397.698	1237.75
397.922	1246.75
398.147	1244.75
398.371	1234.75
398.595	1277.75
398.82	1307.75
399.044	1357.75
399.268	1372.75
399.492	1485.75
399.717	1555.75
399.941	1550.75
400.165	1469.75
400.389	1432.75
400.613	1369.75
400.837	1338.75
401.062	1295.75
401.286	1333.75
401.51	1296.75
401.734	1251.75
401.958	1278.75
402.182	1294.75
402.406	1288.75
402.63	1293.75
402.854	1333.75
403.078	1294.75
403.302	1296.75
403.526	1339.75
403.75	1349.75
403.974	1342.75
404.198	1329.75
404.422	1375.75
404.645	1345.75
404.869	1353.75
405.093	1339.75
405.317	1308.75
405.541	1373.75
405.765	1359.75
405.988	1367.75
406.212	1390.75
406.436	1352.75
406.66	1394.75
406.883	1375.75
407.107	1408.75
407.331	1443.75
407.555	1480.75
407.778	1437.75
408.002	1432.75
408.226	1423.75
408.449	1421.75
408.673	1384.75
408.896	1373.75
409.12	1347.75
409.344	1336.75
409.567	1335.75
409.791	1334.75
410.014	1305.75
410.238	1324.75
410.461	1308.75
410.685	1280.75
410.908	1326.75
411.132	1355.75
411.355	1281.75
411.578	1271.75
411.802	1251.75
412.025	1256.75
412.249	1287.75
412.472	1263.75
412.695	1261.75
412.919	1244.75
413.142	1293.75
413.365	1301.75
413.589	1291.75
413.812	1249.75
414.035	1242.75
414.258	1246.75
414.482	1245.75
414.705	1266.75
414.928	1246.75
415.151	1230.75
415.374	1224.75
415.597	1253.75
415.821	1234.75
416.044	1219.75
416.267	1194.75
416.49	1233.75
416.713	1221.75
416.936	1209.75
417.159	1208.75
417.382	1197.75
417.605	1195.75
417.828	1216.75
418.051	1187.75
418.274	1219.75
418.497	1175.75
418.72	1274.75
418.943	1218.75
419.166	1286.75
419.389	1343.75
419.611	1301.75
419.834	1323.75
420.057	1228.75
420.28	1228.75
420.503	1221.75
420.726	1203.75
420.948	1195.75
421.171	1225.75
421.394	1217.75
421.617	1230.75
421.839	1201.75
422.062	1229.75
422.285	1196.75
422.507	1216.75
422.73	1236.75
422.953	1264.75
423.175	1263.75
423.398	1257.75
423.621	1220.75
423.843	1223.75
424.066	1204.75
424.288	1247.75
424.511	1215.75
424.733	1230.75
424.956	1233.75
425.178	1212.75
425.401	1214.75
425.623	1200.75
425.846	1168.75
426.068	1199.75
426.291	1176.75
426.513	1147.75
426.735	1165.75
426.958	1195.75
427.18	1157.75
427.402	1172.75
427.625	1142.75
427.847	1109.75
428.069	1127.75
428.292	1139.75
428.514	1175.75
428.736	1156.75
428.958	1145.75
429.181	1109.75
429.403	1124.75
429.625	1124.75
429.847	1122.75
430.069	1134.75
430.292	1191.75
430.514	1183.75
430.736	1162.75
430.958	1145.75
431.18	1120.75
431.402	1122.75
431.624	1117.75
431.846	1102.75
432.068	1114.75
432.29	1103.75
432.512	1115.75
432.734	1134.75
432.956	1115.75
433.178	1145.75
433.4	1131.75
433.622	1151.75
433.844	1123.75
434.066	1137.75
434.287	1119.75
434.509	1159.75
434.731	1137.75
434.953	1183.75
435.175	1171.75
435.397	1168.75
435.618	1124.75
435.84	1101.75
436.062	1084.75
436.284	1119.75
436.505	1114.75
436.727	1118.75
436.949	1096.75
437.17	1094.75
437.392	1118.75
437.614	1087.75
437.835	1093.75
438.057	1071.75
438.278	1094.75
438.5	1106.75
438.721	1085.75
438.943	1120.75
439.165	1147.75
439.386	1152.75
439.608	1142.75
439.829	1147.75
440.05	1154.75
440.272	1225.75
440.493	1157.75
440.715	1152.75
440.936	1188.75
441.158	1169.75
441.379	1171.75
441.6	1214.75
441.822	1224.75
442.043	1272.75
442.264	1295.75
442.486	1241.75
442.707	1233.75
442.928	1190.75
443.149	1215.75
443.371	1181.75
443.592	1199.75
443.813	1193.75
444.034	1236.75
444.255	1249.75
444.476	1267.75
444.698	1295.75
444.919	1311.75
445.14	1376.75
445.361	1290.75
445.582	1207.75
445.803	1238.75
446.024	1217.75
446.245	1202.75
446.466	1205.75
446.687	1203.75
446.908	1183.75
447.129	1146.75
447.35	1131.75
447.571	1115.75
447.792	1133.75
448.013	1121.75
448.234	1109.75
448.455	1112.75
448.675	1126.75
448.896	1145.75
449.117	1179.75
449.338	1234.75
449.559	1275.75
449.779	1167.75
450	1089.75
450.221	1094.75
450.442	1088.75
450.662	1078.75
450.883	1053.75
451.104	1081.75
451.324	1090.75
451.545	1077.75
451.766	1046.75
451.986	1069.75
452.207	1155.75
452.428	1336.75
452.648	1751.75
452.869	1541.75
453.089	1194.75
453.31	1157.75
453.53	1186.75
453.751	1180.75
453.971	1251.75
454.192	1263.75
454.412	1120.75
454.633	1065.75
454.853	1042.75
455.073	1007.75
455.294	1030.75
455.514	1043.75
455.734	1009.75
455.955	1020.75
456.175	1015.75
456.395	1025.75
456.616	1022.75
456.836	1033.75
457.056	1014.75
457.276	1017.75
457.497	1080.75
457.717	1104.75
457.937	1092.75
458.157	1080.75
458.377	1042.75
458.598	1073.75
458.818	1090.75
459.038	1103.75
459.258	1130.75
459.478	1131.75
459.698	1123.75
459.918	1136.75
460.138	1140.75
460.358	1187.75
460.578	1202.75
460.798	1195.75
461.018	1190.75
461.238	1206.75
461.458	1255.75
461.678	1233.75
461.898	1235.75
462.118	1265.75
462.338	1256.75
462.558	1283.75
462.777	1363.75
462.997	1381.75
463.217	1383.75
463.437	1445.75
463.657	1439.75
463.876	1396.75
464.096	1364.75
464.316	1347.75
464.536	1327.75
464.755	1279.75
464.975	1251.75
465.195	1196.75
465.414	1183.75
465.634	1175.75
465.854	1155.75
466.073	1137.75
466.293	1136.75
466.512	1118.75
466.732	1129.75
466.951	1157.75
467.171	1220.75
467.391	1221.75
467.61	1143.75
467.829	1123.75
468.049	1115.75
468.268	1075.75
468.488	1103.75
468.707	1102.75
468.927	1085.75
469.146	1083.75
469.365	1119.75
469.585	1088.75
469.804	1144.75
470.023	1143.75
470.243	1180.75
470.462	1197.75
470.681	1243.75
470.901	1353.75
471.12	1521.75
471.339	1508.75
471.558	1266.75
471.777	1172.75
471.997	1138.75
472.216	1125.75
472.435	1120.75
472.654	1082.75
472.873	1056.75
473.092	1132.75
473.311	1104.75
473.53	1121.75
473.749	1133.75
473.968	1192.75
474.187	1131.75
474.406	1126.75
474.625	1116.75
474.844	1142.75
475.063	1126.75
475.282	1099.75
475.501	1088.75
475.72	1099.75
475.939	1135.75
476.158	1126.75
476.377	1183.75
476.596	1164.75
476.814	1149.75
477.033	1136.75
477.252	1166.75
477.471	1177.75
477.69	1240.75
477.908	1219.75
478.127	1263.75
478.346	1258.75
478.564	1295.75
478.783	1269.75
479.002	1315.75
479.22	1308.75
479.439	1320.75
479.658	1285.75
479.876	1312.75
480.095	1324.75
480.313	1345.75
480.532	1365.75
480.751	1369.75
480.969	1299.75
481.188	1300.75
481.406	1310.75
481.624	1318.75
481.843	1317.75
482.061	1337.75
482.28	1324.75
482.498	1321.75
482.717	1295.75
482.935	1306.75
483.153	1350.75
483.372	1390.75
483.59	1388.75
483.808	1415.75
484.027	1381.75
484.245	1475.75
484.463	1583.75
484.681	1759.75
484.9	1597.75
485.118	1538.75
485.336	1511.75
485.554	1521.75
485.772	1585.75
485.99	1768.75
486.209	1897.75
486.427	1607.75
486.645	1499.75
486.863	1436.75
487.081	1443.75
487.299	1429.75
487.517	1443.75
487.735	1444.75
487.953	1433.75
488.171	1441.75
488.389	1427.75
488.607	1367.75
488.825	1396.75
489.043	1334.75
489.261	1351.75
489.479	1359.75
489.696	1371.75
489.914	1384.75
490.132	1376.75
490.35	1375.75
490.568	1385.75
490.786	1407.75
491.003	1392.75
491.221	1423.75
491.439	1437.75
491.657	1441.75
491.874	1461.75
492.092	1479.75
492.31	1498.75
492.527	1483.75
492.745	1477.75
492.963	1451.75
493.18	1529.75
493.398	1512.75
493.615	1467.75
493.833	1446.75
494.05	1455.75
494.268	1479.75
494.485	1444.75
494.703	1470.75
494.92	1457.75
495.138	1465.75
495.355	1444.75
495.573	1489.75
495.79	1470.75
496.008	1500.75
496.225	1519.75
496.442	1513.75
496.66	1543.75
496.877	1577.75
497.094	1573.75
497.312	1541.75
497.529	1600.75
497.746	1573.75
497.963	1562.75
498.181	1618.75
498.398	1657.75
498.615	1699.75
498.832	1757.75
499.049	1848.75
499.267	1919.75
499.484	2098.75
499.701	2119.75
499.918	2168.75
500.135	2367.75
500.352	2468.75
500.569	2507.75
500.786	2520.75
501.003	2375.75
501.22	2303.75
501.437	2178.75
501.654	2053.75
501.871	1908.75
502.088	1824.75
502.305	1797.75
502.522	1728.75
502.739	1683.75
502.956	1633.75
503.172	1600.75
503.389	1564.75
503.606	1515.75
503.823	1482.75
504.04	1531.75
504.256	1508.75
504.473	1519.75
504.69	1491.75
504.907	1477.75
505.123	1409.75
505.34	1411.75
505.557	1377.75
505.773	1383.75
505.99	1359.75
506.207	1323.75
506.423	1328.75
506.64	1333.75
506.856	1256.75
507.073	1277.75
507.289	1306.75
507.506	1272.75
507.722	1265.75
507.939	1301.75
508.155	1219.75
508.372	1256.75
508.588	1259.75
508.805	1246.75
509.021	1256.75
509.238	1246.75
509.454	1291.75
509.67	1330.75
509.887	1265.75
510.103	1241.75
510.319	1254.75
510.536	1236.75
510.752	1208.75
510.968	1208.75
511.184	1179.75
511.401	1214.75
511.617	1201.75
511.833	1195.75
512.049	1162.75
512.265	1184.75
512.481	1158.75
512.698	1169.75
512.914	1202.75
513.13	1186.75
513.346	1201.75
513.562	1199.75
513.778	1187.75
513.994	1191.75
514.21	1189.75
514.426	1251.75
514.642	1295.75
514.858	1195.75
515.074	1216.75
515.29	1200.75
515.506	1199.75
515.721	1203.75
515.937	1201.75
516.153	1249.75
516.369	1256.75
516.585	1260.75
516.801	1307.75
517.016	1295.75
517.232	1344.75
517.448	1343.75
517.664	1333.75
517.879	1343.75
518.095	1338.75
518.311	1323.75
518.527	1344.75
518.742	1289.75
518.958	1310.75
519.173	1317.75
519.389	1298.75
519.605	1231.75
519.82	1208.75
520.036	1217.75
520.251	1197.75
520.467	1188.75
520.682	1176.75
520.898	1180.75
521.113	1176.75
521.329	1184.75
521.544	1176.75
521.76	1164.75
521.975	1189.75
522.19	1157.75
522.406	1162.75
522.621	1149.75
522.836	1142.75
523.052	1137.75
523.267	1155.75
523.482	1163.75
523.698	1139.75
523.913	1145.75
524.128	1139.75
524.343	1149.75
524.559	1160.75
524.774	1142.75
524.989	1165.75
525.204	1131.75
525.419	1148.75
525.634	1150.75
525.849	1138.75
526.064	1095.75
526.28	1145.75
526.495	1126.75
526.71	1143.75
526.925	1135.75
527.14	1113.75
527.355	1148.75
527.57	1162.75
527.785	1149.75
527.999	1138.75
528.214	1149.75
528.429	1134.75
528.644	1171.75
528.859	1205.75
529.074	1217.75
529.289	1236.75
529.503	1262.75
529.718	1208.75
529.933	1206.75
530.148	1197.75
530.363	1172.75
530.577	1181.75
530.792	1211.75
531.007	1215.75
531.221	1209.75
531.436	1165.75
531.651	1261.75
531.865	1223.75
532.08	1249.75
532.295	1256.75
532.509	1300.75
532.724	1337.75
532.938	1352.75
533.153	1363.75
533.367	1442.75
533.582	1484.75
533.796	1478.75
534.011	1438.75
534.225	1383.75
534.44	1364.75
534.654	1318.75
534.868	1349.75
535.083	1294.75
535.297	1329.75
535.511	1306.75
535.726	1284.75
535.94	1240.75
536.154	1232.75
536.369	1221.75
536.583	1182.75
536.797	1183.75
537.011	1186.75
537.225	1185.75
537.44	1153.75
537.654	1172.75
537.868	1126.75
538.082	1140.75
538.296	1123.75
538.51	1127.75
538.724	1167.75
538.938	1179.75
539.153	1128.75
539.367	1158.75
539.581	1109.75
539.795	1091.75
540.009	1083.75
540.222	1083.75
540.436	1105.75
540.65	1092.75
540.864	1115.75
541.078	1133.75
541.292	1183.75
541.506	1318.75
541.72	1408.75
541.934	1294.75
542.147	1268.75
542.361	1230.75
542.575	1128.75
542.789	1103.75
543.002	1071.75
543.216	1079.75
543.43	1076.75
543.644	1071.75
543.857	1116.75
544.071	1093.75
544.285	1142.75
544.498	1110.75
544.712	1088.75
544.925	1119.75
545.139	1131.75
545.352	1119.75
545.566	1118.75
545.779	1112.75
545.993	1140.75
546.206	1121.75
546.42	1119.75
546.633	1096.75
546.847	1136.75
547.06	1109.75
547.274	1125.75
547.487	1117.75
547.7	1128.75
547.914	1095.75
548.127	1131.75
548.34	1107.75
548.554	1116.75
548.767	1129.75
548.98	1098.75
549.193	1103.75
549.407	1114.75
549.62	1111.75
549.833	1134.75
550.046	1104.75
550.259	1135.75
550.473	1102.75
550.686	1097.75
550.899	1111.75
551.112	1133.75
551.325	1085.75
551.538	1102.75
551.751	1082.75
551.964	1098.75
552.177	1092.75
552.39	1120.75
552.603	1141.75
552.816	1175.75
553.029	1182.75
553.242	1205.75
553.455	1227.75
553.667	1188.75
553.88	1214.75
554.093	1256.75
554.306	1207.75
554.519	1215.75
554.732	1231.75
554.944	1214.75
555.157	1256.75
555.37	1275.75
555.583	1313.75
555.795	1343.75
556.008	1436.75
556.221	1498.75
556.433	1551.75
556.646	1529.75
556.859	1519.75
557.071	1521.75
557.284	1479.75
557.496	1494.75
557.709	1475.75
557.921	1461.75
558.134	1431.75
558.346	1450.75
558.559	1499.75
558.771	1567.75
558.984	1638.75
559.196	1670.75
559.409	1674.75
559.621	1592.75
559.833	1494.75
560.046	1443.75
560.258	1438.75
560.47	1356.75
560.683	1344.75
560.895	1276.75
561.107	1225.75
561.32	1211.75
561.532	1181.75
561.744	1167.75
561.956	1162.75
562.168	1151.75
562.381	1098.75
562.593	1125.75
562.805	1108.75
563.017	1120.75
563.229	1108.75
563.441	1191.75
563.653	1097.75
563.865	1067.75
564.077	1014.75
564.289	1025.75
564.501	1004.75
564.713	1018.75
564.925	1036.75
565.137	1024.75
565.349	1032.75
565.561	1040.75
565.773	1009.75
565.985	1039.75
566.197	1051.75
566.408	1053.75
566.62	1099.75
566.832	1133.75
567.044	1140.75
567.255	1143.75
567.467	1144.75
567.679	1149.75
567.891	1234.75
568.102	1329.75
568.314	1463.75
568.526	1287.75
568.737	1122.75
568.949	1031.75
569.161	988.75
569.372	966.75
569.584	942.75
569.795	929.75
570.007	905.75
570.218	914.75
570.43	923.75
570.641	872.75
570.853	869.75
571.064	873.75
571.276	868.75
571.487	831.75
571.698	808.75
571.91	829.75
572.121	790.75
572.333	797.75
572.544	767.75
572.755	849.75
572.966	942.75
573.178	855.75
573.389	791.75
573.6	773.75
573.811	765.75
574.023	753.75
574.234	765.75
574.445	744.75
574.656	742.75
574.867	734.75
575.078	741.75
575.289	734.75
575.501	752.75
575.712	735.75
575.923	708.75
576.134	747.75
576.345	732.75
576.556	741.75
576.767	724.75
576.978	755.75
577.188	778.75
577.399	761.75
577.61	739.75
577.821	749.75
578.032	748.75
578.243	773.75
578.454	760.75
578.665	768.75
578.875	779.75
579.086	808.75
579.297	847.75
579.508	870.75
579.718	939.75
579.929	1035.75
580.14	1106.75
580.35	1140.75
580.561	1106.75
580.772	1037.75
580.982	1022.75
581.193	927.75
581.403	911.75
581.614	869.75
581.825	834.75
582.035	833.75
582.246	809.75
582.456	760.75
582.667	751.75
582.877	754.75
583.087	713.75
583.298	729.75
583.508	689.75
583.719	677.75
583.929	658.75
584.139	654.75
584.35	628.75
584.56	629.75
584.77	628.75
584.981	631.75
585.191	609.75
585.401	612.75
585.611	605.75
585.821	569.75
586.032	600.75
586.242	625.75
586.452	593.75
586.662	582.75
586.872	581.75
587.082	569.75
587.292	567.75
587.502	556.75
587.713	548.75
587.923	548.75
588.133	543.75
588.343	553.75
588.553	548.75
588.762	528.75
588.972	528.75
589.182	549.75
589.392	575.75
589.602	525.75
589.812	543.75
590.022	551.75
590.232	524.75
590.441	542.75
590.651	529.75
590.861	523.75
591.071	523.75
591.281	539.75
591.49	541.75
591.7	533.75
591.91	546.75
592.119	525.75
592.329	511.75
592.539	550.75
592.748	550.75
592.958	567.75
593.167	552.75
593.377	577.75
593.587	559.75
593.796	555.75
594.006	561.75
594.215	562.75
594.424	555.75
594.634	561.75
594.843	545.75
595.053	537.75
595.262	509.75
595.472	533.75
595.681	539.75
595.89	514.75
596.1	479.75
596.309	518.75
596.518	483.75
596.727	505.75
596.937	485.75
597.146	464.75
597.355	457.75
597.564	468.75
597.774	461.75
597.983	478.75
598.192	456.75
598.401	455.75
598.61	457.75
598.819	457.75
599.028	444.75
599.237	454.75
599.446	438.75
599.655	448.75
599.864	424.75
600.073	443.75
600.282	443.75
600.491	438.75
600.7	418.75
600.909	439.75
601.118	444.75
601.327	461.75
601.536	431.75
601.745	463.75
601.953	494.75
602.162	545.75
602.371	464.75
602.58	481.75
602.789	453.75
602.997	449.75
603.206	442.75
603.415	443.75
603.623	448.75
603.832	424.75
604.041	414.75
604.249	420.75
604.458	417.75
604.666	406.75
604.875	393.75
605.084	419.75
605.292	412.75
605.501	427.75
605.709	420.75
605.918	426.75
606.126	429.75
606.334	429.75
606.543	438.75
606.751	445.75
606.96	496.75
607.168	524.75
607.376	468.75
607.585	453.75
607.793	446.75
608.001	423.75
608.21	405.75
608.418	405.75
608.626	422.75
608.834	419.75
609.043	430.75
609.251	410.75
609.459	418.75
609.667	396.75
609.875	408.75
610.083	428.75
610.291	407.75
610.499	398.75
610.707	409.75
610.916	390.75
611.124	405.75
611.332	416.75
611.54	387.75
611.748	395.75
611.955	394.75
612.163	367.75
612.371	373.75
612.579	399.75
612.787	387.75
612.995	392.75
613.203	398.75
613.411	394.75
613.618	397.75
613.826	385.75
614.034	408.75
614.242	395.75
614.449	373.75
614.657	369.75
614.865	381.75
615.072	380.75
615.28	407.75
615.488	399.75
615.695	391.75
615.903	371.75
616.111	369.75
616.318	379.75
616.526	395.75
616.733	388.75
616.941	387.75
617.148	392.75
617.356	390.75
617.563	365.75
617.771	377.75
617.978	375.75
618.185	393.75
618.393	392.75
618.6	356.75
618.807	365.75
619.015	387.75
619.222	392.75
619.429	366.75
619.637	350.75
619.844	358.75
620.051	347.75
620.258	348.75
620.466	354.75
620.673	341.75
620.88	331.75
621.087	349.75
621.294	335.75
621.501	347.75
621.708	348.75
621.915	353.75
622.122	334.75
622.329	348.75
622.536	339.75
622.743	364.75
622.95	355.75
623.157	341.75
623.364	345.75
623.571	340.75
623.778	352.75
623.985	343.75
624.192	343.75
624.399	330.75
624.606	335.75
624.812	339.75
625.019	335.75
625.226	323.75
625.433	340.75
625.639	322.75
625.846	320.75
626.053	311.75
626.259	303.75
626.466	309.75
626.673	317.75
626.879	317.75
627.086	322.75
627.293	308.75
627.499	317.75
627.706	328.75
627.912	334.75
628.119	320.75
628.325	328.75
628.532	324.75
628.738	324.75
628.945	320.75
629.151	307.75
629.357	315.75
629.564	303.75
629.77	280.75
629.976	298.75
630.183	295.75
630.389	302.75
630.595	307.75
630.802	307.75
631.008	323.75
631.214	311.75
631.42	299.75
631.627	300.75
631.833	296.75
632.039	300.75
632.245	292.75
632.451	301.75
632.657	305.75
632.863	296.75
633.069	290.75
633.275	308.75
633.481	292.75
633.688	286.75
633.893	277.75
634.099	303.75
634.305	295.75
634.511	306.75
634.717	295.75
634.923	283.75
635.129	337.75
635.335	349.75
635.541	328.75
635.747	301.75
635.952	290.75
636.158	292.75
636.364	322.75
636.57	304.75
636.775	301.75
636.981	292.75
637.187	307.75
637.392	307.75
637.598	300.75
637.804	288.75
638.009	294.75
638.215	289.75
638.421	310.75
638.626	290.75
638.832	287.75
639.037	302.75
639.243	285.75
639.448	301.75
639.654	303.75
639.859	286.75
640.065	301.75
640.27	304.75
640.475	286.75
640.681	315.75
640.886	325.75
641.091	305.75
641.297	315.75
641.502	327.75
641.707	336.75
641.913	316.75
642.118	304.75
642.323	325.75
642.528	336.75
642.733	323.75
642.939	352.75
643.144	352.75
643.349	357.75
643.554	356.75
643.759	389.75
643.964	379.75
644.169	373.75
644.374	421.75
644.579	453.75
644.784	465.75
644.989	539.75
645.194	550.75
645.399	677.75
645.604	674.75
645.809	565.75
646.014	453.75
646.219	412.75
646.423	367.75
646.628	350.75
646.833	339.75
647.038	329.75
647.243	301.75
647.447	309.75
647.652	312.75
647.857	291.75
648.062	280.75
648.266	282.75
648.471	278.75
648.676	276.75
648.88	276.75
649.085	276.75
649.289	283.75
649.494	255.75
649.698	269.75
649.903	264.75
650.107	264.75
650.312	248.75
650.516	245.75
650.721	240.75
650.925	246.75
651.13	236.75
651.334	243.75
651.539	251.75
651.743	225.75
651.947	210.75
652.152	227.75
652.356	219.75
652.56	243.75
652.764	255.75
652.969	235.75
653.173	233.75
653.377	209.75
653.581	204.75
653.785	206.75
653.99	216.75
654.194	210.75
654.398	197.75
654.602	204.75
654.806	213.75
655.01	217.75
655.214	207.75
655.418	215.75
655.622	204.75
655.826	211.75
656.03	217.75
656.234	224.75
656.438	217.75
656.642	232.75
656.846	224.75
657.049	220.75
657.253	212.75
657.457	186.75
657.661	163.75
657.865	176.75
658.068	160.75
658.272	149.75
658.476	158.75
658.68	135.75
658.883	152.75
659.087	145.75
659.291	138.75
659.494	129.75
659.698	121.75
659.901	125.75
660.105	112.75
660.309	103.75
660.512	111.75
660.716	114.75
660.919	99.75
661.123	114.75
661.326	113.75
661.53	98.75
661.733	119.75
661.936	89.75
662.14	98.75
662.343	107.75
662.546	91.75
662.75	99.75
662.953	108.75
663.156	95.75
663.36	91.75
663.563	81.75
663.766	61.75
663.969	87.75
664.173	81.75
664.376	95.75
664.579	76.75
664.782	86.75
664.985	82.75
665.188	73.75
665.391	88.75
665.594	77.75
665.797	77.75
666	83.75
666.203	79.75
666.406	79.75
666.609	85.75
666.812	83.75
667.015	76.75
667.218	80.75
667.421	68.75
667.624	74.75
667.827	70.75
668.03	82.75
668.232	81.75
668.435	77.75
668.638	96.75
668.841	77.75
669.043	92.75
669.246	77.75
669.449	84.75
669.651	74.75
669.854	63.75
670.057	75.75
670.259	65.75
670.462	84.75
670.665	84.75
670.867	76.75
671.07	88.75
671.272	83.75
671.475	69.75
671.677	77.75
671.88	79.75
672.082	80.75
672.284	81.75
672.487	82.75
672.689	87.75
672.892	81.75
