Data from SnStandardFlinnAPT0064_LampEnergy5.5_LIBS07252019.E.O._I.C._HRD10591_15-14-44-491.txt Node
Date: Thu Jul 25 15:14:44 EDT 2019
User: cochatt
Spectrometer: HR+D1059
Trigger mode: 1
Integration Time (sec): 1.000000E-1
Scans to average: 1
Electric dark correction enabled: true
Nonlinearity correction enabled: false
Boxcar width: 0
XAxis mode: Wavelengths
Number of Pixels in Spectrum: 2048
>>>>>Begin Spectral Data<<<<<
223.165	-9.06
223.4	-9.06
223.635	-9.06
223.869	-24.06
224.104	-22.06
224.338	-8.06
224.573	-26.06
224.808	-17.06
225.042	5.94
225.277	-1.06
225.511	2.94
225.746	1.94
225.98	14.94
226.215	9.94
226.449	10.94
226.683	2.94
226.918	21.94
227.152	35.94
227.387	39.94
227.621	41.94
227.856	33.94
228.09	50.94
228.324	58.94
228.559	49.94
228.793	76.94
229.027	150.94
229.262	131.94
229.496	142.94
229.73	144.94
229.964	151.94
230.199	140.94
230.433	170.94
230.667	165.94
230.901	144.94
231.136	173.94
231.37	181.94
231.604	175.94
231.838	200.94
232.072	208.94
232.306	209.94
232.541	220.94
232.775	186.94
233.009	205.94
233.243	183.94
233.477	198.94
233.711	219.94
233.945	250.94
234.179	224.94
234.413	191.94
234.647	229.94
234.881	224.94
235.115	263.94
235.349	257.94
235.583	305.94
235.817	364.94
236.051	373.94
236.285	261.94
236.519	225.94
236.753	237.94
236.987	218.94
237.221	234.94
237.455	222.94
237.689	211.94
237.922	197.94
238.156	208.94
238.39	210.94
238.624	217.94
238.858	227.94
239.091	231.94
239.325	235.94
239.559	214.94
239.793	230.94
240.027	227.94
240.26	227.94
240.494	223.94
240.728	238.94
240.961	259.94
241.195	275.94
241.429	285.94
241.662	301.94
241.896	294.94
242.13	373.94
242.363	417.94
242.597	543.94
242.83	532.94
243.064	531.94
243.298	624.94
243.531	539.94
243.765	372.94
243.998	322.94
244.232	288.94
244.465	277.94
244.699	305.94
244.932	263.94
245.166	275.94
245.399	291.94
245.633	289.94
245.866	297.94
246.099	256.94
246.333	293.94
246.566	303.94
246.8	277.94
247.033	283.94
247.266	278.94
247.5	269.94
247.733	288.94
247.966	281.94
248.2	303.94
248.433	335.94
248.666	369.94
248.899	367.94
249.133	335.94
249.366	353.94
249.599	367.94
249.832	407.94
250.066	394.94
250.299	346.94
250.532	316.94
250.765	312.94
250.998	315.94
251.231	318.94
251.465	307.94
251.698	310.94
251.931	319.94
252.164	330.94
252.397	319.94
252.63	341.94
252.863	331.94
253.096	312.94
253.329	330.94
253.562	313.94
253.795	325.94
254.028	332.94
254.261	338.94
254.494	354.94
254.727	377.94
254.96	465.94
255.193	450.94
255.426	377.94
255.659	377.94
255.892	370.94
256.124	343.94
256.357	369.94
256.59	372.94
256.823	398.94
257.056	431.94
257.289	496.94
257.521	501.94
257.754	425.94
257.987	379.94
258.22	369.94
258.452	373.94
258.685	381.94
258.918	400.94
259.151	395.94
259.383	431.94
259.616	441.94
259.849	468.94
260.081	432.94
260.314	418.94
260.547	395.94
260.779	391.94
261.012	397.94
261.244	400.94
261.477	396.94
261.71	420.94
261.942	426.94
262.175	434.94
262.407	437.94
262.64	445.94
262.872	458.94
263.105	462.94
263.337	481.94
263.57	505.94
263.802	540.94
264.035	552.94
264.267	569.94
264.499	587.94
264.732	612.94
264.964	607.94
265.197	610.94
265.429	592.94
265.661	614.94
265.894	633.94
266.126	705.94
266.358	770.94
266.591	710.94
266.823	644.94
267.055	593.94
267.287	581.94
267.52	543.94
267.752	560.94
267.984	536.94
268.216	519.94
268.448	534.94
268.681	513.94
268.913	515.94
269.145	515.94
269.377	518.94
269.609	501.94
269.841	543.94
270.073	552.94
270.306	603.94
270.538	757.94
270.77	1031.94
271.002	1219.94
271.234	936.94
271.466	690.94
271.698	579.94
271.93	556.94
272.162	544.94
272.394	528.94
272.626	517.94
272.858	498.94
273.09	489.94
273.322	483.94
273.553	484.94
273.785	481.94
274.017	476.94
274.249	499.94
274.481	490.94
274.713	497.94
274.945	529.94
275.176	492.94
275.408	505.94
275.64	485.94
275.872	519.94
276.104	527.94
276.335	525.94
276.567	505.94
276.799	519.94
277.031	516.94
277.262	529.94
277.494	561.94
277.726	578.94
277.957	646.94
278.189	681.94
278.421	658.94
278.652	631.94
278.884	612.94
279.115	586.94
279.347	561.94
279.579	584.94
279.81	561.94
280.042	534.94
280.273	568.94
280.505	563.94
280.736	578.94
280.968	600.94
281.199	663.94
281.431	689.94
281.662	680.94
281.894	637.94
282.125	621.94
282.356	611.94
282.588	617.94
282.819	635.94
283.051	655.94
283.282	757.94
283.513	873.94
283.745	1192.94
283.976	1762.94
284.207	2475.94
284.439	2307.94
284.67	1463.94
284.901	1187.94
285.132	1183.94
285.364	1109.94
285.595	916.94
285.826	844.94
286.057	994.94
286.288	1290.94
286.52	1608.94
286.751	1516.94
286.982	1025.94
287.213	835.94
287.444	744.94
287.675	697.94
287.906	699.94
288.138	694.94
288.369	688.94
288.6	662.94
288.831	670.94
289.062	679.94
289.293	690.94
289.524	677.94
289.755	646.94
289.986	678.94
290.217	662.94
290.448	691.94
290.679	681.94
290.91	677.94
291.141	705.94
291.371	731.94
291.602	731.94
291.833	675.94
292.064	669.94
292.295	670.94
292.526	649.94
292.757	630.94
292.987	647.94
293.218	628.94
293.449	671.94
293.68	628.94
293.91	623.94
294.141	608.94
294.372	627.94
294.603	612.94
294.833	612.94
295.064	637.94
295.295	644.94
295.525	636.94
295.756	613.94
295.987	604.94
296.217	613.94
296.448	619.94
296.679	620.94
296.909	628.94
297.14	637.94
297.37	639.94
297.601	641.94
297.831	634.94
298.062	661.94
298.292	663.94
298.523	682.94
298.753	642.94
298.984	671.94
299.214	687.94
299.445	703.94
299.675	691.94
299.905	690.94
300.136	722.94
300.366	828.94
300.597	944.94
300.827	1239.94
301.057	1628.94
301.288	1587.94
301.518	1137.94
301.748	894.94
301.979	857.94
302.209	827.94
302.439	823.94
302.669	883.94
302.9	1008.94
303.13	1332.94
303.36	1853.94
303.59	2370.94
303.82	2109.94
304.051	1406.94
304.281	1066.94
304.511	894.94
304.741	833.94
304.971	816.94
305.201	806.94
305.431	775.94
305.661	764.94
305.891	731.94
306.121	724.94
306.352	726.94
306.582	715.94
306.812	711.94
307.042	715.94
307.272	737.94
307.502	714.94
307.731	713.94
307.961	733.94
308.191	715.94
308.421	743.94
308.651	701.94
308.881	731.94
309.111	738.94
309.341	715.94
309.571	751.94
309.8	717.94
310.03	745.94
310.26	740.94
310.49	756.94
310.72	738.94
310.949	727.94
311.179	745.94
311.409	740.94
311.639	744.94
311.868	762.94
312.098	767.94
312.328	764.94
312.557	765.94
312.787	753.94
313.017	775.94
313.246	772.94
313.476	777.94
313.706	808.94
313.935	818.94
314.165	856.94
314.394	886.94
314.624	874.94
314.853	811.94
315.083	816.94
315.312	831.94
315.542	828.94
315.771	860.94
316.001	855.94
316.23	891.94
316.46	915.94
316.689	977.94
316.919	1113.94
317.148	1552.94
317.377	2197.94
317.607	3102.94
317.836	3276.94
318.065	2034.94
318.295	1395.94
318.524	1160.94
318.753	1056.94
318.983	999.94
319.212	944.94
319.441	956.94
319.67	935.94
319.9	918.94
320.129	914.94
320.358	911.94
320.587	907.94
320.816	908.94
321.046	900.94
321.275	904.94
321.504	884.94
321.733	930.94
321.962	949.94
322.191	978.94
322.42	946.94
322.649	946.94
322.878	950.94
323.108	968.94
323.337	976.94
323.566	968.94
323.795	978.94
324.024	1004.94
324.253	1039.94
324.482	1076.94
324.71	1096.94
324.939	1135.94
325.168	1159.94
325.397	1221.94
325.626	1378.94
325.855	1845.94
326.084	2727.94
326.313	3920.94
326.542	4155.94
326.77	2788.94
326.999	1956.94
327.228	1697.94
327.457	1629.94
327.686	1635.94
327.914	1732.94
328.143	1965.94
328.372	2197.94
328.6	2377.94
328.829	2260.94
329.058	2031.94
329.287	1850.94
329.515	1724.94
329.744	1611.94
329.972	1508.94
330.201	1441.94
330.43	1408.94
330.658	1354.94
330.887	1365.94
331.115	1313.94
331.344	1308.94
331.572	1292.94
331.801	1306.94
332.03	1344.94
332.258	1325.94
332.486	1367.94
332.715	1465.94
332.943	1767.94
333.172	2042.94
333.4	2049.94
333.629	1727.94
333.857	1643.94
334.085	1651.94
334.314	1689.94
334.542	1820.94
334.771	2105.94
334.999	2394.94
335.227	2885.94
335.455	3185.94
335.684	3011.94
335.912	2620.94
336.14	2321.94
336.369	2069.94
336.597	1955.94
336.825	1789.94
337.053	1698.94
337.281	1575.94
337.51	1521.94
337.738	1462.94
337.966	1446.94
338.194	1369.94
338.422	1337.94
338.65	1284.94
338.878	1288.94
339.106	1255.94
339.334	1232.94
339.562	1192.94
339.79	1172.94
340.018	1225.94
340.246	1179.94
340.474	1139.94
340.702	1188.94
340.93	1157.94
341.158	1176.94
341.386	1164.94
341.614	1158.94
341.842	1136.94
342.07	1105.94
342.298	1087.94
342.526	1089.94
342.754	1084.94
342.981	1077.94
343.209	1095.94
343.437	1087.94
343.665	1122.94
343.893	1113.94
344.12	1106.94
344.348	1087.94
344.576	1065.94
344.804	1061.94
345.031	1000.94
345.259	1048.94
345.487	1002.94
345.714	1004.94
345.942	990.94
346.17	982.94
346.397	985.94
346.625	986.94
346.853	995.94
347.08	1008.94
347.308	1007.94
347.535	970.94
347.763	997.94
347.99	967.94
348.218	987.94
348.445	966.94
348.673	955.94
348.9	961.94
349.128	975.94
349.355	938.94
349.583	964.94
349.81	957.94
350.037	957.94
350.265	944.94
350.492	959.94
350.72	964.94
350.947	951.94
351.174	945.94
351.402	944.94
351.629	929.94
351.856	959.94
352.083	956.94
352.311	977.94
352.538	951.94
352.765	932.94
352.992	955.94
353.22	937.94
353.447	918.94
353.674	949.94
353.901	936.94
354.128	945.94
354.355	939.94
354.583	950.94
354.81	940.94
355.037	980.94
355.264	953.94
355.491	976.94
355.718	980.94
355.945	957.94
356.172	1004.94
356.399	977.94
356.626	980.94
356.853	987.94
357.08	986.94
357.307	992.94
357.534	972.94
357.761	1002.94
357.988	1000.94
358.215	993.94
358.441	997.94
358.668	983.94
358.895	966.94
359.122	973.94
359.349	973.94
359.576	987.94
359.802	1004.94
360.029	999.94
360.256	1012.94
360.483	1020.94
360.709	1031.94
360.936	996.94
361.163	1027.94
361.39	1007.94
361.616	989.94
361.843	1000.94
362.07	1017.94
362.296	1004.94
362.523	1018.94
362.749	995.94
362.976	999.94
363.203	1018.94
363.429	1005.94
363.656	1000.94
363.882	1004.94
364.109	989.94
364.335	990.94
364.562	1012.94
364.788	1005.94
365.015	1025.94
365.241	1034.94
365.468	1069.94
365.694	1069.94
365.92	1069.94
366.147	1030.94
366.373	1080.94
366.599	1037.94
366.826	1023.94
367.052	1035.94
367.278	1037.94
367.505	1035.94
367.731	1022.94
367.957	1036.94
368.184	1050.94
368.41	1052.94
368.636	1041.94
368.862	1045.94
369.089	1075.94
369.315	1043.94
369.541	1067.94
369.767	1059.94
369.993	1028.94
370.219	1012.94
370.445	1065.94
370.672	1029.94
370.898	1063.94
371.124	1064.94
371.35	1084.94
371.576	1101.94
371.802	1076.94
372.028	1093.94
372.254	1095.94
372.48	1100.94
372.706	1107.94
372.932	1123.94
373.158	1079.94
373.384	1114.94
373.61	1095.94
373.835	1116.94
374.061	1145.94
374.287	1130.94
374.513	1113.94
374.739	1147.94
374.965	1139.94
375.191	1153.94
375.416	1174.94
375.642	1129.94
375.868	1097.94
376.094	1098.94
376.319	1109.94
376.545	1090.94
376.771	1110.94
376.997	1082.94
377.222	1086.94
377.448	1086.94
377.674	1087.94
377.899	1108.94
378.125	1071.94
378.35	1103.94
378.576	1085.94
378.802	1075.94
379.027	1071.94
379.253	1128.94
379.478	1168.94
379.704	1324.94
379.929	1731.94
380.155	2374.94
380.38	2516.94
380.606	1733.94
380.831	1316.94
381.057	1218.94
381.282	1154.94
381.507	1108.94
381.733	1100.94
381.958	1091.94
382.184	1067.94
382.409	1075.94
382.634	1055.94
382.86	1078.94
383.085	1090.94
383.31	1077.94
383.535	1086.94
383.761	1071.94
383.986	1079.94
384.211	1105.94
384.436	1085.94
384.662	1073.94
384.887	1112.94
385.112	1105.94
385.337	1110.94
385.562	1128.94
385.787	1139.94
386.013	1140.94
386.238	1118.94
386.463	1116.94
386.688	1128.94
386.913	1093.94
387.138	1106.94
387.363	1109.94
387.588	1076.94
387.813	1127.94
388.038	1119.94
388.263	1120.94
388.488	1091.94
388.713	1112.94
388.938	1116.94
389.163	1067.94
389.387	1139.94
389.612	1115.94
389.837	1103.94
390.062	1144.94
390.287	1153.94
390.512	1151.94
390.736	1124.94
390.961	1155.94
391.186	1137.94
391.411	1167.94
391.636	1156.94
391.86	1189.94
392.085	1175.94
392.31	1153.94
392.534	1159.94
392.759	1162.94
392.984	1132.94
393.208	1130.94
393.433	1136.94
393.658	1133.94
393.882	1135.94
394.107	1126.94
394.331	1119.94
394.556	1125.94
394.78	1151.94
395.005	1161.94
395.229	1145.94
395.454	1142.94
395.678	1176.94
395.903	1160.94
396.127	1182.94
396.352	1141.94
396.576	1156.94
396.801	1148.94
397.025	1144.94
397.249	1167.94
397.474	1163.94
397.698	1197.94
397.922	1198.94
398.147	1195.94
398.371	1165.94
398.595	1205.94
398.82	1225.94
399.044	1271.94
399.268	1339.94
399.492	1414.94
399.717	1496.94
399.941	1482.94
400.165	1431.94
400.389	1379.94
400.613	1319.94
400.837	1287.94
401.062	1251.94
401.286	1245.94
401.51	1236.94
401.734	1244.94
401.958	1244.94
402.182	1241.94
402.406	1229.94
402.63	1265.94
402.854	1245.94
403.078	1248.94
403.302	1263.94
403.526	1305.94
403.75	1272.94
403.974	1304.94
404.198	1249.94
404.422	1301.94
404.645	1307.94
404.869	1282.94
405.093	1269.94
405.317	1240.94
405.541	1289.94
405.765	1319.94
405.988	1287.94
406.212	1332.94
406.436	1267.94
406.66	1324.94
406.883	1309.94
407.107	1373.94
407.331	1372.94
407.555	1391.94
407.778	1415.94
408.002	1335.94
408.226	1335.94
408.449	1369.94
408.673	1312.94
408.896	1291.94
409.12	1295.94
409.344	1298.94
409.567	1283.94
409.791	1291.94
410.014	1272.94
410.238	1243.94
410.461	1279.94
410.685	1289.94
410.908	1219.94
411.132	1238.94
411.355	1235.94
411.578	1229.94
411.802	1203.94
412.025	1239.94
412.249	1253.94
412.472	1229.94
412.695	1188.94
412.919	1233.94
413.142	1253.94
413.365	1233.94
413.589	1229.94
413.812	1218.94
414.035	1180.94
414.258	1210.94
414.482	1191.94
414.705	1204.94
414.928	1220.94
415.151	1205.94
415.374	1227.94
415.597	1179.94
415.821	1164.94
416.044	1168.94
416.267	1166.94
416.49	1162.94
416.713	1165.94
416.936	1178.94
417.159	1171.94
417.382	1166.94
417.605	1165.94
417.828	1168.94
418.051	1165.94
418.274	1180.94
418.497	1148.94
418.72	1165.94
418.943	1168.94
419.166	1270.94
419.389	1292.94
419.611	1269.94
419.834	1223.94
420.057	1217.94
420.28	1195.94
420.503	1157.94
420.726	1169.94
420.948	1178.94
421.171	1152.94
421.394	1186.94
421.617	1193.94
421.839	1208.94
422.062	1235.94
422.285	1191.94
422.507	1181.94
422.73	1195.94
422.953	1205.94
423.175	1169.94
423.398	1239.94
423.621	1161.94
423.843	1188.94
424.066	1187.94
424.288	1189.94
424.511	1191.94
424.733	1175.94
424.956	1154.94
425.178	1147.94
425.401	1169.94
425.623	1177.94
425.846	1148.94
426.068	1127.94
426.291	1143.94
426.513	1105.94
426.735	1087.94
426.958	1121.94
427.18	1105.94
427.402	1125.94
427.625	1124.94
427.847	1119.94
428.069	1116.94
428.292	1097.94
428.514	1081.94
428.736	1087.94
428.958	1097.94
429.181	1081.94
429.403	1069.94
429.625	1081.94
429.847	1075.94
430.069	1083.94
430.292	1127.94
430.514	1105.94
430.736	1136.94
430.958	1124.94
431.18	1076.94
431.402	1095.94
431.624	1081.94
431.846	1078.94
432.068	1075.94
432.29	1085.94
432.512	1041.94
432.734	1076.94
432.956	1085.94
433.178	1097.94
433.4	1121.94
433.622	1115.94
433.844	1117.94
434.066	1113.94
434.287	1060.94
434.509	1088.94
434.731	1088.94
434.953	1088.94
435.175	1102.94
435.397	1129.94
435.618	1112.94
435.84	1068.94
436.062	1063.94
436.284	1074.94
436.505	1078.94
436.727	1083.94
436.949	1064.94
437.17	1076.94
437.392	1066.94
437.614	1056.94
437.835	1041.94
438.057	1034.94
438.278	1040.94
438.5	1068.94
438.721	1040.94
438.943	1071.94
439.165	1098.94
439.386	1098.94
439.608	1118.94
439.829	1129.94
440.05	1124.94
440.272	1169.94
440.493	1121.94
440.715	1116.94
440.936	1147.94
441.158	1151.94
441.379	1160.94
441.6	1161.94
441.822	1193.94
442.043	1204.94
442.264	1250.94
442.486	1204.94
442.707	1208.94
442.928	1142.94
443.149	1151.94
443.371	1148.94
443.592	1141.94
443.813	1155.94
444.034	1142.94
444.255	1161.94
444.476	1201.94
444.698	1218.94
444.919	1256.94
445.14	1316.94
445.361	1232.94
445.582	1232.94
445.803	1184.94
446.024	1170.94
446.245	1141.94
446.466	1146.94
446.687	1128.94
446.908	1141.94
447.129	1142.94
447.35	1114.94
447.571	1097.94
447.792	1091.94
448.013	1079.94
448.234	1075.94
448.455	1059.94
448.675	1093.94
448.896	1092.94
449.117	1112.94
449.338	1181.94
449.559	1199.94
449.779	1136.94
450	1061.94
450.221	1056.94
450.442	1040.94
450.662	1027.94
450.883	1033.94
451.104	1035.94
451.324	1019.94
451.545	1018.94
451.766	1046.94
451.986	1065.94
452.207	1109.94
452.428	1251.94
452.648	1647.94
452.869	1439.94
453.089	1152.94
453.31	1104.94
453.53	1126.94
453.751	1127.94
453.971	1165.94
454.192	1152.94
454.412	1056.94
454.633	1032.94
454.853	1018.94
455.073	989.94
455.294	1020.94
455.514	997.94
455.734	1011.94
455.955	989.94
456.175	990.94
456.395	969.94
456.616	971.94
456.836	986.94
457.056	1008.94
457.276	987.94
457.497	1047.94
457.717	1049.94
457.937	1023.94
458.157	1040.94
458.377	1051.94
458.598	1057.94
458.818	1075.94
459.038	1047.94
459.258	1044.94
459.478	1083.94
459.698	1093.94
459.918	1107.94
460.138	1110.94
460.358	1167.94
460.578	1148.94
460.798	1184.94
461.018	1183.94
461.238	1167.94
461.458	1171.94
461.678	1155.94
461.898	1243.94
462.118	1183.94
462.338	1242.94
462.558	1267.94
462.777	1261.94
462.997	1304.94
463.217	1335.94
463.437	1349.94
463.657	1379.94
463.876	1382.94
464.096	1316.94
464.316	1287.94
464.536	1254.94
464.755	1253.94
464.975	1207.94
465.195	1193.94
465.414	1122.94
465.634	1111.94
465.854	1098.94
466.073	1116.94
466.293	1113.94
466.512	1099.94
466.732	1079.94
466.951	1105.94
467.171	1188.94
467.391	1171.94
467.61	1108.94
467.829	1071.94
468.049	1073.94
468.268	1065.94
468.488	1029.94
468.707	1059.94
468.927	1088.94
469.146	1075.94
469.365	1063.94
469.585	1072.94
469.804	1122.94
470.023	1127.94
470.243	1108.94
470.462	1143.94
470.681	1176.94
470.901	1285.94
471.12	1383.94
471.339	1424.94
471.558	1219.94
471.777	1143.94
471.997	1101.94
472.216	1114.94
472.435	1091.94
472.654	1057.94
472.873	1037.94
473.092	1072.94
473.311	1064.94
473.53	1073.94
473.749	1103.94
473.968	1123.94
474.187	1074.94
474.406	1069.94
474.625	1065.94
474.844	1087.94
475.063	1081.94
475.282	1101.94
475.501	1051.94
475.72	1074.94
475.939	1051.94
476.158	1099.94
476.377	1128.94
476.596	1127.94
476.814	1120.94
477.033	1099.94
477.252	1143.94
477.471	1179.94
477.69	1193.94
477.908	1204.94
478.127	1208.94
478.346	1211.94
478.564	1257.94
478.783	1222.94
479.002	1301.94
479.22	1303.94
479.439	1236.94
479.658	1253.94
479.876	1235.94
480.095	1247.94
480.313	1304.94
480.532	1316.94
480.751	1335.94
480.969	1314.94
481.188	1275.94
481.406	1267.94
481.624	1272.94
481.843	1255.94
482.061	1245.94
482.28	1264.94
482.498	1237.94
482.717	1260.94
482.935	1328.94
483.153	1314.94
483.372	1330.94
483.59	1288.94
483.808	1359.94
484.027	1331.94
484.245	1386.94
484.463	1544.94
484.681	1645.94
484.9	1517.94
485.118	1454.94
485.336	1434.94
485.554	1475.94
485.772	1510.94
485.99	1704.94
486.209	1781.94
486.427	1560.94
486.645	1443.94
486.863	1393.94
487.081	1383.94
487.299	1345.94
487.517	1376.94
487.735	1388.94
487.953	1419.94
488.171	1397.94
488.389	1380.94
488.607	1355.94
488.825	1319.94
489.043	1294.94
489.261	1305.94
489.479	1333.94
489.696	1343.94
489.914	1291.94
490.132	1300.94
490.35	1348.94
490.568	1350.94
490.786	1371.94
491.003	1375.94
491.221	1407.94
491.439	1423.94
491.657	1418.94
491.874	1412.94
492.092	1475.94
492.31	1447.94
492.527	1467.94
492.745	1423.94
492.963	1419.94
493.18	1432.94
493.398	1421.94
493.615	1401.94
493.833	1437.94
494.05	1428.94
494.268	1404.94
494.485	1421.94
494.703	1418.94
494.92	1441.94
495.138	1417.94
495.355	1415.94
495.573	1440.94
495.79	1428.94
496.008	1449.94
496.225	1426.94
496.442	1444.94
496.66	1496.94
496.877	1502.94
497.094	1517.94
497.312	1512.94
497.529	1515.94
497.746	1526.94
497.963	1565.94
498.181	1570.94
498.398	1590.94
498.615	1659.94
498.832	1713.94
499.049	1762.94
499.267	1877.94
499.484	1993.94
499.701	2056.94
499.918	2137.94
500.135	2248.94
500.352	2360.94
500.569	2406.94
500.786	2383.94
501.003	2282.94
501.22	2224.94
501.437	2075.94
501.654	1977.94
501.871	1846.94
502.088	1805.94
502.305	1740.94
502.522	1676.94
502.739	1645.94
502.956	1621.94
503.172	1511.94
503.389	1522.94
503.606	1465.94
503.823	1462.94
504.04	1456.94
504.256	1447.94
504.473	1436.94
504.69	1459.94
504.907	1420.94
505.123	1413.94
505.34	1394.94
505.557	1304.94
505.773	1351.94
505.99	1296.94
506.207	1252.94
506.423	1257.94
506.64	1203.94
506.856	1251.94
507.073	1263.94
507.289	1255.94
507.506	1221.94
507.722	1215.94
507.939	1227.94
508.155	1218.94
508.372	1194.94
508.588	1205.94
508.805	1221.94
509.021	1212.94
509.238	1212.94
509.454	1229.94
509.67	1284.94
509.887	1235.94
510.103	1196.94
510.319	1192.94
510.536	1199.94
510.752	1175.94
510.968	1184.94
511.184	1166.94
511.401	1159.94
511.617	1141.94
511.833	1154.94
512.049	1147.94
512.265	1134.94
512.481	1139.94
512.698	1148.94
512.914	1124.94
513.13	1143.94
513.346	1137.94
513.562	1154.94
513.778	1147.94
513.994	1144.94
514.21	1163.94
514.426	1225.94
514.642	1258.94
514.858	1175.94
515.074	1180.94
515.29	1200.94
515.506	1153.94
515.721	1144.94
515.937	1185.94
516.153	1191.94
516.369	1200.94
516.585	1223.94
516.801	1197.94
517.016	1215.94
517.232	1251.94
517.448	1282.94
517.664	1305.94
517.879	1327.94
518.095	1316.94
518.311	1278.94
518.527	1301.94
518.742	1255.94
518.958	1279.94
519.173	1259.94
519.389	1250.94
519.605	1192.94
519.82	1183.94
520.036	1179.94
520.251	1149.94
520.467	1177.94
520.682	1152.94
520.898	1151.94
521.113	1128.94
521.329	1144.94
521.544	1111.94
521.76	1115.94
521.975	1107.94
522.19	1109.94
522.406	1140.94
522.621	1114.94
522.836	1077.94
523.052	1117.94
523.267	1125.94
523.482	1112.94
523.698	1095.94
523.913	1113.94
524.128	1118.94
524.343	1116.94
524.559	1106.94
524.774	1099.94
524.989	1109.94
525.204	1109.94
525.419	1093.94
525.634	1073.94
525.849	1105.94
526.064	1109.94
526.28	1101.94
526.495	1122.94
526.71	1166.94
526.925	1100.94
527.14	1079.94
527.355	1099.94
527.57	1128.94
527.785	1127.94
527.999	1110.94
528.214	1144.94
528.429	1135.94
528.644	1135.94
528.859	1145.94
529.074	1216.94
529.289	1236.94
529.503	1201.94
529.718	1179.94
529.933	1142.94
530.148	1139.94
530.363	1159.94
530.577	1157.94
530.792	1173.94
531.007	1181.94
531.221	1173.94
531.436	1172.94
531.651	1199.94
531.865	1207.94
532.08	1190.94
532.295	1228.94
532.509	1258.94
532.724	1288.94
532.938	1285.94
533.153	1319.94
533.367	1349.94
533.582	1428.94
533.796	1385.94
534.011	1361.94
534.225	1362.94
534.44	1331.94
534.654	1303.94
534.868	1291.94
535.083	1263.94
535.297	1279.94
535.511	1258.94
535.726	1237.94
535.94	1232.94
536.154	1227.94
536.369	1205.94
536.583	1159.94
536.797	1185.94
537.011	1146.94
537.225	1161.94
537.44	1119.94
537.654	1130.94
537.868	1128.94
538.082	1100.94
538.296	1087.94
538.51	1089.94
538.724	1128.94
538.938	1094.94
539.153	1082.94
539.367	1120.94
539.581	1090.94
539.795	1062.94
540.009	1033.94
540.222	1049.94
540.436	1051.94
540.65	1082.94
540.864	1067.94
541.078	1112.94
541.292	1151.94
541.506	1311.94
541.72	1349.94
541.934	1201.94
542.147	1188.94
542.361	1159.94
542.575	1101.94
542.789	1100.94
543.002	1042.94
543.216	1004.94
543.43	1029.94
543.644	1047.94
543.857	1048.94
544.071	1069.94
544.285	1094.94
544.498	1085.94
544.712	1097.94
544.925	1083.94
545.139	1074.94
545.352	1083.94
545.566	1059.94
545.779	1100.94
545.993	1108.94
546.206	1081.94
546.42	1081.94
546.633	1067.94
546.847	1097.94
547.06	1105.94
547.274	1085.94
547.487	1106.94
547.7	1093.94
547.914	1090.94
548.127	1088.94
548.34	1102.94
548.554	1081.94
548.767	1060.94
548.98	1114.94
549.193	1069.94
549.407	1092.94
549.62	1095.94
549.833	1080.94
550.046	1077.94
550.259	1088.94
550.473	1071.94
550.686	1083.94
550.899	1105.94
551.112	1079.94
551.325	1076.94
551.538	1063.94
551.751	1051.94
551.964	1056.94
552.177	1057.94
552.39	1087.94
552.603	1174.94
552.816	1147.94
553.029	1162.94
553.242	1160.94
553.455	1178.94
553.667	1159.94
553.88	1175.94
554.093	1186.94
554.306	1159.94
554.519	1214.94
554.732	1209.94
554.944	1209.94
555.157	1189.94
555.37	1256.94
555.583	1277.94
555.795	1304.94
556.008	1372.94
556.221	1463.94
556.433	1509.94
556.646	1519.94
556.859	1500.94
557.071	1470.94
557.284	1447.94
557.496	1412.94
557.709	1429.94
557.921	1425.94
558.134	1396.94
558.346	1424.94
558.559	1470.94
558.771	1485.94
558.984	1564.94
559.196	1609.94
559.409	1600.94
559.621	1540.94
559.833	1464.94
560.046	1392.94
560.258	1330.94
560.47	1314.94
560.683	1256.94
560.895	1255.94
561.107	1171.94
561.32	1163.94
561.532	1167.94
561.744	1147.94
561.956	1125.94
562.168	1129.94
562.381	1065.94
562.593	1064.94
562.805	1074.94
563.017	1084.94
563.229	1081.94
563.441	1181.94
563.653	1060.94
563.865	1042.94
564.077	1005.94
564.289	1027.94
564.501	1040.94
564.713	987.94
564.925	983.94
565.137	998.94
565.349	989.94
565.561	988.94
565.773	1026.94
565.985	1011.94
566.197	995.94
566.408	1037.94
566.62	1088.94
566.832	1085.94
567.044	1099.94
567.255	1102.94
567.467	1098.94
567.679	1119.94
567.891	1171.94
568.102	1248.94
568.314	1419.94
568.526	1238.94
568.737	1088.94
568.949	999.94
569.161	968.94
569.372	931.94
569.584	895.94
569.795	885.94
570.007	871.94
570.218	886.94
570.43	898.94
570.641	869.94
570.853	822.94
571.064	827.94
571.276	850.94
571.487	801.94
571.698	799.94
571.91	809.94
572.121	803.94
572.333	759.94
572.544	785.94
572.755	829.94
572.966	921.94
573.178	835.94
573.389	795.94
573.6	764.94
573.811	766.94
574.023	736.94
574.234	736.94
574.445	736.94
574.656	728.94
574.867	718.94
575.078	735.94
575.289	720.94
575.501	739.94
575.712	714.94
575.923	710.94
576.134	719.94
576.345	724.94
576.556	729.94
576.767	699.94
576.978	730.94
577.188	724.94
577.399	754.94
577.61	744.94
577.821	729.94
578.032	736.94
578.243	723.94
578.454	753.94
578.665	757.94
578.875	792.94
579.086	796.94
579.297	828.94
579.508	843.94
579.718	920.94
579.929	980.94
580.14	1043.94
580.35	1102.94
580.561	1055.94
580.772	1017.94
580.982	965.94
581.193	910.94
581.403	884.94
581.614	833.94
581.825	796.94
582.035	791.94
582.246	759.94
582.456	719.94
582.667	725.94
582.877	727.94
583.087	735.94
583.298	674.94
583.508	660.94
583.719	677.94
583.929	672.94
584.139	641.94
584.35	610.94
584.56	647.94
584.77	608.94
584.981	624.94
585.191	627.94
585.401	587.94
585.611	602.94
585.821	593.94
586.032	567.94
586.242	613.94
586.452	584.94
586.662	581.94
586.872	563.94
587.082	556.94
587.292	578.94
587.502	556.94
587.713	553.94
587.923	570.94
588.133	531.94
588.343	537.94
588.553	537.94
588.762	531.94
588.972	523.94
589.182	539.94
589.392	553.94
589.602	526.94
589.812	516.94
590.022	521.94
590.232	515.94
590.441	505.94
590.651	526.94
590.861	519.94
591.071	517.94
591.281	509.94
591.49	507.94
591.7	525.94
591.91	528.94
592.119	503.94
592.329	523.94
592.539	521.94
592.748	499.94
592.958	552.94
593.167	534.94
593.377	548.94
593.587	553.94
593.796	539.94
594.006	534.94
594.215	537.94
594.424	549.94
594.634	537.94
594.843	521.94
595.053	512.94
595.262	513.94
595.472	499.94
595.681	473.94
595.89	493.94
596.1	495.94
596.309	470.94
596.518	461.94
596.727	467.94
596.937	460.94
597.146	449.94
597.355	469.94
597.564	456.94
597.774	466.94
597.983	433.94
598.192	433.94
598.401	427.94
598.61	439.94
598.819	453.94
599.028	429.94
599.237	428.94
599.446	414.94
599.655	431.94
599.864	433.94
600.073	422.94
600.282	422.94
600.491	424.94
600.7	427.94
600.909	423.94
601.118	453.94
601.327	443.94
601.536	428.94
601.745	445.94
601.953	458.94
602.162	494.94
602.371	481.94
602.58	447.94
602.789	436.94
602.997	426.94
603.206	417.94
603.415	430.94
603.623	425.94
603.832	427.94
604.041	415.94
604.249	411.94
604.458	410.94
604.666	394.94
604.875	406.94
605.084	407.94
605.292	403.94
605.501	426.94
605.709	421.94
605.918	413.94
606.126	424.94
606.334	428.94
606.543	426.94
606.751	468.94
606.96	476.94
607.168	515.94
607.376	468.94
607.585	407.94
607.793	423.94
608.001	424.94
608.21	404.94
608.418	399.94
608.626	416.94
608.834	401.94
609.043	403.94
609.251	398.94
609.459	390.94
609.667	397.94
609.875	402.94
610.083	419.94
610.291	399.94
610.499	391.94
610.707	403.94
610.916	378.94
611.124	387.94
611.332	394.94
611.54	408.94
611.748	396.94
611.955	415.94
612.163	386.94
612.371	421.94
612.579	377.94
612.787	390.94
612.995	380.94
613.203	384.94
613.411	394.94
613.618	385.94
613.826	372.94
614.034	380.94
614.242	376.94
614.449	367.94
614.657	377.94
614.865	373.94
615.072	396.94
615.28	382.94
615.488	381.94
615.695	378.94
615.903	379.94
616.111	368.94
616.318	384.94
616.526	371.94
616.733	387.94
616.941	384.94
617.148	365.94
617.356	379.94
617.563	360.94
617.771	375.94
617.978	379.94
618.185	371.94
618.393	345.94
618.6	342.94
618.807	371.94
619.015	361.94
619.222	365.94
619.429	367.94
619.637	365.94
619.844	333.94
620.051	356.94
620.258	364.94
620.466	349.94
620.673	341.94
620.88	335.94
621.087	345.94
621.294	343.94
621.501	333.94
621.708	331.94
621.915	339.94
622.122	350.94
622.329	353.94
622.536	343.94
622.743	348.94
622.95	335.94
623.157	352.94
623.364	338.94
623.571	335.94
623.778	317.94
623.985	339.94
624.192	335.94
624.399	327.94
624.606	335.94
624.812	322.94
625.019	315.94
625.226	322.94
625.433	335.94
625.639	319.94
625.846	297.94
626.053	325.94
626.259	307.94
626.466	306.94
626.673	313.94
626.879	311.94
627.086	307.94
627.293	314.94
627.499	324.94
627.706	326.94
627.912	328.94
628.119	338.94
628.325	300.94
628.532	309.94
628.738	320.94
628.945	321.94
629.151	308.94
629.357	305.94
629.564	306.94
629.77	311.94
629.976	303.94
630.183	317.94
630.389	305.94
630.595	318.94
630.802	304.94
631.008	296.94
631.214	300.94
631.42	283.94
631.627	279.94
631.833	281.94
632.039	299.94
632.245	267.94
632.451	287.94
632.657	299.94
632.863	289.94
633.069	315.94
633.275	303.94
633.481	280.94
633.688	307.94
633.893	302.94
634.099	269.94
634.305	283.94
634.511	290.94
634.717	280.94
634.923	316.94
635.129	320.94
635.335	344.94
635.541	344.94
635.747	295.94
635.952	283.94
636.158	309.94
636.364	294.94
636.57	277.94
636.775	296.94
636.981	292.94
637.187	298.94
637.392	290.94
637.598	287.94
637.804	275.94
638.009	294.94
638.215	258.94
638.421	307.94
638.626	298.94
638.832	300.94
639.037	296.94
639.243	303.94
639.448	279.94
639.654	299.94
639.859	301.94
640.065	321.94
640.27	321.94
640.475	296.94
640.681	317.94
640.886	314.94
641.091	303.94
641.297	297.94
641.502	302.94
641.707	310.94
641.913	303.94
642.118	306.94
642.323	321.94
642.528	328.94
642.733	347.94
642.939	344.94
643.144	340.94
643.349	359.94
643.554	355.94
643.759	379.94
643.964	370.94
644.169	388.94
644.374	411.94
644.579	428.94
644.784	455.94
644.989	506.94
645.194	544.94
645.399	603.94
645.604	639.94
645.809	519.94
646.014	438.94
646.219	400.94
646.423	387.94
646.628	344.94
646.833	337.94
647.038	339.94
647.243	329.94
647.447	290.94
647.652	284.94
647.857	295.94
648.062	279.94
648.266	277.94
648.471	295.94
648.676	275.94
648.88	269.94
649.085	269.94
649.289	271.94
649.494	271.94
649.698	286.94
649.903	243.94
650.107	250.94
650.312	252.94
650.516	233.94
650.721	259.94
650.925	230.94
651.13	221.94
651.334	239.94
651.539	233.94
651.743	235.94
651.947	224.94
652.152	225.94
652.356	219.94
652.56	239.94
652.764	263.94
652.969	244.94
653.173	204.94
653.377	205.94
653.581	200.94
653.785	184.94
653.99	209.94
654.194	207.94
654.398	200.94
654.602	187.94
654.806	198.94
655.01	210.94
655.214	197.94
655.418	192.94
655.622	198.94
655.826	178.94
656.03	194.94
656.234	225.94
656.438	218.94
656.642	221.94
656.846	210.94
657.049	209.94
657.253	193.94
657.457	179.94
657.661	186.94
657.865	168.94
658.068	162.94
658.272	161.94
658.476	145.94
658.68	145.94
658.883	149.94
659.087	132.94
659.291	147.94
659.494	137.94
659.698	135.94
659.901	121.94
660.105	130.94
660.309	122.94
660.512	118.94
660.716	121.94
660.919	109.94
661.123	89.94
661.326	115.94
661.53	95.94
661.733	86.94
661.936	107.94
662.14	115.94
662.343	94.94
662.546	89.94
662.75	86.94
662.953	96.94
663.156	77.94
663.36	96.94
663.563	93.94
663.766	96.94
663.969	98.94
664.173	92.94
664.376	91.94
664.579	86.94
664.782	94.94
664.985	77.94
665.188	76.94
665.391	87.94
665.594	95.94
665.797	84.94
666	89.94
666.203	103.94
666.406	100.94
666.609	86.94
666.812	86.94
667.015	82.94
667.218	98.94
667.421	93.94
667.624	89.94
667.827	83.94
668.03	67.94
668.232	80.94
668.435	83.94
668.638	76.94
668.841	77.94
669.043	79.94
669.246	85.94
669.449	88.94
669.651	93.94
669.854	66.94
670.057	77.94
670.259	75.94
670.462	78.94
670.665	85.94
670.867	85.94
671.07	79.94
671.272	83.94
671.475	97.94
671.677	79.94
671.88	80.94
672.082	76.94
672.284	84.94
672.487	81.94
672.689	81.94
672.892	75.94
