Data from SnStandardFlinnAPT0064_LampEnergy5.5_LIBS07252019.E.O._I.C._HRD10591_15-14-26-490.txt Node
Date: Thu Jul 25 15:14:26 EDT 2019
User: cochatt
Spectrometer: HR+D1059
Trigger mode: 1
Integration Time (sec): 1.000000E-1
Scans to average: 1
Electric dark correction enabled: true
Nonlinearity correction enabled: false
Boxcar width: 0
XAxis mode: Wavelengths
Number of Pixels in Spectrum: 2048
>>>>>Begin Spectral Data<<<<<
223.165	-21.19
223.4	-21.19
223.635	-21.19
223.869	-21.19
224.104	-18.19
224.338	-3.19
224.573	-9.19
224.808	-13.19
225.042	-11.19
225.277	-11.19
225.511	2.81
225.746	-3.19
225.98	12.81
226.215	6.81
226.449	16.81
226.683	15.81
226.918	18.81
227.152	37.81
227.387	20.81
227.621	53.81
227.856	40.81
228.09	35.81
228.324	45.81
228.559	47.81
228.793	65.81
229.027	138.81
229.262	149.81
229.496	151.81
229.73	149.81
229.964	139.81
230.199	148.81
230.433	148.81
230.667	157.81
230.901	163.81
231.136	167.81
231.37	181.81
231.604	166.81
231.838	192.81
232.072	220.81
232.306	221.81
232.541	211.81
232.775	196.81
233.009	193.81
233.243	188.81
233.477	203.81
233.711	199.81
233.945	249.81
234.179	224.81
234.413	215.81
234.647	220.81
234.881	210.81
235.115	223.81
235.349	257.81
235.583	297.81
235.817	371.81
236.051	385.81
236.285	261.81
236.519	246.81
236.753	219.81
236.987	232.81
237.221	222.81
237.455	240.81
237.689	212.81
237.922	211.81
238.156	202.81
238.39	222.81
238.624	235.81
238.858	224.81
239.091	211.81
239.325	223.81
239.559	234.81
239.793	224.81
240.027	242.81
240.26	228.81
240.494	264.81
240.728	247.81
240.961	248.81
241.195	267.81
241.429	271.81
241.662	271.81
241.896	295.81
242.13	359.81
242.363	439.81
242.597	559.81
242.83	552.81
243.064	527.81
243.298	630.81
243.531	551.81
243.765	359.81
243.998	316.81
244.232	300.81
244.465	293.81
244.699	288.81
244.932	261.81
245.166	278.81
245.399	300.81
245.633	311.81
245.866	295.81
246.099	294.81
246.333	294.81
246.566	281.81
246.8	268.81
247.033	283.81
247.266	296.81
247.5	283.81
247.733	279.81
247.966	308.81
248.2	313.81
248.433	358.81
248.666	376.81
248.899	378.81
249.133	338.81
249.366	354.81
249.599	373.81
249.832	406.81
250.066	407.81
250.299	357.81
250.532	340.81
250.765	314.81
250.998	324.81
251.231	326.81
251.465	316.81
251.698	337.81
251.931	313.81
252.164	322.81
252.397	321.81
252.63	324.81
252.863	333.81
253.096	322.81
253.329	328.81
253.562	335.81
253.795	336.81
254.028	341.81
254.261	350.81
254.494	359.81
254.727	404.81
254.96	460.81
255.193	455.81
255.426	384.81
255.659	377.81
255.892	373.81
256.124	373.81
256.357	371.81
256.59	359.81
256.823	398.81
257.056	434.81
257.289	473.81
257.521	530.81
257.754	456.81
257.987	387.81
258.22	381.81
258.452	394.81
258.685	396.81
258.918	405.81
259.151	410.81
259.383	445.81
259.616	463.81
259.849	487.81
260.081	446.81
260.314	406.81
260.547	393.81
260.779	405.81
261.012	417.81
261.244	418.81
261.477	429.81
261.71	424.81
261.942	428.81
262.175	453.81
262.407	431.81
262.64	454.81
262.872	452.81
263.105	494.81
263.337	527.81
263.57	552.81
263.802	576.81
264.035	574.81
264.267	568.81
264.499	579.81
264.732	608.81
264.964	629.81
265.197	634.81
265.429	625.81
265.661	609.81
265.894	652.81
266.126	703.81
266.358	761.81
266.591	764.81
266.823	664.81
267.055	625.81
267.287	599.81
267.52	588.81
267.752	574.81
267.984	548.81
268.216	549.81
268.448	539.81
268.681	527.81
268.913	538.81
269.145	529.81
269.377	529.81
269.609	537.81
269.841	559.81
270.073	573.81
270.306	631.81
270.538	775.81
270.77	1111.81
271.002	1308.81
271.234	983.81
271.466	721.81
271.698	626.81
271.93	570.81
272.162	551.81
272.394	550.81
272.626	542.81
272.858	531.81
273.09	508.81
273.322	516.81
273.553	522.81
273.785	523.81
274.017	519.81
274.249	511.81
274.481	483.81
274.713	514.81
274.945	520.81
275.176	516.81
275.408	529.81
275.64	530.81
275.872	533.81
276.104	526.81
276.335	518.81
276.567	526.81
276.799	534.81
277.031	552.81
277.262	537.81
277.494	557.81
277.726	601.81
277.957	658.81
278.189	735.81
278.421	720.81
278.652	645.81
278.884	610.81
279.115	560.81
279.347	570.81
279.579	572.81
279.81	565.81
280.042	548.81
280.273	580.81
280.505	574.81
280.736	607.81
280.968	610.81
281.199	632.81
281.431	701.81
281.662	743.81
281.894	672.81
282.125	653.81
282.356	640.81
282.588	647.81
282.819	663.81
283.051	720.81
283.282	757.81
283.513	905.81
283.745	1223.81
283.976	1823.81
284.207	2572.81
284.439	2341.81
284.67	1530.81
284.901	1285.81
285.132	1226.81
285.364	1152.81
285.595	959.81
285.826	929.81
286.057	1024.81
286.288	1283.81
286.52	1699.81
286.751	1558.81
286.982	1072.81
287.213	847.81
287.444	760.81
287.675	721.81
287.906	724.81
288.138	683.81
288.369	701.81
288.6	694.81
288.831	686.81
289.062	675.81
289.293	685.81
289.524	696.81
289.755	698.81
289.986	675.81
290.217	689.81
290.448	682.81
290.679	686.81
290.91	731.81
291.141	703.81
291.371	766.81
291.602	757.81
291.833	727.81
292.064	684.81
292.295	686.81
292.526	668.81
292.757	657.81
292.987	666.81
293.218	653.81
293.449	660.81
293.68	630.81
293.91	660.81
294.141	619.81
294.372	636.81
294.603	662.81
294.833	631.81
295.064	659.81
295.295	645.81
295.525	618.81
295.756	652.81
295.987	663.81
296.217	668.81
296.448	652.81
296.679	662.81
296.909	658.81
297.14	659.81
297.37	670.81
297.601	669.81
297.831	660.81
298.062	665.81
298.292	649.81
298.523	671.81
298.753	662.81
298.984	698.81
299.214	668.81
299.445	708.81
299.675	695.81
299.905	703.81
300.136	735.81
300.366	821.81
300.597	1004.81
300.827	1272.81
301.057	1663.81
301.288	1674.81
301.518	1166.81
301.748	971.81
301.979	898.81
302.209	877.81
302.439	875.81
302.669	885.81
302.9	1020.81
303.13	1358.81
303.36	1928.81
303.59	2482.81
303.82	2191.81
304.051	1416.81
304.281	1074.81
304.511	923.81
304.741	860.81
304.971	854.81
305.201	806.81
305.431	779.81
305.661	774.81
305.891	742.81
306.121	766.81
306.352	770.81
306.582	779.81
306.812	726.81
307.042	730.81
307.272	754.81
307.502	752.81
307.731	748.81
307.961	750.81
308.191	736.81
308.421	774.81
308.651	735.81
308.881	741.81
309.111	741.81
309.341	718.81
309.571	736.81
309.8	759.81
310.03	766.81
310.26	748.81
310.49	747.81
310.72	768.81
310.949	763.81
311.179	755.81
311.409	777.81
311.639	767.81
311.868	772.81
312.098	790.81
312.328	815.81
312.557	802.81
312.787	797.81
313.017	824.81
313.246	823.81
313.476	806.81
313.706	830.81
313.935	857.81
314.165	888.81
314.394	938.81
314.624	875.81
314.853	884.81
315.083	842.81
315.312	848.81
315.542	861.81
315.771	883.81
316.001	886.81
316.23	885.81
316.46	941.81
316.689	995.81
316.919	1154.81
317.148	1570.81
317.377	2300.81
317.607	3239.81
317.836	3403.81
318.065	2124.81
318.295	1451.81
318.524	1244.81
318.753	1102.81
318.983	1040.81
319.212	993.81
319.441	991.81
319.67	990.81
319.9	931.81
320.129	948.81
320.358	935.81
320.587	914.81
320.816	927.81
321.046	927.81
321.275	957.81
321.504	922.81
321.733	943.81
321.962	967.81
322.191	968.81
322.42	1003.81
322.649	998.81
322.878	995.81
323.108	982.81
323.337	988.81
323.566	1015.81
323.795	1023.81
324.024	1020.81
324.253	1063.81
324.482	1075.81
324.71	1142.81
324.939	1207.81
325.168	1218.81
325.397	1246.81
325.626	1425.81
325.855	1887.81
326.084	2828.81
326.313	4077.81
326.542	4400.81
326.77	2955.81
326.999	2056.81
327.228	1743.81
327.457	1703.81
327.686	1747.81
327.914	1824.81
328.143	2023.81
328.372	2379.81
328.6	2575.81
328.829	2417.81
329.058	2164.81
329.287	1931.81
329.515	1761.81
329.744	1618.81
329.972	1572.81
330.201	1505.81
330.43	1456.81
330.658	1393.81
330.887	1368.81
331.115	1413.81
331.344	1347.81
331.572	1329.81
331.801	1363.81
332.03	1395.81
332.258	1406.81
332.486	1454.81
332.715	1580.81
332.943	1854.81
333.172	2130.81
333.4	2160.81
333.629	1754.81
333.857	1686.81
334.085	1728.81
334.314	1804.81
334.542	1895.81
334.771	2178.81
334.999	2578.81
335.227	3095.81
335.455	3375.81
335.684	3218.81
335.912	2824.81
336.14	2451.81
336.369	2159.81
336.597	2087.81
336.825	1906.81
337.053	1749.81
337.281	1665.81
337.51	1602.81
337.738	1549.81
337.966	1464.81
338.194	1419.81
338.422	1396.81
338.65	1319.81
338.878	1288.81
339.106	1288.81
339.334	1281.81
339.562	1238.81
339.79	1221.81
340.018	1221.81
340.246	1187.81
340.474	1214.81
340.702	1186.81
340.93	1224.81
341.158	1222.81
341.386	1186.81
341.614	1174.81
341.842	1175.81
342.07	1192.81
342.298	1142.81
342.526	1129.81
342.754	1126.81
342.981	1125.81
343.209	1130.81
343.437	1154.81
343.665	1139.81
343.893	1149.81
344.12	1143.81
344.348	1131.81
344.576	1092.81
344.804	1077.81
345.031	1075.81
345.259	1075.81
345.487	1058.81
345.714	1043.81
345.942	1030.81
346.17	1061.81
346.397	1038.81
346.625	1018.81
346.853	1042.81
347.08	1032.81
347.308	1018.81
347.535	1020.81
347.763	1029.81
347.99	1017.81
348.218	981.81
348.445	995.81
348.673	1011.81
348.9	1034.81
349.128	998.81
349.355	990.81
349.583	1023.81
349.81	973.81
350.037	972.81
350.265	986.81
350.492	979.81
350.72	978.81
350.947	959.81
351.174	1000.81
351.402	982.81
351.629	988.81
351.856	976.81
352.083	1003.81
352.311	962.81
352.538	975.81
352.765	989.81
352.992	956.81
353.22	973.81
353.447	938.81
353.674	957.81
353.901	957.81
354.128	990.81
354.355	996.81
354.583	992.81
354.81	979.81
355.037	982.81
355.264	1003.81
355.491	979.81
355.718	996.81
355.945	979.81
356.172	1028.81
356.399	991.81
356.626	1018.81
356.853	998.81
357.08	996.81
357.307	1027.81
357.534	1054.81
357.761	1049.81
357.988	1074.81
358.215	1037.81
358.441	1004.81
358.668	1022.81
358.895	1032.81
359.122	1013.81
359.349	1046.81
359.576	1025.81
359.802	1029.81
360.029	1028.81
360.256	1003.81
360.483	1048.81
360.709	1049.81
360.936	1042.81
361.163	1070.81
361.39	1048.81
361.616	1059.81
361.843	1028.81
362.07	1026.81
362.296	1044.81
362.523	1036.81
362.749	1052.81
362.976	1031.81
363.203	1072.81
363.429	1047.81
363.656	1018.81
363.882	1052.81
364.109	998.81
364.335	1047.81
364.562	1041.81
364.788	1052.81
365.015	1054.81
365.241	1038.81
365.468	1078.81
365.694	1130.81
365.92	1111.81
366.147	1074.81
366.373	1064.81
366.599	1075.81
366.826	1095.81
367.052	1068.81
367.278	1075.81
367.505	1070.81
367.731	1089.81
367.957	1063.81
368.184	1076.81
368.41	1068.81
368.636	1072.81
368.862	1100.81
369.089	1058.81
369.315	1070.81
369.541	1086.81
369.767	1083.81
369.993	1086.81
370.219	1092.81
370.445	1074.81
370.672	1098.81
370.898	1078.81
371.124	1117.81
371.35	1133.81
371.576	1120.81
371.802	1133.81
372.028	1134.81
372.254	1103.81
372.48	1111.81
372.706	1130.81
372.932	1140.81
373.158	1127.81
373.384	1138.81
373.61	1141.81
373.835	1145.81
374.061	1131.81
374.287	1166.81
374.513	1168.81
374.739	1196.81
374.965	1185.81
375.191	1189.81
375.416	1172.81
375.642	1178.81
375.868	1166.81
376.094	1154.81
376.319	1148.81
376.545	1138.81
376.771	1138.81
376.997	1124.81
377.222	1123.81
377.448	1141.81
377.674	1093.81
377.899	1111.81
378.125	1131.81
378.35	1120.81
378.576	1125.81
378.802	1111.81
379.027	1155.81
379.253	1149.81
379.478	1202.81
379.704	1358.81
379.929	1748.81
380.155	2474.81
380.38	2723.81
380.606	1774.81
380.831	1372.81
381.057	1249.81
381.282	1182.81
381.507	1136.81
381.733	1130.81
381.958	1147.81
382.184	1136.81
382.409	1107.81
382.634	1110.81
382.86	1111.81
383.085	1087.81
383.31	1083.81
383.535	1125.81
383.761	1104.81
383.986	1081.81
384.211	1109.81
384.436	1126.81
384.662	1163.81
384.887	1178.81
385.112	1159.81
385.337	1146.81
385.562	1182.81
385.787	1144.81
386.013	1160.81
386.238	1148.81
386.463	1181.81
386.688	1155.81
386.913	1111.81
387.138	1144.81
387.363	1135.81
387.588	1125.81
387.813	1140.81
388.038	1152.81
388.263	1159.81
388.488	1187.81
388.713	1153.81
388.938	1158.81
389.163	1099.81
389.387	1150.81
389.612	1157.81
389.837	1169.81
390.062	1172.81
390.287	1159.81
390.512	1144.81
390.736	1168.81
390.961	1187.81
391.186	1207.81
391.411	1185.81
391.636	1188.81
391.86	1232.81
392.085	1208.81
392.31	1175.81
392.534	1214.81
392.759	1196.81
392.984	1178.81
393.208	1143.81
393.433	1147.81
393.658	1149.81
393.882	1147.81
394.107	1168.81
394.331	1164.81
394.556	1146.81
394.78	1156.81
395.005	1195.81
395.229	1180.81
395.454	1214.81
395.678	1234.81
395.903	1216.81
396.127	1222.81
396.352	1196.81
396.576	1156.81
396.801	1177.81
397.025	1175.81
397.249	1180.81
397.474	1189.81
397.698	1228.81
397.922	1214.81
398.147	1201.81
398.371	1244.81
398.595	1275.81
398.82	1297.81
399.044	1328.81
399.268	1389.81
399.492	1466.81
399.717	1518.81
399.941	1571.81
400.165	1490.81
400.389	1416.81
400.613	1354.81
400.837	1335.81
401.062	1318.81
401.286	1298.81
401.51	1299.81
401.734	1250.81
401.958	1256.81
402.182	1261.81
402.406	1266.81
402.63	1307.81
402.854	1281.81
403.078	1270.81
403.302	1312.81
403.526	1302.81
403.75	1297.81
403.974	1331.81
404.198	1335.81
404.422	1333.81
404.645	1312.81
404.869	1308.81
405.093	1347.81
405.317	1324.81
405.541	1335.81
405.765	1346.81
405.988	1360.81
406.212	1367.81
406.436	1323.81
406.66	1324.81
406.883	1357.81
407.107	1417.81
407.331	1407.81
407.555	1439.81
407.778	1407.81
408.002	1420.81
408.226	1409.81
408.449	1406.81
408.673	1395.81
408.896	1340.81
409.12	1317.81
409.344	1350.81
409.567	1302.81
409.791	1307.81
410.014	1288.81
410.238	1334.81
410.461	1282.81
410.685	1306.81
410.908	1280.81
411.132	1299.81
411.355	1251.81
411.578	1310.81
411.802	1255.81
412.025	1261.81
412.249	1249.81
412.472	1260.81
412.695	1228.81
412.919	1240.81
413.142	1255.81
413.365	1264.81
413.589	1255.81
413.812	1267.81
414.035	1249.81
414.258	1239.81
414.482	1281.81
414.705	1276.81
414.928	1243.81
415.151	1222.81
415.374	1247.81
415.597	1214.81
415.821	1210.81
416.044	1216.81
416.267	1192.81
416.49	1182.81
416.713	1216.81
416.936	1223.81
417.159	1230.81
417.382	1208.81
417.605	1182.81
417.828	1166.81
418.051	1189.81
418.274	1215.81
418.497	1229.81
418.72	1238.81
418.943	1204.81
419.166	1294.81
419.389	1332.81
419.611	1324.81
419.834	1253.81
420.057	1253.81
420.28	1234.81
420.503	1194.81
420.726	1205.81
420.948	1179.81
421.171	1216.81
421.394	1212.81
421.617	1224.81
421.839	1233.81
422.062	1234.81
422.285	1165.81
422.507	1212.81
422.73	1210.81
422.953	1218.81
423.175	1224.81
423.398	1242.81
423.621	1205.81
423.843	1222.81
424.066	1209.81
424.288	1202.81
424.511	1218.81
424.733	1211.81
424.956	1184.81
425.178	1221.81
425.401	1205.81
425.623	1197.81
425.846	1186.81
426.068	1175.81
426.291	1173.81
426.513	1158.81
426.735	1166.81
426.958	1164.81
427.18	1151.81
427.402	1140.81
427.625	1126.81
427.847	1144.81
428.069	1109.81
428.292	1114.81
428.514	1103.81
428.736	1139.81
428.958	1110.81
429.181	1135.81
429.403	1104.81
429.625	1105.81
429.847	1108.81
430.069	1119.81
430.292	1164.81
430.514	1190.81
430.736	1200.81
430.958	1136.81
431.18	1143.81
431.402	1103.81
431.624	1108.81
431.846	1113.81
432.068	1090.81
432.29	1132.81
432.512	1115.81
432.734	1171.81
432.956	1132.81
433.178	1124.81
433.4	1108.81
433.622	1112.81
433.844	1112.81
434.066	1115.81
434.287	1135.81
434.509	1102.81
434.731	1130.81
434.953	1162.81
435.175	1134.81
435.397	1157.81
435.618	1156.81
435.84	1110.81
436.062	1089.81
436.284	1085.81
436.505	1074.81
436.727	1131.81
436.949	1117.81
437.17	1131.81
437.392	1084.81
437.614	1072.81
437.835	1055.81
438.057	1059.81
438.278	1028.81
438.5	1073.81
438.721	1109.81
438.943	1138.81
439.165	1124.81
439.386	1148.81
439.608	1186.81
439.829	1153.81
440.05	1168.81
440.272	1183.81
440.493	1165.81
440.715	1142.81
440.936	1159.81
441.158	1170.81
441.379	1150.81
441.6	1188.81
441.822	1216.81
442.043	1283.81
442.264	1282.81
442.486	1224.81
442.707	1216.81
442.928	1165.81
443.149	1180.81
443.371	1188.81
443.592	1182.81
443.813	1212.81
444.034	1202.81
444.255	1259.81
444.476	1265.81
444.698	1309.81
444.919	1299.81
445.14	1386.81
445.361	1298.81
445.582	1247.81
445.803	1184.81
446.024	1210.81
446.245	1195.81
446.466	1200.81
446.687	1151.81
446.908	1191.81
447.129	1144.81
447.35	1184.81
447.571	1139.81
447.792	1120.81
448.013	1106.81
448.234	1123.81
448.455	1099.81
448.675	1125.81
448.896	1149.81
449.117	1161.81
449.338	1196.81
449.559	1247.81
449.779	1138.81
450	1070.81
450.221	1062.81
450.442	1077.81
450.662	1063.81
450.883	1058.81
451.104	1066.81
451.324	1056.81
451.545	1068.81
451.766	1056.81
451.986	1061.81
452.207	1140.81
452.428	1328.81
452.648	1700.81
452.869	1534.81
453.089	1230.81
453.31	1167.81
453.53	1123.81
453.751	1153.81
453.971	1230.81
454.192	1183.81
454.412	1089.81
454.633	1043.81
454.853	1036.81
455.073	1037.81
455.294	1037.81
455.514	1014.81
455.734	1038.81
455.955	1005.81
456.175	1003.81
456.395	1006.81
456.616	1043.81
456.836	1024.81
457.056	1030.81
457.276	1026.81
457.497	1055.81
457.717	1063.81
457.937	1049.81
458.157	1078.81
458.377	1068.81
458.598	1046.81
458.818	1079.81
459.038	1063.81
459.258	1093.81
459.478	1113.81
459.698	1124.81
459.918	1117.81
460.138	1147.81
460.358	1183.81
460.578	1200.81
460.798	1234.81
461.018	1216.81
461.238	1212.81
461.458	1231.81
461.678	1226.81
461.898	1229.81
462.118	1230.81
462.338	1290.81
462.558	1304.81
462.777	1302.81
462.997	1365.81
463.217	1367.81
463.437	1398.81
463.657	1415.81
463.876	1386.81
464.096	1378.81
464.316	1288.81
464.536	1294.81
464.755	1297.81
464.975	1248.81
465.195	1224.81
465.414	1200.81
465.634	1165.81
465.854	1155.81
466.073	1137.81
466.293	1116.81
466.512	1143.81
466.732	1130.81
466.951	1166.81
467.171	1238.81
467.391	1204.81
467.61	1152.81
467.829	1127.81
468.049	1101.81
468.268	1095.81
468.488	1071.81
468.707	1098.81
468.927	1070.81
469.146	1091.81
469.365	1118.81
469.585	1108.81
469.804	1119.81
470.023	1152.81
470.243	1142.81
470.462	1178.81
470.681	1224.81
470.901	1306.81
471.12	1454.81
471.339	1456.81
471.558	1271.81
471.777	1185.81
471.997	1161.81
472.216	1136.81
472.435	1121.81
472.654	1068.81
472.873	1088.81
473.092	1091.81
473.311	1099.81
473.53	1100.81
473.749	1106.81
473.968	1161.81
474.187	1114.81
474.406	1108.81
474.625	1095.81
474.844	1119.81
475.063	1109.81
475.282	1099.81
475.501	1122.81
475.72	1104.81
475.939	1127.81
476.158	1154.81
476.377	1183.81
476.596	1168.81
476.814	1128.81
477.033	1162.81
477.252	1146.81
477.471	1190.81
477.69	1220.81
477.908	1236.81
478.127	1268.81
478.346	1245.81
478.564	1275.81
478.783	1310.81
479.002	1299.81
479.22	1290.81
479.439	1299.81
479.658	1288.81
479.876	1319.81
480.095	1312.81
480.313	1337.81
480.532	1339.81
480.751	1346.81
480.969	1304.81
481.188	1332.81
481.406	1293.81
481.624	1293.81
481.843	1308.81
482.061	1288.81
482.28	1319.81
482.498	1295.81
482.717	1273.81
482.935	1309.81
483.153	1343.81
483.372	1386.81
483.59	1388.81
483.808	1397.81
484.027	1406.81
484.245	1411.81
484.463	1558.81
484.681	1717.81
484.9	1592.81
485.118	1538.81
485.336	1491.81
485.554	1503.81
485.772	1557.81
485.99	1726.81
486.209	1803.81
486.427	1608.81
486.645	1481.81
486.863	1444.81
487.081	1437.81
487.299	1400.81
487.517	1408.81
487.735	1429.81
487.953	1421.81
488.171	1424.81
488.389	1378.81
488.607	1379.81
488.825	1361.81
489.043	1341.81
489.261	1367.81
489.479	1372.81
489.696	1368.81
489.914	1378.81
490.132	1362.81
490.35	1392.81
490.568	1392.81
490.786	1428.81
491.003	1444.81
491.221	1454.81
491.439	1488.81
491.657	1450.81
491.874	1467.81
492.092	1479.81
492.31	1530.81
492.527	1475.81
492.745	1495.81
492.963	1501.81
493.18	1447.81
493.398	1456.81
493.615	1465.81
493.833	1467.81
494.05	1460.81
494.268	1476.81
494.485	1467.81
494.703	1426.81
494.92	1482.81
495.138	1439.81
495.355	1474.81
495.573	1459.81
495.79	1475.81
496.008	1456.81
496.225	1443.81
496.442	1484.81
496.66	1566.81
496.877	1578.81
497.094	1568.81
497.312	1521.81
497.529	1554.81
497.746	1543.81
497.963	1565.81
498.181	1611.81
498.398	1614.81
498.615	1694.81
498.832	1746.81
499.049	1847.81
499.267	1944.81
499.484	2048.81
499.701	2115.81
499.918	2183.81
500.135	2356.81
500.352	2449.81
500.569	2449.81
500.786	2494.81
501.003	2388.81
501.22	2257.81
501.437	2123.81
501.654	1974.81
501.871	1930.81
502.088	1834.81
502.305	1792.81
502.522	1751.81
502.739	1735.81
502.956	1650.81
503.172	1604.81
503.389	1567.81
503.606	1533.81
503.823	1526.81
504.04	1498.81
504.256	1494.81
504.473	1453.81
504.69	1468.81
504.907	1463.81
505.123	1462.81
505.34	1408.81
505.557	1389.81
505.773	1364.81
505.99	1356.81
506.207	1306.81
506.423	1319.81
506.64	1318.81
506.856	1310.81
507.073	1292.81
507.289	1259.81
507.506	1247.81
507.722	1309.81
507.939	1291.81
508.155	1261.81
508.372	1245.81
508.588	1203.81
508.805	1212.81
509.021	1251.81
509.238	1228.81
509.454	1269.81
509.67	1338.81
509.887	1283.81
510.103	1239.81
510.319	1235.81
510.536	1228.81
510.752	1214.81
510.968	1188.81
511.184	1196.81
511.401	1167.81
511.617	1162.81
511.833	1188.81
512.049	1177.81
512.265	1212.81
512.481	1177.81
512.698	1178.81
512.914	1172.81
513.13	1173.81
513.346	1184.81
513.562	1158.81
513.778	1208.81
513.994	1198.81
514.21	1219.81
514.426	1269.81
514.642	1312.81
514.858	1250.81
515.074	1187.81
515.29	1206.81
515.506	1240.81
515.721	1228.81
515.937	1252.81
516.153	1200.81
516.369	1255.81
516.585	1214.81
516.801	1263.81
517.016	1298.81
517.232	1328.81
517.448	1324.81
517.664	1356.81
517.879	1331.81
518.095	1352.81
518.311	1332.81
518.527	1326.81
518.742	1328.81
518.958	1303.81
519.173	1319.81
519.389	1260.81
519.605	1252.81
519.82	1216.81
520.036	1220.81
520.251	1204.81
520.467	1208.81
520.682	1172.81
520.898	1191.81
521.113	1168.81
521.329	1157.81
521.544	1151.81
521.76	1165.81
521.975	1172.81
522.19	1156.81
522.406	1178.81
522.621	1161.81
522.836	1147.81
523.052	1135.81
523.267	1154.81
523.482	1114.81
523.698	1152.81
523.913	1130.81
524.128	1158.81
524.343	1135.81
524.559	1152.81
524.774	1108.81
524.989	1179.81
525.204	1142.81
525.419	1137.81
525.634	1141.81
525.849	1157.81
526.064	1156.81
526.28	1126.81
526.495	1143.81
526.71	1166.81
526.925	1194.81
527.14	1148.81
527.355	1150.81
527.57	1171.81
527.785	1162.81
527.999	1144.81
528.214	1148.81
528.429	1203.81
528.644	1188.81
528.859	1214.81
529.074	1229.81
529.289	1242.81
529.503	1218.81
529.718	1226.81
529.933	1214.81
530.148	1259.81
530.363	1246.81
530.577	1172.81
530.792	1204.81
531.007	1219.81
531.221	1231.81
531.436	1213.81
531.651	1235.81
531.865	1235.81
532.08	1245.81
532.295	1281.81
532.509	1323.81
532.724	1368.81
532.938	1339.81
533.153	1371.81
533.367	1432.81
533.582	1497.81
533.796	1451.81
534.011	1476.81
534.225	1417.81
534.44	1378.81
534.654	1365.81
534.868	1343.81
535.083	1318.81
535.297	1310.81
535.511	1285.81
535.726	1261.81
535.94	1255.81
536.154	1225.81
536.369	1222.81
536.583	1194.81
536.797	1183.81
537.011	1179.81
537.225	1179.81
537.44	1179.81
537.654	1156.81
537.868	1172.81
538.082	1154.81
538.296	1146.81
538.51	1153.81
538.724	1160.81
538.938	1152.81
539.153	1159.81
539.367	1150.81
539.581	1110.81
539.795	1110.81
540.009	1112.81
540.222	1108.81
540.436	1082.81
540.65	1091.81
540.864	1135.81
541.078	1123.81
541.292	1194.81
541.506	1330.81
541.72	1401.81
541.934	1278.81
542.147	1242.81
542.361	1198.81
542.575	1170.81
542.789	1102.81
543.002	1107.81
543.216	1067.81
543.43	1071.81
543.644	1119.81
543.857	1088.81
544.071	1112.81
544.285	1109.81
544.498	1121.81
544.712	1143.81
544.925	1128.81
545.139	1111.81
545.352	1106.81
545.566	1093.81
545.779	1106.81
545.993	1116.81
546.206	1152.81
546.42	1123.81
546.633	1104.81
546.847	1120.81
547.06	1115.81
547.274	1142.81
547.487	1166.81
547.7	1144.81
547.914	1153.81
548.127	1110.81
548.34	1123.81
548.554	1133.81
548.767	1094.81
548.98	1117.81
549.193	1106.81
549.407	1107.81
549.62	1109.81
549.833	1137.81
550.046	1124.81
550.259	1132.81
550.473	1107.81
550.686	1119.81
550.899	1125.81
551.112	1126.81
551.325	1110.81
551.538	1126.81
551.751	1093.81
551.964	1081.81
552.177	1132.81
552.39	1126.81
552.603	1187.81
552.816	1162.81
553.029	1182.81
553.242	1203.81
553.455	1214.81
553.667	1218.81
553.88	1214.81
554.093	1223.81
554.306	1217.81
554.519	1212.81
554.732	1232.81
554.944	1243.81
555.157	1277.81
555.37	1303.81
555.583	1322.81
555.795	1379.81
556.008	1415.81
556.221	1494.81
556.433	1587.81
556.646	1587.81
556.859	1548.81
557.071	1521.81
557.284	1562.81
557.496	1479.81
557.709	1485.81
557.921	1493.81
558.134	1420.81
558.346	1450.81
558.559	1516.81
558.771	1567.81
558.984	1626.81
559.196	1714.81
559.409	1682.81
559.621	1632.81
559.833	1556.81
560.046	1483.81
560.258	1411.81
560.47	1383.81
560.683	1332.81
560.895	1315.81
561.107	1252.81
561.32	1221.81
561.532	1207.81
561.744	1194.81
561.956	1187.81
562.168	1169.81
562.381	1149.81
562.593	1156.81
562.805	1155.81
563.017	1140.81
563.229	1130.81
563.441	1194.81
563.653	1090.81
563.865	1032.81
564.077	1054.81
564.289	1009.81
564.501	1038.81
564.713	980.81
564.925	1009.81
565.137	1022.81
565.349	1008.81
565.561	1039.81
565.773	1036.81
565.985	982.81
566.197	1063.81
566.408	1065.81
566.62	1095.81
566.832	1122.81
567.044	1108.81
567.255	1134.81
567.467	1132.81
567.679	1155.81
567.891	1223.81
568.102	1303.81
568.314	1473.81
568.526	1283.81
568.737	1146.81
568.949	1061.81
569.161	1016.81
569.372	987.81
569.584	954.81
569.795	908.81
570.007	905.81
570.218	909.81
570.43	950.81
570.641	898.81
570.853	894.81
571.064	914.81
571.276	883.81
571.487	841.81
571.698	842.81
571.91	800.81
572.121	821.81
572.333	811.81
572.544	830.81
572.755	831.81
572.966	918.81
573.178	858.81
573.389	798.81
573.6	760.81
573.811	751.81
574.023	738.81
574.234	747.81
574.445	769.81
574.656	773.81
574.867	761.81
575.078	727.81
575.289	747.81
575.501	743.81
575.712	728.81
575.923	724.81
576.134	726.81
576.345	746.81
576.556	739.81
576.767	759.81
576.978	733.81
577.188	755.81
577.399	755.81
577.61	766.81
577.821	741.81
578.032	728.81
578.243	773.81
578.454	787.81
578.665	824.81
578.875	802.81
579.086	830.81
579.297	865.81
579.508	886.81
579.718	962.81
579.929	1020.81
580.14	1133.81
580.35	1152.81
580.561	1134.81
580.772	1040.81
580.982	1033.81
581.193	958.81
581.403	901.81
581.614	888.81
581.825	844.81
582.035	832.81
582.246	806.81
582.456	789.81
582.667	751.81
582.877	761.81
583.087	746.81
583.298	710.81
583.508	700.81
583.719	700.81
583.929	673.81
584.139	623.81
584.35	646.81
584.56	650.81
584.77	658.81
584.981	655.81
585.191	603.81
585.401	618.81
585.611	605.81
585.821	593.81
586.032	600.81
586.242	610.81
586.452	586.81
586.662	600.81
586.872	597.81
587.082	587.81
587.292	582.81
587.502	589.81
587.713	554.81
587.923	560.81
588.133	549.81
588.343	573.81
588.553	562.81
588.762	560.81
588.972	534.81
589.182	565.81
589.392	554.81
589.602	544.81
589.812	523.81
590.022	532.81
590.232	517.81
590.441	537.81
590.651	550.81
590.861	546.81
591.071	530.81
591.281	527.81
591.49	552.81
591.7	538.81
591.91	552.81
592.119	548.81
592.329	538.81
592.539	544.81
592.748	549.81
592.958	570.81
593.167	554.81
593.377	538.81
593.587	561.81
593.796	559.81
594.006	560.81
594.215	527.81
594.424	556.81
594.634	558.81
594.843	557.81
595.053	544.81
595.262	538.81
595.472	526.81
595.681	512.81
595.89	515.81
596.1	498.81
596.309	510.81
596.518	468.81
596.727	464.81
596.937	477.81
597.146	478.81
597.355	481.81
597.564	460.81
597.774	467.81
597.983	452.81
598.192	452.81
598.401	470.81
598.61	446.81
598.819	463.81
599.028	454.81
599.237	470.81
599.446	431.81
599.655	435.81
599.864	448.81
600.073	423.81
600.282	433.81
600.491	434.81
600.7	442.81
600.909	439.81
601.118	458.81
601.327	455.81
601.536	436.81
601.745	456.81
601.953	485.81
602.162	522.81
602.371	478.81
602.58	436.81
602.789	450.81
602.997	438.81
603.206	448.81
603.415	409.81
603.623	449.81
603.832	445.81
604.041	422.81
604.249	396.81
604.458	398.81
604.666	428.81
604.875	396.81
605.084	417.81
605.292	417.81
605.501	408.81
605.709	430.81
605.918	436.81
606.126	438.81
606.334	434.81
606.543	428.81
606.751	457.81
606.96	506.81
607.168	533.81
607.376	471.81
607.585	437.81
607.793	422.81
608.001	444.81
608.21	426.81
608.418	407.81
608.626	418.81
608.834	423.81
609.043	431.81
609.251	396.81
609.459	413.81
609.667	393.81
609.875	397.81
610.083	422.81
610.291	414.81
610.499	425.81
610.707	410.81
610.916	405.81
611.124	398.81
611.332	397.81
611.54	402.81
611.748	408.81
611.955	389.81
612.163	386.81
612.371	389.81
612.579	393.81
612.787	384.81
612.995	386.81
613.203	386.81
613.411	397.81
613.618	378.81
613.826	380.81
614.034	369.81
614.242	399.81
614.449	385.81
614.657	378.81
614.865	391.81
615.072	370.81
615.28	394.81
615.488	384.81
615.695	395.81
615.903	373.81
616.111	391.81
616.318	389.81
616.526	371.81
616.733	389.81
616.941	391.81
617.148	371.81
617.356	387.81
617.563	392.81
617.771	385.81
617.978	377.81
618.185	372.81
618.393	378.81
618.6	373.81
618.807	398.81
619.015	374.81
619.222	362.81
619.429	400.81
619.637	368.81
619.844	369.81
620.051	361.81
620.258	357.81
620.466	346.81
620.673	348.81
620.88	340.81
621.087	343.81
621.294	343.81
621.501	340.81
621.708	342.81
621.915	363.81
622.122	353.81
622.329	350.81
622.536	356.81
622.743	333.81
622.95	345.81
623.157	334.81
623.364	340.81
623.571	356.81
623.778	343.81
623.985	356.81
624.192	367.81
624.399	340.81
624.606	314.81
624.812	332.81
625.019	342.81
625.226	318.81
625.433	323.81
625.639	316.81
625.846	323.81
626.053	318.81
626.259	306.81
626.466	307.81
626.673	332.81
626.879	317.81
627.086	321.81
627.293	319.81
627.499	345.81
627.706	317.81
627.912	325.81
628.119	310.81
628.325	341.81
628.532	331.81
628.738	300.81
628.945	342.81
629.151	327.81
629.357	296.81
629.564	322.81
629.77	309.81
629.976	304.81
630.183	319.81
630.389	301.81
630.595	310.81
630.802	308.81
631.008	308.81
631.214	300.81
631.42	280.81
631.627	296.81
631.833	287.81
632.039	282.81
632.245	327.81
632.451	291.81
632.657	301.81
632.863	307.81
633.069	291.81
633.275	315.81
633.481	288.81
633.688	271.81
633.893	308.81
634.099	308.81
634.305	306.81
634.511	287.81
634.717	291.81
634.923	292.81
635.129	327.81
635.335	355.81
635.541	314.81
635.747	314.81
635.952	314.81
636.158	293.81
636.364	290.81
636.57	293.81
636.775	301.81
636.981	289.81
637.187	287.81
637.392	284.81
637.598	302.81
637.804	306.81
638.009	275.81
638.215	298.81
638.421	302.81
638.626	291.81
638.832	293.81
639.037	307.81
639.243	279.81
639.448	314.81
639.654	290.81
639.859	303.81
640.065	302.81
640.27	310.81
640.475	291.81
640.681	313.81
640.886	307.81
641.091	318.81
641.297	318.81
641.502	313.81
641.707	297.81
641.913	316.81
642.118	323.81
642.323	319.81
642.528	328.81
642.733	344.81
642.939	343.81
643.144	356.81
643.349	350.81
643.554	359.81
643.759	344.81
643.964	380.81
644.169	384.81
644.374	414.81
644.579	456.81
644.784	475.81
644.989	525.81
645.194	593.81
645.399	652.81
645.604	669.81
645.809	580.81
646.014	463.81
646.219	417.81
646.423	368.81
646.628	354.81
646.833	346.81
647.038	348.81
647.243	325.81
647.447	308.81
647.652	316.81
647.857	293.81
648.062	276.81
648.266	284.81
648.471	294.81
648.676	286.81
648.88	281.81
649.085	262.81
649.289	284.81
649.494	266.81
649.698	272.81
649.903	263.81
650.107	261.81
650.312	253.81
650.516	246.81
650.721	249.81
650.925	245.81
651.13	227.81
651.334	242.81
651.539	228.81
651.743	230.81
651.947	225.81
652.152	236.81
652.356	230.81
652.56	243.81
652.764	246.81
652.969	244.81
653.173	216.81
653.377	226.81
653.581	222.81
653.785	201.81
653.99	194.81
654.194	194.81
654.398	204.81
654.602	204.81
654.806	187.81
655.01	198.81
655.214	184.81
655.418	197.81
655.622	200.81
655.826	213.81
656.03	211.81
656.234	204.81
656.438	221.81
656.642	215.81
656.846	207.81
657.049	193.81
657.253	198.81
657.457	186.81
657.661	180.81
657.865	174.81
658.068	164.81
658.272	149.81
658.476	142.81
658.68	147.81
658.883	134.81
659.087	137.81
659.291	136.81
659.494	132.81
659.698	119.81
659.901	124.81
660.105	116.81
660.309	119.81
660.512	102.81
660.716	106.81
660.919	110.81
661.123	107.81
661.326	98.81
661.53	94.81
661.733	93.81
661.936	104.81
662.14	98.81
662.343	100.81
662.546	91.81
662.75	106.81
662.953	102.81
663.156	82.81
663.36	90.81
663.563	88.81
663.766	76.81
663.969	82.81
664.173	82.81
664.376	76.81
664.579	77.81
664.782	76.81
664.985	77.81
665.188	74.81
665.391	68.81
665.594	88.81
665.797	70.81
666	81.81
666.203	80.81
666.406	70.81
666.609	90.81
666.812	85.81
667.015	92.81
667.218	84.81
667.421	93.81
667.624	64.81
667.827	75.81
668.03	78.81
668.232	83.81
668.435	67.81
668.638	67.81
668.841	77.81
669.043	70.81
669.246	72.81
669.449	73.81
669.651	94.81
669.854	93.81
670.057	83.81
670.259	81.81
670.462	90.81
670.665	70.81
670.867	70.81
671.07	69.81
671.272	71.81
671.475	86.81
671.677	82.81
671.88	67.81
672.082	71.81
672.284	72.81
672.487	79.81
672.689	69.81
672.892	81.81
