Data from SnStandardFlinnAPT0064_LampEnergy10_LIBS07252019.E.O._I.C._HRD10591_15-21-05-493.txt Node
Date: Thu Jul 25 15:21:05 EDT 2019
User: cochatt
Spectrometer: HR+D1059
Trigger mode: 1
Integration Time (sec): 1.000000E-1
Scans to average: 1
Electric dark correction enabled: true
Nonlinearity correction enabled: false
Boxcar width: 0
XAxis mode: Wavelengths
Number of Pixels in Spectrum: 2048
>>>>>Begin Spectral Data<<<<<
223.165	-23.25
223.4	-23.25
223.635	-23.25
223.869	-28.25
224.104	-27.25
224.338	-10.25
224.573	-21.25
224.808	-5.25
225.042	13.75
225.277	-13.25
225.511	6.75
225.746	3.75
225.98	0.75
226.215	5.75
226.449	18.75
226.683	25.75
226.918	23.75
227.152	29.75
227.387	30.75
227.621	38.75
227.856	37.75
228.09	57.75
228.324	47.75
228.559	47.75
228.793	124.75
229.027	303.75
229.262	325.75
229.496	320.75
229.73	291.75
229.964	314.75
230.199	292.75
230.433	313.75
230.667	319.75
230.901	329.75
231.136	338.75
231.37	365.75
231.604	381.75
231.838	447.75
232.072	519.75
232.306	545.75
232.541	464.75
232.775	422.75
233.009	396.75
233.243	417.75
233.477	465.75
233.711	506.75
233.945	581.75
234.179	521.75
234.413	434.75
234.647	441.75
234.881	459.75
235.115	514.75
235.349	599.75
235.583	763.75
235.817	988.75
236.051	970.75
236.285	660.75
236.519	521.75
236.753	503.75
236.987	491.75
237.221	530.75
237.455	524.75
237.689	474.75
237.922	454.75
238.156	474.75
238.39	487.75
238.624	482.75
238.858	498.75
239.091	482.75
239.325	501.75
239.559	496.75
239.793	514.75
240.027	535.75
240.26	554.75
240.494	567.75
240.728	570.75
240.961	598.75
241.195	653.75
241.429	659.75
241.662	683.75
241.896	767.75
242.13	941.75
242.363	1237.75
242.597	1585.75
242.83	1495.75
243.064	1521.75
243.298	1744.75
243.531	1484.75
243.765	969.75
243.998	767.75
244.232	697.75
244.465	637.75
244.699	640.75
244.932	651.75
245.166	668.75
245.399	673.75
245.633	687.75
245.866	699.75
246.099	648.75
246.333	633.75
246.566	638.75
246.8	634.75
247.033	659.75
247.266	638.75
247.5	646.75
247.733	653.75
247.966	689.75
248.2	742.75
248.433	864.75
248.666	975.75
248.899	922.75
249.133	865.75
249.366	875.75
249.599	962.75
249.832	1096.75
250.066	1054.75
250.299	863.75
250.532	768.75
250.765	756.75
250.998	748.75
251.231	738.75
251.465	729.75
251.698	740.75
251.931	747.75
252.164	732.75
252.397	772.75
252.63	778.75
252.863	793.75
253.096	769.75
253.329	749.75
253.562	766.75
253.795	785.75
254.028	799.75
254.261	841.75
254.494	860.75
254.727	1011.75
254.96	1219.75
255.193	1210.75
255.426	966.75
255.659	865.75
255.892	843.75
256.124	837.75
256.357	887.75
256.59	890.75
256.823	980.75
257.056	1107.75
257.289	1355.75
257.521	1480.75
257.754	1181.75
257.987	993.75
258.22	929.75
258.452	910.75
258.685	907.75
258.918	966.75
259.151	977.75
259.383	1095.75
259.616	1201.75
259.849	1242.75
260.081	1101.75
260.314	1005.75
260.547	927.75
260.779	930.75
261.012	944.75
261.244	960.75
261.477	949.75
261.71	982.75
261.942	978.75
262.175	1043.75
262.407	1045.75
262.64	1057.75
262.872	1083.75
263.105	1143.75
263.337	1203.75
263.57	1274.75
263.802	1296.75
264.035	1301.75
264.267	1357.75
264.499	1402.75
264.732	1411.75
264.964	1421.75
265.197	1442.75
265.429	1442.75
265.661	1449.75
265.894	1590.75
266.126	1761.75
266.358	1935.75
266.591	1901.75
266.823	1615.75
267.055	1469.75
267.287	1457.75
267.52	1351.75
267.752	1329.75
267.984	1254.75
268.216	1275.75
268.448	1247.75
268.681	1277.75
268.913	1237.75
269.145	1218.75
269.377	1271.75
269.609	1263.75
269.841	1305.75
270.073	1374.75
270.306	1594.75
270.538	2109.75
270.77	3136.75
271.002	3837.75
271.234	2733.75
271.466	1871.75
271.698	1532.75
271.93	1423.75
272.162	1320.75
272.394	1286.75
272.626	1279.75
272.858	1219.75
273.09	1226.75
273.322	1207.75
273.553	1207.75
273.785	1206.75
274.017	1184.75
274.249	1204.75
274.481	1237.75
274.713	1206.75
274.945	1222.75
275.176	1230.75
275.408	1218.75
275.64	1224.75
275.872	1239.75
276.104	1252.75
276.335	1256.75
276.567	1282.75
276.799	1285.75
277.031	1287.75
277.262	1316.75
277.494	1415.75
277.726	1607.75
277.957	1866.75
278.189	2081.75
278.421	1958.75
278.652	1749.75
278.884	1675.75
279.115	1498.75
279.347	1411.75
279.579	1409.75
279.81	1377.75
280.042	1375.75
280.273	1417.75
280.505	1457.75
280.736	1525.75
280.968	1566.75
281.199	1784.75
281.431	2018.75
281.662	2081.75
281.894	1806.75
282.125	1674.75
282.356	1621.75
282.588	1631.75
282.819	1709.75
283.051	1844.75
283.282	2029.75
283.513	2463.75
283.745	3433.75
283.976	5530.75
284.207	7865.75
284.439	7158.75
284.67	4546.75
284.901	3731.75
285.132	3703.75
285.364	3597.75
285.595	2709.75
285.826	2414.75
286.057	2781.75
286.288	3779.75
286.52	5070.75
286.751	4824.75
286.982	3047.75
287.213	2250.75
287.444	1995.75
287.675	1836.75
287.906	1792.75
288.138	1761.75
288.369	1685.75
288.6	1700.75
288.831	1689.75
289.062	1657.75
289.293	1642.75
289.524	1701.75
289.755	1739.75
289.986	1691.75
290.217	1734.75
290.448	1721.75
290.679	1744.75
290.91	1754.75
291.141	1878.75
291.371	2031.75
291.602	2109.75
291.833	1899.75
292.064	1770.75
292.295	1700.75
292.526	1678.75
292.757	1635.75
292.987	1621.75
293.218	1575.75
293.449	1603.75
293.68	1582.75
293.91	1557.75
294.141	1522.75
294.372	1573.75
294.603	1569.75
294.833	1561.75
295.064	1574.75
295.295	1568.75
295.525	1517.75
295.756	1603.75
295.987	1566.75
296.217	1583.75
296.448	1577.75
296.679	1611.75
296.909	1587.75
297.14	1642.75
297.37	1631.75
297.601	1653.75
297.831	1605.75
298.062	1647.75
298.292	1659.75
298.523	1694.75
298.753	1697.75
298.984	1705.75
299.214	1750.75
299.445	1783.75
299.675	1771.75
299.905	1815.75
300.136	1903.75
300.366	2150.75
300.597	2727.75
300.827	3772.75
301.057	5136.75
301.288	5125.75
301.518	3319.75
301.748	2563.75
301.979	2362.75
302.209	2291.75
302.439	2321.75
302.669	2467.75
302.9	2917.75
303.13	4117.75
303.36	5989.75
303.59	8026.75
303.82	6868.75
304.051	4247.75
304.281	3023.75
304.511	2543.75
304.741	2359.75
304.971	2161.75
305.201	2100.75
305.431	1983.75
305.661	1922.75
305.891	1904.75
306.121	1916.75
306.352	1893.75
306.582	1866.75
306.812	1804.75
307.042	1889.75
307.272	1818.75
307.502	1809.75
307.731	1815.75
307.961	1769.75
308.191	1798.75
308.421	1803.75
308.651	1849.75
308.881	1773.75
309.111	1809.75
309.341	1821.75
309.571	1843.75
309.8	1865.75
310.03	1837.75
310.26	1810.75
310.49	1823.75
310.72	1845.75
310.949	1862.75
311.179	1902.75
311.409	1943.75
311.639	1883.75
311.868	1929.75
312.098	1905.75
312.328	1929.75
312.557	1974.75
312.787	1990.75
313.017	1995.75
313.246	2001.75
313.476	1992.75
313.706	2094.75
313.935	2226.75
314.165	2347.75
314.394	2529.75
314.624	2366.75
314.853	2213.75
315.083	2213.75
315.312	2174.75
315.542	2208.75
315.771	2205.75
316.001	2249.75
316.23	2334.75
316.46	2420.75
316.689	2657.75
316.919	3149.75
317.148	4609.75
317.377	6919.75
317.607	10136.75
317.836	10531.75
318.065	6525.75
318.295	4296.75
318.524	3432.75
318.753	2963.75
318.983	2749.75
319.212	2581.75
319.441	2506.75
319.67	2477.75
319.9	2388.75
320.129	2351.75
320.358	2367.75
320.587	2314.75
320.816	2366.75
321.046	2346.75
321.275	2379.75
321.504	2328.75
321.733	2415.75
321.962	2472.75
322.191	2536.75
322.42	2514.75
322.649	2498.75
322.878	2523.75
323.108	2491.75
323.337	2564.75
323.566	2531.75
323.795	2651.75
324.024	2615.75
324.253	2692.75
324.482	2831.75
324.71	2965.75
324.939	3233.75
325.168	3271.75
325.397	3382.75
325.626	3971.75
325.855	5489.75
326.084	8583.75
326.313	12398.75
326.542	13181.75
326.77	8925.75
326.999	5873.75
327.228	4989.75
327.457	4681.75
327.686	4803.75
327.914	5110.75
328.143	5901.75
328.372	7059.75
328.6	7601.75
328.829	6874.75
329.058	5752.75
329.287	5080.75
329.515	4657.75
329.744	4320.75
329.972	4086.75
330.201	3930.75
330.43	3725.75
330.658	3692.75
330.887	3581.75
331.115	3530.75
331.344	3542.75
331.572	3472.75
331.801	3501.75
332.03	3509.75
332.258	3582.75
332.486	3772.75
332.715	4312.75
332.943	5281.75
333.172	6533.75
333.4	6461.75
333.629	4970.75
333.857	4568.75
334.085	4470.75
334.314	4729.75
334.542	5139.75
334.771	6034.75
334.999	7346.75
335.227	9157.75
335.455	10338.75
335.684	9302.75
335.912	7609.75
336.14	6462.75
336.369	5733.75
336.597	5254.75
336.825	4772.75
337.053	4517.75
337.281	4244.75
337.51	4043.75
337.738	3853.75
337.966	3740.75
338.194	3547.75
338.422	3495.75
338.65	3429.75
338.878	3369.75
339.106	3353.75
339.334	3194.75
339.562	3151.75
339.79	3049.75
340.018	3108.75
340.246	3079.75
340.474	3026.75
340.702	3043.75
340.93	3051.75
341.158	3023.75
341.386	3035.75
341.614	2952.75
341.842	2890.75
342.07	2871.75
342.298	2774.75
342.526	2799.75
342.754	2745.75
342.981	2723.75
343.209	2760.75
343.437	2753.75
343.665	2825.75
343.893	2775.75
344.12	2789.75
344.348	2742.75
344.576	2733.75
344.804	2719.75
345.031	2621.75
345.259	2634.75
345.487	2617.75
345.714	2585.75
345.942	2532.75
346.17	2559.75
346.397	2542.75
346.625	2526.75
346.853	2490.75
347.08	2533.75
347.308	2510.75
347.535	2511.75
347.763	2511.75
347.99	2511.75
348.218	2470.75
348.445	2523.75
348.673	2437.75
348.9	2464.75
349.128	2462.75
349.355	2485.75
349.583	2421.75
349.81	2411.75
350.037	2394.75
350.265	2409.75
350.492	2445.75
350.72	2423.75
350.947	2382.75
351.174	2427.75
351.402	2419.75
351.629	2434.75
351.856	2379.75
352.083	2445.75
352.311	2378.75
352.538	2383.75
352.765	2391.75
352.992	2379.75
353.22	2329.75
353.447	2395.75
353.674	2386.75
353.901	2380.75
354.128	2445.75
354.355	2408.75
354.583	2413.75
354.81	2430.75
355.037	2471.75
355.264	2416.75
355.491	2466.75
355.718	2470.75
355.945	2450.75
356.172	2456.75
356.399	2439.75
356.626	2487.75
356.853	2541.75
357.08	2518.75
357.307	2519.75
357.534	2611.75
357.761	2591.75
357.988	2600.75
358.215	2557.75
358.441	2525.75
358.668	2537.75
358.895	2510.75
359.122	2546.75
359.349	2521.75
359.576	2598.75
359.802	2585.75
360.029	2543.75
360.256	2514.75
360.483	2581.75
360.709	2545.75
360.936	2558.75
361.163	2576.75
361.39	2568.75
361.616	2594.75
361.843	2580.75
362.07	2561.75
362.296	2599.75
362.523	2559.75
362.749	2569.75
362.976	2563.75
363.203	2529.75
363.429	2530.75
363.656	2575.75
363.882	2548.75
364.109	2550.75
364.335	2580.75
364.562	2527.75
364.788	2531.75
365.015	2581.75
365.241	2659.75
365.468	2805.75
365.694	2949.75
365.92	2825.75
366.147	2618.75
366.373	2647.75
366.599	2612.75
366.826	2614.75
367.052	2598.75
367.278	2618.75
367.505	2617.75
367.731	2582.75
367.957	2602.75
368.184	2569.75
368.41	2709.75
368.636	2638.75
368.862	2644.75
369.089	2638.75
369.315	2647.75
369.541	2636.75
369.767	2654.75
369.993	2651.75
370.219	2628.75
370.445	2613.75
370.672	2684.75
370.898	2643.75
371.124	2661.75
371.35	2719.75
371.576	2741.75
371.802	2751.75
372.028	2779.75
372.254	2712.75
372.48	2718.75
372.706	2814.75
372.932	2777.75
373.158	2811.75
373.384	2818.75
373.61	2786.75
373.835	2818.75
374.061	2793.75
374.287	2839.75
374.513	2821.75
374.739	2877.75
374.965	2907.75
375.191	2906.75
375.416	2904.75
375.642	2857.75
375.868	2869.75
376.094	2804.75
376.319	2802.75
376.545	2773.75
376.771	2750.75
376.997	2706.75
377.222	2772.75
377.448	2724.75
377.674	2784.75
377.899	2752.75
378.125	2703.75
378.35	2750.75
378.576	2717.75
378.802	2785.75
379.027	2821.75
379.253	2875.75
379.478	3072.75
379.704	3608.75
379.929	5106.75
380.155	7829.75
380.38	8567.75
380.606	5254.75
380.831	3630.75
381.057	3197.75
381.282	2993.75
381.507	2885.75
381.733	2817.75
381.958	2745.75
382.184	2776.75
382.409	2743.75
382.634	2705.75
382.86	2653.75
383.085	2717.75
383.31	2672.75
383.535	2706.75
383.761	2661.75
383.986	2720.75
384.211	2770.75
384.436	2748.75
384.662	2810.75
384.887	2806.75
385.112	2746.75
385.337	2808.75
385.562	2791.75
385.787	2760.75
386.013	2744.75
386.238	2752.75
386.463	2761.75
386.688	2819.75
386.913	2775.75
387.138	2753.75
387.363	2776.75
387.588	2784.75
387.813	2828.75
388.038	2761.75
388.263	2706.75
388.488	2765.75
388.713	2742.75
388.938	2789.75
389.163	2788.75
389.387	2832.75
389.612	2764.75
389.837	2795.75
390.062	2767.75
390.287	2856.75
390.512	2773.75
390.736	2863.75
390.961	2863.75
391.186	2873.75
391.411	2923.75
391.636	2934.75
391.86	2906.75
392.085	2946.75
392.31	2853.75
392.534	2887.75
392.759	2836.75
392.984	2791.75
393.208	2847.75
393.433	2805.75
393.658	2790.75
393.882	2771.75
394.107	2861.75
394.331	2862.75
394.556	2813.75
394.78	2870.75
395.005	2863.75
395.229	2792.75
395.454	2925.75
395.678	2889.75
395.903	2907.75
396.127	2899.75
396.352	2866.75
396.576	2811.75
396.801	2850.75
397.025	2890.75
397.249	2941.75
397.474	2923.75
397.698	2879.75
397.922	2961.75
398.147	2919.75
398.371	3026.75
398.595	3007.75
398.82	3137.75
399.044	3217.75
399.268	3364.75
399.492	3538.75
399.717	3651.75
399.941	3720.75
400.165	3492.75
400.389	3402.75
400.613	3240.75
400.837	3162.75
401.062	3115.75
401.286	3071.75
401.51	3084.75
401.734	3030.75
401.958	3128.75
402.182	3060.75
402.406	3042.75
402.63	3108.75
402.854	3106.75
403.078	3063.75
403.302	3141.75
403.526	3169.75
403.75	3126.75
403.974	3189.75
404.198	3209.75
404.422	3203.75
404.645	3200.75
404.869	3147.75
405.093	3201.75
405.317	3158.75
405.541	3223.75
405.765	3257.75
405.988	3307.75
406.212	3257.75
406.436	3254.75
406.66	3338.75
406.883	3291.75
407.107	3374.75
407.331	3467.75
407.555	3541.75
407.778	3461.75
408.002	3387.75
408.226	3381.75
408.449	3392.75
408.673	3357.75
408.896	3281.75
409.12	3199.75
409.344	3238.75
409.567	3142.75
409.791	3177.75
410.014	3130.75
410.238	3121.75
410.461	3130.75
410.685	3087.75
410.908	3133.75
411.132	3202.75
411.355	3062.75
411.578	3094.75
411.802	3028.75
412.025	3047.75
412.249	3039.75
412.472	3059.75
412.695	3001.75
412.919	2981.75
413.142	2952.75
413.365	3025.75
413.589	3027.75
413.812	2976.75
414.035	3012.75
414.258	3026.75
414.482	3021.75
414.705	2997.75
414.928	3002.75
415.151	2995.75
415.374	2945.75
415.597	2981.75
415.821	2874.75
416.044	2871.75
416.267	2817.75
416.49	2838.75
416.713	2823.75
416.936	2864.75
417.159	2806.75
417.382	2851.75
417.605	2826.75
417.828	2837.75
418.051	2902.75
418.274	2857.75
418.497	2904.75
418.72	2967.75
418.943	2919.75
419.166	3048.75
419.389	3223.75
419.611	3160.75
419.834	3030.75
420.057	3032.75
420.28	2925.75
420.503	2809.75
420.726	2875.75
420.948	2896.75
421.171	2885.75
421.394	2961.75
421.617	2846.75
421.839	2897.75
422.062	2888.75
422.285	2855.75
422.507	2907.75
422.73	2973.75
422.953	2970.75
423.175	2964.75
423.398	3033.75
423.621	2888.75
423.843	2884.75
424.066	2914.75
424.288	2825.75
424.511	2863.75
424.733	2809.75
424.956	2847.75
425.178	2865.75
425.401	2830.75
425.623	2843.75
425.846	2768.75
426.068	2781.75
426.291	2804.75
426.513	2737.75
426.735	2739.75
426.958	2760.75
427.18	2691.75
427.402	2727.75
427.625	2738.75
427.847	2728.75
428.069	2644.75
428.292	2697.75
428.514	2640.75
428.736	2698.75
428.958	2698.75
429.181	2606.75
429.403	2582.75
429.625	2631.75
429.847	2681.75
430.069	2724.75
430.292	2798.75
430.514	2869.75
430.736	2865.75
430.958	2675.75
431.18	2650.75
431.402	2651.75
431.624	2645.75
431.846	2631.75
432.068	2615.75
432.29	2623.75
432.512	2614.75
432.734	2718.75
432.956	2627.75
433.178	2615.75
433.4	2652.75
433.622	2673.75
433.844	2614.75
434.066	2634.75
434.287	2701.75
434.509	2743.75
434.731	2822.75
434.953	2740.75
435.175	2778.75
435.397	2797.75
435.618	2667.75
435.84	2646.75
436.062	2631.75
436.284	2641.75
436.505	2600.75
436.727	2624.75
436.949	2617.75
437.17	2615.75
437.392	2587.75
437.614	2595.75
437.835	2553.75
438.057	2528.75
438.278	2530.75
438.5	2552.75
438.721	2605.75
438.943	2709.75
439.165	2718.75
439.386	2742.75
439.608	2749.75
439.829	2756.75
440.05	2785.75
440.272	2852.75
440.493	2766.75
440.715	2730.75
440.936	2748.75
441.158	2733.75
441.379	2744.75
441.6	2875.75
441.822	2882.75
442.043	3058.75
442.264	3176.75
442.486	2913.75
442.707	2913.75
442.928	2805.75
443.149	2841.75
443.371	2781.75
443.592	2829.75
443.813	2871.75
444.034	2859.75
444.255	2902.75
444.476	2919.75
444.698	2987.75
444.919	3030.75
445.14	3108.75
445.361	2989.75
445.582	2882.75
445.803	2888.75
446.024	2760.75
446.245	2795.75
446.466	2767.75
446.687	2744.75
446.908	2737.75
447.129	2679.75
447.35	2672.75
447.571	2638.75
447.792	2575.75
448.013	2619.75
448.234	2573.75
448.455	2574.75
448.675	2626.75
448.896	2722.75
449.117	2759.75
449.338	3017.75
449.559	3106.75
449.779	2794.75
450	2599.75
450.221	2594.75
450.442	2548.75
450.662	2559.75
450.883	2505.75
451.104	2523.75
451.324	2530.75
451.545	2511.75
451.766	2575.75
451.986	2620.75
452.207	2774.75
452.428	3613.75
452.648	5470.75
452.869	4563.75
453.089	3205.75
453.31	2995.75
453.53	2977.75
453.751	3028.75
453.971	3156.75
454.192	3081.75
454.412	2736.75
454.633	2559.75
454.853	2569.75
455.073	2441.75
455.294	2458.75
455.514	2437.75
455.734	2423.75
455.955	2411.75
456.175	2401.75
456.395	2423.75
456.616	2434.75
456.836	2455.75
457.056	2449.75
457.276	2512.75
457.497	2640.75
457.717	2643.75
457.937	2611.75
458.157	2599.75
458.377	2579.75
458.598	2572.75
458.818	2581.75
459.038	2594.75
459.258	2559.75
459.478	2671.75
459.698	2691.75
459.918	2707.75
460.138	2721.75
460.358	2798.75
460.578	2833.75
460.798	2909.75
461.018	2872.75
461.238	2862.75
461.458	2891.75
461.678	2906.75
461.898	2993.75
462.118	2995.75
462.338	3020.75
462.558	3129.75
462.777	3149.75
462.997	3245.75
463.217	3334.75
463.437	3471.75
463.657	3554.75
463.876	3463.75
464.096	3356.75
464.316	3203.75
464.536	3126.75
464.755	3089.75
464.975	3015.75
465.195	2924.75
465.414	2811.75
465.634	2748.75
465.854	2726.75
466.073	2714.75
466.293	2654.75
466.512	2650.75
466.732	2694.75
466.951	2824.75
467.171	3000.75
467.391	2945.75
467.61	2710.75
467.829	2619.75
468.049	2635.75
468.268	2570.75
468.488	2568.75
468.707	2565.75
468.927	2570.75
469.146	2550.75
469.365	2581.75
469.585	2623.75
469.804	2689.75
470.023	2717.75
470.243	2795.75
470.462	2862.75
470.681	2943.75
470.901	3299.75
471.12	3697.75
471.339	3724.75
471.558	3136.75
471.777	2909.75
471.997	2750.75
472.216	2677.75
472.435	2719.75
472.654	2653.75
472.873	2602.75
473.092	2563.75
473.311	2614.75
473.53	2633.75
473.749	2735.75
473.968	2782.75
474.187	2638.75
474.406	2598.75
474.625	2628.75
474.844	2595.75
475.063	2616.75
475.282	2620.75
475.501	2627.75
475.72	2674.75
475.939	2705.75
476.158	2737.75
476.377	2762.75
476.596	2773.75
476.814	2729.75
477.033	2735.75
477.252	2785.75
477.471	2835.75
477.69	2865.75
477.908	2915.75
478.127	2953.75
478.346	3001.75
478.564	2995.75
478.783	3071.75
479.002	3093.75
479.22	3083.75
479.439	3136.75
479.658	3092.75
479.876	3142.75
480.095	3136.75
480.313	3217.75
480.532	3211.75
480.751	3230.75
480.969	3191.75
481.188	3171.75
481.406	3149.75
481.624	3121.75
481.843	3209.75
482.061	3203.75
482.28	3152.75
482.498	3141.75
482.717	3117.75
482.935	3188.75
483.153	3207.75
483.372	3219.75
483.59	3302.75
483.808	3363.75
484.027	3477.75
484.245	3629.75
484.463	3961.75
484.681	4450.75
484.9	4072.75
485.118	3809.75
485.336	3729.75
485.554	3813.75
485.772	4055.75
485.99	4485.75
486.209	4795.75
486.427	4086.75
486.645	3673.75
486.863	3564.75
487.081	3455.75
487.299	3380.75
487.517	3317.75
487.735	3431.75
487.953	3416.75
488.171	3382.75
488.389	3283.75
488.607	3250.75
488.825	3278.75
489.043	3215.75
489.261	3244.75
489.479	3249.75
489.696	3235.75
489.914	3214.75
490.132	3253.75
490.35	3290.75
490.568	3382.75
490.786	3344.75
491.003	3363.75
491.221	3414.75
491.439	3405.75
491.657	3381.75
491.874	3417.75
492.092	3437.75
492.31	3505.75
492.527	3452.75
492.745	3397.75
492.963	3377.75
493.18	3430.75
493.398	3441.75
493.615	3393.75
493.833	3401.75
494.05	3422.75
494.268	3431.75
494.485	3430.75
494.703	3399.75
494.92	3443.75
495.138	3433.75
495.355	3420.75
495.573	3453.75
495.79	3453.75
496.008	3514.75
496.225	3508.75
496.442	3529.75
496.66	3708.75
496.877	3859.75
497.094	3808.75
497.312	3701.75
497.529	3729.75
497.746	3725.75
497.963	3805.75
498.181	3880.75
498.398	3973.75
498.615	4093.75
498.832	4278.75
499.049	4512.75
499.267	4735.75
499.484	5136.75
499.701	5061.75
499.918	5134.75
500.135	5433.75
500.352	5746.75
500.569	5823.75
500.786	5711.75
501.003	5486.75
501.22	5308.75
501.437	4980.75
501.654	4778.75
501.871	4621.75
502.088	4363.75
502.305	4229.75
502.522	4124.75
502.739	3954.75
502.956	3894.75
503.172	3814.75
503.389	3689.75
503.606	3667.75
503.823	3647.75
504.04	3621.75
504.256	3603.75
504.473	3609.75
504.69	3557.75
504.907	3513.75
505.123	3475.75
505.34	3342.75
505.557	3255.75
505.773	3240.75
505.99	3213.75
506.207	3117.75
506.423	3151.75
506.64	3032.75
506.856	3042.75
507.073	3071.75
507.289	3013.75
507.506	3004.75
507.722	3038.75
507.939	3002.75
508.155	3004.75
508.372	3007.75
508.588	2952.75
508.805	2918.75
509.021	2985.75
509.238	2991.75
509.454	3132.75
509.67	3370.75
509.887	3138.75
510.103	3020.75
510.319	3008.75
510.536	2929.75
510.752	2925.75
510.968	2905.75
511.184	2887.75
511.401	2890.75
511.617	2834.75
511.833	2826.75
512.049	2826.75
512.265	2823.75
512.481	2874.75
512.698	2838.75
512.914	2865.75
513.13	2789.75
513.346	2823.75
513.562	2827.75
513.778	2831.75
513.994	2869.75
514.21	2948.75
514.426	3139.75
514.642	3203.75
514.858	2979.75
515.074	2946.75
515.29	2882.75
515.506	2903.75
515.721	2904.75
515.937	2934.75
516.153	2953.75
516.369	2971.75
516.585	3072.75
516.801	3039.75
517.016	3112.75
517.232	3139.75
517.448	3194.75
517.664	3226.75
517.879	3238.75
518.095	3217.75
518.311	3205.75
518.527	3149.75
518.742	3199.75
518.958	3177.75
519.173	3278.75
519.389	3101.75
519.605	3012.75
519.82	2908.75
520.036	2919.75
520.251	2910.75
520.467	2815.75
520.682	2799.75
520.898	2763.75
521.113	2765.75
521.329	2729.75
521.544	2806.75
521.76	2795.75
521.975	2781.75
522.19	2773.75
522.406	2758.75
522.621	2675.75
522.836	2711.75
523.052	2719.75
523.267	2714.75
523.482	2731.75
523.698	2705.75
523.913	2731.75
524.128	2711.75
524.343	2740.75
524.559	2673.75
524.774	2679.75
524.989	2686.75
525.204	2681.75
525.419	2678.75
525.634	2655.75
525.849	2726.75
526.064	2692.75
526.28	2718.75
526.495	2675.75
526.71	2673.75
526.925	2736.75
527.14	2745.75
527.355	2710.75
527.57	2714.75
527.785	2741.75
527.999	2773.75
528.214	2750.75
528.429	2776.75
528.644	2811.75
528.859	2856.75
529.074	2855.75
529.289	2898.75
529.503	2933.75
529.718	2873.75
529.933	2856.75
530.148	2875.75
530.363	2887.75
530.577	2889.75
530.792	2873.75
531.007	2918.75
531.221	2973.75
531.436	2922.75
531.651	2972.75
531.865	3025.75
532.08	3058.75
532.295	3149.75
532.509	3371.75
532.724	3429.75
532.938	3455.75
533.153	3501.75
533.367	3770.75
533.582	3991.75
533.796	3849.75
534.011	3680.75
534.225	3521.75
534.44	3453.75
534.654	3371.75
534.868	3284.75
535.083	3263.75
535.297	3215.75
535.511	3154.75
535.726	3141.75
535.94	3105.75
536.154	3025.75
536.369	3026.75
536.583	2914.75
536.797	2891.75
537.011	2871.75
537.225	2811.75
537.44	2784.75
537.654	2779.75
537.868	2735.75
538.082	2711.75
538.296	2762.75
538.51	2695.75
538.724	2694.75
538.938	2749.75
539.153	2674.75
539.367	2663.75
539.581	2623.75
539.795	2667.75
540.009	2650.75
540.222	2584.75
540.436	2597.75
540.65	2612.75
540.864	2638.75
541.078	2724.75
541.292	2818.75
541.506	3277.75
541.72	3439.75
541.934	3059.75
542.147	2854.75
542.361	2753.75
542.575	2643.75
542.789	2601.75
543.002	2548.75
543.216	2498.75
543.43	2531.75
543.644	2451.75
543.857	2525.75
544.071	2515.75
544.285	2537.75
544.498	2567.75
544.712	2529.75
544.925	2538.75
545.139	2560.75
545.352	2543.75
545.566	2517.75
545.779	2529.75
545.993	2570.75
546.206	2583.75
546.42	2515.75
546.633	2544.75
546.847	2550.75
547.06	2554.75
547.274	2591.75
547.487	2524.75
547.7	2577.75
547.914	2548.75
548.127	2568.75
548.34	2518.75
548.554	2502.75
548.767	2554.75
548.98	2550.75
549.193	2570.75
549.407	2563.75
549.62	2592.75
549.833	2586.75
550.046	2560.75
550.259	2491.75
550.473	2544.75
550.686	2539.75
550.899	2577.75
551.112	2561.75
551.325	2579.75
551.538	2566.75
551.751	2541.75
551.964	2500.75
552.177	2593.75
552.39	2629.75
552.603	2695.75
552.816	2697.75
553.029	2738.75
553.242	2771.75
553.455	2800.75
553.667	2847.75
553.88	2816.75
554.093	2858.75
554.306	2803.75
554.519	2871.75
554.732	2919.75
554.944	2952.75
555.157	3057.75
555.37	3065.75
555.583	3224.75
555.795	3422.75
556.008	3707.75
556.221	4122.75
556.433	4493.75
556.646	4379.75
556.859	4193.75
557.071	4019.75
557.284	3932.75
557.496	3813.75
557.709	3700.75
557.921	3741.75
558.134	3673.75
558.346	3720.75
558.559	3866.75
558.771	4086.75
558.984	4491.75
559.196	4801.75
559.409	4548.75
559.621	4222.75
559.833	3889.75
560.046	3737.75
560.258	3552.75
560.47	3418.75
560.683	3258.75
560.895	3131.75
561.107	3016.75
561.32	2890.75
561.532	2836.75
561.744	2825.75
561.956	2676.75
562.168	2696.75
562.381	2649.75
562.593	2632.75
562.805	2693.75
563.017	2681.75
563.229	2729.75
563.441	3226.75
563.653	2657.75
563.865	2447.75
564.077	2427.75
564.289	2370.75
564.501	2371.75
564.713	2398.75
564.925	2362.75
565.137	2385.75
565.349	2374.75
565.561	2332.75
565.773	2415.75
565.985	2449.75
566.197	2419.75
566.408	2491.75
566.62	2568.75
566.832	2589.75
567.044	2617.75
567.255	2601.75
567.467	2633.75
567.679	2760.75
567.891	2855.75
568.102	3138.75
568.314	3529.75
568.526	3109.75
568.737	2730.75
568.949	2490.75
569.161	2342.75
569.372	2271.75
569.584	2167.75
569.795	2118.75
570.007	2149.75
570.218	2172.75
570.43	2243.75
570.641	2085.75
570.853	1984.75
571.064	1959.75
571.276	1949.75
571.487	1938.75
571.698	1878.75
571.91	1833.75
572.121	1859.75
572.333	1868.75
572.544	1843.75
572.755	1931.75
572.966	2291.75
573.178	2074.75
573.389	1910.75
573.6	1858.75
573.811	1815.75
574.023	1742.75
574.234	1745.75
574.445	1711.75
574.656	1726.75
574.867	1692.75
575.078	1734.75
575.289	1693.75
575.501	1726.75
575.712	1685.75
575.923	1687.75
576.134	1686.75
576.345	1741.75
576.556	1703.75
576.767	1707.75
576.978	1689.75
577.188	1679.75
577.399	1741.75
577.61	1730.75
577.821	1729.75
578.032	1764.75
578.243	1840.75
578.454	1841.75
578.665	1871.75
578.875	1901.75
579.086	2003.75
579.297	2071.75
579.508	2225.75
579.718	2402.75
579.929	2703.75
580.14	3184.75
580.35	3281.75
580.561	2978.75
580.772	2694.75
580.982	2499.75
581.193	2332.75
581.403	2215.75
581.614	2119.75
581.825	2006.75
582.035	1925.75
582.246	1891.75
582.456	1809.75
582.667	1763.75
582.877	1738.75
583.087	1727.75
583.298	1648.75
583.508	1612.75
583.719	1569.75
583.929	1553.75
584.139	1488.75
584.35	1506.75
584.56	1481.75
584.77	1440.75
584.981	1425.75
585.191	1394.75
585.401	1423.75
585.611	1395.75
585.821	1361.75
586.032	1350.75
586.242	1394.75
586.452	1337.75
586.662	1304.75
586.872	1327.75
587.082	1295.75
587.292	1262.75
587.502	1266.75
587.713	1240.75
587.923	1267.75
588.133	1235.75
588.343	1233.75
588.553	1216.75
588.762	1199.75
588.972	1225.75
589.182	1224.75
589.392	1229.75
589.602	1155.75
589.812	1185.75
590.022	1205.75
590.232	1163.75
590.441	1184.75
590.651	1172.75
590.861	1167.75
591.071	1177.75
591.281	1193.75
591.49	1189.75
591.7	1181.75
591.91	1201.75
592.119	1156.75
592.329	1211.75
592.539	1226.75
592.748	1202.75
592.958	1222.75
593.167	1214.75
593.377	1198.75
593.587	1246.75
593.796	1193.75
594.006	1217.75
594.215	1244.75
594.424	1242.75
594.634	1225.75
594.843	1187.75
595.053	1148.75
595.262	1134.75
595.472	1123.75
595.681	1112.75
595.89	1082.75
596.1	1068.75
596.309	1057.75
596.518	1064.75
596.727	1045.75
596.937	1012.75
597.146	1035.75
597.355	1044.75
597.564	1005.75
597.774	1022.75
597.983	967.75
598.192	973.75
598.401	980.75
598.61	982.75
598.819	969.75
599.028	977.75
599.237	979.75
599.446	951.75
599.655	973.75
599.864	949.75
600.073	935.75
600.282	938.75
600.491	945.75
600.7	955.75
600.909	932.75
601.118	929.75
601.327	947.75
601.536	940.75
601.745	995.75
601.953	1101.75
602.162	1167.75
602.371	1058.75
602.58	979.75
602.789	966.75
602.997	943.75
603.206	941.75
603.415	904.75
603.623	922.75
603.832	906.75
604.041	920.75
604.249	908.75
604.458	907.75
604.666	890.75
604.875	867.75
605.084	871.75
605.292	898.75
605.501	897.75
605.709	897.75
605.918	915.75
606.126	885.75
606.334	884.75
606.543	936.75
606.751	1003.75
606.96	1121.75
607.168	1190.75
607.376	1066.75
607.585	980.75
607.793	947.75
608.001	897.75
608.21	897.75
608.418	912.75
608.626	857.75
608.834	879.75
609.043	853.75
609.251	849.75
609.459	848.75
609.667	826.75
609.875	810.75
610.083	825.75
610.291	839.75
610.499	846.75
610.707	826.75
610.916	817.75
611.124	831.75
611.332	830.75
611.54	836.75
611.748	825.75
611.955	817.75
612.163	809.75
612.371	842.75
612.579	809.75
612.787	813.75
612.995	804.75
613.203	792.75
613.411	811.75
613.618	778.75
613.826	786.75
614.034	795.75
614.242	786.75
614.449	773.75
614.657	777.75
614.865	790.75
615.072	797.75
615.28	790.75
615.488	786.75
615.695	773.75
615.903	769.75
616.111	783.75
616.318	806.75
616.526	777.75
616.733	793.75
616.941	792.75
617.148	789.75
617.356	763.75
617.563	752.75
617.771	771.75
617.978	741.75
618.185	769.75
618.393	752.75
618.6	735.75
618.807	747.75
619.015	760.75
619.222	718.75
619.429	720.75
619.637	731.75
619.844	705.75
620.051	721.75
620.258	711.75
620.466	725.75
620.673	687.75
620.88	695.75
621.087	678.75
621.294	677.75
621.501	705.75
621.708	662.75
621.915	694.75
622.122	681.75
622.329	706.75
622.536	691.75
622.743	685.75
622.95	699.75
623.157	686.75
623.364	687.75
623.571	693.75
623.778	693.75
623.985	679.75
624.192	673.75
624.399	661.75
624.606	657.75
624.812	674.75
625.019	658.75
625.226	656.75
625.433	663.75
625.639	655.75
625.846	613.75
626.053	649.75
626.259	622.75
626.466	633.75
626.673	640.75
626.879	637.75
627.086	617.75
627.293	629.75
627.499	634.75
627.706	631.75
627.912	642.75
628.119	653.75
628.325	635.75
628.532	635.75
628.738	614.75
628.945	607.75
629.151	626.75
629.357	626.75
629.564	594.75
629.77	608.75
629.976	605.75
630.183	610.75
630.389	592.75
630.595	597.75
630.802	587.75
631.008	608.75
631.214	582.75
631.42	601.75
631.627	608.75
631.833	599.75
632.039	589.75
632.245	587.75
632.451	583.75
632.657	586.75
632.863	574.75
633.069	610.75
633.275	586.75
633.481	586.75
633.688	571.75
633.893	557.75
634.099	578.75
634.305	594.75
634.511	584.75
634.717	609.75
634.923	624.75
635.129	707.75
635.335	734.75
635.541	697.75
635.747	627.75
635.952	606.75
636.158	587.75
636.364	587.75
636.57	567.75
636.775	565.75
636.981	582.75
637.187	575.75
637.392	563.75
637.598	587.75
637.804	567.75
638.009	584.75
638.215	576.75
638.421	608.75
638.626	598.75
638.832	601.75
639.037	577.75
639.243	574.75
639.448	596.75
639.654	602.75
639.859	592.75
640.065	606.75
640.27	630.75
640.475	591.75
640.681	632.75
640.886	609.75
641.091	619.75
641.297	607.75
641.502	624.75
641.707	615.75
641.913	612.75
642.118	652.75
642.323	666.75
642.528	657.75
642.733	695.75
642.939	694.75
643.144	689.75
643.349	779.75
643.554	773.75
643.759	795.75
643.964	855.75
644.169	905.75
644.374	932.75
644.579	1033.75
644.784	1147.75
644.989	1280.75
645.194	1535.75
645.399	1828.75
645.604	1995.75
645.809	1467.75
646.014	1110.75
646.219	927.75
646.423	834.75
646.628	770.75
646.833	692.75
647.038	636.75
647.243	630.75
647.447	627.75
647.652	601.75
647.857	590.75
648.062	574.75
648.266	571.75
648.471	562.75
648.676	551.75
648.88	543.75
649.085	545.75
649.289	513.75
649.494	505.75
649.698	511.75
649.903	485.75
650.107	464.75
650.312	475.75
650.516	459.75
650.721	469.75
650.925	467.75
651.13	457.75
651.334	426.75
651.539	450.75
651.743	432.75
651.947	419.75
652.152	429.75
652.356	417.75
652.56	453.75
652.764	494.75
652.969	445.75
653.173	421.75
653.377	405.75
653.581	388.75
653.785	358.75
653.99	366.75
654.194	366.75
654.398	358.75
654.602	361.75
654.806	343.75
655.01	359.75
655.214	346.75
655.418	340.75
655.622	366.75
655.826	356.75
656.03	369.75
656.234	381.75
656.438	392.75
656.642	382.75
656.846	374.75
657.049	358.75
657.253	324.75
657.457	309.75
657.661	297.75
657.865	258.75
658.068	244.75
658.272	243.75
658.476	238.75
658.68	230.75
658.883	211.75
659.087	218.75
659.291	208.75
659.494	187.75
659.698	166.75
659.901	189.75
660.105	187.75
660.309	167.75
660.512	160.75
660.716	160.75
660.919	146.75
661.123	162.75
661.326	153.75
661.53	133.75
661.733	138.75
661.936	127.75
662.14	94.75
662.343	120.75
662.546	113.75
662.75	102.75
662.953	98.75
663.156	88.75
663.36	103.75
663.563	96.75
663.766	86.75
663.969	99.75
664.173	81.75
664.376	95.75
664.579	94.75
664.782	79.75
664.985	95.75
665.188	94.75
665.391	92.75
665.594	88.75
665.797	66.75
666	72.75
666.203	89.75
666.406	90.75
666.609	94.75
666.812	85.75
667.015	90.75
667.218	84.75
667.421	90.75
667.624	68.75
667.827	93.75
668.03	88.75
668.232	86.75
668.435	90.75
668.638	65.75
668.841	65.75
669.043	93.75
669.246	86.75
669.449	84.75
669.651	76.75
669.854	82.75
670.057	77.75
670.259	68.75
670.462	100.75
670.665	90.75
670.867	83.75
671.07	83.75
671.272	85.75
671.475	76.75
671.677	71.75
671.88	72.75
672.082	67.75
672.284	81.75
672.487	85.75
672.689	75.75
672.892	63.75
