Data from SnStandardFlinnAPT0064_LampEnergy10_LIBS07252019.E.O._I.C._HRD10591_15-19-20-493.txt Node
Date: Thu Jul 25 15:19:20 EDT 2019
User: cochatt
Spectrometer: HR+D1059
Trigger mode: 1
Integration Time (sec): 1.000000E-1
Scans to average: 1
Electric dark correction enabled: true
Nonlinearity correction enabled: false
Boxcar width: 0
XAxis mode: Wavelengths
Number of Pixels in Spectrum: 2048
>>>>>Begin Spectral Data<<<<<
223.165	-26.94
223.4	-26.94
223.635	-26.94
223.869	-9.94
224.104	-4.94
224.338	-11.94
224.573	-12.94
224.808	-19.94
225.042	-21.94
225.277	-17.94
225.511	1.06
225.746	11.06
225.98	8.06
226.215	1.06
226.449	24.06
226.683	17.06
226.918	37.06
227.152	27.06
227.387	35.06
227.621	35.06
227.856	44.06
228.09	39.06
228.324	66.06
228.559	53.06
228.793	134.06
229.027	346.06
229.262	349.06
229.496	298.06
229.73	295.06
229.964	311.06
230.199	306.06
230.433	309.06
230.667	329.06
230.901	356.06
231.136	339.06
231.37	369.06
231.604	405.06
231.838	474.06
232.072	557.06
232.306	607.06
232.541	513.06
232.775	459.06
233.009	426.06
233.243	452.06
233.477	487.06
233.711	550.06
233.945	660.06
234.179	566.06
234.413	484.06
234.647	473.06
234.881	515.06
235.115	585.06
235.349	671.06
235.583	857.06
235.817	1112.06
236.051	1073.06
236.285	715.06
236.519	567.06
236.753	524.06
236.987	531.06
237.221	552.06
237.455	535.06
237.689	494.06
237.922	511.06
238.156	492.06
238.39	525.06
238.624	521.06
238.858	515.06
239.091	480.06
239.325	518.06
239.559	497.06
239.793	515.06
240.027	532.06
240.26	552.06
240.494	578.06
240.728	609.06
240.961	637.06
241.195	677.06
241.429	693.06
241.662	748.06
241.896	845.06
242.13	1052.06
242.363	1386.06
242.597	1847.06
242.83	1759.06
243.064	1752.06
243.298	2066.06
243.531	1665.06
243.765	1049.06
243.998	826.06
244.232	744.06
244.465	705.06
244.699	683.06
244.932	643.06
245.166	675.06
245.399	692.06
245.633	693.06
245.866	677.06
246.099	690.06
246.333	665.06
246.566	671.06
246.8	653.06
247.033	663.06
247.266	648.06
247.5	677.06
247.733	698.06
247.966	723.06
248.2	793.06
248.433	913.06
248.666	1095.06
248.899	1033.06
249.133	887.06
249.366	917.06
249.599	998.06
249.832	1160.06
250.066	1160.06
250.299	886.06
250.532	799.06
250.765	769.06
250.998	756.06
251.231	731.06
251.465	740.06
251.698	759.06
251.931	735.06
252.164	739.06
252.397	769.06
252.63	786.06
252.863	804.06
253.096	817.06
253.329	791.06
253.562	788.06
253.795	773.06
254.028	794.06
254.261	832.06
254.494	905.06
254.727	1071.06
254.96	1352.06
255.193	1304.06
255.426	1041.06
255.659	916.06
255.892	875.06
256.124	861.06
256.357	881.06
256.59	931.06
256.823	1009.06
257.056	1179.06
257.289	1445.06
257.521	1590.06
257.754	1258.06
257.987	1005.06
258.22	938.06
258.452	908.06
258.685	953.06
258.918	959.06
259.151	1015.06
259.383	1123.06
259.616	1298.06
259.849	1337.06
260.081	1099.06
260.314	1020.06
260.547	961.06
260.779	923.06
261.012	943.06
261.244	949.06
261.477	945.06
261.71	989.06
261.942	1002.06
262.175	992.06
262.407	1034.06
262.64	1023.06
262.872	1045.06
263.105	1098.06
263.337	1165.06
263.57	1225.06
263.802	1258.06
264.035	1251.06
264.267	1304.06
264.499	1322.06
264.732	1414.06
264.964	1393.06
265.197	1401.06
265.429	1354.06
265.661	1457.06
265.894	1560.06
266.126	1752.06
266.358	2004.06
266.591	1934.06
266.823	1601.06
267.055	1420.06
267.287	1338.06
267.52	1273.06
267.752	1278.06
267.984	1253.06
268.216	1206.06
268.448	1232.06
268.681	1214.06
268.913	1221.06
269.145	1221.06
269.377	1206.06
269.609	1251.06
269.841	1301.06
270.073	1381.06
270.306	1644.06
270.538	2358.06
270.77	3607.06
271.002	4448.06
271.234	3087.06
271.466	2033.06
271.698	1605.06
271.93	1465.06
272.162	1356.06
272.394	1314.06
272.626	1283.06
272.858	1222.06
273.09	1231.06
273.322	1219.06
273.553	1196.06
273.785	1183.06
274.017	1173.06
274.249	1219.06
274.481	1194.06
274.713	1179.06
274.945	1212.06
275.176	1200.06
275.408	1230.06
275.64	1208.06
275.872	1223.06
276.104	1247.06
276.335	1250.06
276.567	1267.06
276.799	1263.06
277.031	1310.06
277.262	1333.06
277.494	1415.06
277.726	1631.06
277.957	1943.06
278.189	2215.06
278.421	2100.06
278.652	1819.06
278.884	1759.06
279.115	1539.06
279.347	1423.06
279.579	1388.06
279.81	1405.06
280.042	1384.06
280.273	1427.06
280.505	1477.06
280.736	1490.06
280.968	1618.06
281.199	1864.06
281.431	2191.06
281.662	2228.06
281.894	1875.06
282.125	1681.06
282.356	1687.06
282.588	1705.06
282.819	1784.06
283.051	1920.06
283.282	2103.06
283.513	2700.06
283.745	3967.06
283.976	6436.06
284.207	9108.06
284.439	8350.06
284.67	5171.06
284.901	4235.06
285.132	4255.06
285.364	3972.06
285.595	2992.06
285.826	2635.06
286.057	3145.06
286.288	4289.06
286.52	5961.06
286.751	5497.06
286.982	3404.06
287.213	2453.06
287.444	2123.06
287.675	1951.06
287.906	1853.06
288.138	1773.06
288.369	1713.06
288.6	1723.06
288.831	1681.06
289.062	1659.06
289.293	1718.06
289.524	1697.06
289.755	1717.06
289.986	1683.06
290.217	1720.06
290.448	1715.06
290.679	1719.06
290.91	1767.06
291.141	1892.06
291.371	2087.06
291.602	2205.06
291.833	2017.06
292.064	1772.06
292.295	1703.06
292.526	1644.06
292.757	1588.06
292.987	1598.06
293.218	1601.06
293.449	1571.06
293.68	1542.06
293.91	1555.06
294.141	1549.06
294.372	1561.06
294.603	1560.06
294.833	1549.06
295.064	1543.06
295.295	1561.06
295.525	1550.06
295.756	1564.06
295.987	1528.06
296.217	1569.06
296.448	1570.06
296.679	1578.06
296.909	1612.06
297.14	1579.06
297.37	1589.06
297.601	1616.06
297.831	1596.06
298.062	1634.06
298.292	1631.06
298.523	1678.06
298.753	1692.06
298.984	1674.06
299.214	1724.06
299.445	1760.06
299.675	1760.06
299.905	1824.06
300.136	1987.06
300.366	2229.06
300.597	2889.06
300.827	4229.06
301.057	5848.06
301.288	5920.06
301.518	3777.06
301.748	2783.06
301.979	2532.06
302.209	2394.06
302.439	2432.06
302.669	2604.06
302.9	3217.06
303.13	4672.06
303.36	6911.06
303.59	9441.06
303.82	8177.06
304.051	4790.06
304.281	3318.06
304.511	2727.06
304.741	2451.06
304.971	2293.06
305.201	2153.06
305.431	2097.06
305.661	2007.06
305.891	1895.06
306.121	1907.06
306.352	1903.06
306.582	1856.06
306.812	1860.06
307.042	1859.06
307.272	1801.06
307.502	1838.06
307.731	1784.06
307.961	1819.06
308.191	1766.06
308.421	1761.06
308.651	1787.06
308.881	1800.06
309.111	1798.06
309.341	1780.06
309.571	1812.06
309.8	1853.06
310.03	1845.06
310.26	1828.06
310.49	1839.06
310.72	1851.06
310.949	1850.06
311.179	1856.06
311.409	1880.06
311.639	1890.06
311.868	1911.06
312.098	1845.06
312.328	1917.06
312.557	1948.06
312.787	1914.06
313.017	1963.06
313.246	2008.06
313.476	1996.06
313.706	2139.06
313.935	2191.06
314.165	2381.06
314.394	2540.06
314.624	2426.06
314.853	2182.06
315.083	2155.06
315.312	2217.06
315.542	2154.06
315.771	2204.06
316.001	2278.06
316.23	2374.06
316.46	2551.06
316.689	2759.06
316.919	3430.06
317.148	5079.06
317.377	7905.06
317.607	11740.06
317.836	12271.06
318.065	7583.06
318.295	4854.06
318.524	3713.06
318.753	3153.06
318.983	2953.06
319.212	2708.06
319.441	2579.06
319.67	2557.06
319.9	2449.06
320.129	2418.06
320.358	2403.06
320.587	2341.06
320.816	2329.06
321.046	2346.06
321.275	2355.06
321.504	2364.06
321.733	2418.06
321.962	2523.06
322.191	2576.06
322.42	2485.06
322.649	2484.06
322.878	2493.06
323.108	2467.06
323.337	2584.06
323.566	2577.06
323.795	2623.06
324.024	2721.06
324.253	2772.06
324.482	2902.06
324.71	3066.06
324.939	3278.06
325.168	3421.06
325.397	3537.06
325.626	4323.06
325.855	6163.06
326.084	9696.06
326.313	13733.06
326.542	14419.06
326.77	10218.06
326.999	6540.06
327.228	5354.06
327.457	5095.06
327.686	5071.06
327.914	5315.06
328.143	6167.06
328.372	7241.06
328.6	7951.06
328.829	7043.06
329.058	5887.06
329.287	5176.06
329.515	4703.06
329.744	4387.06
329.972	4101.06
330.201	3833.06
330.43	3722.06
330.658	3641.06
330.887	3569.06
331.115	3504.06
331.344	3417.06
331.572	3419.06
331.801	3505.06
332.03	3500.06
332.258	3542.06
332.486	3782.06
332.715	4431.06
332.943	5640.06
333.172	7159.06
333.4	7108.06
333.629	5172.06
333.857	4622.06
334.085	4540.06
334.314	4761.06
334.542	5116.06
334.771	6086.06
334.999	7504.06
335.227	9321.06
335.455	10431.06
335.684	9473.06
335.912	7757.06
336.14	6531.06
336.369	5690.06
336.597	5257.06
336.825	4791.06
337.053	4469.06
337.281	4210.06
337.51	3946.06
337.738	3804.06
337.966	3674.06
338.194	3533.06
338.422	3396.06
338.65	3338.06
338.878	3235.06
339.106	3193.06
339.334	3146.06
339.562	3084.06
339.79	3006.06
340.018	2994.06
340.246	2960.06
340.474	2953.06
340.702	2928.06
340.93	2920.06
341.158	2983.06
341.386	2865.06
341.614	2890.06
341.842	2874.06
342.07	2758.06
342.298	2724.06
342.526	2745.06
342.754	2708.06
342.981	2639.06
343.209	2611.06
343.437	2653.06
343.665	2706.06
343.893	2738.06
344.12	2760.06
344.348	2683.06
344.576	2673.06
344.804	2635.06
345.031	2543.06
345.259	2553.06
345.487	2600.06
345.714	2485.06
345.942	2459.06
346.17	2515.06
346.397	2512.06
346.625	2472.06
346.853	2476.06
347.08	2441.06
347.308	2422.06
347.535	2436.06
347.763	2465.06
347.99	2451.06
348.218	2409.06
348.445	2439.06
348.673	2413.06
348.9	2420.06
349.128	2391.06
349.355	2390.06
349.583	2387.06
349.81	2378.06
350.037	2369.06
350.265	2355.06
350.492	2333.06
350.72	2337.06
350.947	2374.06
351.174	2356.06
351.402	2361.06
351.629	2356.06
351.856	2340.06
352.083	2330.06
352.311	2346.06
352.538	2296.06
352.765	2324.06
352.992	2331.06
353.22	2294.06
353.447	2290.06
353.674	2351.06
353.901	2349.06
354.128	2346.06
354.355	2341.06
354.583	2297.06
354.81	2339.06
355.037	2375.06
355.264	2384.06
355.491	2390.06
355.718	2390.06
355.945	2380.06
356.172	2385.06
356.399	2425.06
356.626	2437.06
356.853	2497.06
357.08	2455.06
357.307	2503.06
357.534	2485.06
357.761	2515.06
357.988	2526.06
358.215	2495.06
358.441	2463.06
358.668	2471.06
358.895	2481.06
359.122	2493.06
359.349	2439.06
359.576	2438.06
359.802	2489.06
360.029	2544.06
360.256	2463.06
360.483	2492.06
360.709	2473.06
360.936	2520.06
361.163	2464.06
361.39	2471.06
361.616	2458.06
361.843	2477.06
362.07	2496.06
362.296	2479.06
362.523	2466.06
362.749	2524.06
362.976	2460.06
363.203	2442.06
363.429	2417.06
363.656	2441.06
363.882	2455.06
364.109	2443.06
364.335	2473.06
364.562	2421.06
364.788	2529.06
365.015	2540.06
365.241	2575.06
365.468	2751.06
365.694	2916.06
365.92	2845.06
366.147	2524.06
366.373	2515.06
366.599	2537.06
366.826	2524.06
367.052	2507.06
367.278	2553.06
367.505	2544.06
367.731	2475.06
367.957	2523.06
368.184	2591.06
368.41	2564.06
368.636	2605.06
368.862	2607.06
369.089	2611.06
369.315	2544.06
369.541	2577.06
369.767	2561.06
369.993	2544.06
370.219	2542.06
370.445	2597.06
370.672	2597.06
370.898	2594.06
371.124	2617.06
371.35	2633.06
371.576	2624.06
371.802	2622.06
372.028	2646.06
372.254	2690.06
372.48	2644.06
372.706	2723.06
372.932	2685.06
373.158	2681.06
373.384	2668.06
373.61	2689.06
373.835	2709.06
374.061	2727.06
374.287	2758.06
374.513	2757.06
374.739	2794.06
374.965	2837.06
375.191	2803.06
375.416	2800.06
375.642	2731.06
375.868	2735.06
376.094	2753.06
376.319	2710.06
376.545	2694.06
376.771	2707.06
376.997	2649.06
377.222	2669.06
377.448	2652.06
377.674	2643.06
377.899	2623.06
378.125	2678.06
378.35	2711.06
378.576	2662.06
378.802	2726.06
379.027	2767.06
379.253	2829.06
379.478	3037.06
379.704	3721.06
379.929	5529.06
380.155	8801.06
380.38	9641.06
380.606	5875.06
380.831	3914.06
381.057	3292.06
381.282	2970.06
381.507	2855.06
381.733	2797.06
381.958	2731.06
382.184	2674.06
382.409	2681.06
382.634	2630.06
382.86	2596.06
383.085	2659.06
383.31	2636.06
383.535	2633.06
383.761	2631.06
383.986	2640.06
384.211	2633.06
384.436	2701.06
384.662	2680.06
384.887	2748.06
385.112	2619.06
385.337	2699.06
385.562	2691.06
385.787	2691.06
386.013	2753.06
386.238	2729.06
386.463	2628.06
386.688	2716.06
386.913	2680.06
387.138	2688.06
387.363	2663.06
387.588	2609.06
387.813	2685.06
388.038	2640.06
388.263	2663.06
388.488	2660.06
388.713	2679.06
388.938	2667.06
389.163	2697.06
389.387	2689.06
389.612	2633.06
389.837	2664.06
390.062	2691.06
390.287	2705.06
390.512	2725.06
390.736	2783.06
390.961	2772.06
391.186	2747.06
391.411	2788.06
391.636	2770.06
391.86	2833.06
392.085	2819.06
392.31	2794.06
392.534	2770.06
392.759	2775.06
392.984	2743.06
393.208	2837.06
393.433	2855.06
393.658	2849.06
393.882	2737.06
394.107	2712.06
394.331	2740.06
394.556	2776.06
394.78	2714.06
395.005	2767.06
395.229	2729.06
395.454	2810.06
395.678	2787.06
395.903	2777.06
396.127	2799.06
396.352	2829.06
396.576	2762.06
396.801	2830.06
397.025	2865.06
397.249	2826.06
397.474	2822.06
397.698	2805.06
397.922	2853.06
398.147	2857.06
398.371	2888.06
398.595	2927.06
398.82	3010.06
399.044	3055.06
399.268	3258.06
399.492	3409.06
399.717	3483.06
399.941	3473.06
400.165	3413.06
400.389	3261.06
400.613	3149.06
400.837	3025.06
401.062	2991.06
401.286	3025.06
401.51	2958.06
401.734	2949.06
401.958	2952.06
402.182	2951.06
402.406	2983.06
402.63	2939.06
402.854	2981.06
403.078	2952.06
403.302	3015.06
403.526	3064.06
403.75	3047.06
403.974	3059.06
404.198	3059.06
404.422	3024.06
404.645	3091.06
404.869	3065.06
405.093	3111.06
405.317	3036.06
405.541	3101.06
405.765	3151.06
405.988	3192.06
406.212	3142.06
406.436	3112.06
406.66	3153.06
406.883	3132.06
407.107	3255.06
407.331	3275.06
407.555	3368.06
407.778	3319.06
408.002	3241.06
408.226	3263.06
408.449	3227.06
408.673	3221.06
408.896	3152.06
409.12	3127.06
409.344	3145.06
409.567	3018.06
409.791	3026.06
410.014	3020.06
410.238	3047.06
410.461	3080.06
410.685	3028.06
410.908	3005.06
411.132	3013.06
411.355	2951.06
411.578	2946.06
411.802	2939.06
412.025	2958.06
412.249	2995.06
412.472	3009.06
412.695	2910.06
412.919	2899.06
413.142	2903.06
413.365	2877.06
413.589	2928.06
413.812	2869.06
414.035	2895.06
414.258	2919.06
414.482	2887.06
414.705	2897.06
414.928	2929.06
415.151	2865.06
415.374	2857.06
415.597	2874.06
415.821	2771.06
416.044	2804.06
416.267	2786.06
416.49	2819.06
416.713	2767.06
416.936	2810.06
417.159	2706.06
417.382	2743.06
417.605	2745.06
417.828	2775.06
418.051	2799.06
418.274	2815.06
418.497	2841.06
418.72	2877.06
418.943	2870.06
419.166	2965.06
419.389	3113.06
419.611	3048.06
419.834	2965.06
420.057	2904.06
420.28	2869.06
420.503	2761.06
420.726	2782.06
420.948	2737.06
421.171	2715.06
421.394	2801.06
421.617	2776.06
421.839	2778.06
422.062	2853.06
422.285	2790.06
422.507	2870.06
422.73	2916.06
422.953	2936.06
423.175	2959.06
423.398	2889.06
423.621	2774.06
423.843	2804.06
424.066	2821.06
424.288	2796.06
424.511	2742.06
424.733	2743.06
424.956	2749.06
425.178	2746.06
425.401	2748.06
425.623	2742.06
425.846	2707.06
426.068	2717.06
426.291	2660.06
426.513	2701.06
426.735	2696.06
426.958	2725.06
427.18	2673.06
427.402	2661.06
427.625	2674.06
427.847	2594.06
428.069	2595.06
428.292	2658.06
428.514	2613.06
428.736	2577.06
428.958	2660.06
429.181	2570.06
429.403	2585.06
429.625	2561.06
429.847	2581.06
430.069	2647.06
430.292	2741.06
430.514	2833.06
430.736	2800.06
430.958	2669.06
431.18	2573.06
431.402	2571.06
431.624	2505.06
431.846	2536.06
432.068	2519.06
432.29	2535.06
432.512	2566.06
432.734	2570.06
432.956	2552.06
433.178	2560.06
433.4	2571.06
433.622	2593.06
433.844	2583.06
434.066	2577.06
434.287	2568.06
434.509	2610.06
434.731	2633.06
434.953	2597.06
435.175	2648.06
435.397	2691.06
435.618	2603.06
435.84	2619.06
436.062	2569.06
436.284	2571.06
436.505	2571.06
436.727	2601.06
436.949	2584.06
437.17	2543.06
437.392	2543.06
437.614	2520.06
437.835	2443.06
438.057	2486.06
438.278	2474.06
438.5	2487.06
438.721	2562.06
438.943	2633.06
439.165	2725.06
439.386	2729.06
439.608	2736.06
439.829	2682.06
440.05	2775.06
440.272	2865.06
440.493	2723.06
440.715	2678.06
440.936	2670.06
441.158	2687.06
441.379	2747.06
441.6	2852.06
441.822	2900.06
442.043	3035.06
442.264	3207.06
442.486	2944.06
442.707	2851.06
442.928	2782.06
443.149	2717.06
443.371	2743.06
443.592	2739.06
443.813	2764.06
444.034	2772.06
444.255	2815.06
444.476	2846.06
444.698	2937.06
444.919	2969.06
445.14	2924.06
445.361	2892.06
445.582	2829.06
445.803	2783.06
446.024	2743.06
446.245	2683.06
446.466	2745.06
446.687	2689.06
446.908	2724.06
447.129	2637.06
447.35	2577.06
447.571	2585.06
447.792	2554.06
448.013	2570.06
448.234	2532.06
448.455	2531.06
448.675	2600.06
448.896	2642.06
449.117	2768.06
449.338	3045.06
449.559	3213.06
449.779	2866.06
450	2559.06
450.221	2535.06
450.442	2511.06
450.662	2499.06
450.883	2504.06
451.104	2506.06
451.324	2486.06
451.545	2528.06
451.766	2571.06
451.986	2623.06
452.207	2825.06
452.428	3836.06
452.648	6165.06
452.869	4981.06
453.089	3318.06
453.31	3048.06
453.53	3034.06
453.751	3034.06
453.971	3270.06
454.192	3207.06
454.412	2728.06
454.633	2567.06
454.853	2491.06
455.073	2395.06
455.294	2400.06
455.514	2393.06
455.734	2380.06
455.955	2322.06
456.175	2361.06
456.395	2316.06
456.616	2375.06
456.836	2413.06
457.056	2419.06
457.276	2432.06
457.497	2627.06
457.717	2653.06
457.937	2546.06
458.157	2489.06
458.377	2529.06
458.598	2534.06
458.818	2568.06
459.038	2537.06
459.258	2584.06
459.478	2614.06
459.698	2609.06
459.918	2603.06
460.138	2699.06
460.358	2796.06
460.578	2771.06
460.798	2799.06
461.018	2803.06
461.238	2816.06
461.458	2846.06
461.678	2823.06
461.898	2956.06
462.118	2916.06
462.338	3013.06
462.558	3002.06
462.777	3073.06
462.997	3193.06
463.217	3329.06
463.437	3469.06
463.657	3568.06
463.876	3533.06
464.096	3339.06
464.316	3162.06
464.536	3055.06
464.755	3026.06
464.975	2958.06
465.195	2853.06
465.414	2783.06
465.634	2675.06
465.854	2704.06
466.073	2671.06
466.293	2651.06
466.512	2625.06
466.732	2711.06
466.951	2829.06
467.171	3009.06
467.391	2945.06
467.61	2677.06
467.829	2578.06
468.049	2601.06
468.268	2543.06
468.488	2559.06
468.707	2535.06
468.927	2550.06
469.146	2567.06
469.365	2582.06
469.585	2604.06
469.804	2690.06
470.023	2751.06
470.243	2767.06
470.462	2896.06
470.681	3059.06
470.901	3411.06
471.12	3942.06
471.339	3877.06
471.558	3176.06
471.777	2935.06
471.997	2785.06
472.216	2692.06
472.435	2609.06
472.654	2591.06
472.873	2563.06
473.092	2583.06
473.311	2564.06
473.53	2564.06
473.749	2625.06
473.968	2748.06
474.187	2627.06
474.406	2521.06
474.625	2602.06
474.844	2568.06
475.063	2585.06
475.282	2587.06
475.501	2591.06
475.72	2619.06
475.939	2642.06
476.158	2673.06
476.377	2770.06
476.596	2732.06
476.814	2695.06
477.033	2693.06
477.252	2687.06
477.471	2794.06
477.69	2793.06
477.908	2864.06
478.127	2931.06
478.346	2875.06
478.564	2874.06
478.783	2905.06
479.002	3040.06
479.22	3068.06
479.439	3006.06
479.658	3013.06
479.876	3095.06
480.095	3105.06
480.313	3139.06
480.532	3188.06
480.751	3108.06
480.969	3122.06
481.188	3091.06
481.406	3046.06
481.624	3120.06
481.843	3162.06
482.061	3199.06
482.28	3131.06
482.498	3118.06
482.717	3087.06
482.935	3162.06
483.153	3224.06
483.372	3242.06
483.59	3290.06
483.808	3332.06
484.027	3379.06
484.245	3718.06
484.463	4163.06
484.681	4566.06
484.9	4255.06
485.118	3925.06
485.336	3807.06
485.554	3856.06
485.772	4120.06
485.99	4743.06
486.209	4959.06
486.427	4172.06
486.645	3723.06
486.863	3539.06
487.081	3441.06
487.299	3408.06
487.517	3315.06
487.735	3327.06
487.953	3298.06
488.171	3352.06
488.389	3305.06
488.607	3277.06
488.825	3269.06
489.043	3168.06
489.261	3153.06
489.479	3153.06
489.696	3213.06
489.914	3237.06
490.132	3169.06
490.35	3242.06
490.568	3231.06
490.786	3263.06
491.003	3288.06
491.221	3353.06
491.439	3338.06
491.657	3313.06
491.874	3335.06
492.092	3367.06
492.31	3414.06
492.527	3365.06
492.745	3308.06
492.963	3362.06
493.18	3322.06
493.398	3239.06
493.615	3351.06
493.833	3361.06
494.05	3337.06
494.268	3330.06
494.485	3311.06
494.703	3364.06
494.92	3331.06
495.138	3324.06
495.355	3377.06
495.573	3355.06
495.79	3431.06
496.008	3426.06
496.225	3467.06
496.442	3519.06
496.66	3681.06
496.877	3846.06
497.094	3807.06
497.312	3668.06
497.529	3623.06
497.746	3682.06
497.963	3763.06
498.181	3859.06
498.398	3885.06
498.615	4071.06
498.832	4174.06
499.049	4431.06
499.267	4702.06
499.484	5009.06
499.701	4983.06
499.918	5071.06
500.135	5347.06
500.352	5558.06
500.569	5683.06
500.786	5525.06
501.003	5382.06
501.22	5105.06
501.437	4871.06
501.654	4600.06
501.871	4448.06
502.088	4247.06
502.305	4133.06
502.522	4064.06
502.739	3847.06
502.956	3756.06
503.172	3763.06
503.389	3615.06
503.606	3559.06
503.823	3519.06
504.04	3471.06
504.256	3480.06
504.473	3519.06
504.69	3414.06
504.907	3444.06
505.123	3373.06
505.34	3311.06
505.557	3206.06
505.773	3162.06
505.99	3153.06
506.207	3053.06
506.423	3034.06
506.64	3037.06
506.856	2980.06
507.073	2985.06
507.289	2965.06
507.506	2970.06
507.722	2950.06
507.939	2909.06
508.155	2901.06
508.372	2913.06
508.588	2871.06
508.805	2884.06
509.021	2916.06
509.238	2976.06
509.454	3179.06
509.67	3421.06
509.887	3139.06
510.103	2977.06
510.319	2914.06
510.536	2938.06
510.752	2875.06
510.968	2877.06
511.184	2778.06
511.401	2819.06
511.617	2803.06
511.833	2800.06
512.049	2769.06
512.265	2803.06
512.481	2764.06
512.698	2756.06
512.914	2810.06
513.13	2753.06
513.346	2810.06
513.562	2763.06
513.778	2791.06
513.994	2861.06
514.21	2888.06
514.426	3195.06
514.642	3273.06
514.858	2984.06
515.074	2869.06
515.29	2878.06
515.506	2849.06
515.721	2808.06
515.937	2912.06
516.153	2915.06
516.369	2904.06
516.585	2940.06
516.801	2961.06
517.016	2980.06
517.232	3050.06
517.448	3133.06
517.664	3145.06
517.879	3144.06
518.095	3146.06
518.311	3131.06
518.527	3045.06
518.742	3104.06
518.958	3137.06
519.173	3227.06
519.389	3064.06
519.605	2911.06
519.82	2865.06
520.036	2896.06
520.251	2781.06
520.467	2773.06
520.682	2759.06
520.898	2747.06
521.113	2731.06
521.329	2674.06
521.544	2726.06
521.76	2738.06
521.975	2739.06
522.19	2733.06
522.406	2653.06
522.621	2666.06
522.836	2697.06
523.052	2685.06
523.267	2658.06
523.482	2709.06
523.698	2649.06
523.913	2641.06
524.128	2669.06
524.343	2649.06
524.559	2659.06
524.774	2677.06
524.989	2642.06
525.204	2665.06
525.419	2657.06
525.634	2646.06
525.849	2630.06
526.064	2714.06
526.28	2691.06
526.495	2651.06
526.71	2667.06
526.925	2649.06
527.14	2637.06
527.355	2718.06
527.57	2685.06
527.785	2701.06
527.999	2710.06
528.214	2729.06
528.429	2793.06
528.644	2746.06
528.859	2782.06
529.074	2850.06
529.289	2853.06
529.503	2899.06
529.718	2867.06
529.933	2840.06
530.148	2841.06
530.363	2824.06
530.577	2824.06
530.792	2807.06
531.007	2865.06
531.221	2952.06
531.436	2940.06
531.651	2963.06
531.865	2979.06
532.08	3110.06
532.295	3167.06
532.509	3380.06
532.724	3404.06
532.938	3415.06
533.153	3541.06
533.367	3750.06
533.582	3966.06
533.796	3931.06
534.011	3779.06
534.225	3649.06
534.44	3483.06
534.654	3409.06
534.868	3303.06
535.083	3274.06
535.297	3195.06
535.511	3160.06
535.726	3067.06
535.94	3083.06
536.154	2976.06
536.369	2943.06
536.583	2935.06
536.797	2916.06
537.011	2821.06
537.225	2780.06
537.44	2820.06
537.654	2785.06
537.868	2701.06
538.082	2695.06
538.296	2675.06
538.51	2657.06
538.724	2720.06
538.938	2671.06
539.153	2663.06
539.367	2675.06
539.581	2633.06
539.795	2607.06
540.009	2608.06
540.222	2575.06
540.436	2613.06
540.65	2618.06
540.864	2635.06
541.078	2679.06
541.292	2887.06
541.506	3467.06
541.72	3623.06
541.934	3083.06
542.147	2847.06
542.361	2825.06
542.575	2651.06
542.789	2599.06
543.002	2572.06
543.216	2561.06
543.43	2485.06
543.644	2495.06
543.857	2467.06
544.071	2509.06
544.285	2513.06
544.498	2529.06
544.712	2498.06
544.925	2530.06
545.139	2586.06
545.352	2581.06
545.566	2496.06
545.779	2533.06
545.993	2529.06
546.206	2543.06
546.42	2471.06
546.633	2518.06
546.847	2536.06
547.06	2522.06
547.274	2491.06
547.487	2555.06
547.7	2545.06
547.914	2510.06
548.127	2533.06
548.34	2508.06
548.554	2487.06
548.767	2472.06
548.98	2557.06
549.193	2527.06
549.407	2525.06
549.62	2508.06
549.833	2525.06
550.046	2515.06
550.259	2533.06
550.473	2539.06
550.686	2576.06
550.899	2507.06
551.112	2528.06
551.325	2527.06
551.538	2548.06
551.751	2555.06
551.964	2518.06
552.177	2549.06
552.39	2638.06
552.603	2644.06
552.816	2672.06
553.029	2700.06
553.242	2741.06
553.455	2766.06
553.667	2824.06
553.88	2819.06
554.093	2886.06
554.306	2894.06
554.519	2892.06
554.732	2924.06
554.944	2997.06
555.157	3133.06
555.37	3183.06
555.583	3237.06
555.795	3451.06
556.008	3795.06
556.221	4235.06
556.433	4569.06
556.646	4533.06
556.859	4268.06
557.071	4105.06
557.284	4073.06
557.496	3905.06
557.709	3825.06
557.921	3803.06
558.134	3793.06
558.346	3832.06
558.559	3955.06
558.771	4216.06
558.984	4517.06
559.196	4965.06
559.409	4734.06
559.621	4295.06
559.833	4067.06
560.046	3816.06
560.258	3554.06
560.47	3413.06
560.683	3247.06
560.895	3104.06
561.107	3039.06
561.32	2891.06
561.532	2924.06
561.744	2807.06
561.956	2737.06
562.168	2735.06
562.381	2654.06
562.593	2674.06
562.805	2678.06
563.017	2735.06
563.229	2835.06
563.441	3367.06
563.653	2749.06
563.865	2501.06
564.077	2459.06
564.289	2353.06
564.501	2397.06
564.713	2417.06
564.925	2390.06
565.137	2347.06
565.349	2389.06
565.561	2409.06
565.773	2347.06
565.985	2387.06
566.197	2441.06
566.408	2465.06
566.62	2521.06
566.832	2617.06
567.044	2623.06
567.255	2587.06
567.467	2608.06
567.679	2655.06
567.891	2882.06
568.102	3152.06
568.314	3663.06
568.526	3196.06
568.737	2775.06
568.949	2476.06
569.161	2379.06
569.372	2263.06
569.584	2170.06
569.795	2152.06
570.007	2125.06
570.218	2219.06
570.43	2313.06
570.641	2082.06
570.853	2004.06
571.064	2024.06
571.276	1996.06
571.487	1903.06
571.698	1874.06
571.91	1850.06
572.121	1820.06
572.333	1849.06
572.544	1914.06
572.755	2053.06
572.966	2389.06
573.178	2165.06
573.389	1991.06
573.6	1858.06
573.811	1771.06
574.023	1747.06
574.234	1734.06
574.445	1728.06
574.656	1733.06
574.867	1713.06
575.078	1741.06
575.289	1701.06
575.501	1697.06
575.712	1708.06
575.923	1711.06
576.134	1702.06
576.345	1695.06
576.556	1692.06
576.767	1723.06
576.978	1729.06
577.188	1753.06
577.399	1731.06
577.61	1758.06
577.821	1778.06
578.032	1826.06
578.243	1821.06
578.454	1873.06
578.665	1892.06
578.875	1934.06
579.086	2015.06
579.297	2115.06
579.508	2257.06
579.718	2438.06
579.929	2806.06
580.14	3292.06
580.35	3381.06
580.561	3063.06
580.772	2755.06
580.982	2605.06
581.193	2396.06
581.403	2266.06
581.614	2190.06
581.825	2078.06
582.035	1949.06
582.246	1904.06
582.456	1885.06
582.667	1821.06
582.877	1753.06
583.087	1745.06
583.298	1649.06
583.508	1617.06
583.719	1577.06
583.929	1559.06
584.139	1504.06
584.35	1531.06
584.56	1477.06
584.77	1443.06
584.981	1423.06
585.191	1403.06
585.401	1393.06
585.611	1360.06
585.821	1358.06
586.032	1330.06
586.242	1334.06
586.452	1348.06
586.662	1342.06
586.872	1284.06
587.082	1273.06
587.292	1242.06
587.502	1277.06
587.713	1229.06
587.923	1242.06
588.133	1211.06
588.343	1228.06
588.553	1227.06
588.762	1235.06
588.972	1232.06
589.182	1396.06
589.392	1281.06
589.602	1199.06
589.812	1303.06
590.022	1225.06
590.232	1164.06
590.441	1169.06
590.651	1180.06
590.861	1147.06
591.071	1167.06
591.281	1165.06
591.49	1160.06
591.7	1189.06
591.91	1199.06
592.119	1151.06
592.329	1185.06
592.539	1175.06
592.748	1189.06
592.958	1199.06
593.167	1184.06
593.377	1165.06
593.587	1243.06
593.796	1186.06
594.006	1196.06
594.215	1184.06
594.424	1167.06
594.634	1170.06
594.843	1183.06
595.053	1161.06
595.262	1164.06
595.472	1151.06
595.681	1083.06
595.89	1096.06
596.1	1077.06
596.309	1033.06
596.518	1034.06
596.727	1036.06
596.937	1034.06
597.146	1032.06
597.355	1034.06
597.564	1012.06
597.774	998.06
597.983	1002.06
598.192	985.06
598.401	977.06
598.61	945.06
598.819	971.06
599.028	961.06
599.237	970.06
599.446	977.06
599.655	960.06
599.864	934.06
600.073	924.06
600.282	925.06
600.491	914.06
600.7	939.06
600.909	934.06
601.118	950.06
601.327	942.06
601.536	949.06
601.745	961.06
601.953	1109.06
602.162	1228.06
602.371	1087.06
602.58	1000.06
602.789	979.06
602.997	970.06
603.206	925.06
603.415	940.06
603.623	907.06
603.832	907.06
604.041	916.06
604.249	920.06
604.458	920.06
604.666	884.06
604.875	869.06
605.084	875.06
605.292	885.06
605.501	891.06
605.709	888.06
605.918	905.06
606.126	902.06
606.334	929.06
606.543	960.06
606.751	1016.06
606.96	1163.06
607.168	1285.06
607.376	1077.06
607.585	996.06
607.793	972.06
608.001	890.06
608.21	885.06
608.418	882.06
608.626	875.06
608.834	878.06
609.043	876.06
609.251	865.06
609.459	859.06
609.667	844.06
609.875	850.06
610.083	834.06
610.291	828.06
610.499	844.06
610.707	823.06
610.916	833.06
611.124	805.06
611.332	804.06
611.54	813.06
611.748	819.06
611.955	801.06
612.163	819.06
612.371	821.06
612.579	761.06
612.787	794.06
612.995	808.06
613.203	815.06
613.411	789.06
613.618	811.06
613.826	784.06
614.034	783.06
614.242	810.06
614.449	791.06
614.657	813.06
614.865	798.06
615.072	803.06
615.28	821.06
615.488	807.06
615.695	795.06
615.903	791.06
616.111	791.06
616.318	769.06
616.526	809.06
616.733	785.06
616.941	775.06
617.148	760.06
617.356	798.06
617.563	769.06
617.771	761.06
617.978	758.06
618.185	771.06
618.393	781.06
618.6	789.06
618.807	731.06
619.015	733.06
619.222	745.06
619.429	738.06
619.637	724.06
619.844	721.06
620.051	719.06
620.258	697.06
620.466	694.06
620.673	695.06
620.88	659.06
621.087	681.06
621.294	664.06
621.501	671.06
621.708	704.06
621.915	711.06
622.122	704.06
622.329	679.06
622.536	711.06
622.743	700.06
622.95	678.06
623.157	680.06
623.364	667.06
623.571	677.06
623.778	666.06
623.985	701.06
624.192	671.06
624.399	672.06
624.606	664.06
624.812	664.06
625.019	645.06
625.226	666.06
625.433	660.06
625.639	631.06
625.846	645.06
626.053	630.06
626.259	659.06
626.466	645.06
626.673	627.06
626.879	611.06
627.086	615.06
627.293	630.06
627.499	625.06
627.706	640.06
627.912	617.06
628.119	604.06
628.325	629.06
628.532	619.06
628.738	643.06
628.945	633.06
629.151	619.06
629.357	604.06
629.564	635.06
629.77	604.06
629.976	609.06
630.183	589.06
630.389	610.06
630.595	604.06
630.802	572.06
631.008	596.06
631.214	607.06
631.42	604.06
631.627	574.06
631.833	595.06
632.039	595.06
632.245	572.06
632.451	564.06
632.657	565.06
632.863	583.06
633.069	584.06
633.275	590.06
633.481	579.06
633.688	573.06
633.893	575.06
634.099	567.06
634.305	577.06
634.511	586.06
634.717	596.06
634.923	621.06
635.129	679.06
635.335	771.06
635.541	683.06
635.747	646.06
635.952	607.06
636.158	607.06
636.364	596.06
636.57	579.06
636.775	581.06
636.981	584.06
637.187	587.06
637.392	576.06
637.598	586.06
637.804	591.06
638.009	609.06
638.215	596.06
638.421	578.06
638.626	575.06
638.832	580.06
639.037	572.06
639.243	592.06
639.448	584.06
639.654	618.06
639.859	599.06
640.065	603.06
640.27	634.06
640.475	621.06
640.681	615.06
640.886	631.06
641.091	640.06
641.297	634.06
641.502	631.06
641.707	634.06
641.913	658.06
642.118	659.06
642.323	630.06
642.528	688.06
642.733	699.06
642.939	733.06
643.144	759.06
643.349	769.06
643.554	805.06
643.759	842.06
643.964	818.06
644.169	931.06
644.374	978.06
644.579	1112.06
644.784	1189.06
644.989	1367.06
645.194	1607.06
645.399	1996.06
645.604	2111.06
645.809	1555.06
646.014	1177.06
646.219	1007.06
646.423	864.06
646.628	791.06
646.833	732.06
647.038	677.06
647.243	670.06
647.447	639.06
647.652	628.06
647.857	589.06
648.062	569.06
648.266	577.06
648.471	574.06
648.676	550.06
648.88	534.06
649.085	540.06
649.289	536.06
649.494	533.06
649.698	514.06
649.903	488.06
650.107	495.06
650.312	481.06
650.516	469.06
650.721	452.06
650.925	451.06
651.13	448.06
651.334	460.06
651.539	450.06
651.743	428.06
651.947	452.06
652.152	428.06
652.356	396.06
652.56	461.06
652.764	493.06
652.969	483.06
653.173	418.06
653.377	397.06
653.581	402.06
653.785	381.06
653.99	361.06
654.194	381.06
654.398	375.06
654.602	375.06
654.806	368.06
655.01	343.06
655.214	371.06
655.418	351.06
655.622	345.06
655.826	348.06
656.03	370.06
656.234	393.06
656.438	406.06
656.642	409.06
656.846	387.06
657.049	352.06
657.253	350.06
657.457	320.06
657.661	291.06
657.865	296.06
658.068	262.06
658.272	261.06
658.476	246.06
658.68	239.06
658.883	223.06
659.087	216.06
659.291	218.06
659.494	193.06
659.698	195.06
659.901	182.06
660.105	181.06
660.309	186.06
660.512	155.06
660.716	139.06
660.919	149.06
661.123	154.06
661.326	140.06
661.53	121.06
661.733	139.06
661.936	131.06
662.14	93.06
662.343	113.06
662.546	117.06
662.75	112.06
662.953	99.06
663.156	102.06
663.36	95.06
663.563	95.06
663.766	102.06
663.969	76.06
664.173	104.06
664.376	92.06
664.579	82.06
664.782	87.06
664.985	88.06
665.188	81.06
665.391	84.06
665.594	101.06
665.797	92.06
666	75.06
666.203	81.06
666.406	88.06
666.609	88.06
666.812	94.06
667.015	90.06
667.218	93.06
667.421	83.06
667.624	88.06
667.827	90.06
668.03	86.06
668.232	81.06
668.435	91.06
668.638	78.06
668.841	89.06
669.043	81.06
669.246	86.06
669.449	72.06
669.651	85.06
669.854	82.06
670.057	94.06
670.259	85.06
670.462	85.06
670.665	83.06
670.867	105.06
671.07	98.06
671.272	77.06
671.475	95.06
671.677	94.06
671.88	90.06
672.082	101.06
672.284	90.06
672.487	93.06
672.689	66.06
672.892	74.06
