Data from SnStandardFlinnAPT0064_LampEnergy5.5_LIBS07252019.E.O._I.C._HRD10591_15-17-07-492.txt Node
Date: Thu Jul 25 15:17:07 EDT 2019
User: cochatt
Spectrometer: HR+D1059
Trigger mode: 1
Integration Time (sec): 1.000000E-1
Scans to average: 1
Electric dark correction enabled: true
Nonlinearity correction enabled: false
Boxcar width: 0
XAxis mode: Wavelengths
Number of Pixels in Spectrum: 2048
>>>>>Begin Spectral Data<<<<<
223.165	-14.12
223.4	-14.12
223.635	-14.12
223.869	-17.12
224.104	-10.12
224.338	-11.12
224.573	-14.12
224.808	-25.12
225.042	-14.12
225.277	-18.12
225.511	8.88
225.746	8.88
225.98	7.88
226.215	13.88
226.449	16.88
226.683	33.88
226.918	16.88
227.152	16.88
227.387	34.88
227.621	46.88
227.856	31.88
228.09	45.88
228.324	53.88
228.559	49.88
228.793	71.88
229.027	151.88
229.262	177.88
229.496	165.88
229.73	149.88
229.964	153.88
230.199	175.88
230.433	164.88
230.667	168.88
230.901	185.88
231.136	171.88
231.37	186.88
231.604	190.88
231.838	225.88
232.072	253.88
232.306	267.88
232.541	226.88
232.775	223.88
233.009	202.88
233.243	192.88
233.477	221.88
233.711	264.88
233.945	290.88
234.179	237.88
234.413	217.88
234.647	228.88
234.881	245.88
235.115	249.88
235.349	302.88
235.583	365.88
235.817	472.88
236.051	472.88
236.285	307.88
236.519	243.88
236.753	230.88
236.987	232.88
237.221	270.88
237.455	247.88
237.689	233.88
237.922	217.88
238.156	228.88
238.39	253.88
238.624	246.88
238.858	220.88
239.091	248.88
239.325	247.88
239.559	238.88
239.793	243.88
240.027	243.88
240.26	245.88
240.494	254.88
240.728	262.88
240.961	303.88
241.195	315.88
241.429	305.88
241.662	322.88
241.896	344.88
242.13	407.88
242.363	535.88
242.597	682.88
242.83	672.88
243.064	664.88
243.298	792.88
243.531	651.88
243.765	433.88
243.998	341.88
244.232	311.88
244.465	288.88
244.699	301.88
244.932	313.88
245.166	305.88
245.399	321.88
245.633	298.88
245.866	285.88
246.099	297.88
246.333	313.88
246.566	298.88
246.8	295.88
247.033	279.88
247.266	294.88
247.5	293.88
247.733	301.88
247.966	300.88
248.2	335.88
248.433	400.88
248.666	431.88
248.899	432.88
249.133	394.88
249.366	375.88
249.599	403.88
249.832	466.88
250.066	449.88
250.299	390.88
250.532	353.88
250.765	351.88
250.998	357.88
251.231	353.88
251.465	344.88
251.698	344.88
251.931	338.88
252.164	345.88
252.397	350.88
252.63	349.88
252.863	355.88
253.096	370.88
253.329	355.88
253.562	347.88
253.795	352.88
254.028	357.88
254.261	391.88
254.494	405.88
254.727	464.88
254.96	545.88
255.193	513.88
255.426	438.88
255.659	395.88
255.892	385.88
256.124	381.88
256.357	407.88
256.59	413.88
256.823	433.88
257.056	478.88
257.289	576.88
257.521	615.88
257.754	505.88
257.987	447.88
258.22	406.88
258.452	398.88
258.685	442.88
258.918	437.88
259.151	439.88
259.383	476.88
259.616	547.88
259.849	531.88
260.081	458.88
260.314	446.88
260.547	424.88
260.779	435.88
261.012	431.88
261.244	453.88
261.477	443.88
261.71	453.88
261.942	451.88
262.175	457.88
262.407	480.88
262.64	498.88
262.872	517.88
263.105	493.88
263.337	553.88
263.57	561.88
263.802	592.88
264.035	570.88
264.267	606.88
264.499	615.88
264.732	657.88
264.964	651.88
265.197	632.88
265.429	641.88
265.661	645.88
265.894	686.88
266.126	767.88
266.358	846.88
266.591	845.88
266.823	719.88
267.055	637.88
267.287	607.88
267.52	610.88
267.752	593.88
267.984	578.88
268.216	568.88
268.448	581.88
268.681	584.88
268.913	563.88
269.145	550.88
269.377	541.88
269.609	547.88
269.841	579.88
270.073	596.88
270.306	681.88
270.538	913.88
270.77	1378.88
271.002	1683.88
271.234	1184.88
271.466	756.88
271.698	662.88
271.93	629.88
272.162	576.88
272.394	563.88
272.626	538.88
272.858	552.88
273.09	544.88
273.322	554.88
273.553	542.88
273.785	543.88
274.017	550.88
274.249	553.88
274.481	549.88
274.713	534.88
274.945	534.88
275.176	563.88
275.408	545.88
275.64	546.88
275.872	561.88
276.104	537.88
276.335	568.88
276.567	577.88
276.799	571.88
277.031	582.88
277.262	589.88
277.494	633.88
277.726	658.88
277.957	755.88
278.189	849.88
278.421	819.88
278.652	733.88
278.884	682.88
279.115	647.88
279.347	622.88
279.579	599.88
279.81	606.88
280.042	593.88
280.273	627.88
280.505	635.88
280.736	647.88
280.968	667.88
281.199	750.88
281.431	823.88
281.662	861.88
281.894	726.88
282.125	702.88
282.356	720.88
282.588	701.88
282.819	721.88
283.051	781.88
283.282	825.88
283.513	1043.88
283.745	1529.88
283.976	2425.88
284.207	3496.88
284.439	3053.88
284.67	1793.88
284.901	1438.88
285.132	1467.88
285.364	1380.88
285.595	1080.88
285.826	991.88
286.057	1215.88
286.288	1627.88
286.52	2159.88
286.751	2047.88
286.982	1226.88
287.213	919.88
287.444	817.88
287.675	775.88
287.906	739.88
288.138	749.88
288.369	726.88
288.6	736.88
288.831	729.88
289.062	688.88
289.293	722.88
289.524	730.88
289.755	758.88
289.986	739.88
290.217	762.88
290.448	734.88
290.679	725.88
290.91	730.88
291.141	765.88
291.371	821.88
291.602	827.88
291.833	800.88
292.064	756.88
292.295	730.88
292.526	719.88
292.757	733.88
292.987	690.88
293.218	696.88
293.449	712.88
293.68	701.88
293.91	678.88
294.141	683.88
294.372	670.88
294.603	686.88
294.833	688.88
295.064	693.88
295.295	677.88
295.525	690.88
295.756	677.88
295.987	675.88
296.217	696.88
296.448	680.88
296.679	678.88
296.909	673.88
297.14	690.88
297.37	711.88
297.601	699.88
297.831	712.88
298.062	697.88
298.292	714.88
298.523	725.88
298.753	754.88
298.984	744.88
299.214	743.88
299.445	753.88
299.675	749.88
299.905	757.88
300.136	819.88
300.366	901.88
300.597	1134.88
300.827	1604.88
301.057	2199.88
301.288	2160.88
301.518	1401.88
301.748	1065.88
301.979	975.88
302.209	917.88
302.439	962.88
302.669	1018.88
302.9	1198.88
303.13	1720.88
303.36	2546.88
303.59	3378.88
303.82	2959.88
304.051	1695.88
304.281	1208.88
304.511	987.88
304.741	943.88
304.971	925.88
305.201	900.88
305.431	853.88
305.661	819.88
305.891	802.88
306.121	803.88
306.352	803.88
306.582	786.88
306.812	789.88
307.042	793.88
307.272	804.88
307.502	800.88
307.731	777.88
307.961	783.88
308.191	804.88
308.421	790.88
308.651	786.88
308.881	757.88
309.111	774.88
309.341	772.88
309.571	797.88
309.8	790.88
310.03	794.88
310.26	826.88
310.49	791.88
310.72	798.88
310.949	811.88
311.179	807.88
311.409	822.88
311.639	842.88
311.868	831.88
312.098	835.88
312.328	859.88
312.557	850.88
312.787	855.88
313.017	846.88
313.246	841.88
313.476	893.88
313.706	903.88
313.935	942.88
314.165	997.88
314.394	1055.88
314.624	961.88
314.853	924.88
315.083	922.88
315.312	903.88
315.542	923.88
315.771	944.88
316.001	963.88
316.23	957.88
316.46	1010.88
316.689	1087.88
316.919	1342.88
317.148	1954.88
317.377	3053.88
317.607	4457.88
317.836	4648.88
318.065	2689.88
318.295	1705.88
318.524	1343.88
318.753	1191.88
318.983	1104.88
319.212	1023.88
319.441	1025.88
319.67	1031.88
319.9	1026.88
320.129	1010.88
320.358	995.88
320.587	974.88
320.816	1012.88
321.046	983.88
321.275	1025.88
321.504	1017.88
321.733	1042.88
321.962	1035.88
322.191	1029.88
322.42	1023.88
322.649	1053.88
322.878	1034.88
323.108	1071.88
323.337	1054.88
323.566	1068.88
323.795	1114.88
324.024	1102.88
324.253	1158.88
324.482	1141.88
324.71	1222.88
324.939	1312.88
325.168	1333.88
325.397	1377.88
325.626	1595.88
325.855	2313.88
326.084	3671.88
326.313	5490.88
326.542	5777.88
326.77	3588.88
326.999	2303.88
327.228	1893.88
327.457	1840.88
327.686	1820.88
327.914	1974.88
328.143	2221.88
328.372	2617.88
328.6	2807.88
328.829	2534.88
329.058	2266.88
329.287	2003.88
329.515	1850.88
329.744	1731.88
329.972	1634.88
330.201	1581.88
330.43	1524.88
330.658	1470.88
330.887	1463.88
331.115	1436.88
331.344	1437.88
331.572	1457.88
331.801	1464.88
332.03	1461.88
332.258	1477.88
332.486	1501.88
332.715	1746.88
332.943	2159.88
333.172	2608.88
333.4	2575.88
333.629	2010.88
333.857	1799.88
334.085	1800.88
334.314	1878.88
334.542	2047.88
334.771	2329.88
334.999	2811.88
335.227	3410.88
335.455	3806.88
335.684	3465.88
335.912	2945.88
336.14	2542.88
336.369	2292.88
336.597	2123.88
336.825	1934.88
337.053	1860.88
337.281	1735.88
337.51	1636.88
337.738	1553.88
337.966	1539.88
338.194	1449.88
338.422	1441.88
338.65	1384.88
338.878	1413.88
339.106	1363.88
339.334	1351.88
339.562	1341.88
339.79	1323.88
340.018	1281.88
340.246	1282.88
340.474	1283.88
340.702	1278.88
340.93	1285.88
341.158	1282.88
341.386	1281.88
341.614	1288.88
341.842	1204.88
342.07	1225.88
342.298	1201.88
342.526	1231.88
342.754	1175.88
342.981	1170.88
343.209	1167.88
343.437	1150.88
343.665	1185.88
343.893	1215.88
344.12	1219.88
344.348	1179.88
344.576	1190.88
344.804	1176.88
345.031	1127.88
345.259	1125.88
345.487	1126.88
345.714	1083.88
345.942	1064.88
346.17	1066.88
346.397	1072.88
346.625	1096.88
346.853	1096.88
347.08	1060.88
347.308	1075.88
347.535	1102.88
347.763	1066.88
347.99	1056.88
348.218	1070.88
348.445	1091.88
348.673	1083.88
348.9	1061.88
349.128	1081.88
349.355	1061.88
349.583	1041.88
349.81	1026.88
350.037	1044.88
350.265	1027.88
350.492	991.88
350.72	1025.88
350.947	1042.88
351.174	1045.88
351.402	1012.88
351.629	994.88
351.856	1027.88
352.083	1025.88
352.311	997.88
352.538	1036.88
352.765	1046.88
352.992	997.88
353.22	1006.88
353.447	1009.88
353.674	1011.88
353.901	1028.88
354.128	1037.88
354.355	1050.88
354.583	1029.88
354.81	1071.88
355.037	1050.88
355.264	1039.88
355.491	1064.88
355.718	1042.88
355.945	1054.88
356.172	1047.88
356.399	1048.88
356.626	1082.88
356.853	1079.88
357.08	1068.88
357.307	1081.88
357.534	1105.88
357.761	1081.88
357.988	1110.88
358.215	1074.88
358.441	1080.88
358.668	1083.88
358.895	1092.88
359.122	1099.88
359.349	1087.88
359.576	1099.88
359.802	1081.88
360.029	1069.88
360.256	1095.88
360.483	1088.88
360.709	1086.88
360.936	1123.88
361.163	1092.88
361.39	1092.88
361.616	1117.88
361.843	1105.88
362.07	1104.88
362.296	1103.88
362.523	1090.88
362.749	1113.88
362.976	1081.88
363.203	1129.88
363.429	1108.88
363.656	1086.88
363.882	1086.88
364.109	1087.88
364.335	1065.88
364.562	1074.88
364.788	1081.88
365.015	1102.88
365.241	1143.88
365.468	1163.88
365.694	1224.88
365.92	1182.88
366.147	1133.88
366.373	1110.88
366.599	1141.88
366.826	1111.88
367.052	1109.88
367.278	1107.88
367.505	1109.88
367.731	1139.88
367.957	1146.88
368.184	1150.88
368.41	1153.88
368.636	1162.88
368.862	1181.88
369.089	1133.88
369.315	1132.88
369.541	1150.88
369.767	1152.88
369.993	1163.88
370.219	1149.88
370.445	1163.88
370.672	1152.88
370.898	1145.88
371.124	1167.88
371.35	1155.88
371.576	1197.88
371.802	1167.88
372.028	1185.88
372.254	1176.88
372.48	1231.88
372.706	1226.88
372.932	1192.88
373.158	1185.88
373.384	1206.88
373.61	1208.88
373.835	1201.88
374.061	1211.88
374.287	1224.88
374.513	1217.88
374.739	1211.88
374.965	1244.88
375.191	1247.88
375.416	1231.88
375.642	1224.88
375.868	1217.88
376.094	1235.88
376.319	1181.88
376.545	1194.88
376.771	1203.88
376.997	1190.88
377.222	1177.88
377.448	1174.88
377.674	1199.88
377.899	1195.88
378.125	1134.88
378.35	1179.88
378.576	1162.88
378.802	1190.88
379.027	1209.88
379.253	1257.88
379.478	1319.88
379.704	1517.88
379.929	2199.88
380.155	3263.88
380.38	3483.88
380.606	2145.88
380.831	1497.88
381.057	1333.88
381.282	1258.88
381.507	1209.88
381.733	1204.88
381.958	1188.88
382.184	1163.88
382.409	1194.88
382.634	1181.88
382.86	1173.88
383.085	1149.88
383.31	1155.88
383.535	1208.88
383.761	1205.88
383.986	1186.88
384.211	1187.88
384.436	1195.88
384.662	1195.88
384.887	1178.88
385.112	1189.88
385.337	1199.88
385.562	1215.88
385.787	1222.88
386.013	1190.88
386.238	1208.88
386.463	1211.88
386.688	1219.88
386.913	1190.88
387.138	1165.88
387.363	1209.88
387.588	1211.88
387.813	1209.88
388.038	1197.88
388.263	1219.88
388.488	1226.88
388.713	1206.88
388.938	1180.88
389.163	1192.88
389.387	1215.88
389.612	1195.88
389.837	1211.88
390.062	1190.88
390.287	1223.88
390.512	1225.88
390.736	1213.88
390.961	1265.88
391.186	1214.88
391.411	1245.88
391.636	1305.88
391.86	1284.88
392.085	1263.88
392.31	1262.88
392.534	1246.88
392.759	1220.88
392.984	1234.88
393.208	1255.88
393.433	1270.88
393.658	1266.88
393.882	1233.88
394.107	1233.88
394.331	1206.88
394.556	1237.88
394.78	1226.88
395.005	1235.88
395.229	1235.88
395.454	1247.88
395.678	1249.88
395.903	1279.88
396.127	1233.88
396.352	1229.88
396.576	1280.88
396.801	1235.88
397.025	1254.88
397.249	1283.88
397.474	1291.88
397.698	1279.88
397.922	1287.88
398.147	1286.88
398.371	1306.88
398.595	1348.88
398.82	1370.88
399.044	1395.88
399.268	1459.88
399.492	1547.88
399.717	1605.88
399.941	1585.88
400.165	1557.88
400.389	1481.88
400.613	1422.88
400.837	1419.88
401.062	1360.88
401.286	1344.88
401.51	1330.88
401.734	1336.88
401.958	1364.88
402.182	1322.88
402.406	1352.88
402.63	1377.88
402.854	1334.88
403.078	1359.88
403.302	1376.88
403.526	1389.88
403.75	1417.88
403.974	1363.88
404.198	1389.88
404.422	1394.88
404.645	1374.88
404.869	1389.88
405.093	1407.88
405.317	1395.88
405.541	1412.88
405.765	1417.88
405.988	1415.88
406.212	1402.88
406.436	1347.88
406.66	1436.88
406.883	1419.88
407.107	1466.88
407.331	1482.88
407.555	1499.88
407.778	1461.88
408.002	1456.88
408.226	1463.88
408.449	1442.88
408.673	1445.88
408.896	1400.88
409.12	1439.88
409.344	1412.88
409.567	1379.88
409.791	1388.88
410.014	1391.88
410.238	1380.88
410.461	1361.88
410.685	1380.88
410.908	1346.88
411.132	1353.88
411.355	1343.88
411.578	1354.88
411.802	1345.88
412.025	1314.88
412.249	1318.88
412.472	1328.88
412.695	1321.88
412.919	1345.88
413.142	1332.88
413.365	1314.88
413.589	1301.88
413.812	1342.88
414.035	1320.88
414.258	1299.88
414.482	1325.88
414.705	1290.88
414.928	1306.88
415.151	1323.88
415.374	1281.88
415.597	1315.88
415.821	1271.88
416.044	1272.88
416.267	1256.88
416.49	1270.88
416.713	1267.88
416.936	1284.88
417.159	1218.88
417.382	1244.88
417.605	1269.88
417.828	1237.88
418.051	1237.88
418.274	1274.88
418.497	1250.88
418.72	1293.88
418.943	1277.88
419.166	1347.88
419.389	1399.88
419.611	1364.88
419.834	1301.88
420.057	1328.88
420.28	1269.88
420.503	1270.88
420.726	1245.88
420.948	1238.88
421.171	1304.88
421.394	1285.88
421.617	1259.88
421.839	1222.88
422.062	1250.88
422.285	1259.88
422.507	1285.88
422.73	1299.88
422.953	1304.88
423.175	1298.88
423.398	1313.88
423.621	1274.88
423.843	1261.88
424.066	1285.88
424.288	1310.88
424.511	1259.88
424.733	1240.88
424.956	1247.88
425.178	1234.88
425.401	1261.88
425.623	1280.88
425.846	1205.88
426.068	1217.88
426.291	1214.88
426.513	1216.88
426.735	1185.88
426.958	1229.88
427.18	1174.88
427.402	1197.88
427.625	1201.88
427.847	1165.88
428.069	1183.88
428.292	1209.88
428.514	1205.88
428.736	1191.88
428.958	1206.88
429.181	1160.88
429.403	1139.88
429.625	1155.88
429.847	1143.88
430.069	1216.88
430.292	1217.88
430.514	1249.88
430.736	1245.88
430.958	1186.88
431.18	1179.88
431.402	1159.88
431.624	1139.88
431.846	1136.88
432.068	1153.88
432.29	1133.88
432.512	1143.88
432.734	1161.88
432.956	1177.88
433.178	1201.88
433.4	1206.88
433.622	1177.88
433.844	1182.88
434.066	1183.88
434.287	1138.88
434.509	1191.88
434.731	1188.88
434.953	1189.88
435.175	1219.88
435.397	1194.88
435.618	1174.88
435.84	1166.88
436.062	1141.88
436.284	1152.88
436.505	1173.88
436.727	1157.88
436.949	1159.88
437.17	1144.88
437.392	1168.88
437.614	1142.88
437.835	1104.88
438.057	1113.88
438.278	1117.88
438.5	1141.88
438.721	1151.88
438.943	1185.88
439.165	1229.88
439.386	1195.88
439.608	1203.88
439.829	1186.88
440.05	1264.88
440.272	1265.88
440.493	1187.88
440.715	1191.88
440.936	1191.88
441.158	1222.88
441.379	1234.88
441.6	1281.88
441.822	1321.88
442.043	1359.88
442.264	1386.88
442.486	1296.88
442.707	1265.88
442.928	1235.88
443.149	1253.88
443.371	1229.88
443.592	1277.88
443.813	1271.88
444.034	1251.88
444.255	1289.88
444.476	1322.88
444.698	1348.88
444.919	1345.88
445.14	1408.88
445.361	1351.88
445.582	1311.88
445.803	1251.88
446.024	1213.88
446.245	1272.88
446.466	1253.88
446.687	1228.88
446.908	1213.88
447.129	1176.88
447.35	1167.88
447.571	1189.88
447.792	1154.88
448.013	1153.88
448.234	1146.88
448.455	1175.88
448.675	1160.88
448.896	1177.88
449.117	1242.88
449.338	1325.88
449.559	1360.88
449.779	1260.88
450	1162.88
450.221	1167.88
450.442	1095.88
450.662	1122.88
450.883	1142.88
451.104	1118.88
451.324	1122.88
451.545	1145.88
451.766	1140.88
451.986	1149.88
452.207	1193.88
452.428	1471.88
452.648	2103.88
452.869	1807.88
453.089	1315.88
453.31	1283.88
453.53	1250.88
453.751	1302.88
453.971	1363.88
454.192	1369.88
454.412	1170.88
454.633	1085.88
454.853	1104.88
455.073	1069.88
455.294	1062.88
455.514	1047.88
455.734	1067.88
455.955	1062.88
456.175	1038.88
456.395	1039.88
456.616	1075.88
456.836	1097.88
457.056	1105.88
457.276	1101.88
457.497	1138.88
457.717	1117.88
457.937	1121.88
458.157	1142.88
458.377	1112.88
458.598	1120.88
458.818	1136.88
459.038	1144.88
459.258	1127.88
459.478	1163.88
459.698	1134.88
459.918	1209.88
460.138	1219.88
460.358	1209.88
460.578	1231.88
460.798	1242.88
461.018	1245.88
461.238	1243.88
461.458	1259.88
461.678	1298.88
461.898	1309.88
462.118	1345.88
462.338	1282.88
462.558	1331.88
462.777	1373.88
462.997	1420.88
463.217	1465.88
463.437	1511.88
463.657	1539.88
463.876	1520.88
464.096	1473.88
464.316	1395.88
464.536	1384.88
464.755	1364.88
464.975	1287.88
465.195	1277.88
465.414	1228.88
465.634	1222.88
465.854	1184.88
466.073	1183.88
466.293	1211.88
466.512	1172.88
466.732	1195.88
466.951	1243.88
467.171	1323.88
467.391	1288.88
467.61	1185.88
467.829	1184.88
468.049	1152.88
468.268	1139.88
468.488	1127.88
468.707	1130.88
468.927	1159.88
469.146	1153.88
469.365	1169.88
469.585	1159.88
469.804	1181.88
470.023	1185.88
470.243	1222.88
470.462	1275.88
470.681	1299.88
470.901	1422.88
471.12	1617.88
471.339	1677.88
471.558	1380.88
471.777	1265.88
471.997	1181.88
472.216	1159.88
472.435	1177.88
472.654	1162.88
472.873	1119.88
473.092	1145.88
473.311	1141.88
473.53	1167.88
473.749	1202.88
473.968	1237.88
474.187	1159.88
474.406	1135.88
474.625	1159.88
474.844	1155.88
475.063	1160.88
475.282	1173.88
475.501	1178.88
475.72	1210.88
475.939	1181.88
476.158	1210.88
476.377	1203.88
476.596	1214.88
476.814	1214.88
477.033	1224.88
477.252	1234.88
477.471	1252.88
477.69	1270.88
477.908	1283.88
478.127	1297.88
478.346	1297.88
478.564	1307.88
478.783	1330.88
479.002	1354.88
479.22	1343.88
479.439	1365.88
479.658	1382.88
479.876	1397.88
480.095	1357.88
480.313	1384.88
480.532	1385.88
480.751	1389.88
480.969	1354.88
481.188	1335.88
481.406	1374.88
481.624	1363.88
481.843	1366.88
482.061	1400.88
482.28	1375.88
482.498	1354.88
482.717	1359.88
482.935	1352.88
483.153	1417.88
483.372	1407.88
483.59	1457.88
483.808	1485.88
484.027	1464.88
484.245	1554.88
484.463	1770.88
484.681	1961.88
484.9	1745.88
485.118	1660.88
485.336	1589.88
485.554	1591.88
485.772	1684.88
485.99	1938.88
486.209	2131.88
486.427	1736.88
486.645	1558.88
486.863	1577.88
487.081	1506.88
487.299	1457.88
487.517	1498.88
487.735	1505.88
487.953	1465.88
488.171	1487.88
488.389	1453.88
488.607	1440.88
488.825	1408.88
489.043	1384.88
489.261	1405.88
489.479	1431.88
489.696	1420.88
489.914	1465.88
490.132	1450.88
490.35	1440.88
490.568	1446.88
490.786	1475.88
491.003	1479.88
491.221	1511.88
491.439	1516.88
491.657	1529.88
491.874	1504.88
492.092	1522.88
492.31	1578.88
492.527	1558.88
492.745	1505.88
492.963	1507.88
493.18	1496.88
493.398	1473.88
493.615	1545.88
493.833	1539.88
494.05	1518.88
494.268	1514.88
494.485	1526.88
494.703	1493.88
494.92	1548.88
495.138	1522.88
495.355	1512.88
495.573	1506.88
495.79	1505.88
496.008	1520.88
496.225	1549.88
496.442	1549.88
496.66	1587.88
496.877	1659.88
497.094	1690.88
497.312	1621.88
497.529	1638.88
497.746	1627.88
497.963	1682.88
498.181	1687.88
498.398	1727.88
498.615	1750.88
498.832	1814.88
499.049	1905.88
499.267	2069.88
499.484	2223.88
499.701	2183.88
499.918	2268.88
500.135	2376.88
500.352	2500.88
500.569	2519.88
500.786	2575.88
501.003	2382.88
501.22	2323.88
501.437	2159.88
501.654	2089.88
501.871	2017.88
502.088	1915.88
502.305	1814.88
502.522	1807.88
502.739	1750.88
502.956	1734.88
503.172	1661.88
503.389	1611.88
503.606	1570.88
503.823	1561.88
504.04	1544.88
504.256	1573.88
504.473	1560.88
504.69	1553.88
504.907	1520.88
505.123	1498.88
505.34	1473.88
505.557	1428.88
505.773	1414.88
505.99	1403.88
506.207	1364.88
506.423	1355.88
506.64	1387.88
506.856	1363.88
507.073	1384.88
507.289	1343.88
507.506	1327.88
507.722	1317.88
507.939	1299.88
508.155	1328.88
508.372	1312.88
508.588	1261.88
508.805	1289.88
509.021	1267.88
509.238	1301.88
509.454	1392.88
509.67	1462.88
509.887	1353.88
510.103	1302.88
510.319	1308.88
510.536	1263.88
510.752	1251.88
510.968	1250.88
511.184	1221.88
511.401	1249.88
511.617	1246.88
511.833	1225.88
512.049	1217.88
512.265	1241.88
512.481	1261.88
512.698	1263.88
512.914	1254.88
513.13	1244.88
513.346	1182.88
513.562	1226.88
513.778	1236.88
513.994	1241.88
514.21	1295.88
514.426	1350.88
514.642	1428.88
514.858	1322.88
515.074	1288.88
515.29	1303.88
515.506	1293.88
515.721	1250.88
515.937	1237.88
516.153	1289.88
516.369	1281.88
516.585	1273.88
516.801	1331.88
517.016	1375.88
517.232	1388.88
517.448	1369.88
517.664	1384.88
517.879	1403.88
518.095	1390.88
518.311	1416.88
518.527	1360.88
518.742	1379.88
518.958	1345.88
519.173	1414.88
519.389	1350.88
519.605	1265.88
519.82	1283.88
520.036	1255.88
520.251	1250.88
520.467	1226.88
520.682	1222.88
520.898	1242.88
521.113	1216.88
521.329	1220.88
521.544	1204.88
521.76	1176.88
521.975	1200.88
522.19	1206.88
522.406	1199.88
522.621	1195.88
522.836	1208.88
523.052	1198.88
523.267	1197.88
523.482	1211.88
523.698	1206.88
523.913	1183.88
524.128	1214.88
524.343	1182.88
524.559	1197.88
524.774	1172.88
524.989	1178.88
525.204	1191.88
525.419	1204.88
525.634	1184.88
525.849	1185.88
526.064	1211.88
526.28	1186.88
526.495	1149.88
526.71	1186.88
526.925	1150.88
527.14	1210.88
527.355	1200.88
527.57	1224.88
527.785	1188.88
527.999	1190.88
528.214	1219.88
528.429	1229.88
528.644	1242.88
528.859	1250.88
529.074	1263.88
529.289	1286.88
529.503	1262.88
529.718	1286.88
529.933	1237.88
530.148	1247.88
530.363	1251.88
530.577	1245.88
530.792	1249.88
531.007	1247.88
531.221	1271.88
531.436	1281.88
531.651	1268.88
531.865	1282.88
532.08	1315.88
532.295	1373.88
532.509	1407.88
532.724	1423.88
532.938	1441.88
533.153	1461.88
533.367	1504.88
533.582	1559.88
533.796	1586.88
534.011	1537.88
534.225	1482.88
534.44	1446.88
534.654	1414.88
534.868	1407.88
535.083	1357.88
535.297	1385.88
535.511	1342.88
535.726	1350.88
535.94	1299.88
536.154	1288.88
536.369	1289.88
536.583	1274.88
536.797	1241.88
537.011	1222.88
537.225	1224.88
537.44	1204.88
537.654	1190.88
537.868	1231.88
538.082	1197.88
538.296	1187.88
538.51	1156.88
538.724	1189.88
538.938	1189.88
539.153	1173.88
539.367	1210.88
539.581	1149.88
539.795	1127.88
540.009	1161.88
540.222	1091.88
540.436	1106.88
540.65	1165.88
540.864	1177.88
541.078	1211.88
541.292	1283.88
541.506	1506.88
541.72	1606.88
541.934	1386.88
542.147	1298.88
542.361	1230.88
542.575	1190.88
542.789	1156.88
543.002	1148.88
543.216	1126.88
543.43	1116.88
543.644	1097.88
543.857	1128.88
544.071	1156.88
544.285	1145.88
544.498	1153.88
544.712	1147.88
544.925	1166.88
545.139	1163.88
545.352	1142.88
545.566	1188.88
545.779	1164.88
545.993	1191.88
546.206	1186.88
546.42	1169.88
546.633	1160.88
546.847	1150.88
547.06	1141.88
547.274	1171.88
547.487	1162.88
547.7	1177.88
547.914	1162.88
548.127	1167.88
548.34	1153.88
548.554	1134.88
548.767	1165.88
548.98	1168.88
549.193	1197.88
549.407	1140.88
549.62	1170.88
549.833	1137.88
550.046	1172.88
550.259	1201.88
550.473	1174.88
550.686	1175.88
550.899	1151.88
551.112	1147.88
551.325	1162.88
551.538	1131.88
551.751	1146.88
551.964	1103.88
552.177	1191.88
552.39	1182.88
552.603	1221.88
552.816	1227.88
553.029	1251.88
553.242	1262.88
553.455	1283.88
553.667	1261.88
553.88	1257.88
554.093	1279.88
554.306	1300.88
554.519	1256.88
554.732	1267.88
554.944	1319.88
555.157	1347.88
555.37	1388.88
555.583	1365.88
555.795	1481.88
556.008	1550.88
556.221	1667.88
556.433	1746.88
556.646	1731.88
556.859	1685.88
557.071	1617.88
557.284	1630.88
557.496	1553.88
557.709	1562.88
557.921	1546.88
558.134	1534.88
558.346	1543.88
558.559	1617.88
558.771	1662.88
558.984	1789.88
559.196	1885.88
559.409	1832.88
559.621	1740.88
559.833	1636.88
560.046	1543.88
560.258	1506.88
560.47	1426.88
560.683	1408.88
560.895	1363.88
561.107	1291.88
561.32	1292.88
561.532	1245.88
561.744	1213.88
561.956	1221.88
562.168	1192.88
562.381	1178.88
562.593	1165.88
562.805	1165.88
563.017	1158.88
563.229	1191.88
563.441	1324.88
563.653	1156.88
563.865	1091.88
564.077	1079.88
564.289	1071.88
564.501	1084.88
564.713	1053.88
564.925	1045.88
565.137	1070.88
565.349	1036.88
565.561	1081.88
565.773	1082.88
565.985	1091.88
566.197	1090.88
566.408	1114.88
566.62	1123.88
566.832	1164.88
567.044	1188.88
567.255	1170.88
567.467	1201.88
567.679	1233.88
567.891	1284.88
568.102	1413.88
568.314	1647.88
568.526	1415.88
568.737	1184.88
568.949	1139.88
569.161	1042.88
569.372	969.88
569.584	968.88
569.795	953.88
570.007	950.88
570.218	972.88
570.43	1009.88
570.641	943.88
570.853	910.88
571.064	893.88
571.276	897.88
571.487	869.88
571.698	858.88
571.91	850.88
572.121	835.88
572.333	841.88
572.544	839.88
572.755	904.88
572.966	1065.88
573.178	948.88
573.389	832.88
573.6	815.88
573.811	806.88
574.023	820.88
574.234	799.88
574.445	767.88
574.656	776.88
574.867	789.88
575.078	780.88
575.289	778.88
575.501	809.88
575.712	791.88
575.923	781.88
576.134	751.88
576.345	777.88
576.556	790.88
576.767	776.88
576.978	787.88
577.188	796.88
577.399	797.88
577.61	772.88
577.821	808.88
578.032	791.88
578.243	797.88
578.454	806.88
578.665	834.88
578.875	846.88
579.086	854.88
579.297	896.88
579.508	933.88
579.718	994.88
579.929	1121.88
580.14	1222.88
580.35	1265.88
580.561	1193.88
580.772	1122.88
580.982	1085.88
581.193	1013.88
581.403	989.88
581.614	931.88
581.825	880.88
582.035	855.88
582.246	841.88
582.456	803.88
582.667	780.88
582.877	760.88
583.087	786.88
583.298	727.88
583.508	710.88
583.719	702.88
583.929	709.88
584.139	701.88
584.35	674.88
584.56	677.88
584.77	661.88
584.981	656.88
585.191	635.88
585.401	676.88
585.611	643.88
585.821	629.88
586.032	629.88
586.242	624.88
586.452	619.88
586.662	623.88
586.872	605.88
587.082	597.88
587.292	599.88
587.502	571.88
587.713	577.88
587.923	577.88
588.133	568.88
588.343	567.88
588.553	565.88
588.762	555.88
588.972	559.88
589.182	590.88
589.392	559.88
589.602	555.88
589.812	560.88
590.022	548.88
590.232	539.88
590.441	565.88
590.651	565.88
590.861	542.88
591.071	524.88
591.281	524.88
591.49	554.88
591.7	580.88
591.91	567.88
592.119	552.88
592.329	560.88
592.539	550.88
592.748	581.88
592.958	574.88
593.167	585.88
593.377	576.88
593.587	572.88
593.796	586.88
594.006	584.88
594.215	567.88
594.424	560.88
594.634	561.88
594.843	557.88
595.053	561.88
595.262	547.88
595.472	535.88
595.681	511.88
595.89	530.88
596.1	521.88
596.309	510.88
596.518	485.88
596.727	511.88
596.937	497.88
597.146	495.88
597.355	475.88
597.564	477.88
597.774	487.88
597.983	462.88
598.192	462.88
598.401	481.88
598.61	458.88
598.819	456.88
599.028	469.88
599.237	474.88
599.446	467.88
599.655	457.88
599.864	482.88
600.073	456.88
600.282	464.88
600.491	462.88
600.7	465.88
600.909	464.88
601.118	458.88
601.327	456.88
601.536	454.88
601.745	462.88
601.953	521.88
602.162	586.88
602.371	537.88
602.58	487.88
602.789	464.88
602.997	449.88
603.206	466.88
603.415	458.88
603.623	444.88
603.832	453.88
604.041	446.88
604.249	438.88
604.458	436.88
604.666	450.88
604.875	429.88
605.084	423.88
605.292	421.88
605.501	424.88
605.709	427.88
605.918	434.88
606.126	447.88
606.334	431.88
606.543	454.88
606.751	479.88
606.96	539.88
607.168	605.88
607.376	531.88
607.585	456.88
607.793	447.88
608.001	454.88
608.21	431.88
608.418	431.88
608.626	410.88
608.834	423.88
609.043	418.88
609.251	424.88
609.459	427.88
609.667	419.88
609.875	421.88
610.083	440.88
610.291	433.88
610.499	421.88
610.707	416.88
610.916	407.88
611.124	433.88
611.332	402.88
611.54	414.88
611.748	415.88
611.955	415.88
612.163	397.88
612.371	399.88
612.579	409.88
612.787	417.88
612.995	397.88
613.203	416.88
613.411	408.88
613.618	404.88
613.826	387.88
614.034	414.88
614.242	397.88
614.449	400.88
614.657	415.88
614.865	410.88
615.072	399.88
615.28	403.88
615.488	400.88
615.695	389.88
615.903	397.88
616.111	407.88
616.318	409.88
616.526	390.88
616.733	385.88
616.941	411.88
617.148	417.88
617.356	381.88
617.563	389.88
617.771	389.88
617.978	379.88
618.185	386.88
618.393	398.88
618.6	408.88
618.807	388.88
619.015	391.88
619.222	383.88
619.429	381.88
619.637	381.88
619.844	373.88
620.051	365.88
620.258	375.88
620.466	358.88
620.673	370.88
620.88	342.88
621.087	341.88
621.294	365.88
621.501	337.88
621.708	340.88
621.915	363.88
622.122	369.88
622.329	362.88
622.536	344.88
622.743	341.88
622.95	360.88
623.157	362.88
623.364	353.88
623.571	353.88
623.778	350.88
623.985	357.88
624.192	359.88
624.399	360.88
624.606	356.88
624.812	357.88
625.019	339.88
625.226	343.88
625.433	340.88
625.639	341.88
625.846	338.88
626.053	344.88
626.259	314.88
626.466	315.88
626.673	328.88
626.879	336.88
627.086	327.88
627.293	322.88
627.499	337.88
627.706	319.88
627.912	336.88
628.119	327.88
628.325	323.88
628.532	322.88
628.738	336.88
628.945	309.88
629.151	319.88
629.357	291.88
629.564	319.88
629.77	324.88
629.976	314.88
630.183	327.88
630.389	324.88
630.595	307.88
630.802	299.88
631.008	318.88
631.214	331.88
631.42	312.88
631.627	304.88
631.833	321.88
632.039	305.88
632.245	298.88
632.451	314.88
632.657	306.88
632.863	308.88
633.069	322.88
633.275	306.88
633.481	309.88
633.688	294.88
633.893	313.88
634.099	294.88
634.305	291.88
634.511	304.88
634.717	298.88
634.923	319.88
635.129	353.88
635.335	381.88
635.541	362.88
635.747	334.88
635.952	321.88
636.158	310.88
636.364	322.88
636.57	316.88
636.775	324.88
636.981	322.88
637.187	310.88
637.392	317.88
637.598	309.88
637.804	307.88
638.009	305.88
638.215	307.88
638.421	312.88
638.626	294.88
638.832	309.88
639.037	311.88
639.243	292.88
639.448	294.88
639.654	313.88
639.859	318.88
640.065	298.88
640.27	309.88
640.475	313.88
640.681	312.88
640.886	286.88
641.091	286.88
641.297	321.88
641.502	325.88
641.707	334.88
641.913	343.88
642.118	330.88
642.323	330.88
642.528	348.88
642.733	349.88
642.939	347.88
643.144	361.88
643.349	378.88
643.554	385.88
643.759	390.88
643.964	400.88
644.169	441.88
644.374	454.88
644.579	481.88
644.784	521.88
644.989	579.88
645.194	662.88
645.399	764.88
645.604	801.88
645.809	620.88
646.014	493.88
646.219	448.88
646.423	377.88
646.628	385.88
646.833	357.88
647.038	326.88
647.243	329.88
647.447	318.88
647.652	341.88
647.857	319.88
648.062	289.88
648.266	292.88
648.471	291.88
648.676	282.88
648.88	285.88
649.085	292.88
649.289	273.88
649.494	286.88
649.698	266.88
649.903	283.88
650.107	281.88
650.312	263.88
650.516	264.88
650.721	252.88
650.925	244.88
651.13	235.88
651.334	246.88
651.539	253.88
651.743	241.88
651.947	236.88
652.152	243.88
652.356	237.88
652.56	256.88
652.764	296.88
652.969	253.88
653.173	232.88
653.377	212.88
653.581	217.88
653.785	220.88
653.99	207.88
654.194	214.88
654.398	199.88
654.602	200.88
654.806	202.88
655.01	216.88
655.214	201.88
655.418	201.88
655.622	231.88
655.826	213.88
656.03	205.88
656.234	208.88
656.438	227.88
656.642	219.88
656.846	212.88
657.049	193.88
657.253	184.88
657.457	186.88
657.661	195.88
657.865	179.88
658.068	165.88
658.272	165.88
658.476	154.88
658.68	149.88
658.883	131.88
659.087	139.88
659.291	140.88
659.494	134.88
659.698	124.88
659.901	113.88
660.105	133.88
660.309	122.88
660.512	118.88
660.716	111.88
660.919	106.88
661.123	129.88
661.326	102.88
661.53	87.88
661.733	104.88
661.936	103.88
662.14	96.88
662.343	98.88
662.546	91.88
662.75	83.88
662.953	88.88
663.156	105.88
663.36	85.88
663.563	88.88
663.766	93.88
663.969	75.88
664.173	86.88
664.376	87.88
664.579	78.88
664.782	84.88
664.985	88.88
665.188	85.88
665.391	77.88
665.594	74.88
665.797	85.88
666	68.88
666.203	72.88
666.406	77.88
666.609	75.88
666.812	91.88
667.015	91.88
667.218	82.88
667.421	81.88
667.624	86.88
667.827	89.88
668.03	93.88
668.232	80.88
668.435	70.88
668.638	82.88
668.841	81.88
669.043	84.88
669.246	82.88
669.449	63.88
669.651	62.88
669.854	89.88
670.057	80.88
670.259	75.88
670.462	85.88
670.665	85.88
670.867	81.88
671.07	74.88
671.272	88.88
671.475	86.88
671.677	81.88
671.88	78.88
672.082	70.88
672.284	82.88
672.487	82.88
672.689	79.88
672.892	68.88
