Data from SnStandardFlinnAPT0064_LampEnergy10_LIBS07252019.E.O._I.C._HRD10591_15-20-28-494.txt Node
Date: Thu Jul 25 15:20:28 EDT 2019
User: cochatt
Spectrometer: HR+D1059
Trigger mode: 1
Integration Time (sec): 1.000000E-1
Scans to average: 1
Electric dark correction enabled: true
Nonlinearity correction enabled: false
Boxcar width: 0
XAxis mode: Wavelengths
Number of Pixels in Spectrum: 2048
>>>>>Begin Spectral Data<<<<<
223.165	-13.12
223.4	-13.12
223.635	-13.12
223.869	-10.12
224.104	-23.12
224.338	-20.12
224.573	-15.12
224.808	-14.12
225.042	-16.12
225.277	-11.12
225.511	-0.12
225.746	3.88
225.98	2.88
226.215	22.88
226.449	12.88
226.683	27.88
226.918	11.88
227.152	40.88
227.387	37.88
227.621	37.88
227.856	41.88
228.09	41.88
228.324	53.88
228.559	52.88
228.793	135.88
229.027	318.88
229.262	339.88
229.496	322.88
229.73	317.88
229.964	313.88
230.199	307.88
230.433	318.88
230.667	331.88
230.901	327.88
231.136	329.88
231.37	367.88
231.604	397.88
231.838	455.88
232.072	539.88
232.306	579.88
232.541	490.88
232.775	423.88
233.009	425.88
233.243	459.88
233.477	461.88
233.711	546.88
233.945	626.88
234.179	515.88
234.413	458.88
234.647	460.88
234.881	486.88
235.115	519.88
235.349	640.88
235.583	776.88
235.817	1051.88
236.051	1051.88
236.285	694.88
236.519	534.88
236.753	478.88
236.987	512.88
237.221	570.88
237.455	515.88
237.689	474.88
237.922	482.88
238.156	476.88
238.39	495.88
238.624	508.88
238.858	517.88
239.091	483.88
239.325	503.88
239.559	513.88
239.793	527.88
240.027	538.88
240.26	553.88
240.494	555.88
240.728	608.88
240.961	634.88
241.195	655.88
241.429	703.88
241.662	743.88
241.896	808.88
242.13	967.88
242.363	1316.88
242.597	1687.88
242.83	1603.88
243.064	1607.88
243.298	1918.88
243.531	1566.88
243.765	1027.88
243.998	831.88
244.232	725.88
244.465	693.88
244.699	677.88
244.932	673.88
245.166	676.88
245.399	699.88
245.633	719.88
245.866	697.88
246.099	666.88
246.333	641.88
246.566	647.88
246.8	651.88
247.033	679.88
247.266	653.88
247.5	670.88
247.733	675.88
247.966	714.88
248.2	812.88
248.433	903.88
248.666	1012.88
248.899	968.88
249.133	866.88
249.366	901.88
249.599	1018.88
249.832	1124.88
250.066	1130.88
250.299	909.88
250.532	772.88
250.765	775.88
250.998	733.88
251.231	743.88
251.465	726.88
251.698	724.88
251.931	743.88
252.164	736.88
252.397	770.88
252.63	781.88
252.863	795.88
253.096	800.88
253.329	807.88
253.562	783.88
253.795	777.88
254.028	822.88
254.261	811.88
254.494	877.88
254.727	1053.88
254.96	1250.88
255.193	1266.88
255.426	988.88
255.659	934.88
255.892	888.88
256.124	883.88
256.357	900.88
256.59	934.88
256.823	992.88
257.056	1139.88
257.289	1423.88
257.521	1512.88
257.754	1237.88
257.987	996.88
258.22	923.88
258.452	935.88
258.685	934.88
258.918	951.88
259.151	1023.88
259.383	1103.88
259.616	1251.88
259.849	1336.88
260.081	1097.88
260.314	1021.88
260.547	980.88
260.779	957.88
261.012	969.88
261.244	993.88
261.477	972.88
261.71	1003.88
261.942	1011.88
262.175	1021.88
262.407	1033.88
262.64	1018.88
262.872	1113.88
263.105	1146.88
263.337	1195.88
263.57	1274.88
263.802	1323.88
264.035	1347.88
264.267	1370.88
264.499	1370.88
264.732	1412.88
264.964	1443.88
265.197	1442.88
265.429	1449.88
265.661	1492.88
265.894	1563.88
266.126	1730.88
266.358	2007.88
266.591	1941.88
266.823	1643.88
267.055	1468.88
267.287	1389.88
267.52	1359.88
267.752	1302.88
267.984	1251.88
268.216	1281.88
268.448	1252.88
268.681	1279.88
268.913	1223.88
269.145	1238.88
269.377	1204.88
269.609	1307.88
269.841	1297.88
270.073	1393.88
270.306	1663.88
270.538	2258.88
270.77	3379.88
271.002	4127.88
271.234	2920.88
271.466	1955.88
271.698	1587.88
271.93	1430.88
272.162	1327.88
272.394	1329.88
272.626	1279.88
272.858	1248.88
273.09	1243.88
273.322	1181.88
273.553	1230.88
273.785	1235.88
274.017	1244.88
274.249	1228.88
274.481	1226.88
274.713	1222.88
274.945	1216.88
275.176	1184.88
275.408	1249.88
275.64	1224.88
275.872	1224.88
276.104	1256.88
276.335	1243.88
276.567	1255.88
276.799	1277.88
277.031	1311.88
277.262	1372.88
277.494	1413.88
277.726	1599.88
277.957	1935.88
278.189	2215.88
278.421	2046.88
278.652	1847.88
278.884	1715.88
279.115	1515.88
279.347	1440.88
279.579	1408.88
279.81	1406.88
280.042	1409.88
280.273	1427.88
280.505	1468.88
280.736	1517.88
280.968	1596.88
281.199	1815.88
281.431	2089.88
281.662	2174.88
281.894	1862.88
282.125	1662.88
282.356	1652.88
282.588	1717.88
282.819	1747.88
283.051	1868.88
283.282	2060.88
283.513	2549.88
283.745	3772.88
283.976	5950.88
284.207	8527.88
284.439	7708.88
284.67	4732.88
284.901	3880.88
285.132	3905.88
285.364	3722.88
285.595	2825.88
285.826	2556.88
286.057	2945.88
286.288	4071.88
286.52	5508.88
286.751	5102.88
286.982	3168.88
287.213	2339.88
287.444	2033.88
287.675	1919.88
287.906	1835.88
288.138	1752.88
288.369	1764.88
288.6	1720.88
288.831	1697.88
289.062	1717.88
289.293	1704.88
289.524	1721.88
289.755	1728.88
289.986	1717.88
290.217	1746.88
290.448	1754.88
290.679	1773.88
290.91	1819.88
291.141	1926.88
291.371	2079.88
291.602	2188.88
291.833	1961.88
292.064	1806.88
292.295	1722.88
292.526	1629.88
292.757	1649.88
292.987	1611.88
293.218	1589.88
293.449	1630.88
293.68	1609.88
293.91	1608.88
294.141	1564.88
294.372	1564.88
294.603	1592.88
294.833	1586.88
295.064	1607.88
295.295	1603.88
295.525	1538.88
295.756	1571.88
295.987	1545.88
296.217	1556.88
296.448	1585.88
296.679	1608.88
296.909	1610.88
297.14	1613.88
297.37	1656.88
297.601	1643.88
297.831	1659.88
298.062	1645.88
298.292	1669.88
298.523	1681.88
298.753	1741.88
298.984	1744.88
299.214	1785.88
299.445	1770.88
299.675	1793.88
299.905	1884.88
300.136	1955.88
300.366	2195.88
300.597	2889.88
300.827	4008.88
301.057	5476.88
301.288	5470.88
301.518	3543.88
301.748	2695.88
301.979	2423.88
302.209	2321.88
302.439	2363.88
302.669	2514.88
302.9	3028.88
303.13	4328.88
303.36	6455.88
303.59	8715.88
303.82	7597.88
304.051	4402.88
304.281	3127.88
304.511	2571.88
304.741	2399.88
304.971	2239.88
305.201	2093.88
305.431	2083.88
305.661	1973.88
305.891	1967.88
306.121	1918.88
306.352	1884.88
306.582	1900.88
306.812	1866.88
307.042	1907.88
307.272	1868.88
307.502	1850.88
307.731	1867.88
307.961	1865.88
308.191	1812.88
308.421	1869.88
308.651	1820.88
308.881	1801.88
309.111	1829.88
309.341	1807.88
309.571	1863.88
309.8	1850.88
310.03	1886.88
310.26	1886.88
310.49	1888.88
310.72	1868.88
310.949	1881.88
311.179	1923.88
311.409	1961.88
311.639	1939.88
311.868	1946.88
312.098	1953.88
312.328	2001.88
312.557	1989.88
312.787	1977.88
313.017	2035.88
313.246	2041.88
313.476	2027.88
313.706	2107.88
313.935	2260.88
314.165	2374.88
314.394	2515.88
314.624	2391.88
314.853	2185.88
315.083	2146.88
315.312	2186.88
315.542	2213.88
315.771	2234.88
316.001	2263.88
316.23	2363.88
316.46	2488.88
316.689	2751.88
316.919	3330.88
317.148	4780.88
317.377	7441.88
317.607	10997.88
317.836	11461.88
318.065	6964.88
318.295	4385.88
318.524	3503.88
318.753	3022.88
318.983	2755.88
319.212	2598.88
319.441	2550.88
319.67	2480.88
319.9	2413.88
320.129	2419.88
320.358	2424.88
320.587	2345.88
320.816	2408.88
321.046	2373.88
321.275	2372.88
321.504	2433.88
321.733	2447.88
321.962	2524.88
322.191	2561.88
322.42	2529.88
322.649	2530.88
322.878	2544.88
323.108	2528.88
323.337	2545.88
323.566	2581.88
323.795	2645.88
324.024	2729.88
324.253	2791.88
324.482	2841.88
324.71	3102.88
324.939	3290.88
325.168	3339.88
325.397	3453.88
325.626	4153.88
325.855	5912.88
326.084	9079.88
326.313	13221.88
326.542	13899.88
326.77	9573.88
326.999	6139.88
327.228	5103.88
327.457	4911.88
327.686	4965.88
327.914	5287.88
328.143	6161.88
328.372	7416.88
328.6	8164.88
328.829	7213.88
329.058	6000.88
329.287	5171.88
329.515	4682.88
329.744	4371.88
329.972	4121.88
330.201	3897.88
330.43	3784.88
330.658	3642.88
330.887	3570.88
331.115	3529.88
331.344	3549.88
331.572	3516.88
331.801	3524.88
332.03	3529.88
332.258	3580.88
332.486	3789.88
332.715	4368.88
332.943	5387.88
333.172	6849.88
333.4	6854.88
333.629	5109.88
333.857	4611.88
334.085	4631.88
334.314	4821.88
334.542	5205.88
334.771	6207.88
334.999	7644.88
335.227	9695.88
335.455	10847.88
335.684	9688.88
335.912	7877.88
336.14	6643.88
336.369	5830.88
336.597	5346.88
336.825	4884.88
337.053	4610.88
337.281	4295.88
337.51	4073.88
337.738	3882.88
337.966	3719.88
338.194	3654.88
338.422	3519.88
338.65	3399.88
338.878	3405.88
339.106	3232.88
339.334	3223.88
339.562	3166.88
339.79	3125.88
340.018	3050.88
340.246	3071.88
340.474	3031.88
340.702	3028.88
340.93	3011.88
341.158	3058.88
341.386	3029.88
341.614	3023.88
341.842	2941.88
342.07	2925.88
342.298	2848.88
342.526	2749.88
342.754	2767.88
342.981	2751.88
343.209	2745.88
343.437	2718.88
343.665	2809.88
343.893	2827.88
344.12	2885.88
344.348	2833.88
344.576	2712.88
344.804	2697.88
345.031	2630.88
345.259	2649.88
345.487	2583.88
345.714	2596.88
345.942	2533.88
346.17	2574.88
346.397	2569.88
346.625	2527.88
346.853	2569.88
347.08	2531.88
347.308	2561.88
347.535	2549.88
347.763	2587.88
347.99	2471.88
348.218	2449.88
348.445	2492.88
348.673	2500.88
348.9	2470.88
349.128	2474.88
349.355	2477.88
349.583	2479.88
349.81	2389.88
350.037	2395.88
350.265	2441.88
350.492	2451.88
350.72	2404.88
350.947	2396.88
351.174	2417.88
351.402	2419.88
351.629	2424.88
351.856	2427.88
352.083	2433.88
352.311	2388.88
352.538	2389.88
352.765	2415.88
352.992	2406.88
353.22	2435.88
353.447	2407.88
353.674	2391.88
353.901	2420.88
354.128	2419.88
354.355	2435.88
354.583	2406.88
354.81	2405.88
355.037	2445.88
355.264	2469.88
355.491	2443.88
355.718	2421.88
355.945	2375.88
356.172	2477.88
356.399	2445.88
356.626	2489.88
356.853	2542.88
357.08	2544.88
357.307	2610.88
357.534	2587.88
357.761	2630.88
357.988	2593.88
358.215	2584.88
358.441	2604.88
358.668	2555.88
358.895	2581.88
359.122	2554.88
359.349	2545.88
359.576	2545.88
359.802	2552.88
360.029	2543.88
360.256	2524.88
360.483	2560.88
360.709	2548.88
360.936	2557.88
361.163	2552.88
361.39	2577.88
361.616	2621.88
361.843	2600.88
362.07	2582.88
362.296	2575.88
362.523	2565.88
362.749	2577.88
362.976	2557.88
363.203	2548.88
363.429	2545.88
363.656	2566.88
363.882	2577.88
364.109	2584.88
364.335	2532.88
364.562	2556.88
364.788	2568.88
365.015	2636.88
365.241	2691.88
365.468	2847.88
365.694	2959.88
365.92	2855.88
366.147	2633.88
366.373	2629.88
366.599	2658.88
366.826	2610.88
367.052	2591.88
367.278	2683.88
367.505	2571.88
367.731	2577.88
367.957	2619.88
368.184	2626.88
368.41	2667.88
368.636	2681.88
368.862	2667.88
369.089	2668.88
369.315	2636.88
369.541	2660.88
369.767	2694.88
369.993	2625.88
370.219	2639.88
370.445	2621.88
370.672	2684.88
370.898	2656.88
371.124	2644.88
371.35	2747.88
371.576	2725.88
371.802	2756.88
372.028	2743.88
372.254	2756.88
372.48	2732.88
372.706	2770.88
372.932	2863.88
373.158	2801.88
373.384	2794.88
373.61	2807.88
373.835	2788.88
374.061	2797.88
374.287	2799.88
374.513	2871.88
374.739	2936.88
374.965	2978.88
375.191	2915.88
375.416	2904.88
375.642	2863.88
375.868	2854.88
376.094	2787.88
376.319	2767.88
376.545	2764.88
376.771	2772.88
376.997	2772.88
377.222	2710.88
377.448	2749.88
377.674	2727.88
377.899	2755.88
378.125	2755.88
378.35	2764.88
378.576	2772.88
378.802	2756.88
379.027	2855.88
379.253	2893.88
379.478	3050.88
379.704	3656.88
379.929	5306.88
380.155	8241.88
380.38	9012.88
380.606	5467.88
380.831	3749.88
381.057	3318.88
381.282	3015.88
381.507	2917.88
381.733	2842.88
381.958	2722.88
382.184	2722.88
382.409	2751.88
382.634	2716.88
382.86	2699.88
383.085	2705.88
383.31	2744.88
383.535	2762.88
383.761	2716.88
383.986	2696.88
384.211	2736.88
384.436	2759.88
384.662	2799.88
384.887	2776.88
385.112	2761.88
385.337	2799.88
385.562	2809.88
385.787	2765.88
386.013	2797.88
386.238	2832.88
386.463	2804.88
386.688	2735.88
386.913	2747.88
387.138	2762.88
387.363	2752.88
387.588	2740.88
387.813	2771.88
388.038	2788.88
388.263	2746.88
388.488	2807.88
388.713	2749.88
388.938	2741.88
389.163	2748.88
389.387	2799.88
389.612	2753.88
389.837	2796.88
390.062	2762.88
390.287	2750.88
390.512	2814.88
390.736	2839.88
390.961	2837.88
391.186	2920.88
391.411	2875.88
391.636	2893.88
391.86	2920.88
392.085	2964.88
392.31	2889.88
392.534	2918.88
392.759	2908.88
392.984	2850.88
393.208	2851.88
393.433	2896.88
393.658	2836.88
393.882	2786.88
394.107	2843.88
394.331	2834.88
394.556	2820.88
394.78	2832.88
395.005	2877.88
395.229	2815.88
395.454	2895.88
395.678	2893.88
395.903	2874.88
396.127	2872.88
396.352	2863.88
396.576	2845.88
396.801	2902.88
397.025	2982.88
397.249	2912.88
397.474	2858.88
397.698	2909.88
397.922	2931.88
398.147	2910.88
398.371	2974.88
398.595	3005.88
398.82	3071.88
399.044	3240.88
399.268	3372.88
399.492	3539.88
399.717	3695.88
399.941	3670.88
400.165	3542.88
400.389	3418.88
400.613	3308.88
400.837	3217.88
401.062	3114.88
401.286	3157.88
401.51	3049.88
401.734	2995.88
401.958	3098.88
402.182	3046.88
402.406	3015.88
402.63	3091.88
402.854	3090.88
403.078	3118.88
403.302	3103.88
403.526	3188.88
403.75	3145.88
403.974	3179.88
404.198	3167.88
404.422	3200.88
404.645	3203.88
404.869	3252.88
405.093	3177.88
405.317	3149.88
405.541	3236.88
405.765	3226.88
405.988	3324.88
406.212	3293.88
406.436	3240.88
406.66	3272.88
406.883	3316.88
407.107	3421.88
407.331	3423.88
407.555	3429.88
407.778	3469.88
408.002	3437.88
408.226	3381.88
408.449	3434.88
408.673	3310.88
408.896	3303.88
409.12	3267.88
409.344	3284.88
409.567	3151.88
409.791	3158.88
410.014	3174.88
410.238	3144.88
410.461	3153.88
410.685	3141.88
410.908	3117.88
411.132	3074.88
411.355	3027.88
411.578	3040.88
411.802	3040.88
412.025	3036.88
412.249	3092.88
412.472	3123.88
412.695	2994.88
412.919	3022.88
413.142	2981.88
413.365	2959.88
413.589	3007.88
413.812	2954.88
414.035	2973.88
414.258	2999.88
414.482	3012.88
414.705	3032.88
414.928	3004.88
415.151	3001.88
415.374	2964.88
415.597	2964.88
415.821	2893.88
416.044	2908.88
416.267	2883.88
416.49	2859.88
416.713	2901.88
416.936	2919.88
417.159	2861.88
417.382	2832.88
417.605	2844.88
417.828	2886.88
418.051	2883.88
418.274	2882.88
418.497	2904.88
418.72	2996.88
418.943	2918.88
419.166	3057.88
419.389	3263.88
419.611	3205.88
419.834	3088.88
420.057	2983.88
420.28	2964.88
420.503	2897.88
420.726	2893.88
420.948	2906.88
421.171	2879.88
421.394	2920.88
421.617	2913.88
421.839	2893.88
422.062	2919.88
422.285	2871.88
422.507	2949.88
422.73	2945.88
422.953	3012.88
423.175	3008.88
423.398	3001.88
423.621	2936.88
423.843	2924.88
424.066	2895.88
424.288	2876.88
424.511	2853.88
424.733	2785.88
424.956	2847.88
425.178	2877.88
425.401	2862.88
425.623	2840.88
425.846	2797.88
426.068	2808.88
426.291	2755.88
426.513	2731.88
426.735	2784.88
426.958	2764.88
427.18	2699.88
427.402	2783.88
427.625	2731.88
427.847	2659.88
428.069	2691.88
428.292	2763.88
428.514	2657.88
428.736	2687.88
428.958	2722.88
429.181	2635.88
429.403	2636.88
429.625	2617.88
429.847	2664.88
430.069	2759.88
430.292	2824.88
430.514	2911.88
430.736	2881.88
430.958	2726.88
431.18	2647.88
431.402	2659.88
431.624	2597.88
431.846	2626.88
432.068	2652.88
432.29	2673.88
432.512	2609.88
432.734	2687.88
432.956	2635.88
433.178	2703.88
433.4	2668.88
433.622	2677.88
433.844	2715.88
434.066	2623.88
434.287	2661.88
434.509	2636.88
434.731	2759.88
434.953	2806.88
435.175	2746.88
435.397	2761.88
435.618	2687.88
435.84	2721.88
436.062	2680.88
436.284	2653.88
436.505	2636.88
436.727	2627.88
436.949	2609.88
437.17	2574.88
437.392	2552.88
437.614	2611.88
437.835	2507.88
438.057	2611.88
438.278	2520.88
438.5	2557.88
438.721	2635.88
438.943	2710.88
439.165	2756.88
439.386	2801.88
439.608	2721.88
439.829	2753.88
440.05	2882.88
440.272	2867.88
440.493	2757.88
440.715	2699.88
440.936	2749.88
441.158	2735.88
441.379	2825.88
441.6	2922.88
441.822	2994.88
442.043	3133.88
442.264	3208.88
442.486	3003.88
442.707	2892.88
442.928	2867.88
443.149	2885.88
443.371	2865.88
443.592	2840.88
443.813	2863.88
444.034	2886.88
444.255	2870.88
444.476	2939.88
444.698	2961.88
444.919	3027.88
445.14	3028.88
445.361	2965.88
445.582	2900.88
445.803	2825.88
446.024	2788.88
446.245	2838.88
446.466	2827.88
446.687	2804.88
446.908	2765.88
447.129	2729.88
447.35	2663.88
447.571	2659.88
447.792	2607.88
448.013	2611.88
448.234	2582.88
448.455	2611.88
448.675	2622.88
448.896	2707.88
449.117	2788.88
449.338	2992.88
449.559	3148.88
449.779	2852.88
450	2638.88
450.221	2586.88
450.442	2579.88
450.662	2574.88
450.883	2541.88
451.104	2545.88
451.324	2546.88
451.545	2519.88
451.766	2597.88
451.986	2628.88
452.207	2882.88
452.428	3751.88
452.648	5643.88
452.869	4758.88
453.089	3231.88
453.31	2997.88
453.53	3057.88
453.751	3099.88
453.971	3265.88
454.192	3202.88
454.412	2728.88
454.633	2557.88
454.853	2535.88
455.073	2476.88
455.294	2494.88
455.514	2449.88
455.734	2434.88
455.955	2400.88
456.175	2404.88
456.395	2424.88
456.616	2480.88
456.836	2482.88
457.056	2495.88
457.276	2487.88
457.497	2677.88
457.717	2697.88
457.937	2565.88
458.157	2585.88
458.377	2567.88
458.598	2617.88
458.818	2604.88
459.038	2606.88
459.258	2655.88
459.478	2692.88
459.698	2664.88
459.918	2767.88
460.138	2737.88
460.358	2820.88
460.578	2833.88
460.798	2867.88
461.018	2902.88
461.238	2886.88
461.458	2861.88
461.678	2915.88
461.898	3014.88
462.118	3059.88
462.338	3114.88
462.558	3044.88
462.777	3141.88
462.997	3357.88
463.217	3369.88
463.437	3515.88
463.657	3617.88
463.876	3623.88
464.096	3364.88
464.316	3246.88
464.536	3195.88
464.755	3121.88
464.975	3059.88
465.195	2963.88
465.414	2845.88
465.634	2743.88
465.854	2747.88
466.073	2716.88
466.293	2679.88
466.512	2644.88
466.732	2744.88
466.951	2891.88
467.171	3023.88
467.391	2973.88
467.61	2669.88
467.829	2643.88
468.049	2621.88
468.268	2588.88
468.488	2537.88
468.707	2590.88
468.927	2591.88
469.146	2585.88
469.365	2625.88
469.585	2626.88
469.804	2713.88
470.023	2795.88
470.243	2801.88
470.462	2837.88
470.681	3051.88
470.901	3370.88
471.12	3883.88
471.339	3880.88
471.558	3220.88
471.777	2893.88
471.997	2817.88
472.216	2780.88
472.435	2693.88
472.654	2631.88
472.873	2601.88
473.092	2635.88
473.311	2619.88
473.53	2631.88
473.749	2728.88
473.968	2830.88
474.187	2679.88
474.406	2639.88
474.625	2636.88
474.844	2659.88
475.063	2650.88
475.282	2625.88
475.501	2663.88
475.72	2644.88
475.939	2689.88
476.158	2719.88
476.377	2828.88
476.596	2771.88
476.814	2777.88
477.033	2745.88
477.252	2802.88
477.471	2821.88
477.69	2842.88
477.908	2959.88
478.127	2985.88
478.346	2985.88
478.564	2999.88
478.783	3026.88
479.002	3162.88
479.22	3088.88
479.439	3164.88
479.658	3119.88
479.876	3156.88
480.095	3156.88
480.313	3230.88
480.532	3228.88
480.751	3274.88
480.969	3185.88
481.188	3104.88
481.406	3164.88
481.624	3155.88
481.843	3226.88
482.061	3221.88
482.28	3192.88
482.498	3153.88
482.717	3100.88
482.935	3217.88
483.153	3253.88
483.372	3289.88
483.59	3365.88
483.808	3382.88
484.027	3449.88
484.245	3657.88
484.463	4131.88
484.681	4649.88
484.9	4263.88
485.118	3885.88
485.336	3818.88
485.554	3886.88
485.772	4095.88
485.99	4678.88
486.209	5014.88
486.427	4153.88
486.645	3750.88
486.863	3579.88
487.081	3502.88
487.299	3396.88
487.517	3425.88
487.735	3399.88
487.953	3426.88
488.171	3391.88
488.389	3345.88
488.607	3274.88
488.825	3296.88
489.043	3242.88
489.261	3210.88
489.479	3247.88
489.696	3266.88
489.914	3313.88
490.132	3366.88
490.35	3309.88
490.568	3311.88
490.786	3388.88
491.003	3366.88
491.221	3422.88
491.439	3418.88
491.657	3377.88
491.874	3397.88
492.092	3421.88
492.31	3459.88
492.527	3457.88
492.745	3371.88
492.963	3400.88
493.18	3422.88
493.398	3438.88
493.615	3395.88
493.833	3437.88
494.05	3417.88
494.268	3400.88
494.485	3462.88
494.703	3483.88
494.92	3482.88
495.138	3419.88
495.355	3513.88
495.573	3515.88
495.79	3451.88
496.008	3573.88
496.225	3530.88
496.442	3604.88
496.66	3753.88
496.877	3956.88
497.094	3861.88
497.312	3743.88
497.529	3785.88
497.746	3776.88
497.963	3848.88
498.181	3906.88
498.398	4023.88
498.615	4103.88
498.832	4231.88
499.049	4479.88
499.267	4847.88
499.484	5097.88
499.701	5107.88
499.918	5189.88
500.135	5479.88
500.352	5721.88
500.569	5747.88
500.786	5705.88
501.003	5535.88
501.22	5291.88
501.437	5037.88
501.654	4734.88
501.871	4632.88
502.088	4403.88
502.305	4262.88
502.522	4150.88
502.739	4039.88
502.956	3912.88
503.172	3841.88
503.389	3760.88
503.606	3650.88
503.823	3655.88
504.04	3588.88
504.256	3547.88
504.473	3586.88
504.69	3559.88
504.907	3520.88
505.123	3479.88
505.34	3395.88
505.557	3262.88
505.773	3254.88
505.99	3251.88
506.207	3158.88
506.423	3134.88
506.64	3096.88
506.856	3044.88
507.073	3060.88
507.289	3117.88
507.506	3032.88
507.722	3011.88
507.939	3029.88
508.155	2963.88
508.372	3003.88
508.588	2937.88
508.805	2994.88
509.021	2943.88
509.238	2995.88
509.454	3167.88
509.67	3418.88
509.887	3195.88
510.103	3055.88
510.319	2959.88
510.536	2931.88
510.752	2994.88
510.968	2922.88
511.184	2906.88
511.401	2931.88
511.617	2835.88
511.833	2872.88
512.049	2866.88
512.265	2859.88
512.481	2857.88
512.698	2777.88
512.914	2846.88
513.13	2888.88
513.346	2857.88
513.562	2851.88
513.778	2908.88
513.994	2899.88
514.21	2937.88
514.426	3159.88
514.642	3308.88
514.858	3036.88
515.074	2949.88
515.29	2930.88
515.506	2902.88
515.721	2907.88
515.937	2928.88
516.153	2931.88
516.369	2969.88
516.585	3000.88
516.801	3025.88
517.016	3088.88
517.232	3180.88
517.448	3213.88
517.664	3292.88
517.879	3201.88
518.095	3267.88
518.311	3305.88
518.527	3154.88
518.742	3147.88
518.958	3229.88
519.173	3284.88
519.389	3105.88
519.605	2988.88
519.82	2964.88
520.036	2920.88
520.251	2900.88
520.467	2894.88
520.682	2856.88
520.898	2822.88
521.113	2744.88
521.329	2784.88
521.544	2779.88
521.76	2814.88
521.975	2784.88
522.19	2808.88
522.406	2755.88
522.621	2745.88
522.836	2693.88
523.052	2728.88
523.267	2752.88
523.482	2729.88
523.698	2693.88
523.913	2715.88
524.128	2684.88
524.343	2772.88
524.559	2726.88
524.774	2757.88
524.989	2732.88
525.204	2730.88
525.419	2661.88
525.634	2687.88
525.849	2707.88
526.064	2792.88
526.28	2724.88
526.495	2731.88
526.71	2741.88
526.925	2720.88
527.14	2735.88
527.355	2738.88
527.57	2788.88
527.785	2782.88
527.999	2770.88
528.214	2827.88
528.429	2821.88
528.644	2833.88
528.859	2864.88
529.074	2899.88
529.289	2954.88
529.503	2959.88
529.718	2953.88
529.933	2941.88
530.148	2856.88
530.363	2920.88
530.577	2884.88
530.792	2947.88
531.007	2904.88
531.221	3011.88
531.436	3041.88
531.651	2999.88
531.865	3079.88
532.08	3147.88
532.295	3241.88
532.509	3420.88
532.724	3477.88
532.938	3479.88
533.153	3597.88
533.367	3962.88
533.582	4145.88
533.796	4021.88
534.011	3911.88
534.225	3713.88
534.44	3583.88
534.654	3476.88
534.868	3438.88
535.083	3314.88
535.297	3329.88
535.511	3195.88
535.726	3157.88
535.94	3112.88
536.154	3080.88
536.369	2995.88
536.583	2957.88
536.797	2931.88
537.011	2880.88
537.225	2803.88
537.44	2809.88
537.654	2873.88
537.868	2796.88
538.082	2755.88
538.296	2750.88
538.51	2737.88
538.724	2774.88
538.938	2725.88
539.153	2707.88
539.367	2741.88
539.581	2725.88
539.795	2661.88
540.009	2632.88
540.222	2638.88
540.436	2655.88
540.65	2647.88
540.864	2665.88
541.078	2687.88
541.292	2888.88
541.506	3380.88
541.72	3563.88
541.934	3122.88
542.147	2934.88
542.361	2784.88
542.575	2673.88
542.789	2625.88
543.002	2594.88
543.216	2573.88
543.43	2548.88
543.644	2530.88
543.857	2582.88
544.071	2594.88
544.285	2574.88
544.498	2567.88
544.712	2552.88
544.925	2553.88
545.139	2584.88
545.352	2577.88
545.566	2552.88
545.779	2556.88
545.993	2627.88
546.206	2626.88
546.42	2543.88
546.633	2531.88
546.847	2577.88
547.06	2585.88
547.274	2598.88
547.487	2597.88
547.7	2609.88
547.914	2570.88
548.127	2546.88
548.34	2541.88
548.554	2539.88
548.767	2596.88
548.98	2565.88
549.193	2536.88
549.407	2534.88
549.62	2597.88
549.833	2595.88
550.046	2600.88
550.259	2547.88
550.473	2551.88
550.686	2577.88
550.899	2553.88
551.112	2551.88
551.325	2576.88
551.538	2608.88
551.751	2539.88
551.964	2593.88
552.177	2642.88
552.39	2625.88
552.603	2725.88
552.816	2766.88
553.029	2815.88
553.242	2835.88
553.455	2877.88
553.667	2880.88
553.88	2893.88
554.093	2899.88
554.306	2887.88
554.519	2938.88
554.732	3020.88
554.944	3009.88
555.157	3100.88
555.37	3163.88
555.583	3301.88
555.795	3561.88
556.008	3795.88
556.221	4274.88
556.433	4635.88
556.646	4667.88
556.859	4411.88
557.071	4168.88
557.284	4124.88
557.496	3961.88
557.709	3849.88
557.921	3833.88
558.134	3818.88
558.346	3882.88
558.559	4064.88
558.771	4221.88
558.984	4644.88
559.196	5097.88
559.409	4803.88
559.621	4383.88
559.833	4085.88
560.046	3875.88
560.258	3618.88
560.47	3496.88
560.683	3282.88
560.895	3232.88
561.107	3124.88
561.32	2959.88
561.532	2908.88
561.744	2823.88
561.956	2821.88
562.168	2701.88
562.381	2634.88
562.593	2678.88
562.805	2692.88
563.017	2713.88
563.229	2780.88
563.441	3341.88
563.653	2736.88
563.865	2495.88
564.077	2490.88
564.289	2407.88
564.501	2431.88
564.713	2409.88
564.925	2389.88
565.137	2421.88
565.349	2388.88
565.561	2388.88
565.773	2430.88
565.985	2449.88
566.197	2459.88
566.408	2493.88
566.62	2528.88
566.832	2609.88
567.044	2611.88
567.255	2627.88
567.467	2680.88
567.679	2779.88
567.891	2871.88
568.102	3142.88
568.314	3676.88
568.526	3173.88
568.737	2724.88
568.949	2492.88
569.161	2369.88
569.372	2280.88
569.584	2229.88
569.795	2191.88
570.007	2181.88
570.218	2265.88
570.43	2319.88
570.641	2106.88
570.853	2033.88
571.064	2036.88
571.276	1997.88
571.487	1917.88
571.698	1895.88
571.91	1877.88
572.121	1914.88
572.333	1873.88
572.544	1904.88
572.755	2047.88
572.966	2410.88
573.178	2192.88
573.389	1911.88
573.6	1853.88
573.811	1787.88
574.023	1781.88
574.234	1774.88
574.445	1737.88
574.656	1710.88
574.867	1715.88
575.078	1696.88
575.289	1745.88
575.501	1770.88
575.712	1727.88
575.923	1708.88
576.134	1725.88
576.345	1707.88
576.556	1732.88
576.767	1711.88
576.978	1766.88
577.188	1778.88
577.399	1733.88
577.61	1754.88
577.821	1781.88
578.032	1807.88
578.243	1836.88
578.454	1917.88
578.665	1887.88
578.875	1921.88
579.086	2009.88
579.297	2148.88
579.508	2247.88
579.718	2508.88
579.929	2897.88
580.14	3434.88
580.35	3444.88
580.561	3155.88
580.772	2790.88
580.982	2574.88
581.193	2419.88
581.403	2299.88
581.614	2123.88
581.825	2061.88
582.035	1988.88
582.246	1927.88
582.456	1816.88
582.667	1843.88
582.877	1809.88
583.087	1764.88
583.298	1665.88
583.508	1638.88
583.719	1607.88
583.929	1587.88
584.139	1538.88
584.35	1523.88
584.56	1489.88
584.77	1494.88
584.981	1448.88
585.191	1439.88
585.401	1417.88
585.611	1400.88
585.821	1388.88
586.032	1387.88
586.242	1349.88
586.452	1316.88
586.662	1341.88
586.872	1347.88
587.082	1293.88
587.292	1299.88
587.502	1297.88
587.713	1271.88
587.923	1273.88
588.133	1231.88
588.343	1242.88
588.553	1233.88
588.762	1228.88
588.972	1245.88
589.182	1270.88
589.392	1224.88
589.602	1181.88
589.812	1236.88
590.022	1180.88
590.232	1183.88
590.441	1201.88
590.651	1148.88
590.861	1201.88
591.071	1211.88
591.281	1161.88
591.49	1144.88
591.7	1197.88
591.91	1183.88
592.119	1169.88
592.329	1207.88
592.539	1207.88
592.748	1199.88
592.958	1216.88
593.167	1191.88
593.377	1222.88
593.587	1233.88
593.796	1249.88
594.006	1227.88
594.215	1232.88
594.424	1218.88
594.634	1186.88
594.843	1179.88
595.053	1191.88
595.262	1168.88
595.472	1105.88
595.681	1147.88
595.89	1121.88
596.1	1100.88
596.309	1079.88
596.518	1079.88
596.727	1082.88
596.937	1068.88
597.146	1036.88
597.355	1042.88
597.564	1021.88
597.774	1019.88
597.983	1000.88
598.192	979.88
598.401	990.88
598.61	990.88
598.819	993.88
599.028	954.88
599.237	957.88
599.446	985.88
599.655	959.88
599.864	957.88
600.073	945.88
600.282	955.88
600.491	956.88
600.7	961.88
600.909	960.88
601.118	938.88
601.327	971.88
601.536	963.88
601.745	969.88
601.953	1080.88
602.162	1237.88
602.371	1071.88
602.58	994.88
602.789	949.88
602.997	924.88
603.206	943.88
603.415	940.88
603.623	941.88
603.832	923.88
604.041	947.88
604.249	901.88
604.458	933.88
604.666	891.88
604.875	901.88
605.084	908.88
605.292	901.88
605.501	906.88
605.709	888.88
605.918	924.88
606.126	895.88
606.334	932.88
606.543	947.88
606.751	1012.88
606.96	1147.88
607.168	1249.88
607.376	1075.88
607.585	979.88
607.793	935.88
608.001	911.88
608.21	915.88
608.418	873.88
608.626	892.88
608.834	865.88
609.043	883.88
609.251	844.88
609.459	866.88
609.667	849.88
609.875	863.88
610.083	833.88
610.291	825.88
610.499	844.88
610.707	852.88
610.916	840.88
611.124	825.88
611.332	852.88
611.54	832.88
611.748	818.88
611.955	817.88
612.163	785.88
612.371	828.88
612.579	833.88
612.787	820.88
612.995	786.88
613.203	808.88
613.411	776.88
613.618	819.88
613.826	792.88
614.034	804.88
614.242	793.88
614.449	772.88
614.657	788.88
614.865	779.88
615.072	811.88
615.28	800.88
615.488	802.88
615.695	788.88
615.903	800.88
616.111	800.88
616.318	803.88
616.526	795.88
616.733	762.88
616.941	798.88
617.148	780.88
617.356	802.88
617.563	770.88
617.771	784.88
617.978	751.88
618.185	755.88
618.393	770.88
618.6	765.88
618.807	785.88
619.015	791.88
619.222	753.88
619.429	739.88
619.637	735.88
619.844	731.88
620.051	722.88
620.258	735.88
620.466	711.88
620.673	705.88
620.88	707.88
621.087	708.88
621.294	692.88
621.501	707.88
621.708	696.88
621.915	716.88
622.122	703.88
622.329	695.88
622.536	712.88
622.743	673.88
622.95	714.88
623.157	702.88
623.364	698.88
623.571	705.88
623.778	689.88
623.985	691.88
624.192	693.88
624.399	680.88
624.606	692.88
624.812	665.88
625.019	681.88
625.226	647.88
625.433	638.88
625.639	653.88
625.846	668.88
626.053	645.88
626.259	664.88
626.466	651.88
626.673	612.88
626.879	638.88
627.086	650.88
627.293	629.88
627.499	636.88
627.706	655.88
627.912	634.88
628.119	665.88
628.325	643.88
628.532	655.88
628.738	655.88
628.945	630.88
629.151	612.88
629.357	614.88
629.564	623.88
629.77	599.88
629.976	605.88
630.183	602.88
630.389	610.88
630.595	595.88
630.802	588.88
631.008	620.88
631.214	606.88
631.42	631.88
631.627	588.88
631.833	581.88
632.039	583.88
632.245	621.88
632.451	589.88
632.657	600.88
632.863	593.88
633.069	603.88
633.275	590.88
633.481	565.88
633.688	568.88
633.893	584.88
634.099	595.88
634.305	597.88
634.511	575.88
634.717	611.88
634.923	611.88
635.129	714.88
635.335	781.88
635.541	685.88
635.747	637.88
635.952	616.88
636.158	592.88
636.364	631.88
636.57	598.88
636.775	597.88
636.981	595.88
637.187	594.88
637.392	573.88
637.598	587.88
637.804	592.88
638.009	599.88
638.215	593.88
638.421	599.88
638.626	577.88
638.832	591.88
639.037	580.88
639.243	607.88
639.448	588.88
639.654	623.88
639.859	612.88
640.065	607.88
640.27	628.88
640.475	624.88
640.681	629.88
640.886	625.88
641.091	648.88
641.297	647.88
641.502	630.88
641.707	655.88
641.913	660.88
642.118	677.88
642.323	673.88
642.528	671.88
642.733	698.88
642.939	729.88
643.144	730.88
643.349	753.88
643.554	806.88
643.759	831.88
643.964	874.88
644.169	912.88
644.374	993.88
644.579	1078.88
644.784	1194.88
644.989	1351.88
645.194	1621.88
645.399	1977.88
645.604	2116.88
645.809	1601.88
646.014	1191.88
646.219	1030.88
646.423	895.88
646.628	766.88
646.833	730.88
647.038	699.88
647.243	659.88
647.447	653.88
647.652	628.88
647.857	609.88
648.062	601.88
648.266	580.88
648.471	577.88
648.676	584.88
648.88	561.88
649.085	544.88
649.289	527.88
649.494	500.88
649.698	519.88
649.903	495.88
650.107	482.88
650.312	487.88
650.516	474.88
650.721	457.88
650.925	451.88
651.13	437.88
651.334	437.88
651.539	444.88
651.743	420.88
651.947	448.88
652.152	429.88
652.356	416.88
652.56	470.88
652.764	518.88
652.969	476.88
653.173	427.88
653.377	396.88
653.581	383.88
653.785	383.88
653.99	363.88
654.194	385.88
654.398	373.88
654.602	359.88
654.806	375.88
655.01	360.88
655.214	359.88
655.418	351.88
655.622	347.88
655.826	364.88
656.03	365.88
656.234	372.88
656.438	383.88
656.642	408.88
656.846	379.88
657.049	352.88
657.253	343.88
657.457	313.88
657.661	274.88
657.865	281.88
658.068	275.88
658.272	272.88
658.476	251.88
658.68	237.88
658.883	230.88
659.087	211.88
659.291	209.88
659.494	195.88
659.698	186.88
659.901	197.88
660.105	183.88
660.309	167.88
660.512	164.88
660.716	127.88
660.919	144.88
661.123	146.88
661.326	164.88
661.53	133.88
661.733	133.88
661.936	121.88
662.14	126.88
662.343	124.88
662.546	100.88
662.75	115.88
662.953	90.88
663.156	84.88
663.36	110.88
663.563	103.88
663.766	92.88
663.969	104.88
664.173	94.88
664.376	92.88
664.579	86.88
664.782	92.88
664.985	92.88
665.188	90.88
665.391	89.88
665.594	92.88
665.797	88.88
666	84.88
666.203	90.88
666.406	77.88
666.609	73.88
666.812	85.88
667.015	80.88
667.218	94.88
667.421	95.88
667.624	86.88
667.827	95.88
668.03	90.88
668.232	77.88
668.435	77.88
668.638	81.88
668.841	97.88
669.043	79.88
669.246	83.88
669.449	81.88
669.651	87.88
669.854	93.88
670.057	93.88
670.259	69.88
670.462	73.88
670.665	85.88
670.867	92.88
671.07	77.88
671.272	71.88
671.475	92.88
671.677	91.88
671.88	79.88
672.082	74.88
672.284	77.88
672.487	69.88
672.689	72.88
672.892	95.88
