Data from SnStandardFlinnAPT0064_LampEnergy5.5_LIBS07252019.E.O._I.C._HRD10591_15-15-03-491.txt Node
Date: Thu Jul 25 15:15:03 EDT 2019
User: cochatt
Spectrometer: HR+D1059
Trigger mode: 1
Integration Time (sec): 1.000000E-1
Scans to average: 1
Electric dark correction enabled: true
Nonlinearity correction enabled: false
Boxcar width: 0
XAxis mode: Wavelengths
Number of Pixels in Spectrum: 2048
>>>>>Begin Spectral Data<<<<<
223.165	-12.75
223.4	-12.75
223.635	-12.75
223.869	-7.75
224.104	-14.75
224.338	-1.75
224.573	-4.75
224.808	-10.75
225.042	-22.75
225.277	-15.75
225.511	1.25
225.746	6.25
225.98	-3.75
226.215	11.25
226.449	5.25
226.683	16.25
226.918	19.25
227.152	35.25
227.387	29.25
227.621	29.25
227.856	51.25
228.09	49.25
228.324	52.25
228.559	67.25
228.793	81.25
229.027	141.25
229.262	148.25
229.496	131.25
229.73	140.25
229.964	158.25
230.199	144.25
230.433	163.25
230.667	164.25
230.901	167.25
231.136	160.25
231.37	166.25
231.604	181.25
231.838	189.25
232.072	205.25
232.306	209.25
232.541	193.25
232.775	187.25
233.009	196.25
233.243	211.25
233.477	194.25
233.711	209.25
233.945	245.25
234.179	216.25
234.413	210.25
234.647	193.25
234.881	202.25
235.115	222.25
235.349	257.25
235.583	288.25
235.817	391.25
236.051	368.25
236.285	269.25
236.519	219.25
236.753	195.25
236.987	232.25
237.221	229.25
237.455	227.25
237.689	224.25
237.922	186.25
238.156	197.25
238.39	200.25
238.624	228.25
238.858	208.25
239.091	214.25
239.325	209.25
239.559	224.25
239.793	210.25
240.027	213.25
240.26	242.25
240.494	232.25
240.728	243.25
240.961	257.25
241.195	262.25
241.429	264.25
241.662	282.25
241.896	295.25
242.13	340.25
242.363	437.25
242.597	573.25
242.83	531.25
243.064	521.25
243.298	610.25
243.531	498.25
243.765	362.25
243.998	302.25
244.232	291.25
244.465	283.25
244.699	281.25
244.932	263.25
245.166	279.25
245.399	291.25
245.633	291.25
245.866	285.25
246.099	288.25
246.333	285.25
246.566	291.25
246.8	254.25
247.033	278.25
247.266	281.25
247.5	292.25
247.733	289.25
247.966	288.25
248.2	313.25
248.433	325.25
248.666	369.25
248.899	362.25
249.133	335.25
249.366	330.25
249.599	360.25
249.832	378.25
250.066	375.25
250.299	344.25
250.532	332.25
250.765	328.25
250.998	326.25
251.231	302.25
251.465	305.25
251.698	317.25
251.931	295.25
252.164	314.25
252.397	316.25
252.63	311.25
252.863	321.25
253.096	343.25
253.329	345.25
253.562	320.25
253.795	332.25
254.028	311.25
254.261	343.25
254.494	348.25
254.727	391.25
254.96	461.25
255.193	448.25
255.426	387.25
255.659	348.25
255.892	350.25
256.124	350.25
256.357	369.25
256.59	376.25
256.823	393.25
257.056	426.25
257.289	482.25
257.521	498.25
257.754	422.25
257.987	390.25
258.22	378.25
258.452	370.25
258.685	372.25
258.918	367.25
259.151	400.25
259.383	409.25
259.616	457.25
259.849	459.25
260.081	417.25
260.314	390.25
260.547	384.25
260.779	395.25
261.012	385.25
261.244	402.25
261.477	414.25
261.71	409.25
261.942	420.25
262.175	436.25
262.407	441.25
262.64	440.25
262.872	463.25
263.105	485.25
263.337	518.25
263.57	533.25
263.802	551.25
264.035	553.25
264.267	554.25
264.499	573.25
264.732	617.25
264.964	595.25
265.197	595.25
265.429	608.25
265.661	595.25
265.894	652.25
266.126	682.25
266.358	722.25
266.591	710.25
266.823	660.25
267.055	605.25
267.287	572.25
267.52	565.25
267.752	546.25
267.984	524.25
268.216	538.25
268.448	524.25
268.681	509.25
268.913	516.25
269.145	518.25
269.377	520.25
269.609	497.25
269.841	516.25
270.073	534.25
270.306	609.25
270.538	772.25
270.77	1078.25
271.002	1286.25
271.234	928.25
271.466	684.25
271.698	591.25
271.93	550.25
272.162	544.25
272.394	531.25
272.626	516.25
272.858	476.25
273.09	488.25
273.322	502.25
273.553	480.25
273.785	495.25
274.017	489.25
274.249	474.25
274.481	502.25
274.713	487.25
274.945	511.25
275.176	495.25
275.408	514.25
275.64	530.25
275.872	499.25
276.104	478.25
276.335	510.25
276.567	514.25
276.799	522.25
277.031	513.25
277.262	516.25
277.494	552.25
277.726	593.25
277.957	677.25
278.189	708.25
278.421	685.25
278.652	607.25
278.884	601.25
279.115	566.25
279.347	536.25
279.579	542.25
279.81	552.25
280.042	563.25
280.273	568.25
280.505	548.25
280.736	547.25
280.968	626.25
281.199	636.25
281.431	683.25
281.662	710.25
281.894	651.25
282.125	625.25
282.356	630.25
282.588	632.25
282.819	652.25
283.051	692.25
283.282	739.25
283.513	885.25
283.745	1203.25
283.976	1871.25
284.207	2592.25
284.439	2316.25
284.67	1483.25
284.901	1228.25
285.132	1180.25
285.364	1147.25
285.595	912.25
285.826	869.25
286.057	960.25
286.288	1298.25
286.52	1673.25
286.751	1568.25
286.982	1030.25
287.213	823.25
287.444	735.25
287.675	698.25
287.906	675.25
288.138	686.25
288.369	671.25
288.6	667.25
288.831	665.25
289.062	648.25
289.293	669.25
289.524	652.25
289.755	658.25
289.986	686.25
290.217	684.25
290.448	679.25
290.679	672.25
290.91	688.25
291.141	695.25
291.371	731.25
291.602	740.25
291.833	682.25
292.064	649.25
292.295	655.25
292.526	647.25
292.757	642.25
292.987	660.25
293.218	630.25
293.449	622.25
293.68	615.25
293.91	636.25
294.141	615.25
294.372	609.25
294.603	610.25
294.833	632.25
295.064	609.25
295.295	594.25
295.525	612.25
295.756	633.25
295.987	608.25
296.217	638.25
296.448	621.25
296.679	640.25
296.909	640.25
297.14	645.25
297.37	628.25
297.601	652.25
297.831	648.25
298.062	641.25
298.292	658.25
298.523	639.25
298.753	672.25
298.984	657.25
299.214	678.25
299.445	675.25
299.675	672.25
299.905	675.25
300.136	715.25
300.366	779.25
300.597	948.25
300.827	1280.25
301.057	1614.25
301.288	1612.25
301.518	1130.25
301.748	912.25
301.979	848.25
302.209	820.25
302.439	832.25
302.669	850.25
302.9	1029.25
303.13	1350.25
303.36	1906.25
303.59	2487.25
303.82	2142.25
304.051	1368.25
304.281	1016.25
304.511	906.25
304.741	869.25
304.971	822.25
305.201	789.25
305.431	762.25
305.661	756.25
305.891	734.25
306.121	737.25
306.352	751.25
306.582	743.25
306.812	676.25
307.042	700.25
307.272	712.25
307.502	702.25
307.731	707.25
307.961	712.25
308.191	709.25
308.421	700.25
308.651	722.25
308.881	716.25
309.111	724.25
309.341	727.25
309.571	704.25
309.8	736.25
310.03	727.25
310.26	709.25
310.49	728.25
310.72	737.25
310.949	716.25
311.179	730.25
311.409	745.25
311.639	742.25
311.868	766.25
312.098	774.25
312.328	752.25
312.557	790.25
312.787	787.25
313.017	781.25
313.246	761.25
313.476	776.25
313.706	766.25
313.935	828.25
314.165	856.25
314.394	877.25
314.624	874.25
314.853	832.25
315.083	828.25
315.312	868.25
315.542	834.25
315.771	856.25
316.001	843.25
316.23	873.25
316.46	873.25
316.689	959.25
316.919	1153.25
317.148	1548.25
317.377	2263.25
317.607	3253.25
317.836	3291.25
318.065	2072.25
318.295	1382.25
318.524	1190.25
318.753	1057.25
318.983	1009.25
319.212	951.25
319.441	950.25
319.67	914.25
319.9	938.25
320.129	895.25
320.358	881.25
320.587	898.25
320.816	919.25
321.046	925.25
321.275	915.25
321.504	942.25
321.733	919.25
321.962	910.25
322.191	958.25
322.42	961.25
322.649	945.25
322.878	959.25
323.108	944.25
323.337	983.25
323.566	954.25
323.795	969.25
324.024	995.25
324.253	1031.25
324.482	1032.25
324.71	1098.25
324.939	1132.25
325.168	1191.25
325.397	1208.25
325.626	1384.25
325.855	1872.25
326.084	2750.25
326.313	4014.25
326.542	4244.25
326.77	2810.25
326.999	1961.25
327.228	1704.25
327.457	1627.25
327.686	1633.25
327.914	1759.25
328.143	1943.25
328.372	2238.25
328.6	2421.25
328.829	2312.25
329.058	2018.25
329.287	1810.25
329.515	1698.25
329.744	1586.25
329.972	1493.25
330.201	1398.25
330.43	1392.25
330.658	1364.25
330.887	1356.25
331.115	1321.25
331.344	1288.25
331.572	1305.25
331.801	1316.25
332.03	1282.25
332.258	1313.25
332.486	1381.25
332.715	1495.25
332.943	1782.25
333.172	2098.25
333.4	2107.25
333.629	1715.25
333.857	1627.25
334.085	1618.25
334.314	1695.25
334.542	1854.25
334.771	2065.25
334.999	2435.25
335.227	2911.25
335.455	3257.25
335.684	3050.25
335.912	2654.25
336.14	2297.25
336.369	2087.25
336.597	1950.25
336.825	1790.25
337.053	1654.25
337.281	1593.25
337.51	1467.25
337.738	1443.25
337.966	1417.25
338.194	1368.25
338.422	1314.25
338.65	1303.25
338.878	1262.25
339.106	1239.25
339.334	1219.25
339.562	1198.25
339.79	1193.25
340.018	1161.25
340.246	1124.25
340.474	1148.25
340.702	1170.25
340.93	1152.25
341.158	1151.25
341.386	1130.25
341.614	1140.25
341.842	1129.25
342.07	1113.25
342.298	1121.25
342.526	1103.25
342.754	1081.25
342.981	1079.25
343.209	1083.25
343.437	1088.25
343.665	1090.25
343.893	1109.25
344.12	1112.25
344.348	1063.25
344.576	1084.25
344.804	1061.25
345.031	1042.25
345.259	1028.25
345.487	1013.25
345.714	991.25
345.942	991.25
346.17	995.25
346.397	991.25
346.625	981.25
346.853	994.25
347.08	966.25
347.308	983.25
347.535	979.25
347.763	974.25
347.99	982.25
348.218	971.25
348.445	977.25
348.673	943.25
348.9	972.25
349.128	983.25
349.355	994.25
349.583	959.25
349.81	960.25
350.037	955.25
350.265	972.25
350.492	966.25
350.72	933.25
350.947	968.25
351.174	965.25
351.402	955.25
351.629	964.25
351.856	956.25
352.083	960.25
352.311	958.25
352.538	943.25
352.765	956.25
352.992	968.25
353.22	944.25
353.447	908.25
353.674	959.25
353.901	945.25
354.128	960.25
354.355	950.25
354.583	976.25
354.81	936.25
355.037	982.25
355.264	958.25
355.491	986.25
355.718	967.25
355.945	974.25
356.172	966.25
356.399	964.25
356.626	976.25
356.853	998.25
357.08	996.25
357.307	993.25
357.534	989.25
357.761	1027.25
357.988	1006.25
358.215	1014.25
358.441	990.25
358.668	1013.25
358.895	1008.25
359.122	975.25
359.349	1003.25
359.576	998.25
359.802	1019.25
360.029	987.25
360.256	978.25
360.483	989.25
360.709	1002.25
360.936	994.25
361.163	999.25
361.39	968.25
361.616	994.25
361.843	1024.25
362.07	1010.25
362.296	995.25
362.523	985.25
362.749	1024.25
362.976	998.25
363.203	999.25
363.429	973.25
363.656	1031.25
363.882	1020.25
364.109	997.25
364.335	984.25
364.562	1032.25
364.788	1003.25
365.015	1022.25
365.241	1037.25
365.468	1041.25
365.694	1098.25
365.92	1078.25
366.147	1032.25
366.373	1030.25
366.599	1035.25
366.826	1029.25
367.052	993.25
367.278	1058.25
367.505	1062.25
367.731	1022.25
367.957	1023.25
368.184	1016.25
368.41	1046.25
368.636	1052.25
368.862	1052.25
369.089	1047.25
369.315	1024.25
369.541	1048.25
369.767	1032.25
369.993	1049.25
370.219	1050.25
370.445	1054.25
370.672	1060.25
370.898	1053.25
371.124	1087.25
371.35	1068.25
371.576	1060.25
371.802	1104.25
372.028	1094.25
372.254	1103.25
372.48	1106.25
372.706	1094.25
372.932	1122.25
373.158	1094.25
373.384	1095.25
373.61	1106.25
373.835	1094.25
374.061	1113.25
374.287	1136.25
374.513	1114.25
374.739	1130.25
374.965	1130.25
375.191	1162.25
375.416	1119.25
375.642	1121.25
375.868	1131.25
376.094	1105.25
376.319	1111.25
376.545	1112.25
376.771	1115.25
376.997	1076.25
377.222	1076.25
377.448	1095.25
377.674	1085.25
377.899	1067.25
378.125	1060.25
378.35	1059.25
378.576	1096.25
378.802	1107.25
379.027	1129.25
379.253	1123.25
379.478	1134.25
379.704	1294.25
379.929	1717.25
380.155	2462.25
380.38	2627.25
380.606	1729.25
380.831	1308.25
381.057	1232.25
381.282	1141.25
381.507	1103.25
381.733	1110.25
381.958	1084.25
382.184	1083.25
382.409	1097.25
382.634	1107.25
382.86	1040.25
383.085	1052.25
383.31	1051.25
383.535	1085.25
383.761	1102.25
383.986	1091.25
384.211	1081.25
384.436	1095.25
384.662	1121.25
384.887	1125.25
385.112	1095.25
385.337	1105.25
385.562	1127.25
385.787	1078.25
386.013	1107.25
386.238	1098.25
386.463	1111.25
386.688	1131.25
386.913	1103.25
387.138	1106.25
387.363	1105.25
387.588	1105.25
387.813	1098.25
388.038	1124.25
388.263	1088.25
388.488	1103.25
388.713	1106.25
388.938	1103.25
389.163	1082.25
389.387	1103.25
389.612	1121.25
389.837	1140.25
390.062	1140.25
390.287	1113.25
390.512	1127.25
390.736	1163.25
390.961	1156.25
391.186	1148.25
391.411	1174.25
391.636	1150.25
391.86	1158.25
392.085	1134.25
392.31	1143.25
392.534	1149.25
392.759	1164.25
392.984	1136.25
393.208	1116.25
393.433	1130.25
393.658	1124.25
393.882	1136.25
394.107	1122.25
394.331	1129.25
394.556	1155.25
394.78	1103.25
395.005	1148.25
395.229	1111.25
395.454	1143.25
395.678	1161.25
395.903	1168.25
396.127	1144.25
396.352	1136.25
396.576	1128.25
396.801	1130.25
397.025	1155.25
397.249	1175.25
397.474	1183.25
397.698	1178.25
397.922	1195.25
398.147	1162.25
398.371	1182.25
398.595	1228.25
398.82	1233.25
399.044	1255.25
399.268	1322.25
399.492	1422.25
399.717	1481.25
399.941	1484.25
400.165	1425.25
400.389	1351.25
400.613	1301.25
400.837	1257.25
401.062	1265.25
401.286	1231.25
401.51	1236.25
401.734	1216.25
401.958	1247.25
402.182	1243.25
402.406	1222.25
402.63	1251.25
402.854	1262.25
403.078	1259.25
403.302	1306.25
403.526	1274.25
403.75	1257.25
403.974	1263.25
404.198	1279.25
404.422	1263.25
404.645	1305.25
404.869	1311.25
405.093	1254.25
405.317	1266.25
405.541	1275.25
405.765	1304.25
405.988	1311.25
406.212	1303.25
406.436	1303.25
406.66	1308.25
406.883	1330.25
407.107	1353.25
407.331	1321.25
407.555	1391.25
407.778	1396.25
408.002	1369.25
408.226	1354.25
408.449	1338.25
408.673	1315.25
408.896	1301.25
409.12	1306.25
409.344	1279.25
409.567	1259.25
409.791	1264.25
410.014	1266.25
410.238	1238.25
410.461	1246.25
410.685	1254.25
410.908	1251.25
411.132	1235.25
411.355	1234.25
411.578	1247.25
411.802	1234.25
412.025	1248.25
412.249	1234.25
412.472	1252.25
412.695	1240.25
412.919	1193.25
413.142	1185.25
413.365	1205.25
413.589	1272.25
413.812	1195.25
414.035	1214.25
414.258	1227.25
414.482	1212.25
414.705	1218.25
414.928	1216.25
415.151	1201.25
415.374	1191.25
415.597	1181.25
415.821	1150.25
416.044	1156.25
416.267	1194.25
416.49	1152.25
416.713	1145.25
416.936	1176.25
417.159	1168.25
417.382	1149.25
417.605	1168.25
417.828	1174.25
418.051	1195.25
418.274	1196.25
418.497	1143.25
418.72	1175.25
418.943	1173.25
419.166	1210.25
419.389	1298.25
419.611	1268.25
419.834	1226.25
420.057	1211.25
420.28	1193.25
420.503	1148.25
420.726	1161.25
420.948	1176.25
421.171	1153.25
421.394	1175.25
421.617	1186.25
421.839	1198.25
422.062	1181.25
422.285	1144.25
422.507	1167.25
422.73	1198.25
422.953	1177.25
423.175	1233.25
423.398	1186.25
423.621	1154.25
423.843	1200.25
424.066	1180.25
424.288	1139.25
424.511	1170.25
424.733	1196.25
424.956	1164.25
425.178	1160.25
425.401	1171.25
425.623	1150.25
425.846	1138.25
426.068	1145.25
426.291	1127.25
426.513	1114.25
426.735	1137.25
426.958	1124.25
427.18	1074.25
427.402	1133.25
427.625	1074.25
427.847	1110.25
428.069	1076.25
428.292	1113.25
428.514	1093.25
428.736	1109.25
428.958	1094.25
429.181	1050.25
429.403	1080.25
429.625	1045.25
429.847	1073.25
430.069	1087.25
430.292	1114.25
430.514	1159.25
430.736	1118.25
430.958	1092.25
431.18	1071.25
431.402	1066.25
431.624	1064.25
431.846	1079.25
432.068	1046.25
432.29	1042.25
432.512	1055.25
432.734	1079.25
432.956	1079.25
433.178	1099.25
433.4	1072.25
433.622	1088.25
433.844	1099.25
434.066	1103.25
434.287	1078.25
434.509	1114.25
434.731	1095.25
434.953	1114.25
435.175	1112.25
435.397	1135.25
435.618	1062.25
435.84	1097.25
436.062	1053.25
436.284	1082.25
436.505	1054.25
436.727	1050.25
436.949	1091.25
437.17	1087.25
437.392	1059.25
437.614	1044.25
437.835	1023.25
438.057	1010.25
438.278	1008.25
438.5	1018.25
438.721	1029.25
438.943	1088.25
439.165	1098.25
439.386	1126.25
439.608	1096.25
439.829	1116.25
440.05	1160.25
440.272	1138.25
440.493	1098.25
440.715	1094.25
440.936	1117.25
441.158	1120.25
441.379	1147.25
441.6	1174.25
441.822	1184.25
442.043	1198.25
442.264	1251.25
442.486	1183.25
442.707	1163.25
442.928	1125.25
443.149	1150.25
443.371	1141.25
443.592	1166.25
443.813	1175.25
444.034	1156.25
444.255	1187.25
444.476	1163.25
444.698	1228.25
444.919	1288.25
445.14	1311.25
445.361	1231.25
445.582	1205.25
445.803	1171.25
446.024	1143.25
446.245	1153.25
446.466	1134.25
446.687	1154.25
446.908	1146.25
447.129	1098.25
447.35	1117.25
447.571	1079.25
447.792	1079.25
448.013	1057.25
448.234	1076.25
448.455	1077.25
448.675	1075.25
448.896	1111.25
449.117	1146.25
449.338	1178.25
449.559	1189.25
449.779	1121.25
450	1060.25
450.221	1027.25
450.442	1051.25
450.662	1022.25
450.883	1031.25
451.104	1047.25
451.324	1023.25
451.545	1016.25
451.766	1048.25
451.986	1035.25
452.207	1063.25
452.428	1278.25
452.648	1672.25
452.869	1436.25
453.089	1155.25
453.31	1131.25
453.53	1139.25
453.751	1142.25
453.971	1176.25
454.192	1176.25
454.412	1065.25
454.633	1038.25
454.853	991.25
455.073	984.25
455.294	983.25
455.514	964.25
455.734	980.25
455.955	964.25
456.175	968.25
456.395	990.25
456.616	989.25
456.836	1011.25
457.056	989.25
457.276	1001.25
457.497	1029.25
457.717	1047.25
457.937	1024.25
458.157	1034.25
458.377	1033.25
458.598	1051.25
458.818	1060.25
459.038	1063.25
459.258	1076.25
459.478	1084.25
459.698	1056.25
459.918	1090.25
460.138	1138.25
460.358	1152.25
460.578	1152.25
460.798	1160.25
461.018	1175.25
461.238	1159.25
461.458	1165.25
461.678	1170.25
461.898	1220.25
462.118	1208.25
462.338	1235.25
462.558	1267.25
462.777	1283.25
462.997	1307.25
463.217	1354.25
463.437	1374.25
463.657	1356.25
463.876	1342.25
464.096	1326.25
464.316	1252.25
464.536	1262.25
464.755	1205.25
464.975	1193.25
465.195	1187.25
465.414	1157.25
465.634	1114.25
465.854	1097.25
466.073	1113.25
466.293	1093.25
466.512	1107.25
466.732	1120.25
466.951	1166.25
467.171	1167.25
467.391	1141.25
467.61	1058.25
467.829	1056.25
468.049	1066.25
468.268	1051.25
468.488	1037.25
468.707	1040.25
468.927	1064.25
469.146	1077.25
469.365	1063.25
469.585	1060.25
469.804	1082.25
470.023	1117.25
470.243	1105.25
470.462	1163.25
470.681	1188.25
470.901	1257.25
471.12	1391.25
471.339	1420.25
471.558	1238.25
471.777	1168.25
471.997	1139.25
472.216	1066.25
472.435	1090.25
472.654	1034.25
472.873	1049.25
473.092	1067.25
473.311	1086.25
473.53	1055.25
473.749	1098.25
473.968	1099.25
474.187	1092.25
474.406	1047.25
474.625	1036.25
474.844	1066.25
475.063	1092.25
475.282	1081.25
475.501	1067.25
475.72	1091.25
475.939	1064.25
476.158	1068.25
476.377	1114.25
476.596	1094.25
476.814	1087.25
477.033	1079.25
477.252	1114.25
477.471	1115.25
477.69	1166.25
477.908	1179.25
478.127	1188.25
478.346	1188.25
478.564	1239.25
478.783	1239.25
479.002	1245.25
479.22	1273.25
479.439	1262.25
479.658	1239.25
479.876	1236.25
480.095	1279.25
480.313	1319.25
480.532	1299.25
480.751	1291.25
480.969	1261.25
481.188	1218.25
481.406	1224.25
481.624	1244.25
481.843	1249.25
482.061	1235.25
482.28	1244.25
482.498	1243.25
482.717	1200.25
482.935	1258.25
483.153	1311.25
483.372	1299.25
483.59	1320.25
483.808	1352.25
484.027	1367.25
484.245	1398.25
484.463	1520.25
484.681	1648.25
484.9	1541.25
485.118	1474.25
485.336	1415.25
485.554	1436.25
485.772	1537.25
485.99	1666.25
486.209	1824.25
486.427	1541.25
486.645	1435.25
486.863	1411.25
487.081	1396.25
487.299	1379.25
487.517	1332.25
487.735	1374.25
487.953	1394.25
488.171	1420.25
488.389	1339.25
488.607	1329.25
488.825	1312.25
489.043	1319.25
489.261	1295.25
489.479	1330.25
489.696	1285.25
489.914	1330.25
490.132	1350.25
490.35	1306.25
490.568	1303.25
490.786	1368.25
491.003	1386.25
491.221	1406.25
491.439	1387.25
491.657	1394.25
491.874	1430.25
492.092	1432.25
492.31	1470.25
492.527	1426.25
492.745	1404.25
492.963	1416.25
493.18	1410.25
493.398	1413.25
493.615	1419.25
493.833	1401.25
494.05	1406.25
494.268	1375.25
494.485	1412.25
494.703	1366.25
494.92	1412.25
495.138	1380.25
495.355	1417.25
495.573	1430.25
495.79	1410.25
496.008	1424.25
496.225	1420.25
496.442	1443.25
496.66	1477.25
496.877	1549.25
497.094	1506.25
497.312	1522.25
497.529	1498.25
497.746	1506.25
497.963	1536.25
498.181	1558.25
498.398	1571.25
498.615	1598.25
498.832	1687.25
499.049	1798.25
499.267	1856.25
499.484	1991.25
499.701	2030.25
499.918	2129.25
500.135	2220.25
500.352	2322.25
500.569	2361.25
500.786	2406.25
501.003	2286.25
501.22	2194.25
501.437	2026.25
501.654	1932.25
501.871	1840.25
502.088	1744.25
502.305	1710.25
502.522	1636.25
502.739	1622.25
502.956	1579.25
503.172	1520.25
503.389	1520.25
503.606	1449.25
503.823	1418.25
504.04	1425.25
504.256	1454.25
504.473	1449.25
504.69	1450.25
504.907	1397.25
505.123	1417.25
505.34	1361.25
505.557	1350.25
505.773	1307.25
505.99	1270.25
506.207	1268.25
506.423	1295.25
506.64	1259.25
506.856	1235.25
507.073	1222.25
507.289	1208.25
507.506	1239.25
507.722	1208.25
507.939	1231.25
508.155	1177.25
508.372	1194.25
508.588	1188.25
508.805	1187.25
509.021	1188.25
509.238	1161.25
509.454	1238.25
509.67	1312.25
509.887	1257.25
510.103	1192.25
510.319	1163.25
510.536	1196.25
510.752	1203.25
510.968	1146.25
511.184	1129.25
511.401	1154.25
511.617	1168.25
511.833	1167.25
512.049	1130.25
512.265	1104.25
512.481	1127.25
512.698	1132.25
512.914	1130.25
513.13	1139.25
513.346	1137.25
513.562	1152.25
513.778	1146.25
513.994	1176.25
514.21	1152.25
514.426	1191.25
514.642	1255.25
514.858	1193.25
515.074	1131.25
515.29	1146.25
515.506	1133.25
515.721	1143.25
515.937	1166.25
516.153	1182.25
516.369	1174.25
516.585	1204.25
516.801	1232.25
517.016	1282.25
517.232	1279.25
517.448	1278.25
517.664	1253.25
517.879	1307.25
518.095	1295.25
518.311	1295.25
518.527	1244.25
518.742	1270.25
518.958	1268.25
519.173	1270.25
519.389	1231.25
519.605	1170.25
519.82	1176.25
520.036	1174.25
520.251	1144.25
520.467	1145.25
520.682	1135.25
520.898	1150.25
521.113	1143.25
521.329	1119.25
521.544	1103.25
521.76	1146.25
521.975	1089.25
522.19	1092.25
522.406	1112.25
522.621	1112.25
522.836	1107.25
523.052	1147.25
523.267	1105.25
523.482	1115.25
523.698	1108.25
523.913	1081.25
524.128	1106.25
524.343	1112.25
524.559	1120.25
524.774	1104.25
524.989	1105.25
525.204	1088.25
525.419	1109.25
525.634	1101.25
525.849	1106.25
526.064	1112.25
526.28	1085.25
526.495	1084.25
526.71	1105.25
526.925	1111.25
527.14	1090.25
527.355	1064.25
527.57	1098.25
527.785	1108.25
527.999	1111.25
528.214	1137.25
528.429	1130.25
528.644	1122.25
528.859	1170.25
529.074	1200.25
529.289	1194.25
529.503	1195.25
529.718	1167.25
529.933	1163.25
530.148	1186.25
530.363	1159.25
530.577	1170.25
530.792	1145.25
531.007	1160.25
531.221	1162.25
531.436	1155.25
531.651	1212.25
531.865	1169.25
532.08	1246.25
532.295	1211.25
532.509	1268.25
532.724	1249.25
532.938	1292.25
533.153	1312.25
533.367	1387.25
533.582	1417.25
533.796	1439.25
534.011	1388.25
534.225	1368.25
534.44	1334.25
534.654	1322.25
534.868	1310.25
535.083	1247.25
535.297	1292.25
535.511	1224.25
535.726	1215.25
535.94	1228.25
536.154	1177.25
536.369	1157.25
536.583	1177.25
536.797	1167.25
537.011	1137.25
537.225	1128.25
537.44	1115.25
537.654	1146.25
537.868	1119.25
538.082	1110.25
538.296	1108.25
538.51	1092.25
538.724	1113.25
538.938	1131.25
539.153	1099.25
539.367	1073.25
539.581	1086.25
539.795	1053.25
540.009	1060.25
540.222	1050.25
540.436	1074.25
540.65	1089.25
540.864	1094.25
541.078	1094.25
541.292	1180.25
541.506	1329.25
541.72	1407.25
541.934	1249.25
542.147	1206.25
542.361	1140.25
542.575	1099.25
542.789	1079.25
543.002	1040.25
543.216	1021.25
543.43	1051.25
543.644	1049.25
543.857	1071.25
544.071	1073.25
544.285	1075.25
544.498	1071.25
544.712	1071.25
544.925	1080.25
545.139	1092.25
545.352	1092.25
545.566	1080.25
545.779	1087.25
545.993	1079.25
546.206	1068.25
546.42	1084.25
546.633	1102.25
546.847	1082.25
547.06	1056.25
547.274	1109.25
547.487	1088.25
547.7	1084.25
547.914	1085.25
548.127	1099.25
548.34	1077.25
548.554	1067.25
548.767	1068.25
548.98	1077.25
549.193	1079.25
549.407	1075.25
549.62	1089.25
549.833	1101.25
550.046	1102.25
550.259	1081.25
550.473	1075.25
550.686	1100.25
550.899	1066.25
551.112	1055.25
551.325	1038.25
551.538	1052.25
551.751	1040.25
551.964	1015.25
552.177	1079.25
552.39	1109.25
552.603	1138.25
552.816	1156.25
553.029	1137.25
553.242	1147.25
553.455	1158.25
553.667	1196.25
553.88	1145.25
554.093	1167.25
554.306	1165.25
554.519	1180.25
554.732	1224.25
554.944	1228.25
555.157	1198.25
555.37	1244.25
555.583	1238.25
555.795	1286.25
556.008	1396.25
556.221	1476.25
556.433	1523.25
556.646	1509.25
556.859	1518.25
557.071	1492.25
557.284	1433.25
557.496	1423.25
557.709	1419.25
557.921	1426.25
558.134	1424.25
558.346	1398.25
558.559	1506.25
558.771	1478.25
558.984	1557.25
559.196	1623.25
559.409	1569.25
559.621	1520.25
559.833	1465.25
560.046	1418.25
560.258	1338.25
560.47	1317.25
560.683	1272.25
560.895	1222.25
561.107	1194.25
561.32	1173.25
561.532	1167.25
561.744	1127.25
561.956	1122.25
562.168	1100.25
562.381	1117.25
562.593	1113.25
562.805	1105.25
563.017	1076.25
563.229	1105.25
563.441	1177.25
563.653	1048.25
563.865	1009.25
564.077	999.25
564.289	1000.25
564.501	981.25
564.713	991.25
564.925	963.25
565.137	969.25
565.349	987.25
565.561	970.25
565.773	1009.25
565.985	988.25
566.197	1024.25
566.408	1061.25
566.62	1054.25
566.832	1085.25
567.044	1098.25
567.255	1105.25
567.467	1076.25
567.679	1126.25
567.891	1204.25
568.102	1213.25
568.314	1402.25
568.526	1236.25
568.737	1105.25
568.949	1047.25
569.161	965.25
569.372	930.25
569.584	881.25
569.795	886.25
570.007	893.25
570.218	900.25
570.43	925.25
570.641	888.25
570.853	849.25
571.064	843.25
571.276	821.25
571.487	833.25
571.698	808.25
571.91	826.25
572.121	801.25
572.333	775.25
572.544	769.25
572.755	810.25
572.966	901.25
573.178	842.25
573.389	768.25
573.6	748.25
573.811	727.25
574.023	730.25
574.234	715.25
574.445	719.25
574.656	729.25
574.867	710.25
575.078	726.25
575.289	723.25
575.501	720.25
575.712	724.25
575.923	723.25
576.134	705.25
576.345	724.25
576.556	716.25
576.767	746.25
576.978	718.25
577.188	729.25
577.399	731.25
577.61	744.25
577.821	737.25
578.032	751.25
578.243	721.25
578.454	770.25
578.665	782.25
578.875	775.25
579.086	795.25
579.297	825.25
579.508	862.25
579.718	934.25
579.929	964.25
580.14	1088.25
580.35	1107.25
580.561	1051.25
580.772	1016.25
580.982	945.25
581.193	920.25
581.403	879.25
581.614	865.25
581.825	814.25
582.035	770.25
582.246	786.25
582.456	750.25
582.667	710.25
582.877	715.25
583.087	688.25
583.298	699.25
583.508	676.25
583.719	654.25
583.929	660.25
584.139	640.25
584.35	630.25
584.56	628.25
584.77	606.25
584.981	624.25
585.191	619.25
585.401	594.25
585.611	578.25
585.821	576.25
586.032	583.25
586.242	563.25
586.452	565.25
586.662	583.25
586.872	588.25
587.082	535.25
587.292	548.25
587.502	568.25
587.713	527.25
587.923	529.25
588.133	560.25
588.343	546.25
588.553	557.25
588.762	514.25
588.972	531.25
589.182	536.25
589.392	553.25
589.602	519.25
589.812	534.25
590.022	545.25
590.232	534.25
590.441	512.25
590.651	521.25
590.861	518.25
591.071	522.25
591.281	525.25
591.49	535.25
591.7	512.25
591.91	491.25
592.119	509.25
592.329	504.25
592.539	518.25
592.748	519.25
592.958	539.25
593.167	531.25
593.377	523.25
593.587	549.25
593.796	532.25
594.006	527.25
594.215	552.25
594.424	523.25
594.634	538.25
594.843	516.25
595.053	503.25
595.262	518.25
595.472	498.25
595.681	481.25
595.89	476.25
596.1	473.25
596.309	456.25
596.518	467.25
596.727	498.25
596.937	476.25
597.146	446.25
597.355	463.25
597.564	460.25
597.774	454.25
597.983	456.25
598.192	430.25
598.401	453.25
598.61	466.25
598.819	436.25
599.028	415.25
599.237	434.25
599.446	428.25
599.655	438.25
599.864	439.25
600.073	405.25
600.282	418.25
600.491	431.25
600.7	418.25
600.909	438.25
601.118	434.25
601.327	425.25
601.536	420.25
601.745	444.25
601.953	479.25
602.162	534.25
602.371	461.25
602.58	440.25
602.789	416.25
602.997	413.25
603.206	437.25
603.415	426.25
603.623	420.25
603.832	411.25
604.041	420.25
604.249	439.25
604.458	415.25
604.666	394.25
604.875	418.25
605.084	412.25
605.292	404.25
605.501	419.25
605.709	423.25
605.918	421.25
606.126	407.25
606.334	423.25
606.543	415.25
606.751	439.25
606.96	491.25
607.168	515.25
607.376	456.25
607.585	421.25
607.793	423.25
608.001	416.25
608.21	403.25
608.418	387.25
608.626	401.25
608.834	404.25
609.043	402.25
609.251	410.25
609.459	401.25
609.667	395.25
609.875	407.25
610.083	411.25
610.291	392.25
610.499	382.25
610.707	403.25
610.916	410.25
611.124	393.25
611.332	396.25
611.54	404.25
611.748	381.25
611.955	398.25
612.163	381.25
612.371	406.25
612.579	394.25
612.787	380.25
612.995	359.25
613.203	388.25
613.411	386.25
613.618	381.25
613.826	377.25
614.034	395.25
614.242	387.25
614.449	399.25
614.657	393.25
614.865	388.25
615.072	372.25
615.28	379.25
615.488	374.25
615.695	367.25
615.903	369.25
616.111	391.25
616.318	387.25
616.526	387.25
616.733	367.25
616.941	373.25
617.148	374.25
617.356	362.25
617.563	368.25
617.771	359.25
617.978	351.25
618.185	379.25
618.393	372.25
618.6	370.25
618.807	359.25
619.015	370.25
619.222	348.25
619.429	363.25
619.637	367.25
619.844	351.25
620.051	350.25
620.258	362.25
620.466	352.25
620.673	332.25
620.88	353.25
621.087	350.25
621.294	352.25
621.501	339.25
621.708	328.25
621.915	327.25
622.122	345.25
622.329	335.25
622.536	360.25
622.743	346.25
622.95	329.25
623.157	337.25
623.364	342.25
623.571	352.25
623.778	328.25
623.985	336.25
624.192	329.25
624.399	342.25
624.606	342.25
624.812	318.25
625.019	323.25
625.226	319.25
625.433	337.25
625.639	299.25
625.846	310.25
626.053	312.25
626.259	303.25
626.466	318.25
626.673	291.25
626.879	306.25
627.086	293.25
627.293	309.25
627.499	326.25
627.706	322.25
627.912	300.25
628.119	336.25
628.325	324.25
628.532	325.25
628.738	317.25
628.945	295.25
629.151	299.25
629.357	294.25
629.564	310.25
629.77	318.25
629.976	296.25
630.183	291.25
630.389	310.25
630.595	302.25
630.802	300.25
631.008	302.25
631.214	311.25
631.42	299.25
631.627	296.25
631.833	296.25
632.039	299.25
632.245	275.25
632.451	279.25
632.657	286.25
632.863	284.25
633.069	290.25
633.275	292.25
633.481	278.25
633.688	278.25
633.893	282.25
634.099	278.25
634.305	294.25
634.511	284.25
634.717	290.25
634.923	292.25
635.129	300.25
635.335	332.25
635.541	342.25
635.747	301.25
635.952	298.25
636.158	295.25
636.364	286.25
636.57	290.25
636.775	296.25
636.981	303.25
637.187	283.25
637.392	283.25
637.598	291.25
637.804	275.25
638.009	297.25
638.215	300.25
638.421	276.25
638.626	283.25
638.832	301.25
639.037	278.25
639.243	293.25
639.448	292.25
639.654	307.25
639.859	290.25
640.065	308.25
640.27	284.25
640.475	287.25
640.681	302.25
640.886	294.25
641.091	318.25
641.297	318.25
641.502	290.25
641.707	318.25
641.913	324.25
642.118	321.25
642.323	304.25
642.528	342.25
642.733	317.25
642.939	329.25
643.144	341.25
643.349	344.25
643.554	366.25
643.759	365.25
643.964	385.25
644.169	383.25
644.374	409.25
644.579	430.25
644.784	484.25
644.989	494.25
645.194	552.25
645.399	634.25
645.604	644.25
645.809	549.25
646.014	442.25
646.219	396.25
646.423	369.25
646.628	339.25
646.833	328.25
647.038	332.25
647.243	313.25
647.447	303.25
647.652	316.25
647.857	282.25
648.062	292.25
648.266	276.25
648.471	285.25
648.676	285.25
648.88	281.25
649.085	258.25
649.289	268.25
649.494	253.25
649.698	263.25
649.903	267.25
650.107	257.25
650.312	254.25
650.516	240.25
650.721	245.25
650.925	233.25
651.13	233.25
651.334	218.25
651.539	223.25
651.743	211.25
651.947	221.25
652.152	238.25
652.356	239.25
652.56	226.25
652.764	240.25
652.969	218.25
653.173	224.25
653.377	203.25
653.581	217.25
653.785	191.25
653.99	182.25
654.194	209.25
654.398	194.25
654.602	200.25
654.806	202.25
655.01	198.25
655.214	191.25
655.418	196.25
655.622	204.25
655.826	201.25
656.03	207.25
656.234	210.25
656.438	208.25
656.642	221.25
656.846	234.25
657.049	202.25
657.253	186.25
657.457	181.25
657.661	144.25
657.865	174.25
658.068	174.25
658.272	148.25
658.476	158.25
658.68	145.25
658.883	126.25
659.087	138.25
659.291	138.25
659.494	143.25
659.698	136.25
659.901	112.25
660.105	121.25
660.309	118.25
660.512	110.25
660.716	104.25
660.919	103.25
661.123	116.25
661.326	91.25
661.53	105.25
661.733	94.25
661.936	101.25
662.14	102.25
662.343	98.25
662.546	95.25
662.75	88.25
662.953	95.25
663.156	90.25
663.36	89.25
663.563	90.25
663.766	82.25
663.969	82.25
664.173	87.25
664.376	92.25
664.579	79.25
664.782	84.25
664.985	85.25
665.188	88.25
665.391	92.25
665.594	95.25
665.797	82.25
666	98.25
666.203	77.25
666.406	84.25
666.609	71.25
666.812	82.25
667.015	74.25
667.218	83.25
667.421	88.25
667.624	95.25
667.827	79.25
668.03	75.25
668.232	86.25
668.435	82.25
668.638	78.25
668.841	67.25
669.043	87.25
669.246	71.25
669.449	85.25
669.651	84.25
669.854	80.25
670.057	84.25
670.259	90.25
670.462	88.25
670.665	76.25
670.867	80.25
671.07	72.25
671.272	61.25
671.475	91.25
671.677	91.25
671.88	84.25
672.082	86.25
672.284	94.25
672.487	80.25
672.689	80.25
672.892	71.25
