Data from SnStandardFlinnAPT0064_LampEnergy10_LIBS07252019.E.O._I.C._HRD10591_15-21-50-494.txt Node
Date: Thu Jul 25 15:21:50 EDT 2019
User: cochatt
Spectrometer: HR+D1059
Trigger mode: 1
Integration Time (sec): 1.000000E-1
Scans to average: 1
Electric dark correction enabled: true
Nonlinearity correction enabled: false
Boxcar width: 0
XAxis mode: Wavelengths
Number of Pixels in Spectrum: 2048
>>>>>Begin Spectral Data<<<<<
223.165	-13.31
223.4	-13.31
223.635	-13.31
223.869	-20.31
224.104	-18.31
224.338	-22.31
224.573	-15.31
224.808	-7.31
225.042	-8.31
225.277	-5.31
225.511	-10.31
225.746	5.69
225.98	8.69
226.215	7.69
226.449	17.69
226.683	20.69
226.918	29.69
227.152	30.69
227.387	35.69
227.621	41.69
227.856	46.69
228.09	55.69
228.324	50.69
228.559	40.69
228.793	109.69
229.027	308.69
229.262	331.69
229.496	309.69
229.73	290.69
229.964	297.69
230.199	303.69
230.433	311.69
230.667	308.69
230.901	317.69
231.136	313.69
231.37	333.69
231.604	365.69
231.838	425.69
232.072	514.69
232.306	557.69
232.541	465.69
232.775	417.69
233.009	408.69
233.243	407.69
233.477	441.69
233.711	507.69
233.945	573.69
234.179	466.69
234.413	445.69
234.647	434.69
234.881	454.69
235.115	525.69
235.349	606.69
235.583	739.69
235.817	974.69
236.051	944.69
236.285	636.69
236.519	527.69
236.753	504.69
236.987	497.69
237.221	533.69
237.455	530.69
237.689	466.69
237.922	460.69
238.156	472.69
238.39	481.69
238.624	487.69
238.858	483.69
239.091	480.69
239.325	504.69
239.559	480.69
239.793	492.69
240.027	522.69
240.26	542.69
240.494	537.69
240.728	559.69
240.961	603.69
241.195	631.69
241.429	668.69
241.662	696.69
241.896	778.69
242.13	950.69
242.363	1230.69
242.597	1594.69
242.83	1513.69
243.064	1496.69
243.298	1772.69
243.531	1424.69
243.765	943.69
243.998	787.69
244.232	692.69
244.465	646.69
244.699	668.69
244.932	637.69
245.166	666.69
245.399	680.69
245.633	709.69
245.866	700.69
246.099	674.69
246.333	650.69
246.566	648.69
246.8	641.69
247.033	621.69
247.266	635.69
247.5	664.69
247.733	675.69
247.966	712.69
248.2	766.69
248.433	864.69
248.666	980.69
248.899	925.69
249.133	848.69
249.366	879.69
249.599	953.69
249.832	1051.69
250.066	1068.69
250.299	834.69
250.532	784.69
250.765	751.69
250.998	740.69
251.231	735.69
251.465	746.69
251.698	726.69
251.931	773.69
252.164	777.69
252.397	755.69
252.63	793.69
252.863	789.69
253.096	785.69
253.329	790.69
253.562	771.69
253.795	780.69
254.028	796.69
254.261	814.69
254.494	861.69
254.727	992.69
254.96	1225.69
255.193	1205.69
255.426	978.69
255.659	881.69
255.892	865.69
256.124	884.69
256.357	885.69
256.59	928.69
256.823	990.69
257.056	1101.69
257.289	1326.69
257.521	1464.69
257.754	1192.69
257.987	991.69
258.22	923.69
258.452	921.69
258.685	935.69
258.918	945.69
259.151	989.69
259.383	1098.69
259.616	1215.69
259.849	1290.69
260.081	1094.69
260.314	994.69
260.547	953.69
260.779	972.69
261.012	947.69
261.244	963.69
261.477	990.69
261.71	987.69
261.942	1020.69
262.175	1014.69
262.407	1036.69
262.64	1050.69
262.872	1120.69
263.105	1161.69
263.337	1172.69
263.57	1260.69
263.802	1316.69
264.035	1324.69
264.267	1348.69
264.499	1353.69
264.732	1433.69
264.964	1470.69
265.197	1426.69
265.429	1445.69
265.661	1478.69
265.894	1563.69
266.126	1753.69
266.358	1953.69
266.591	1877.69
266.823	1598.69
267.055	1454.69
267.287	1389.69
267.52	1316.69
267.752	1307.69
267.984	1268.69
268.216	1252.69
268.448	1233.69
268.681	1235.69
268.913	1205.69
269.145	1256.69
269.377	1237.69
269.609	1247.69
269.841	1298.69
270.073	1350.69
270.306	1592.69
270.538	2082.69
270.77	3065.69
271.002	3850.69
271.234	2690.69
271.466	1798.69
271.698	1509.69
271.93	1367.69
272.162	1316.69
272.394	1280.69
272.626	1267.69
272.858	1189.69
273.09	1235.69
273.322	1205.69
273.553	1194.69
273.785	1206.69
274.017	1218.69
274.249	1227.69
274.481	1217.69
274.713	1201.69
274.945	1198.69
275.176	1223.69
275.408	1213.69
275.64	1242.69
275.872	1229.69
276.104	1229.69
276.335	1294.69
276.567	1232.69
276.799	1246.69
277.031	1320.69
277.262	1342.69
277.494	1416.69
277.726	1554.69
277.957	1841.69
278.189	2119.69
278.421	1959.69
278.652	1730.69
278.884	1688.69
279.115	1490.69
279.347	1447.69
279.579	1392.69
279.81	1369.69
280.042	1391.69
280.273	1422.69
280.505	1448.69
280.736	1510.69
280.968	1611.69
281.199	1744.69
281.431	2054.69
281.662	2099.69
281.894	1785.69
282.125	1616.69
282.356	1625.69
282.588	1670.69
282.819	1704.69
283.051	1770.69
283.282	1969.69
283.513	2427.69
283.745	3494.69
283.976	5518.69
284.207	7757.69
284.439	7147.69
284.67	4467.69
284.901	3689.69
285.132	3709.69
285.364	3537.69
285.595	2690.69
285.826	2420.69
286.057	2790.69
286.288	3718.69
286.52	5105.69
286.751	4765.69
286.982	2985.69
287.213	2240.69
287.444	1986.69
287.675	1853.69
287.906	1801.69
288.138	1732.69
288.369	1675.69
288.6	1708.69
288.831	1699.69
289.062	1656.69
289.293	1669.69
289.524	1702.69
289.755	1695.69
289.986	1718.69
290.217	1737.69
290.448	1728.69
290.679	1775.69
290.91	1815.69
291.141	1846.69
291.371	2044.69
291.602	2165.69
291.833	1959.69
292.064	1786.69
292.295	1662.69
292.526	1657.69
292.757	1655.69
292.987	1599.69
293.218	1561.69
293.449	1662.69
293.68	1616.69
293.91	1567.69
294.141	1562.69
294.372	1539.69
294.603	1566.69
294.833	1554.69
295.064	1555.69
295.295	1577.69
295.525	1532.69
295.756	1586.69
295.987	1574.69
296.217	1545.69
296.448	1596.69
296.679	1596.69
296.909	1549.69
297.14	1606.69
297.37	1607.69
297.601	1608.69
297.831	1655.69
298.062	1622.69
298.292	1680.69
298.523	1710.69
298.753	1696.69
298.984	1713.69
299.214	1748.69
299.445	1761.69
299.675	1730.69
299.905	1833.69
300.136	1912.69
300.366	2147.69
300.597	2678.69
300.827	3828.69
301.057	5101.69
301.288	5104.69
301.518	3296.69
301.748	2544.69
301.979	2368.69
302.209	2304.69
302.439	2280.69
302.669	2432.69
302.9	2921.69
303.13	4016.69
303.36	6082.69
303.59	8012.69
303.82	6980.69
304.051	4166.69
304.281	3016.69
304.511	2489.69
304.741	2356.69
304.971	2183.69
305.201	2092.69
305.431	2028.69
305.661	1943.69
305.891	1881.69
306.121	1861.69
306.352	1859.69
306.582	1858.69
306.812	1857.69
307.042	1876.69
307.272	1809.69
307.502	1816.69
307.731	1832.69
307.961	1777.69
308.191	1792.69
308.421	1787.69
308.651	1801.69
308.881	1799.69
309.111	1788.69
309.341	1835.69
309.571	1853.69
309.8	1841.69
310.03	1883.69
310.26	1879.69
310.49	1852.69
310.72	1869.69
310.949	1860.69
311.179	1909.69
311.409	1908.69
311.639	1930.69
311.868	1929.69
312.098	1969.69
312.328	1961.69
312.557	1964.69
312.787	1944.69
313.017	1960.69
313.246	2001.69
313.476	2007.69
313.706	2089.69
313.935	2205.69
314.165	2366.69
314.394	2471.69
314.624	2377.69
314.853	2203.69
315.083	2173.69
315.312	2150.69
315.542	2156.69
315.771	2219.69
316.001	2241.69
316.23	2319.69
316.46	2440.69
316.689	2618.69
316.919	3145.69
317.148	4535.69
317.377	6940.69
317.607	10206.69
317.836	10572.69
318.065	6438.69
318.295	4209.69
318.524	3377.69
318.753	2945.69
318.983	2725.69
319.212	2541.69
319.441	2476.69
319.67	2450.69
319.9	2359.69
320.129	2367.69
320.358	2363.69
320.587	2308.69
320.816	2384.69
321.046	2374.69
321.275	2384.69
321.504	2416.69
321.733	2446.69
321.962	2485.69
322.191	2579.69
322.42	2493.69
322.649	2516.69
322.878	2458.69
323.108	2497.69
323.337	2560.69
323.566	2555.69
323.795	2601.69
324.024	2681.69
324.253	2743.69
324.482	2832.69
324.71	2996.69
324.939	3181.69
325.168	3294.69
325.397	3370.69
325.626	4005.69
325.855	5522.69
326.084	8558.69
326.313	12396.69
326.542	13158.69
326.77	8904.69
326.999	5858.69
327.228	4926.69
327.457	4717.69
327.686	4824.69
327.914	5052.69
328.143	5941.69
328.372	7150.69
328.6	7808.69
328.829	6966.69
329.058	5762.69
329.287	5107.69
329.515	4667.69
329.744	4278.69
329.972	4033.69
330.201	3861.69
330.43	3778.69
330.658	3632.69
330.887	3547.69
331.115	3512.69
331.344	3508.69
331.572	3415.69
331.801	3490.69
332.03	3505.69
332.258	3562.69
332.486	3776.69
332.715	4286.69
332.943	5209.69
333.172	6516.69
333.4	6472.69
333.629	4954.69
333.857	4524.69
334.085	4536.69
334.314	4636.69
334.542	5111.69
334.771	6087.69
334.999	7490.69
335.227	9342.69
335.455	10503.69
335.684	9438.69
335.912	7555.69
336.14	6428.69
336.369	5717.69
336.597	5244.69
336.825	4836.69
337.053	4477.69
337.281	4276.69
337.51	4068.69
337.738	3867.69
337.966	3702.69
338.194	3598.69
338.422	3508.69
338.65	3425.69
338.878	3389.69
339.106	3286.69
339.334	3231.69
339.562	3177.69
339.79	3061.69
340.018	3070.69
340.246	3017.69
340.474	3047.69
340.702	2998.69
340.93	3079.69
341.158	3026.69
341.386	3040.69
341.614	3010.69
341.842	2917.69
342.07	2884.69
342.298	2832.69
342.526	2821.69
342.754	2753.69
342.981	2793.69
343.209	2738.69
343.437	2781.69
343.665	2824.69
343.893	2814.69
344.12	2837.69
344.348	2809.69
344.576	2776.69
344.804	2705.69
345.031	2652.69
345.259	2662.69
345.487	2576.69
345.714	2578.69
345.942	2574.69
346.17	2548.69
346.397	2549.69
346.625	2556.69
346.853	2493.69
347.08	2522.69
347.308	2544.69
347.535	2557.69
347.763	2544.69
347.99	2456.69
348.218	2511.69
348.445	2481.69
348.673	2454.69
348.9	2473.69
349.128	2452.69
349.355	2433.69
349.583	2468.69
349.81	2450.69
350.037	2407.69
350.265	2404.69
350.492	2405.69
350.72	2375.69
350.947	2415.69
351.174	2433.69
351.402	2431.69
351.629	2411.69
351.856	2377.69
352.083	2386.69
352.311	2390.69
352.538	2392.69
352.765	2428.69
352.992	2354.69
353.22	2428.69
353.447	2384.69
353.674	2407.69
353.901	2409.69
354.128	2424.69
354.355	2394.69
354.583	2389.69
354.81	2420.69
355.037	2460.69
355.264	2431.69
355.491	2453.69
355.718	2410.69
355.945	2449.69
356.172	2432.69
356.399	2456.69
356.626	2456.69
356.853	2555.69
357.08	2513.69
357.307	2537.69
357.534	2600.69
357.761	2638.69
357.988	2600.69
358.215	2570.69
358.441	2562.69
358.668	2579.69
358.895	2560.69
359.122	2544.69
359.349	2560.69
359.576	2533.69
359.802	2590.69
360.029	2540.69
360.256	2560.69
360.483	2556.69
360.709	2548.69
360.936	2574.69
361.163	2631.69
361.39	2591.69
361.616	2512.69
361.843	2528.69
362.07	2589.69
362.296	2578.69
362.523	2568.69
362.749	2589.69
362.976	2548.69
363.203	2500.69
363.429	2538.69
363.656	2567.69
363.882	2608.69
364.109	2545.69
364.335	2503.69
364.562	2529.69
364.788	2539.69
365.015	2579.69
365.241	2652.69
365.468	2798.69
365.694	2919.69
365.92	2839.69
366.147	2638.69
366.373	2590.69
366.599	2659.69
366.826	2598.69
367.052	2604.69
367.278	2656.69
367.505	2613.69
367.731	2642.69
367.957	2618.69
368.184	2644.69
368.41	2708.69
368.636	2680.69
368.862	2649.69
369.089	2720.69
369.315	2638.69
369.541	2628.69
369.767	2650.69
369.993	2653.69
370.219	2656.69
370.445	2656.69
370.672	2724.69
370.898	2687.69
371.124	2729.69
371.35	2710.69
371.576	2737.69
371.802	2724.69
372.028	2740.69
372.254	2776.69
372.48	2771.69
372.706	2782.69
372.932	2886.69
373.158	2850.69
373.384	2803.69
373.61	2797.69
373.835	2797.69
374.061	2815.69
374.287	2885.69
374.513	2849.69
374.739	2938.69
374.965	2934.69
375.191	2946.69
375.416	2955.69
375.642	2900.69
375.868	2891.69
376.094	2791.69
376.319	2844.69
376.545	2838.69
376.771	2762.69
376.997	2766.69
377.222	2758.69
377.448	2742.69
377.674	2758.69
377.899	2708.69
378.125	2766.69
378.35	2761.69
378.576	2774.69
378.802	2780.69
379.027	2794.69
379.253	2900.69
379.478	3020.69
379.704	3550.69
379.929	5150.69
380.155	7773.69
380.38	8480.69
380.606	5212.69
380.831	3670.69
381.057	3237.69
381.282	2928.69
381.507	2850.69
381.733	2818.69
381.958	2781.69
382.184	2776.69
382.409	2719.69
382.634	2685.69
382.86	2672.69
383.085	2661.69
383.31	2702.69
383.535	2695.69
383.761	2734.69
383.986	2751.69
384.211	2754.69
384.436	2829.69
384.662	2764.69
384.887	2781.69
385.112	2794.69
385.337	2831.69
385.562	2812.69
385.787	2822.69
386.013	2857.69
386.238	2784.69
386.463	2785.69
386.688	2802.69
386.913	2798.69
387.138	2778.69
387.363	2802.69
387.588	2734.69
387.813	2811.69
388.038	2794.69
388.263	2816.69
388.488	2758.69
388.713	2824.69
388.938	2805.69
389.163	2776.69
389.387	2797.69
389.612	2800.69
389.837	2788.69
390.062	2792.69
390.287	2809.69
390.512	2806.69
390.736	2846.69
390.961	2873.69
391.186	2900.69
391.411	2906.69
391.636	2933.69
391.86	2924.69
392.085	2925.69
392.31	2885.69
392.534	2886.69
392.759	2906.69
392.984	2868.69
393.208	2867.69
393.433	2866.69
393.658	2864.69
393.882	2785.69
394.107	2820.69
394.331	2833.69
394.556	2766.69
394.78	2880.69
395.005	2823.69
395.229	2888.69
395.454	2880.69
395.678	2952.69
395.903	2881.69
396.127	2920.69
396.352	2865.69
396.576	2826.69
396.801	2909.69
397.025	2934.69
397.249	2960.69
397.474	2951.69
397.698	2865.69
397.922	2930.69
398.147	2930.69
398.371	2990.69
398.595	3010.69
398.82	3145.69
399.044	3231.69
399.268	3419.69
399.492	3544.69
399.717	3708.69
399.941	3714.69
400.165	3517.69
400.389	3448.69
400.613	3311.69
400.837	3165.69
401.062	3130.69
401.286	3108.69
401.51	3108.69
401.734	3058.69
401.958	3085.69
402.182	3096.69
402.406	3050.69
402.63	3076.69
402.854	3097.69
403.078	3074.69
403.302	3146.69
403.526	3185.69
403.75	3224.69
403.974	3207.69
404.198	3162.69
404.422	3236.69
404.645	3236.69
404.869	3212.69
405.093	3241.69
405.317	3181.69
405.541	3260.69
405.765	3251.69
405.988	3300.69
406.212	3276.69
406.436	3244.69
406.66	3365.69
406.883	3304.69
407.107	3374.69
407.331	3436.69
407.555	3531.69
407.778	3449.69
408.002	3389.69
408.226	3395.69
408.449	3444.69
408.673	3344.69
408.896	3267.69
409.12	3240.69
409.344	3208.69
409.567	3213.69
409.791	3250.69
410.014	3221.69
410.238	3185.69
410.461	3121.69
410.685	3171.69
410.908	3111.69
411.132	3156.69
411.355	3040.69
411.578	3086.69
411.802	3070.69
412.025	3041.69
412.249	3125.69
412.472	3082.69
412.695	3019.69
412.919	3015.69
413.142	3021.69
413.365	3037.69
413.589	3045.69
413.812	2997.69
414.035	3039.69
414.258	3030.69
414.482	2992.69
414.705	2986.69
414.928	3013.69
415.151	3024.69
415.374	2966.69
415.597	2943.69
415.821	2893.69
416.044	2924.69
416.267	2917.69
416.49	2862.69
416.713	2868.69
416.936	2906.69
417.159	2863.69
417.382	2844.69
417.605	2863.69
417.828	2875.69
418.051	2924.69
418.274	2908.69
418.497	2904.69
418.72	2988.69
418.943	2924.69
419.166	3057.69
419.389	3236.69
419.611	3206.69
419.834	3078.69
420.057	3026.69
420.28	2886.69
420.503	2900.69
420.726	2895.69
420.948	2894.69
421.171	2855.69
421.394	2910.69
421.617	2860.69
421.839	2933.69
422.062	2913.69
422.285	2848.69
422.507	2925.69
422.73	2910.69
422.953	2974.69
423.175	2993.69
423.398	3008.69
423.621	2876.69
423.843	2948.69
424.066	2925.69
424.288	2928.69
424.511	2877.69
424.733	2894.69
424.956	2824.69
425.178	2851.69
425.401	2843.69
425.623	2901.69
425.846	2760.69
426.068	2797.69
426.291	2753.69
426.513	2776.69
426.735	2758.69
426.958	2760.69
427.18	2740.69
427.402	2789.69
427.625	2715.69
427.847	2645.69
428.069	2689.69
428.292	2732.69
428.514	2684.69
428.736	2649.69
428.958	2748.69
429.181	2641.69
429.403	2602.69
429.625	2628.69
429.847	2655.69
430.069	2687.69
430.292	2808.69
430.514	2869.69
430.736	2875.69
430.958	2737.69
431.18	2696.69
431.402	2682.69
431.624	2646.69
431.846	2596.69
432.068	2620.69
432.29	2646.69
432.512	2585.69
432.734	2621.69
432.956	2629.69
433.178	2675.69
433.4	2637.69
433.622	2662.69
433.844	2713.69
434.066	2705.69
434.287	2670.69
434.509	2718.69
434.731	2714.69
434.953	2751.69
435.175	2775.69
435.397	2757.69
435.618	2723.69
435.84	2734.69
436.062	2651.69
436.284	2624.69
436.505	2612.69
436.727	2631.69
436.949	2638.69
437.17	2587.69
437.392	2592.69
437.614	2589.69
437.835	2506.69
438.057	2531.69
438.278	2539.69
438.5	2566.69
438.721	2614.69
438.943	2711.69
439.165	2712.69
439.386	2748.69
439.608	2766.69
439.829	2760.69
440.05	2829.69
440.272	2852.69
440.493	2786.69
440.715	2699.69
440.936	2708.69
441.158	2785.69
441.379	2806.69
441.6	2904.69
441.822	2938.69
442.043	3076.69
442.264	3200.69
442.486	2996.69
442.707	2940.69
442.928	2857.69
443.149	2813.69
443.371	2832.69
443.592	2833.69
443.813	2848.69
444.034	2892.69
444.255	2945.69
444.476	2954.69
444.698	2980.69
444.919	3020.69
445.14	3181.69
445.361	3002.69
445.582	2891.69
445.803	2809.69
446.024	2820.69
446.245	2805.69
446.466	2765.69
446.687	2767.69
446.908	2774.69
447.129	2746.69
447.35	2703.69
447.571	2732.69
447.792	2631.69
448.013	2618.69
448.234	2592.69
448.455	2579.69
448.675	2624.69
448.896	2724.69
449.117	2814.69
449.338	3028.69
449.559	3112.69
449.779	2830.69
450	2601.69
450.221	2610.69
450.442	2571.69
450.662	2577.69
450.883	2543.69
451.104	2570.69
451.324	2553.69
451.545	2543.69
451.766	2576.69
451.986	2577.69
452.207	2819.69
452.428	3611.69
452.648	5433.69
452.869	4564.69
453.089	3112.69
453.31	2937.69
453.53	2934.69
453.751	2998.69
453.971	3200.69
454.192	3068.69
454.412	2662.69
454.633	2573.69
454.853	2548.69
455.073	2488.69
455.294	2471.69
455.514	2419.69
455.734	2403.69
455.955	2388.69
456.175	2461.69
456.395	2408.69
456.616	2466.69
456.836	2506.69
457.056	2484.69
457.276	2470.69
457.497	2629.69
457.717	2641.69
457.937	2579.69
458.157	2578.69
458.377	2600.69
458.598	2652.69
458.818	2616.69
459.038	2634.69
459.258	2617.69
459.478	2654.69
459.698	2710.69
459.918	2699.69
460.138	2805.69
460.358	2846.69
460.578	2806.69
460.798	2858.69
461.018	2906.69
461.238	2919.69
461.458	2844.69
461.678	2926.69
461.898	3079.69
462.118	3056.69
462.338	3074.69
462.558	3139.69
462.777	3154.69
462.997	3301.69
463.217	3364.69
463.437	3485.69
463.657	3534.69
463.876	3532.69
464.096	3310.69
464.316	3201.69
464.536	3111.69
464.755	3103.69
464.975	3078.69
465.195	2942.69
465.414	2890.69
465.634	2754.69
465.854	2757.69
466.073	2677.69
466.293	2686.69
466.512	2670.69
466.732	2684.69
466.951	2857.69
467.171	2973.69
467.391	2920.69
467.61	2708.69
467.829	2657.69
468.049	2657.69
468.268	2615.69
468.488	2588.69
468.707	2538.69
468.927	2577.69
469.146	2579.69
469.365	2670.69
469.585	2652.69
469.804	2660.69
470.023	2725.69
470.243	2798.69
470.462	2842.69
470.681	3002.69
470.901	3327.69
471.12	3737.69
471.339	3716.69
471.558	3113.69
471.777	2842.69
471.997	2807.69
472.216	2694.69
472.435	2717.69
472.654	2614.69
472.873	2601.69
473.092	2626.69
473.311	2639.69
473.53	2682.69
473.749	2693.69
473.968	2782.69
474.187	2681.69
474.406	2618.69
474.625	2660.69
474.844	2589.69
475.063	2599.69
475.282	2587.69
475.501	2648.69
475.72	2672.69
475.939	2698.69
476.158	2706.69
476.377	2800.69
476.596	2710.69
476.814	2750.69
477.033	2786.69
477.252	2792.69
477.471	2838.69
477.69	2858.69
477.908	2917.69
478.127	3015.69
478.346	2952.69
478.564	2958.69
478.783	3073.69
479.002	3056.69
479.22	3091.69
479.439	3137.69
479.658	3143.69
479.876	3123.69
480.095	3125.69
480.313	3229.69
480.532	3248.69
480.751	3179.69
480.969	3203.69
481.188	3204.69
481.406	3142.69
481.624	3146.69
481.843	3208.69
482.061	3211.69
482.28	3250.69
482.498	3172.69
482.717	3173.69
482.935	3205.69
483.153	3205.69
483.372	3288.69
483.59	3326.69
483.808	3331.69
484.027	3442.69
484.245	3628.69
484.463	4057.69
484.681	4435.69
484.9	4134.69
485.118	3822.69
485.336	3745.69
485.554	3731.69
485.772	4016.69
485.99	4513.69
486.209	4752.69
486.427	4119.69
486.645	3653.69
486.863	3513.69
487.081	3439.69
487.299	3425.69
487.517	3424.69
487.735	3357.69
487.953	3414.69
488.171	3360.69
488.389	3319.69
488.607	3248.69
488.825	3332.69
489.043	3217.69
489.261	3248.69
489.479	3220.69
489.696	3228.69
489.914	3294.69
490.132	3278.69
490.35	3285.69
490.568	3290.69
490.786	3356.69
491.003	3316.69
491.221	3406.69
491.439	3412.69
491.657	3373.69
491.874	3454.69
492.092	3450.69
492.31	3424.69
492.527	3396.69
492.745	3480.69
492.963	3416.69
493.18	3378.69
493.398	3392.69
493.615	3401.69
493.833	3389.69
494.05	3439.69
494.268	3401.69
494.485	3447.69
494.703	3437.69
494.92	3426.69
495.138	3461.69
495.355	3392.69
495.573	3510.69
495.79	3496.69
496.008	3513.69
496.225	3525.69
496.442	3548.69
496.66	3705.69
496.877	3836.69
497.094	3821.69
497.312	3710.69
497.529	3789.69
497.746	3738.69
497.963	3833.69
498.181	3920.69
498.398	3945.69
498.615	4078.69
498.832	4306.69
499.049	4524.69
499.267	4806.69
499.484	5077.69
499.701	5076.69
499.918	5205.69
500.135	5486.69
500.352	5728.69
500.569	5788.69
500.786	5801.69
501.003	5571.69
501.22	5397.69
501.437	5076.69
501.654	4732.69
501.871	4584.69
502.088	4439.69
502.305	4250.69
502.522	4174.69
502.739	4126.69
502.956	3925.69
503.172	3820.69
503.389	3700.69
503.606	3670.69
503.823	3624.69
504.04	3603.69
504.256	3585.69
504.473	3579.69
504.69	3546.69
504.907	3537.69
505.123	3498.69
505.34	3401.69
505.557	3261.69
505.773	3250.69
505.99	3236.69
506.207	3209.69
506.423	3152.69
506.64	3135.69
506.856	3112.69
507.073	3066.69
507.289	3065.69
507.506	3045.69
507.722	3068.69
507.939	3017.69
508.155	3021.69
508.372	2992.69
508.588	3009.69
508.805	2988.69
509.021	3000.69
509.238	2972.69
509.454	3186.69
509.67	3380.69
509.887	3151.69
510.103	3065.69
510.319	3028.69
510.536	3001.69
510.752	2973.69
510.968	2931.69
511.184	2876.69
511.401	2929.69
511.617	2874.69
511.833	2876.69
512.049	2845.69
512.265	2860.69
512.481	2857.69
512.698	2790.69
512.914	2812.69
513.13	2815.69
513.346	2823.69
513.562	2889.69
513.778	2843.69
513.994	2898.69
514.21	2961.69
514.426	3189.69
514.642	3239.69
514.858	3036.69
515.074	2940.69
515.29	2960.69
515.506	2932.69
515.721	2947.69
515.937	2921.69
516.153	2911.69
516.369	3004.69
516.585	3009.69
516.801	3018.69
517.016	3081.69
517.232	3174.69
517.448	3176.69
517.664	3281.69
517.879	3250.69
518.095	3249.69
518.311	3233.69
518.527	3138.69
518.742	3150.69
518.958	3180.69
519.173	3277.69
519.389	3127.69
519.605	3012.69
519.82	2936.69
520.036	2905.69
520.251	2849.69
520.467	2888.69
520.682	2839.69
520.898	2822.69
521.113	2802.69
521.329	2776.69
521.544	2836.69
521.76	2780.69
521.975	2813.69
522.19	2745.69
522.406	2744.69
522.621	2754.69
522.836	2801.69
523.052	2744.69
523.267	2769.69
523.482	2752.69
523.698	2726.69
523.913	2698.69
524.128	2715.69
524.343	2720.69
524.559	2716.69
524.774	2713.69
524.989	2761.69
525.204	2680.69
525.419	2629.69
525.634	2721.69
525.849	2726.69
526.064	2694.69
526.28	2743.69
526.495	2694.69
526.71	2738.69
526.925	2686.69
527.14	2701.69
527.355	2736.69
527.57	2750.69
527.785	2750.69
527.999	2766.69
528.214	2761.69
528.429	2837.69
528.644	2838.69
528.859	2817.69
529.074	2856.69
529.289	2906.69
529.503	2929.69
529.718	2948.69
529.933	2896.69
530.148	2885.69
530.363	2882.69
530.577	2900.69
530.792	2885.69
531.007	2929.69
531.221	2980.69
531.436	2985.69
531.651	3005.69
531.865	2992.69
532.08	3057.69
532.295	3225.69
532.509	3392.69
532.724	3436.69
532.938	3426.69
533.153	3630.69
533.367	3877.69
533.582	4121.69
533.796	3996.69
534.011	3814.69
534.225	3671.69
534.44	3489.69
534.654	3455.69
534.868	3345.69
535.083	3272.69
535.297	3248.69
535.511	3169.69
535.726	3100.69
535.94	3068.69
536.154	2968.69
536.369	2944.69
536.583	2936.69
536.797	2913.69
537.011	2879.69
537.225	2856.69
537.44	2831.69
537.654	2773.69
537.868	2754.69
538.082	2783.69
538.296	2738.69
538.51	2709.69
538.724	2752.69
538.938	2694.69
539.153	2697.69
539.367	2682.69
539.581	2655.69
539.795	2643.69
540.009	2617.69
540.222	2596.69
540.436	2640.69
540.65	2614.69
540.864	2665.69
541.078	2734.69
541.292	2831.69
541.506	3286.69
541.72	3523.69
541.934	2993.69
542.147	2854.69
542.361	2722.69
542.575	2666.69
542.789	2667.69
543.002	2572.69
543.216	2572.69
543.43	2493.69
543.644	2490.69
543.857	2516.69
544.071	2558.69
544.285	2565.69
544.498	2545.69
544.712	2536.69
544.925	2589.69
545.139	2572.69
545.352	2580.69
545.566	2515.69
545.779	2529.69
545.993	2585.69
546.206	2578.69
546.42	2586.69
546.633	2568.69
546.847	2546.69
547.06	2550.69
547.274	2575.69
547.487	2549.69
547.7	2558.69
547.914	2563.69
548.127	2567.69
548.34	2591.69
548.554	2541.69
548.767	2544.69
548.98	2580.69
549.193	2547.69
549.407	2522.69
549.62	2566.69
549.833	2543.69
550.046	2589.69
550.259	2612.69
550.473	2548.69
550.686	2530.69
550.899	2520.69
551.112	2545.69
551.325	2537.69
551.538	2599.69
551.751	2541.69
551.964	2530.69
552.177	2611.69
552.39	2592.69
552.603	2692.69
552.816	2745.69
553.029	2732.69
553.242	2805.69
553.455	2778.69
553.667	2808.69
553.88	2872.69
554.093	2786.69
554.306	2856.69
554.519	2873.69
554.732	2956.69
554.944	2996.69
555.157	3060.69
555.37	3167.69
555.583	3294.69
555.795	3359.69
556.008	3731.69
556.221	4192.69
556.433	4547.69
556.646	4514.69
556.859	4253.69
557.071	4128.69
557.284	4006.69
557.496	3838.69
557.709	3742.69
557.921	3647.69
558.134	3708.69
558.346	3792.69
558.559	3942.69
558.771	4110.69
558.984	4540.69
559.196	4950.69
559.409	4605.69
559.621	4238.69
559.833	3924.69
560.046	3729.69
560.258	3507.69
560.47	3360.69
560.683	3228.69
560.895	3059.69
561.107	3013.69
561.32	2926.69
561.532	2846.69
561.744	2762.69
561.956	2695.69
562.168	2681.69
562.381	2624.69
562.593	2644.69
562.805	2677.69
563.017	2690.69
563.229	2754.69
563.441	3114.69
563.653	2620.69
563.865	2428.69
564.077	2426.69
564.289	2380.69
564.501	2372.69
564.713	2409.69
564.925	2363.69
565.137	2307.69
565.349	2339.69
565.561	2353.69
565.773	2382.69
565.985	2418.69
566.197	2421.69
566.408	2481.69
566.62	2581.69
566.832	2606.69
567.044	2621.69
567.255	2582.69
567.467	2630.69
567.679	2691.69
567.891	2784.69
568.102	3156.69
568.314	3614.69
568.526	3125.69
568.737	2693.69
568.949	2450.69
569.161	2348.69
569.372	2259.69
569.584	2172.69
569.795	2173.69
570.007	2131.69
570.218	2217.69
570.43	2247.69
570.641	2094.69
570.853	2000.69
571.064	1976.69
571.276	1979.69
571.487	1926.69
571.698	1936.69
571.91	1878.69
572.121	1870.69
572.333	1866.69
572.544	1911.69
572.755	1993.69
572.966	2293.69
573.178	2104.69
573.389	1948.69
573.6	1856.69
573.811	1810.69
574.023	1821.69
574.234	1751.69
574.445	1759.69
574.656	1749.69
574.867	1754.69
575.078	1741.69
575.289	1712.69
575.501	1728.69
575.712	1695.69
575.923	1714.69
576.134	1696.69
576.345	1691.69
576.556	1735.69
576.767	1705.69
576.978	1712.69
577.188	1722.69
577.399	1748.69
577.61	1737.69
577.821	1753.69
578.032	1767.69
578.243	1796.69
578.454	1842.69
578.665	1915.69
578.875	1948.69
579.086	1960.69
579.297	2077.69
579.508	2242.69
579.718	2444.69
579.929	2706.69
580.14	3297.69
580.35	3366.69
580.561	3048.69
580.772	2756.69
580.982	2515.69
581.193	2325.69
581.403	2238.69
581.614	2104.69
581.825	2034.69
582.035	1935.69
582.246	1850.69
582.456	1820.69
582.667	1778.69
582.877	1764.69
583.087	1734.69
583.298	1617.69
583.508	1608.69
583.719	1606.69
583.929	1569.69
584.139	1513.69
584.35	1485.69
584.56	1480.69
584.77	1401.69
584.981	1461.69
585.191	1455.69
585.401	1397.69
585.611	1378.69
585.821	1367.69
586.032	1336.69
586.242	1358.69
586.452	1335.69
586.662	1310.69
586.872	1320.69
587.082	1310.69
587.292	1309.69
587.502	1263.69
587.713	1255.69
587.923	1241.69
588.133	1235.69
588.343	1203.69
588.553	1226.69
588.762	1219.69
588.972	1212.69
589.182	1255.69
589.392	1208.69
589.602	1164.69
589.812	1207.69
590.022	1206.69
590.232	1198.69
590.441	1185.69
590.651	1174.69
590.861	1189.69
591.071	1164.69
591.281	1168.69
591.49	1206.69
591.7	1210.69
591.91	1191.69
592.119	1189.69
592.329	1194.69
592.539	1196.69
592.748	1211.69
592.958	1226.69
593.167	1200.69
593.377	1217.69
593.587	1237.69
593.796	1193.69
594.006	1255.69
594.215	1193.69
594.424	1215.69
594.634	1210.69
594.843	1209.69
595.053	1154.69
595.262	1144.69
595.472	1142.69
595.681	1100.69
595.89	1102.69
596.1	1088.69
596.309	1073.69
596.518	1069.69
596.727	1061.69
596.937	1035.69
597.146	1032.69
597.355	1049.69
597.564	1049.69
597.774	1012.69
597.983	992.69
598.192	997.69
598.401	982.69
598.61	968.69
598.819	974.69
599.028	961.69
599.237	963.69
599.446	969.69
599.655	955.69
599.864	961.69
600.073	953.69
600.282	947.69
600.491	956.69
600.7	924.69
600.909	921.69
601.118	944.69
601.327	918.69
601.536	912.69
601.745	1006.69
601.953	1073.69
602.162	1213.69
602.371	1048.69
602.58	974.69
602.789	957.69
602.997	924.69
603.206	934.69
603.415	924.69
603.623	923.69
603.832	925.69
604.041	945.69
604.249	940.69
604.458	896.69
604.666	909.69
604.875	876.69
605.084	872.69
605.292	891.69
605.501	866.69
605.709	910.69
605.918	906.69
606.126	906.69
606.334	929.69
606.543	901.69
606.751	991.69
606.96	1128.69
607.168	1220.69
607.376	1057.69
607.585	989.69
607.793	910.69
608.001	890.69
608.21	885.69
608.418	879.69
608.626	883.69
608.834	852.69
609.043	877.69
609.251	860.69
609.459	872.69
609.667	832.69
609.875	842.69
610.083	865.69
610.291	846.69
610.499	830.69
610.707	832.69
610.916	813.69
611.124	823.69
611.332	802.69
611.54	821.69
611.748	827.69
611.955	823.69
612.163	798.69
612.371	793.69
612.579	802.69
612.787	796.69
612.995	779.69
613.203	787.69
613.411	797.69
613.618	820.69
613.826	798.69
614.034	804.69
614.242	799.69
614.449	763.69
614.657	785.69
614.865	777.69
615.072	801.69
615.28	804.69
615.488	784.69
615.695	806.69
615.903	783.69
616.111	792.69
616.318	778.69
616.526	799.69
616.733	792.69
616.941	789.69
617.148	740.69
617.356	775.69
617.563	772.69
617.771	760.69
617.978	756.69
618.185	778.69
618.393	744.69
618.6	754.69
618.807	745.69
619.015	756.69
619.222	748.69
619.429	736.69
619.637	736.69
619.844	712.69
620.051	699.69
620.258	732.69
620.466	736.69
620.673	697.69
620.88	666.69
621.087	696.69
621.294	673.69
621.501	693.69
621.708	702.69
621.915	692.69
622.122	705.69
622.329	700.69
622.536	702.69
622.743	712.69
622.95	696.69
623.157	676.69
623.364	671.69
623.571	681.69
623.778	690.69
623.985	677.69
624.192	688.69
624.399	680.69
624.606	649.69
624.812	658.69
625.019	653.69
625.226	661.69
625.433	653.69
625.639	639.69
625.846	616.69
626.053	616.69
626.259	632.69
626.466	628.69
626.673	669.69
626.879	630.69
627.086	632.69
627.293	632.69
627.499	647.69
627.706	640.69
627.912	649.69
628.119	629.69
628.325	626.69
628.532	613.69
628.738	648.69
628.945	649.69
629.151	634.69
629.357	612.69
629.564	599.69
629.77	590.69
629.976	607.69
630.183	605.69
630.389	625.69
630.595	592.69
630.802	599.69
631.008	591.69
631.214	621.69
631.42	597.69
631.627	604.69
631.833	590.69
632.039	600.69
632.245	603.69
632.451	566.69
632.657	605.69
632.863	580.69
633.069	601.69
633.275	583.69
633.481	571.69
633.688	565.69
633.893	589.69
634.099	565.69
634.305	601.69
634.511	580.69
634.717	590.69
634.923	609.69
635.129	663.69
635.335	759.69
635.541	688.69
635.747	635.69
635.952	608.69
636.158	600.69
636.364	596.69
636.57	598.69
636.775	596.69
636.981	576.69
637.187	561.69
637.392	596.69
637.598	574.69
637.804	583.69
638.009	569.69
638.215	582.69
638.421	585.69
638.626	585.69
638.832	587.69
639.037	576.69
639.243	574.69
639.448	592.69
639.654	593.69
639.859	591.69
640.065	592.69
640.27	609.69
640.475	595.69
640.681	593.69
640.886	608.69
641.091	634.69
641.297	631.69
641.502	642.69
641.707	640.69
641.913	629.69
642.118	656.69
642.323	667.69
642.528	656.69
642.733	676.69
642.939	711.69
643.144	732.69
643.349	764.69
643.554	765.69
643.759	808.69
643.964	840.69
644.169	897.69
644.374	935.69
644.579	1034.69
644.784	1157.69
644.989	1287.69
645.194	1535.69
645.399	1908.69
645.604	2099.69
645.809	1508.69
646.014	1138.69
646.219	973.69
646.423	846.69
646.628	748.69
646.833	692.69
647.038	673.69
647.243	631.69
647.447	621.69
647.652	602.69
647.857	585.69
648.062	551.69
648.266	566.69
648.471	566.69
648.676	551.69
648.88	542.69
649.085	525.69
649.289	535.69
649.494	499.69
649.698	476.69
649.903	470.69
650.107	482.69
650.312	505.69
650.516	474.69
650.721	454.69
650.925	451.69
651.13	450.69
651.334	434.69
651.539	425.69
651.743	410.69
651.947	416.69
652.152	413.69
652.356	402.69
652.56	453.69
652.764	480.69
652.969	436.69
653.173	399.69
653.377	379.69
653.581	379.69
653.785	391.69
653.99	346.69
654.194	376.69
654.398	358.69
654.602	356.69
654.806	347.69
655.01	342.69
655.214	346.69
655.418	337.69
655.622	349.69
655.826	359.69
656.03	367.69
656.234	374.69
656.438	358.69
656.642	370.69
656.846	373.69
657.049	359.69
657.253	340.69
657.457	305.69
657.661	287.69
657.865	279.69
658.068	245.69
658.272	247.69
658.476	257.69
658.68	231.69
658.883	224.69
659.087	215.69
659.291	202.69
659.494	203.69
659.698	187.69
659.901	181.69
660.105	176.69
660.309	183.69
660.512	167.69
660.716	148.69
660.919	160.69
661.123	151.69
661.326	124.69
661.53	138.69
661.733	120.69
661.936	126.69
662.14	122.69
662.343	114.69
662.546	109.69
662.75	94.69
662.953	102.69
663.156	92.69
663.36	101.69
663.563	109.69
663.766	85.69
663.969	93.69
664.173	79.69
664.376	80.69
664.579	92.69
664.782	96.69
664.985	85.69
665.188	84.69
665.391	100.69
665.594	81.69
665.797	75.69
666	86.69
666.203	81.69
666.406	79.69
666.609	90.69
666.812	91.69
667.015	97.69
667.218	86.69
667.421	103.69
667.624	82.69
667.827	82.69
668.03	74.69
668.232	78.69
668.435	88.69
668.638	93.69
668.841	77.69
669.043	74.69
669.246	79.69
669.449	82.69
669.651	89.69
669.854	65.69
670.057	83.69
670.259	79.69
670.462	75.69
670.665	82.69
670.867	71.69
671.07	78.69
671.272	70.69
671.475	76.69
671.677	70.69
671.88	75.69
672.082	81.69
672.284	75.69
672.487	73.69
672.689	88.69
672.892	85.69
