Data from SnStandardFlinnAPT0064_LampEnergy5.5_LIBS07252019.E.O._I.C._HRD10591_15-14-57-494.txt Node
Date: Thu Jul 25 15:14:57 EDT 2019
User: cochatt
Spectrometer: HR+D1059
Trigger mode: 1
Integration Time (sec): 1.000000E-1
Scans to average: 1
Electric dark correction enabled: true
Nonlinearity correction enabled: false
Boxcar width: 0
XAxis mode: Wavelengths
Number of Pixels in Spectrum: 2048
>>>>>Begin Spectral Data<<<<<
223.165	-15.12
223.4	-15.12
223.635	-15.12
223.869	-14.12
224.104	-22.12
224.338	-22.12
224.573	-22.12
224.808	-17.12
225.042	-2.12
225.277	-15.12
225.511	12.88
225.746	-0.12
225.98	9.88
226.215	7.88
226.449	31.88
226.683	13.88
226.918	18.88
227.152	34.88
227.387	29.88
227.621	51.88
227.856	47.88
228.09	49.88
228.324	53.88
228.559	52.88
228.793	74.88
229.027	138.88
229.262	151.88
229.496	131.88
229.73	126.88
229.964	147.88
230.199	147.88
230.433	140.88
230.667	156.88
230.901	147.88
231.136	153.88
231.37	162.88
231.604	180.88
231.838	211.88
232.072	204.88
232.306	235.88
232.541	196.88
232.775	187.88
233.009	197.88
233.243	177.88
233.477	204.88
233.711	220.88
233.945	257.88
234.179	226.88
234.413	204.88
234.647	192.88
234.881	207.88
235.115	221.88
235.349	241.88
235.583	317.88
235.817	371.88
236.051	347.88
236.285	275.88
236.519	230.88
236.753	225.88
236.987	224.88
237.221	215.88
237.455	211.88
237.689	213.88
237.922	205.88
238.156	221.88
238.39	215.88
238.624	203.88
238.858	205.88
239.091	225.88
239.325	210.88
239.559	229.88
239.793	221.88
240.027	228.88
240.26	245.88
240.494	242.88
240.728	222.88
240.961	260.88
241.195	280.88
241.429	261.88
241.662	277.88
241.896	322.88
242.13	347.88
242.363	432.88
242.597	539.88
242.83	504.88
243.064	533.88
243.298	609.88
243.531	526.88
243.765	368.88
243.998	292.88
244.232	277.88
244.465	296.88
244.699	279.88
244.932	298.88
245.166	275.88
245.399	268.88
245.633	299.88
245.866	281.88
246.099	305.88
246.333	289.88
246.566	271.88
246.8	280.88
247.033	251.88
247.266	276.88
247.5	285.88
247.733	279.88
247.966	302.88
248.2	323.88
248.433	332.88
248.666	370.88
248.899	355.88
249.133	345.88
249.366	338.88
249.599	370.88
249.832	403.88
250.066	378.88
250.299	366.88
250.532	324.88
250.765	308.88
250.998	322.88
251.231	310.88
251.465	328.88
251.698	306.88
251.931	326.88
252.164	319.88
252.397	314.88
252.63	319.88
252.863	316.88
253.096	328.88
253.329	349.88
253.562	326.88
253.795	340.88
254.028	325.88
254.261	328.88
254.494	362.88
254.727	385.88
254.96	442.88
255.193	432.88
255.426	389.88
255.659	362.88
255.892	352.88
256.124	343.88
256.357	357.88
256.59	348.88
256.823	376.88
257.056	407.88
257.289	466.88
257.521	475.88
257.754	416.88
257.987	381.88
258.22	372.88
258.452	382.88
258.685	385.88
258.918	391.88
259.151	393.88
259.383	411.88
259.616	443.88
259.849	470.88
260.081	448.88
260.314	396.88
260.547	393.88
260.779	401.88
261.012	404.88
261.244	388.88
261.477	414.88
261.71	405.88
261.942	405.88
262.175	422.88
262.407	440.88
262.64	444.88
262.872	466.88
263.105	479.88
263.337	508.88
263.57	519.88
263.802	543.88
264.035	542.88
264.267	575.88
264.499	588.88
264.732	601.88
264.964	588.88
265.197	595.88
265.429	600.88
265.661	579.88
265.894	642.88
266.126	693.88
266.358	760.88
266.591	723.88
266.823	663.88
267.055	629.88
267.287	598.88
267.52	536.88
267.752	534.88
267.984	536.88
268.216	502.88
268.448	507.88
268.681	518.88
268.913	516.88
269.145	533.88
269.377	506.88
269.609	520.88
269.841	525.88
270.073	526.88
270.306	593.88
270.538	778.88
270.77	1055.88
271.002	1243.88
271.234	960.88
271.466	691.88
271.698	570.88
271.93	551.88
272.162	539.88
272.394	535.88
272.626	487.88
272.858	496.88
273.09	513.88
273.322	485.88
273.553	489.88
273.785	494.88
274.017	517.88
274.249	486.88
274.481	488.88
274.713	493.88
274.945	489.88
275.176	485.88
275.408	492.88
275.64	499.88
275.872	512.88
276.104	490.88
276.335	496.88
276.567	527.88
276.799	521.88
277.031	523.88
277.262	501.88
277.494	559.88
277.726	573.88
277.957	641.88
278.189	683.88
278.421	674.88
278.652	616.88
278.884	619.88
279.115	555.88
279.347	560.88
279.579	532.88
279.81	537.88
280.042	553.88
280.273	569.88
280.505	556.88
280.736	589.88
280.968	607.88
281.199	627.88
281.431	716.88
281.662	704.88
281.894	657.88
282.125	619.88
282.356	622.88
282.588	630.88
282.819	645.88
283.051	671.88
283.282	729.88
283.513	899.88
283.745	1201.88
283.976	1835.88
284.207	2540.88
284.439	2313.88
284.67	1435.88
284.901	1199.88
285.132	1164.88
285.364	1115.88
285.595	921.88
285.826	836.88
286.057	966.88
286.288	1233.88
286.52	1620.88
286.751	1550.88
286.982	1033.88
287.213	835.88
287.444	740.88
287.675	715.88
287.906	667.88
288.138	653.88
288.369	683.88
288.6	677.88
288.831	655.88
289.062	671.88
289.293	671.88
289.524	650.88
289.755	663.88
289.986	689.88
290.217	679.88
290.448	707.88
290.679	671.88
290.91	654.88
291.141	703.88
291.371	718.88
291.602	726.88
291.833	673.88
292.064	650.88
292.295	617.88
292.526	669.88
292.757	639.88
292.987	611.88
293.218	627.88
293.449	645.88
293.68	645.88
293.91	625.88
294.141	617.88
294.372	628.88
294.603	647.88
294.833	617.88
295.064	615.88
295.295	625.88
295.525	623.88
295.756	636.88
295.987	625.88
296.217	628.88
296.448	649.88
296.679	654.88
296.909	631.88
297.14	636.88
297.37	643.88
297.601	652.88
297.831	626.88
298.062	634.88
298.292	647.88
298.523	645.88
298.753	678.88
298.984	665.88
299.214	687.88
299.445	683.88
299.675	698.88
299.905	691.88
300.136	708.88
300.366	781.88
300.597	954.88
300.827	1268.88
301.057	1614.88
301.288	1638.88
301.518	1115.88
301.748	915.88
301.979	838.88
302.209	836.88
302.439	850.88
302.669	866.88
302.9	1008.88
303.13	1353.88
303.36	1828.88
303.59	2377.88
303.82	2130.88
304.051	1347.88
304.281	1053.88
304.511	912.88
304.741	840.88
304.971	781.88
305.201	789.88
305.431	768.88
305.661	759.88
305.891	751.88
306.121	757.88
306.352	727.88
306.582	716.88
306.812	722.88
307.042	713.88
307.272	719.88
307.502	733.88
307.731	697.88
307.961	706.88
308.191	711.88
308.421	701.88
308.651	691.88
308.881	706.88
309.111	711.88
309.341	737.88
309.571	741.88
309.8	747.88
310.03	737.88
310.26	738.88
310.49	737.88
310.72	722.88
310.949	740.88
311.179	741.88
311.409	738.88
311.639	773.88
311.868	776.88
312.098	783.88
312.328	775.88
312.557	767.88
312.787	774.88
313.017	766.88
313.246	805.88
313.476	775.88
313.706	791.88
313.935	852.88
314.165	843.88
314.394	868.88
314.624	848.88
314.853	837.88
315.083	831.88
315.312	835.88
315.542	855.88
315.771	833.88
316.001	846.88
316.23	881.88
316.46	908.88
316.689	963.88
316.919	1150.88
317.148	1530.88
317.377	2251.88
317.607	3156.88
317.836	3301.88
318.065	2090.88
318.295	1381.88
318.524	1176.88
318.753	1031.88
318.983	1012.88
319.212	977.88
319.441	912.88
319.67	917.88
319.9	912.88
320.129	916.88
320.358	901.88
320.587	915.88
320.816	889.88
321.046	916.88
321.275	938.88
321.504	916.88
321.733	941.88
321.962	967.88
322.191	953.88
322.42	978.88
322.649	968.88
322.878	944.88
323.108	956.88
323.337	980.88
323.566	966.88
323.795	993.88
324.024	1008.88
324.253	1030.88
324.482	1044.88
324.71	1099.88
324.939	1140.88
325.168	1187.88
325.397	1215.88
325.626	1379.88
325.855	1815.88
326.084	2705.88
326.313	3921.88
326.542	4128.88
326.77	2815.88
326.999	1969.88
327.228	1724.88
327.457	1635.88
327.686	1663.88
327.914	1771.88
328.143	1991.88
328.372	2272.88
328.6	2466.88
328.829	2313.88
329.058	2014.88
329.287	1832.88
329.515	1713.88
329.744	1588.88
329.972	1476.88
330.201	1433.88
330.43	1377.88
330.658	1343.88
330.887	1367.88
331.115	1337.88
331.344	1359.88
331.572	1316.88
331.801	1298.88
332.03	1314.88
332.258	1338.88
332.486	1400.88
332.715	1500.88
332.943	1785.88
333.172	2077.88
333.4	2075.88
333.629	1747.88
333.857	1631.88
334.085	1640.88
334.314	1715.88
334.542	1843.88
334.771	2140.88
334.999	2506.88
335.227	3034.88
335.455	3303.88
335.684	3084.88
335.912	2677.88
336.14	2387.88
336.369	2111.88
336.597	1925.88
336.825	1804.88
337.053	1659.88
337.281	1599.88
337.51	1549.88
337.738	1485.88
337.966	1390.88
338.194	1374.88
338.422	1333.88
338.65	1286.88
338.878	1251.88
339.106	1295.88
339.334	1257.88
339.562	1223.88
339.79	1188.88
340.018	1161.88
340.246	1171.88
340.474	1178.88
340.702	1179.88
340.93	1180.88
341.158	1153.88
341.386	1144.88
341.614	1177.88
341.842	1135.88
342.07	1093.88
342.298	1096.88
342.526	1072.88
342.754	1083.88
342.981	1035.88
343.209	1098.88
343.437	1075.88
343.665	1080.88
343.893	1099.88
344.12	1090.88
344.348	1111.88
344.576	1080.88
344.804	1061.88
345.031	1046.88
345.259	1007.88
345.487	1012.88
345.714	1056.88
345.942	1009.88
346.17	1019.88
346.397	995.88
346.625	999.88
346.853	980.88
347.08	970.88
347.308	1000.88
347.535	982.88
347.763	1031.88
347.99	976.88
348.218	955.88
348.445	957.88
348.673	954.88
348.9	986.88
349.128	956.88
349.355	975.88
349.583	970.88
349.81	928.88
350.037	952.88
350.265	945.88
350.492	959.88
350.72	947.88
350.947	935.88
351.174	981.88
351.402	964.88
351.629	958.88
351.856	948.88
352.083	970.88
352.311	960.88
352.538	925.88
352.765	949.88
352.992	961.88
353.22	933.88
353.447	937.88
353.674	959.88
353.901	935.88
354.128	954.88
354.355	955.88
354.583	945.88
354.81	960.88
355.037	947.88
355.264	971.88
355.491	972.88
355.718	987.88
355.945	967.88
356.172	993.88
356.399	960.88
356.626	991.88
356.853	994.88
357.08	981.88
357.307	980.88
357.534	1021.88
357.761	1001.88
357.988	1047.88
358.215	1029.88
358.441	984.88
358.668	1023.88
358.895	1022.88
359.122	991.88
359.349	984.88
359.576	981.88
359.802	983.88
360.029	997.88
360.256	1020.88
360.483	1002.88
360.709	1001.88
360.936	1021.88
361.163	989.88
361.39	993.88
361.616	1018.88
361.843	1019.88
362.07	1014.88
362.296	1017.88
362.523	1016.88
362.749	1008.88
362.976	1014.88
363.203	1043.88
363.429	997.88
363.656	1037.88
363.882	993.88
364.109	1029.88
364.335	983.88
364.562	1009.88
364.788	983.88
365.015	1013.88
365.241	1034.88
365.468	1065.88
365.694	1113.88
365.92	1111.88
366.147	1026.88
366.373	1033.88
366.599	1022.88
366.826	1027.88
367.052	1041.88
367.278	1053.88
367.505	1038.88
367.731	1037.88
367.957	1031.88
368.184	1067.88
368.41	1077.88
368.636	1043.88
368.862	1029.88
369.089	1047.88
369.315	1026.88
369.541	1064.88
369.767	1035.88
369.993	1041.88
370.219	1064.88
370.445	1066.88
370.672	1064.88
370.898	1061.88
371.124	1088.88
371.35	1097.88
371.576	1068.88
371.802	1079.88
372.028	1097.88
372.254	1099.88
372.48	1092.88
372.706	1136.88
372.932	1122.88
373.158	1113.88
373.384	1098.88
373.61	1097.88
373.835	1128.88
374.061	1127.88
374.287	1115.88
374.513	1121.88
374.739	1140.88
374.965	1161.88
375.191	1139.88
375.416	1153.88
375.642	1089.88
375.868	1169.88
376.094	1093.88
376.319	1108.88
376.545	1112.88
376.771	1067.88
376.997	1091.88
377.222	1109.88
377.448	1077.88
377.674	1094.88
377.899	1093.88
378.125	1083.88
378.35	1072.88
378.576	1045.88
378.802	1104.88
379.027	1095.88
379.253	1124.88
379.478	1137.88
379.704	1327.88
379.929	1686.88
380.155	2392.88
380.38	2544.88
380.606	1712.88
380.831	1311.88
381.057	1245.88
381.282	1164.88
381.507	1116.88
381.733	1137.88
381.958	1071.88
382.184	1096.88
382.409	1071.88
382.634	1073.88
382.86	1091.88
383.085	1057.88
383.31	1058.88
383.535	1056.88
383.761	1092.88
383.986	1093.88
384.211	1104.88
384.436	1099.88
384.662	1102.88
384.887	1117.88
385.112	1131.88
385.337	1097.88
385.562	1121.88
385.787	1129.88
386.013	1096.88
386.238	1112.88
386.463	1094.88
386.688	1094.88
386.913	1119.88
387.138	1120.88
387.363	1100.88
387.588	1110.88
387.813	1121.88
388.038	1131.88
388.263	1165.88
388.488	1112.88
388.713	1153.88
388.938	1120.88
389.163	1103.88
389.387	1127.88
389.612	1099.88
389.837	1131.88
390.062	1130.88
390.287	1109.88
390.512	1128.88
390.736	1143.88
390.961	1140.88
391.186	1140.88
391.411	1153.88
391.636	1201.88
391.86	1179.88
392.085	1215.88
392.31	1174.88
392.534	1166.88
392.759	1157.88
392.984	1143.88
393.208	1143.88
393.433	1120.88
393.658	1122.88
393.882	1150.88
394.107	1140.88
394.331	1147.88
394.556	1137.88
394.78	1140.88
395.005	1145.88
395.229	1153.88
395.454	1146.88
395.678	1151.88
395.903	1163.88
396.127	1210.88
396.352	1148.88
396.576	1144.88
396.801	1151.88
397.025	1149.88
397.249	1157.88
397.474	1184.88
397.698	1153.88
397.922	1180.88
398.147	1189.88
398.371	1185.88
398.595	1233.88
398.82	1268.88
399.044	1269.88
399.268	1357.88
399.492	1427.88
399.717	1510.88
399.941	1489.88
400.165	1420.88
400.389	1384.88
400.613	1305.88
400.837	1269.88
401.062	1276.88
401.286	1280.88
401.51	1217.88
401.734	1208.88
401.958	1235.88
402.182	1227.88
402.406	1241.88
402.63	1263.88
402.854	1247.88
403.078	1222.88
403.302	1253.88
403.526	1275.88
403.75	1248.88
403.974	1315.88
404.198	1275.88
404.422	1298.88
404.645	1301.88
404.869	1260.88
405.093	1279.88
405.317	1277.88
405.541	1285.88
405.765	1292.88
405.988	1353.88
406.212	1328.88
406.436	1290.88
406.66	1322.88
406.883	1324.88
407.107	1351.88
407.331	1372.88
407.555	1402.88
407.778	1377.88
408.002	1361.88
408.226	1348.88
408.449	1339.88
408.673	1361.88
408.896	1306.88
409.12	1305.88
409.344	1299.88
409.567	1253.88
409.791	1267.88
410.014	1268.88
410.238	1273.88
410.461	1261.88
410.685	1244.88
410.908	1271.88
411.132	1231.88
411.355	1244.88
411.578	1222.88
411.802	1245.88
412.025	1221.88
412.249	1256.88
412.472	1211.88
412.695	1183.88
412.919	1192.88
413.142	1227.88
413.365	1204.88
413.589	1216.88
413.812	1199.88
414.035	1244.88
414.258	1224.88
414.482	1256.88
414.705	1239.88
414.928	1218.88
415.151	1216.88
415.374	1197.88
415.597	1193.88
415.821	1152.88
416.044	1197.88
416.267	1184.88
416.49	1179.88
416.713	1146.88
416.936	1175.88
417.159	1168.88
417.382	1146.88
417.605	1129.88
417.828	1142.88
418.051	1143.88
418.274	1190.88
418.497	1162.88
418.72	1206.88
418.943	1148.88
419.166	1227.88
419.389	1269.88
419.611	1279.88
419.834	1236.88
420.057	1218.88
420.28	1185.88
420.503	1171.88
420.726	1166.88
420.948	1172.88
421.171	1157.88
421.394	1176.88
421.617	1187.88
421.839	1184.88
422.062	1172.88
422.285	1189.88
422.507	1203.88
422.73	1197.88
422.953	1220.88
423.175	1197.88
423.398	1183.88
423.621	1180.88
423.843	1187.88
424.066	1179.88
424.288	1177.88
424.511	1163.88
424.733	1188.88
424.956	1186.88
425.178	1174.88
425.401	1141.88
425.623	1158.88
425.846	1156.88
426.068	1163.88
426.291	1142.88
426.513	1129.88
426.735	1144.88
426.958	1101.88
427.18	1125.88
427.402	1120.88
427.625	1128.88
427.847	1074.88
428.069	1080.88
428.292	1107.88
428.514	1067.88
428.736	1080.88
428.958	1090.88
429.181	1061.88
429.403	1030.88
429.625	1079.88
429.847	1075.88
430.069	1089.88
430.292	1121.88
430.514	1172.88
430.736	1156.88
430.958	1128.88
431.18	1096.88
431.402	1073.88
431.624	1052.88
431.846	1064.88
432.068	1040.88
432.29	1072.88
432.512	1048.88
432.734	1081.88
432.956	1106.88
433.178	1105.88
433.4	1089.88
433.622	1097.88
433.844	1105.88
434.066	1104.88
434.287	1064.88
434.509	1085.88
434.731	1110.88
434.953	1115.88
435.175	1143.88
435.397	1157.88
435.618	1109.88
435.84	1075.88
436.062	1082.88
436.284	1051.88
436.505	1063.88
436.727	1089.88
436.949	1085.88
437.17	1113.88
437.392	1060.88
437.614	1046.88
437.835	1013.88
438.057	1022.88
438.278	1034.88
438.5	1052.88
438.721	1071.88
438.943	1100.88
439.165	1120.88
439.386	1089.88
439.608	1140.88
439.829	1099.88
440.05	1132.88
440.272	1152.88
440.493	1126.88
440.715	1100.88
440.936	1100.88
441.158	1126.88
441.379	1143.88
441.6	1166.88
441.822	1160.88
442.043	1222.88
442.264	1207.88
442.486	1172.88
442.707	1166.88
442.928	1172.88
443.149	1138.88
443.371	1128.88
443.592	1151.88
443.813	1152.88
444.034	1186.88
444.255	1210.88
444.476	1199.88
444.698	1258.88
444.919	1279.88
445.14	1341.88
445.361	1225.88
445.582	1194.88
445.803	1179.88
446.024	1130.88
446.245	1153.88
446.466	1138.88
446.687	1158.88
446.908	1121.88
447.129	1103.88
447.35	1121.88
447.571	1095.88
447.792	1094.88
448.013	1039.88
448.234	1058.88
448.455	1051.88
448.675	1062.88
448.896	1068.88
449.117	1106.88
449.338	1175.88
449.559	1217.88
449.779	1138.88
450	1066.88
450.221	1041.88
450.442	1037.88
450.662	1031.88
450.883	1025.88
451.104	1027.88
451.324	1022.88
451.545	1018.88
451.766	1045.88
451.986	1028.88
452.207	1048.88
452.428	1253.88
452.648	1644.88
452.869	1439.88
453.089	1149.88
453.31	1113.88
453.53	1111.88
453.751	1116.88
453.971	1174.88
454.192	1153.88
454.412	1035.88
454.633	1028.88
454.853	1008.88
455.073	1010.88
455.294	993.88
455.514	962.88
455.734	986.88
455.955	982.88
456.175	969.88
456.395	951.88
456.616	1009.88
456.836	1002.88
457.056	977.88
457.276	984.88
457.497	1027.88
457.717	1041.88
457.937	1010.88
458.157	1021.88
458.377	1039.88
458.598	1054.88
458.818	1028.88
459.038	1070.88
459.258	1063.88
459.478	1059.88
459.698	1055.88
459.918	1096.88
460.138	1137.88
460.358	1124.88
460.578	1116.88
460.798	1167.88
461.018	1157.88
461.238	1159.88
461.458	1181.88
461.678	1150.88
461.898	1195.88
462.118	1204.88
462.338	1226.88
462.558	1241.88
462.777	1271.88
462.997	1288.88
463.217	1357.88
463.437	1387.88
463.657	1381.88
463.876	1347.88
464.096	1299.88
464.316	1285.88
464.536	1261.88
464.755	1237.88
464.975	1223.88
465.195	1185.88
465.414	1150.88
465.634	1145.88
465.854	1130.88
466.073	1079.88
466.293	1095.88
466.512	1056.88
466.732	1057.88
466.951	1158.88
467.171	1149.88
467.391	1163.88
467.61	1112.88
467.829	1095.88
468.049	1076.88
468.268	1063.88
468.488	1057.88
468.707	1077.88
468.927	1053.88
469.146	1095.88
469.365	1091.88
469.585	1073.88
469.804	1107.88
470.023	1091.88
470.243	1142.88
470.462	1135.88
470.681	1174.88
470.901	1287.88
471.12	1413.88
471.339	1409.88
471.558	1252.88
471.777	1167.88
471.997	1096.88
472.216	1083.88
472.435	1074.88
472.654	1040.88
472.873	1079.88
473.092	1059.88
473.311	1034.88
473.53	1062.88
473.749	1102.88
473.968	1126.88
474.187	1104.88
474.406	1040.88
474.625	1075.88
474.844	1051.88
475.063	1083.88
475.282	1090.88
475.501	1099.88
475.72	1064.88
475.939	1031.88
476.158	1098.88
476.377	1125.88
476.596	1110.88
476.814	1113.88
477.033	1107.88
477.252	1141.88
477.471	1153.88
477.69	1189.88
477.908	1196.88
478.127	1235.88
478.346	1223.88
478.564	1271.88
478.783	1226.88
479.002	1250.88
479.22	1239.88
479.439	1248.88
479.658	1245.88
479.876	1244.88
480.095	1256.88
480.313	1306.88
480.532	1291.88
480.751	1304.88
480.969	1247.88
481.188	1238.88
481.406	1230.88
481.624	1228.88
481.843	1254.88
482.061	1246.88
482.28	1268.88
482.498	1266.88
482.717	1241.88
482.935	1282.88
483.153	1287.88
483.372	1320.88
483.59	1336.88
483.808	1309.88
484.027	1334.88
484.245	1406.88
484.463	1503.88
484.681	1663.88
484.9	1541.88
485.118	1459.88
485.336	1419.88
485.554	1474.88
485.772	1547.88
485.99	1656.88
486.209	1753.88
486.427	1540.88
486.645	1422.88
486.863	1399.88
487.081	1368.88
487.299	1363.88
487.517	1349.88
487.735	1391.88
487.953	1370.88
488.171	1394.88
488.389	1345.88
488.607	1347.88
488.825	1349.88
489.043	1293.88
489.261	1285.88
489.479	1311.88
489.696	1330.88
489.914	1304.88
490.132	1347.88
490.35	1378.88
490.568	1347.88
490.786	1385.88
491.003	1375.88
491.221	1388.88
491.439	1415.88
491.657	1391.88
491.874	1381.88
492.092	1444.88
492.31	1440.88
492.527	1475.88
492.745	1461.88
492.963	1403.88
493.18	1415.88
493.398	1411.88
493.615	1405.88
493.833	1431.88
494.05	1424.88
494.268	1402.88
494.485	1405.88
494.703	1416.88
494.92	1377.88
495.138	1419.88
495.355	1391.88
495.573	1382.88
495.79	1375.88
496.008	1419.88
496.225	1435.88
496.442	1460.88
496.66	1470.88
496.877	1552.88
497.094	1530.88
497.312	1469.88
497.529	1493.88
497.746	1526.88
497.963	1535.88
498.181	1564.88
498.398	1562.88
498.615	1627.88
498.832	1692.88
499.049	1775.88
499.267	1904.88
499.484	1989.88
499.701	2024.88
499.918	2113.88
500.135	2243.88
500.352	2394.88
500.569	2425.88
500.786	2359.88
501.003	2326.88
501.22	2176.88
501.437	2037.88
501.654	1923.88
501.871	1853.88
502.088	1787.88
502.305	1747.88
502.522	1674.88
502.739	1615.88
502.956	1594.88
503.172	1545.88
503.389	1514.88
503.606	1480.88
503.823	1421.88
504.04	1459.88
504.256	1421.88
504.473	1438.88
504.69	1433.88
504.907	1418.88
505.123	1387.88
505.34	1313.88
505.557	1317.88
505.773	1299.88
505.99	1324.88
506.207	1271.88
506.423	1261.88
506.64	1284.88
506.856	1254.88
507.073	1219.88
507.289	1224.88
507.506	1251.88
507.722	1210.88
507.939	1180.88
508.155	1210.88
508.372	1210.88
508.588	1204.88
508.805	1185.88
509.021	1179.88
509.238	1195.88
509.454	1243.88
509.67	1303.88
509.887	1224.88
510.103	1199.88
510.319	1199.88
510.536	1179.88
510.752	1171.88
510.968	1148.88
511.184	1183.88
511.401	1153.88
511.617	1152.88
511.833	1161.88
512.049	1161.88
512.265	1125.88
512.481	1129.88
512.698	1128.88
512.914	1149.88
513.13	1141.88
513.346	1138.88
513.562	1126.88
513.778	1115.88
513.994	1147.88
514.21	1195.88
514.426	1232.88
514.642	1247.88
514.858	1170.88
515.074	1164.88
515.29	1179.88
515.506	1157.88
515.721	1179.88
515.937	1173.88
516.153	1178.88
516.369	1196.88
516.585	1181.88
516.801	1212.88
517.016	1259.88
517.232	1256.88
517.448	1307.88
517.664	1293.88
517.879	1301.88
518.095	1290.88
518.311	1290.88
518.527	1282.88
518.742	1242.88
518.958	1255.88
519.173	1291.88
519.389	1221.88
519.605	1203.88
519.82	1156.88
520.036	1203.88
520.251	1167.88
520.467	1187.88
520.682	1161.88
520.898	1142.88
521.113	1119.88
521.329	1137.88
521.544	1124.88
521.76	1135.88
521.975	1117.88
522.19	1137.88
522.406	1115.88
522.621	1089.88
522.836	1113.88
523.052	1103.88
523.267	1119.88
523.482	1105.88
523.698	1113.88
523.913	1128.88
524.128	1117.88
524.343	1100.88
524.559	1112.88
524.774	1100.88
524.989	1125.88
525.204	1100.88
525.419	1101.88
525.634	1118.88
525.849	1106.88
526.064	1093.88
526.28	1087.88
526.495	1105.88
526.71	1109.88
526.925	1085.88
527.14	1078.88
527.355	1108.88
527.57	1103.88
527.785	1115.88
527.999	1119.88
528.214	1121.88
528.429	1114.88
528.644	1147.88
528.859	1163.88
529.074	1181.88
529.289	1201.88
529.503	1209.88
529.718	1170.88
529.933	1167.88
530.148	1144.88
530.363	1162.88
530.577	1170.88
530.792	1175.88
531.007	1135.88
531.221	1172.88
531.436	1183.88
531.651	1189.88
531.865	1169.88
532.08	1220.88
532.295	1224.88
532.509	1288.88
532.724	1314.88
532.938	1291.88
533.153	1327.88
533.367	1375.88
533.582	1436.88
533.796	1439.88
534.011	1380.88
534.225	1323.88
534.44	1319.88
534.654	1350.88
534.868	1303.88
535.083	1279.88
535.297	1260.88
535.511	1240.88
535.726	1253.88
535.94	1236.88
536.154	1198.88
536.369	1170.88
536.583	1152.88
536.797	1160.88
537.011	1140.88
537.225	1131.88
537.44	1126.88
537.654	1136.88
537.868	1103.88
538.082	1087.88
538.296	1103.88
538.51	1095.88
538.724	1059.88
538.938	1135.88
539.153	1092.88
539.367	1095.88
539.581	1077.88
539.795	1068.88
540.009	1058.88
540.222	1055.88
540.436	1074.88
540.65	1057.88
540.864	1061.88
541.078	1112.88
541.292	1151.88
541.506	1306.88
541.72	1368.88
541.934	1246.88
542.147	1225.88
542.361	1154.88
542.575	1118.88
542.789	1075.88
543.002	1051.88
543.216	1048.88
543.43	1034.88
543.644	1022.88
543.857	1063.88
544.071	1074.88
544.285	1095.88
544.498	1051.88
544.712	1074.88
544.925	1106.88
545.139	1076.88
545.352	1091.88
545.566	1107.88
545.779	1070.88
545.993	1107.88
546.206	1146.88
546.42	1127.88
546.633	1104.88
546.847	1106.88
547.06	1085.88
547.274	1099.88
547.487	1120.88
547.7	1111.88
547.914	1098.88
548.127	1099.88
548.34	1082.88
548.554	1075.88
548.767	1098.88
548.98	1120.88
549.193	1100.88
549.407	1087.88
549.62	1093.88
549.833	1087.88
550.046	1085.88
550.259	1079.88
550.473	1079.88
550.686	1084.88
550.899	1079.88
551.112	1090.88
551.325	1067.88
551.538	1048.88
551.751	1052.88
551.964	1050.88
552.177	1093.88
552.39	1092.88
552.603	1101.88
552.816	1145.88
553.029	1129.88
553.242	1144.88
553.455	1163.88
553.667	1219.88
553.88	1193.88
554.093	1191.88
554.306	1179.88
554.519	1173.88
554.732	1171.88
554.944	1219.88
555.157	1216.88
555.37	1225.88
555.583	1255.88
555.795	1307.88
556.008	1389.88
556.221	1442.88
556.433	1546.88
556.646	1510.88
556.859	1503.88
557.071	1467.88
557.284	1464.88
557.496	1452.88
557.709	1401.88
557.921	1415.88
558.134	1404.88
558.346	1404.88
558.559	1469.88
558.771	1478.88
558.984	1572.88
559.196	1626.88
559.409	1619.88
559.621	1558.88
559.833	1451.88
560.046	1424.88
560.258	1355.88
560.47	1303.88
560.683	1278.88
560.895	1250.88
561.107	1210.88
561.32	1176.88
561.532	1181.88
561.744	1154.88
561.956	1119.88
562.168	1115.88
562.381	1107.88
562.593	1085.88
562.805	1081.88
563.017	1083.88
563.229	1091.88
563.441	1126.88
563.653	1071.88
563.865	1009.88
564.077	988.88
564.289	1019.88
564.501	1010.88
564.713	998.88
564.925	977.88
565.137	995.88
565.349	994.88
565.561	978.88
565.773	997.88
565.985	997.88
566.197	1003.88
566.408	1054.88
566.62	1044.88
566.832	1103.88
567.044	1139.88
567.255	1107.88
567.467	1114.88
567.679	1123.88
567.891	1186.88
568.102	1273.88
568.314	1439.88
568.526	1252.88
568.737	1114.88
568.949	1027.88
569.161	963.88
569.372	938.88
569.584	866.88
569.795	872.88
570.007	858.88
570.218	892.88
570.43	898.88
570.641	857.88
570.853	857.88
571.064	837.88
571.276	824.88
571.487	810.88
571.698	808.88
571.91	778.88
572.121	802.88
572.333	806.88
572.544	807.88
572.755	820.88
572.966	923.88
573.178	831.88
573.389	789.88
573.6	771.88
573.811	726.88
574.023	723.88
574.234	759.88
574.445	739.88
574.656	721.88
574.867	732.88
575.078	721.88
575.289	723.88
575.501	703.88
575.712	697.88
575.923	734.88
576.134	719.88
576.345	693.88
576.556	702.88
576.767	744.88
576.978	732.88
577.188	736.88
577.399	730.88
577.61	719.88
577.821	735.88
578.032	736.88
578.243	742.88
578.454	788.88
578.665	772.88
578.875	785.88
579.086	803.88
579.297	821.88
579.508	857.88
579.718	898.88
579.929	985.88
580.14	1095.88
580.35	1107.88
580.561	1093.88
580.772	1006.88
580.982	959.88
581.193	898.88
581.403	866.88
581.614	848.88
581.825	828.88
582.035	795.88
582.246	755.88
582.456	747.88
582.667	735.88
582.877	731.88
583.087	733.88
583.298	671.88
583.508	663.88
583.719	658.88
583.929	651.88
584.139	656.88
584.35	641.88
584.56	628.88
584.77	608.88
584.981	607.88
585.191	612.88
585.401	578.88
585.611	583.88
585.821	580.88
586.032	615.88
586.242	588.88
586.452	575.88
586.662	572.88
586.872	582.88
587.082	584.88
587.292	551.88
587.502	550.88
587.713	561.88
587.923	552.88
588.133	559.88
588.343	569.88
588.553	531.88
588.762	524.88
588.972	516.88
589.182	526.88
589.392	535.88
589.602	525.88
589.812	543.88
590.022	501.88
590.232	531.88
590.441	531.88
590.651	551.88
590.861	516.88
591.071	504.88
591.281	526.88
591.49	547.88
591.7	535.88
591.91	543.88
592.119	510.88
592.329	507.88
592.539	530.88
592.748	546.88
592.958	532.88
593.167	533.88
593.377	551.88
593.587	566.88
593.796	561.88
594.006	546.88
594.215	539.88
594.424	536.88
594.634	517.88
594.843	539.88
595.053	539.88
595.262	515.88
595.472	529.88
595.681	479.88
595.89	481.88
596.1	480.88
596.309	476.88
596.518	466.88
596.727	457.88
596.937	465.88
597.146	473.88
597.355	460.88
597.564	461.88
597.774	449.88
597.983	444.88
598.192	435.88
598.401	431.88
598.61	428.88
598.819	431.88
599.028	437.88
599.237	432.88
599.446	422.88
599.655	437.88
599.864	423.88
600.073	431.88
600.282	407.88
600.491	433.88
600.7	435.88
600.909	415.88
601.118	424.88
601.327	465.88
601.536	445.88
601.745	468.88
601.953	475.88
602.162	521.88
602.371	463.88
602.58	452.88
602.789	438.88
602.997	419.88
603.206	435.88
603.415	410.88
603.623	437.88
603.832	419.88
604.041	416.88
604.249	415.88
604.458	399.88
604.666	397.88
604.875	392.88
605.084	406.88
605.292	411.88
605.501	400.88
605.709	402.88
605.918	417.88
606.126	408.88
606.334	433.88
606.543	442.88
606.751	454.88
606.96	463.88
607.168	518.88
607.376	454.88
607.585	437.88
607.793	440.88
608.001	440.88
608.21	393.88
608.418	415.88
608.626	395.88
608.834	386.88
609.043	416.88
609.251	400.88
609.459	381.88
609.667	376.88
609.875	404.88
610.083	413.88
610.291	396.88
610.499	392.88
610.707	379.88
610.916	370.88
611.124	402.88
611.332	391.88
611.54	392.88
611.748	380.88
611.955	383.88
612.163	372.88
612.371	373.88
612.579	388.88
612.787	377.88
612.995	375.88
613.203	392.88
613.411	404.88
613.618	389.88
613.826	376.88
614.034	383.88
614.242	383.88
614.449	364.88
614.657	387.88
614.865	383.88
615.072	375.88
615.28	396.88
615.488	361.88
615.695	364.88
615.903	380.88
616.111	376.88
616.318	368.88
616.526	391.88
616.733	395.88
616.941	384.88
617.148	366.88
617.356	373.88
617.563	369.88
617.771	357.88
617.978	367.88
618.185	359.88
618.393	375.88
618.6	368.88
618.807	360.88
619.015	343.88
619.222	367.88
619.429	362.88
619.637	365.88
619.844	335.88
620.051	368.88
620.258	348.88
620.466	325.88
620.673	340.88
620.88	333.88
621.087	352.88
621.294	341.88
621.501	355.88
621.708	327.88
621.915	342.88
622.122	340.88
622.329	350.88
622.536	353.88
622.743	337.88
622.95	328.88
623.157	348.88
623.364	344.88
623.571	334.88
623.778	343.88
623.985	335.88
624.192	356.88
624.399	341.88
624.606	344.88
624.812	341.88
625.019	329.88
625.226	326.88
625.433	325.88
625.639	315.88
625.846	299.88
626.053	312.88
626.259	322.88
626.466	313.88
626.673	309.88
626.879	304.88
627.086	319.88
627.293	305.88
627.499	316.88
627.706	313.88
627.912	315.88
628.119	330.88
628.325	323.88
628.532	330.88
628.738	299.88
628.945	311.88
629.151	306.88
629.357	293.88
629.564	322.88
629.77	331.88
629.976	298.88
630.183	295.88
630.389	302.88
630.595	305.88
630.802	297.88
631.008	299.88
631.214	295.88
631.42	294.88
631.627	295.88
631.833	290.88
632.039	286.88
632.245	300.88
632.451	300.88
632.657	300.88
632.863	290.88
633.069	296.88
633.275	291.88
633.481	267.88
633.688	281.88
633.893	296.88
634.099	281.88
634.305	292.88
634.511	299.88
634.717	288.88
634.923	317.88
635.129	305.88
635.335	344.88
635.541	305.88
635.747	279.88
635.952	323.88
636.158	306.88
636.364	287.88
636.57	290.88
636.775	301.88
636.981	313.88
637.187	293.88
637.392	301.88
637.598	290.88
637.804	300.88
638.009	283.88
638.215	306.88
638.421	298.88
638.626	293.88
638.832	297.88
639.037	299.88
639.243	301.88
639.448	314.88
639.654	304.88
639.859	307.88
640.065	301.88
640.27	303.88
640.475	298.88
640.681	279.88
640.886	307.88
641.091	299.88
641.297	306.88
641.502	326.88
641.707	323.88
641.913	332.88
642.118	326.88
642.323	331.88
642.528	326.88
642.733	338.88
642.939	333.88
643.144	336.88
643.349	342.88
643.554	362.88
643.759	374.88
643.964	387.88
644.169	392.88
644.374	395.88
644.579	448.88
644.784	460.88
644.989	547.88
645.194	579.88
645.399	667.88
645.604	655.88
645.809	562.88
646.014	469.88
646.219	418.88
646.423	373.88
646.628	349.88
646.833	327.88
647.038	312.88
647.243	325.88
647.447	323.88
647.652	315.88
647.857	306.88
648.062	283.88
648.266	287.88
648.471	276.88
648.676	275.88
648.88	272.88
649.085	267.88
649.289	261.88
649.494	245.88
649.698	259.88
649.903	281.88
650.107	265.88
650.312	263.88
650.516	252.88
650.721	240.88
650.925	234.88
651.13	247.88
651.334	228.88
651.539	230.88
651.743	217.88
651.947	220.88
652.152	210.88
652.356	220.88
652.56	246.88
652.764	260.88
652.969	239.88
653.173	202.88
653.377	217.88
653.581	215.88
653.785	205.88
653.99	205.88
654.194	211.88
654.398	191.88
654.602	186.88
654.806	200.88
655.01	202.88
655.214	190.88
655.418	205.88
655.622	200.88
655.826	201.88
656.03	200.88
656.234	224.88
656.438	239.88
656.642	208.88
656.846	218.88
657.049	183.88
657.253	181.88
657.457	189.88
657.661	181.88
657.865	170.88
658.068	153.88
658.272	151.88
658.476	144.88
658.68	144.88
658.883	134.88
659.087	135.88
659.291	147.88
659.494	141.88
659.698	127.88
659.901	123.88
660.105	123.88
660.309	105.88
660.512	126.88
660.716	111.88
660.919	117.88
661.123	104.88
661.326	100.88
661.53	108.88
661.733	93.88
661.936	96.88
662.14	104.88
662.343	106.88
662.546	89.88
662.75	90.88
662.953	81.88
663.156	97.88
663.36	92.88
663.563	97.88
663.766	88.88
663.969	76.88
664.173	93.88
664.376	77.88
664.579	70.88
664.782	83.88
664.985	94.88
665.188	87.88
665.391	86.88
665.594	81.88
665.797	84.88
666	77.88
666.203	85.88
666.406	88.88
666.609	89.88
666.812	82.88
667.015	72.88
667.218	82.88
667.421	80.88
667.624	71.88
667.827	85.88
668.03	78.88
668.232	94.88
668.435	83.88
668.638	82.88
668.841	90.88
669.043	80.88
669.246	93.88
669.449	83.88
669.651	87.88
669.854	102.88
670.057	86.88
670.259	72.88
670.462	79.88
670.665	87.88
670.867	81.88
671.07	80.88
671.272	88.88
671.475	89.88
671.677	87.88
671.88	93.88
672.082	87.88
672.284	92.88
672.487	79.88
672.689	77.88
672.892	85.88
