Data from SnStandardFlinnAPT0064_LampEnergy10_LIBS07252019.E.O._I.C._HRD10591_15-20-26-493.txt Node
Date: Thu Jul 25 15:20:26 EDT 2019
User: cochatt
Spectrometer: HR+D1059
Trigger mode: 1
Integration Time (sec): 1.000000E-1
Scans to average: 1
Electric dark correction enabled: true
Nonlinearity correction enabled: false
Boxcar width: 0
XAxis mode: Wavelengths
Number of Pixels in Spectrum: 2048
>>>>>Begin Spectral Data<<<<<
223.165	-30.31
223.4	-30.31
223.635	-30.31
223.869	-7.31
224.104	-7.31
224.338	-9.31
224.573	-12.31
224.808	4.69
225.042	-16.31
225.277	-0.31
225.511	-13.31
225.746	-1.31
225.98	3.69
226.215	19.69
226.449	18.69
226.683	18.69
226.918	12.69
227.152	19.69
227.387	29.69
227.621	31.69
227.856	50.69
228.09	51.69
228.324	62.69
228.559	58.69
228.793	124.69
229.027	310.69
229.262	336.69
229.496	306.69
229.73	293.69
229.964	324.69
230.199	292.69
230.433	303.69
230.667	330.69
230.901	323.69
231.136	349.69
231.37	363.69
231.604	375.69
231.838	463.69
232.072	558.69
232.306	559.69
232.541	485.69
232.775	446.69
233.009	423.69
233.243	442.69
233.477	470.69
233.711	524.69
233.945	598.69
234.179	536.69
234.413	479.69
234.647	474.69
234.881	496.69
235.115	542.69
235.349	646.69
235.583	783.69
235.817	1054.69
236.051	1058.69
236.285	666.69
236.519	552.69
236.753	515.69
236.987	499.69
237.221	559.69
237.455	542.69
237.689	462.69
237.922	477.69
238.156	476.69
238.39	471.69
238.624	502.69
238.858	520.69
239.091	487.69
239.325	484.69
239.559	496.69
239.793	534.69
240.027	540.69
240.26	544.69
240.494	557.69
240.728	598.69
240.961	638.69
241.195	656.69
241.429	684.69
241.662	715.69
241.896	813.69
242.13	983.69
242.363	1283.69
242.597	1694.69
242.83	1633.69
243.064	1621.69
243.298	1889.69
243.531	1593.69
243.765	985.69
243.998	792.69
244.232	718.69
244.465	690.69
244.699	658.69
244.932	672.69
245.166	663.69
245.399	676.69
245.633	684.69
245.866	688.69
246.099	650.69
246.333	652.69
246.566	644.69
246.8	660.69
247.033	664.69
247.266	634.69
247.5	676.69
247.733	692.69
247.966	706.69
248.2	786.69
248.433	865.69
248.666	1030.69
248.899	999.69
249.133	856.69
249.366	890.69
249.599	985.69
249.832	1148.69
250.066	1095.69
250.299	891.69
250.532	807.69
250.765	779.69
250.998	766.69
251.231	737.69
251.465	729.69
251.698	743.69
251.931	723.69
252.164	755.69
252.397	764.69
252.63	800.69
252.863	788.69
253.096	806.69
253.329	779.69
253.562	805.69
253.795	777.69
254.028	778.69
254.261	837.69
254.494	896.69
254.727	1026.69
254.96	1256.69
255.193	1284.69
255.426	997.69
255.659	903.69
255.892	875.69
256.124	880.69
256.357	900.69
256.59	936.69
256.823	990.69
257.056	1155.69
257.289	1415.69
257.521	1550.69
257.754	1232.69
257.987	963.69
258.22	946.69
258.452	907.69
258.685	945.69
258.918	962.69
259.151	1029.69
259.383	1077.69
259.616	1235.69
259.849	1301.69
260.081	1147.69
260.314	1008.69
260.547	958.69
260.779	937.69
261.012	987.69
261.244	979.69
261.477	1012.69
261.71	1000.69
261.942	993.69
262.175	1018.69
262.407	1017.69
262.64	1082.69
262.872	1099.69
263.105	1149.69
263.337	1204.69
263.57	1280.69
263.802	1282.69
264.035	1323.69
264.267	1344.69
264.499	1379.69
264.732	1428.69
264.964	1468.69
265.197	1427.69
265.429	1432.69
265.661	1437.69
265.894	1573.69
266.126	1747.69
266.358	1982.69
266.591	1942.69
266.823	1604.69
267.055	1478.69
267.287	1401.69
267.52	1334.69
267.752	1317.69
267.984	1280.69
268.216	1298.69
268.448	1244.69
268.681	1264.69
268.913	1227.69
269.145	1241.69
269.377	1295.69
269.609	1269.69
269.841	1311.69
270.073	1409.69
270.306	1633.69
270.538	2230.69
270.77	3366.69
271.002	4198.69
271.234	2879.69
271.466	1930.69
271.698	1556.69
271.93	1482.69
272.162	1339.69
272.394	1333.69
272.626	1290.69
272.858	1248.69
273.09	1264.69
273.322	1219.69
273.553	1208.69
273.785	1203.69
274.017	1192.69
274.249	1244.69
274.481	1207.69
274.713	1233.69
274.945	1232.69
275.176	1219.69
275.408	1237.69
275.64	1222.69
275.872	1256.69
276.104	1291.69
276.335	1302.69
276.567	1308.69
276.799	1293.69
277.031	1307.69
277.262	1359.69
277.494	1428.69
277.726	1571.69
277.957	1894.69
278.189	2168.69
278.421	2007.69
278.652	1828.69
278.884	1722.69
279.115	1530.69
279.347	1476.69
279.579	1439.69
279.81	1368.69
280.042	1406.69
280.273	1414.69
280.505	1470.69
280.736	1504.69
280.968	1638.69
281.199	1834.69
281.431	2113.69
281.662	2206.69
281.894	1820.69
282.125	1666.69
282.356	1668.69
282.588	1696.69
282.819	1771.69
283.051	1835.69
283.282	2068.69
283.513	2561.69
283.745	3808.69
283.976	6057.69
284.207	8517.69
284.439	7698.69
284.67	4786.69
284.901	3884.69
285.132	3902.69
285.364	3762.69
285.595	2827.69
285.826	2471.69
286.057	2900.69
286.288	4116.69
286.52	5516.69
286.751	5191.69
286.982	3162.69
287.213	2338.69
287.444	1968.69
287.675	1874.69
287.906	1850.69
288.138	1780.69
288.369	1706.69
288.6	1712.69
288.831	1694.69
289.062	1662.69
289.293	1663.69
289.524	1684.69
289.755	1742.69
289.986	1703.69
290.217	1735.69
290.448	1711.69
290.679	1749.69
290.91	1830.69
291.141	1921.69
291.371	2095.69
291.602	2170.69
291.833	1926.69
292.064	1754.69
292.295	1682.69
292.526	1702.69
292.757	1676.69
292.987	1594.69
293.218	1597.69
293.449	1636.69
293.68	1583.69
293.91	1588.69
294.141	1570.69
294.372	1575.69
294.603	1587.69
294.833	1580.69
295.064	1584.69
295.295	1570.69
295.525	1554.69
295.756	1579.69
295.987	1616.69
296.217	1604.69
296.448	1635.69
296.679	1611.69
296.909	1606.69
297.14	1627.69
297.37	1641.69
297.601	1623.69
297.831	1643.69
298.062	1662.69
298.292	1694.69
298.523	1697.69
298.753	1765.69
298.984	1740.69
299.214	1767.69
299.445	1776.69
299.675	1808.69
299.905	1874.69
300.136	1938.69
300.366	2178.69
300.597	2833.69
300.827	4011.69
301.057	5467.69
301.288	5542.69
301.518	3525.69
301.748	2654.69
301.979	2394.69
302.209	2330.69
302.439	2347.69
302.669	2479.69
302.9	3035.69
303.13	4344.69
303.36	6528.69
303.59	8757.69
303.82	7542.69
304.051	4446.69
304.281	3123.69
304.511	2634.69
304.741	2395.69
304.971	2239.69
305.201	2107.69
305.431	2008.69
305.661	1974.69
305.891	1921.69
306.121	1913.69
306.352	1909.69
306.582	1880.69
306.812	1803.69
307.042	1830.69
307.272	1916.69
307.502	1830.69
307.731	1828.69
307.961	1835.69
308.191	1814.69
308.421	1831.69
308.651	1797.69
308.881	1825.69
309.111	1810.69
309.341	1835.69
309.571	1846.69
309.8	1848.69
310.03	1834.69
310.26	1859.69
310.49	1865.69
310.72	1885.69
310.949	1858.69
311.179	1870.69
311.409	1894.69
311.639	1953.69
311.868	1945.69
312.098	1955.69
312.328	1930.69
312.557	2017.69
312.787	1994.69
313.017	1978.69
313.246	2036.69
313.476	2042.69
313.706	2124.69
313.935	2209.69
314.165	2425.69
314.394	2526.69
314.624	2361.69
314.853	2204.69
315.083	2188.69
315.312	2174.69
315.542	2207.69
315.771	2210.69
316.001	2254.69
316.23	2377.69
316.46	2460.69
316.689	2682.69
316.919	3285.69
317.148	4825.69
317.377	7391.69
317.607	10987.69
317.836	11487.69
318.065	6867.69
318.295	4474.69
318.524	3473.69
318.753	3025.69
318.983	2795.69
319.212	2601.69
319.441	2555.69
319.67	2487.69
319.9	2432.69
320.129	2406.69
320.358	2391.69
320.587	2343.69
320.816	2402.69
321.046	2393.69
321.275	2408.69
321.504	2371.69
321.733	2452.69
321.962	2527.69
322.191	2549.69
322.42	2542.69
322.649	2533.69
322.878	2469.69
323.108	2481.69
323.337	2551.69
323.566	2549.69
323.795	2585.69
324.024	2678.69
324.253	2750.69
324.482	2877.69
324.71	3063.69
324.939	3290.69
325.168	3348.69
325.397	3482.69
325.626	4192.69
325.855	5849.69
326.084	9120.69
326.313	13291.69
326.542	13934.69
326.77	9447.69
326.999	6202.69
327.228	5166.69
327.457	4920.69
327.686	4882.69
327.914	5291.69
328.143	6282.69
328.372	7504.69
328.6	8163.69
328.829	7208.69
329.058	5908.69
329.287	5212.69
329.515	4732.69
329.744	4327.69
329.972	4190.69
330.201	3919.69
330.43	3786.69
330.658	3656.69
330.887	3571.69
331.115	3541.69
331.344	3592.69
331.572	3491.69
331.801	3527.69
332.03	3543.69
332.258	3629.69
332.486	3741.69
332.715	4371.69
332.943	5415.69
333.172	6832.69
333.4	6844.69
333.629	5010.69
333.857	4552.69
334.085	4598.69
334.314	4792.69
334.542	5195.69
334.771	6283.69
334.999	7693.69
335.227	9843.69
335.455	11083.69
335.684	9752.69
335.912	7858.69
336.14	6633.69
336.369	5829.69
336.597	5366.69
336.825	4873.69
337.053	4616.69
337.281	4235.69
337.51	4063.69
337.738	3915.69
337.966	3682.69
338.194	3599.69
338.422	3488.69
338.65	3464.69
338.878	3373.69
339.106	3284.69
339.334	3243.69
339.562	3134.69
339.79	3099.69
340.018	3092.69
340.246	3073.69
340.474	3020.69
340.702	3013.69
340.93	3040.69
341.158	3058.69
341.386	3030.69
341.614	2990.69
341.842	2887.69
342.07	2865.69
342.298	2816.69
342.526	2742.69
342.754	2731.69
342.981	2719.69
343.209	2751.69
343.437	2731.69
343.665	2838.69
343.893	2866.69
344.12	2855.69
344.348	2806.69
344.576	2696.69
344.804	2693.69
345.031	2621.69
345.259	2614.69
345.487	2632.69
345.714	2588.69
345.942	2575.69
346.17	2551.69
346.397	2580.69
346.625	2539.69
346.853	2518.69
347.08	2534.69
347.308	2574.69
347.535	2537.69
347.763	2558.69
347.99	2533.69
348.218	2445.69
348.445	2478.69
348.673	2454.69
348.9	2441.69
349.128	2522.69
349.355	2458.69
349.583	2455.69
349.81	2422.69
350.037	2412.69
350.265	2409.69
350.492	2426.69
350.72	2427.69
350.947	2390.69
351.174	2406.69
351.402	2400.69
351.629	2451.69
351.856	2414.69
352.083	2367.69
352.311	2400.69
352.538	2390.69
352.765	2414.69
352.992	2388.69
353.22	2367.69
353.447	2344.69
353.674	2383.69
353.901	2408.69
354.128	2378.69
354.355	2438.69
354.583	2407.69
354.81	2428.69
355.037	2434.69
355.264	2530.69
355.491	2404.69
355.718	2456.69
355.945	2482.69
356.172	2443.69
356.399	2476.69
356.626	2484.69
356.853	2514.69
357.08	2496.69
357.307	2583.69
357.534	2595.69
357.761	2609.69
357.988	2599.69
358.215	2543.69
358.441	2588.69
358.668	2542.69
358.895	2550.69
359.122	2571.69
359.349	2538.69
359.576	2516.69
359.802	2556.69
360.029	2539.69
360.256	2531.69
360.483	2566.69
360.709	2582.69
360.936	2578.69
361.163	2556.69
361.39	2559.69
361.616	2598.69
361.843	2608.69
362.07	2626.69
362.296	2571.69
362.523	2576.69
362.749	2524.69
362.976	2535.69
363.203	2552.69
363.429	2521.69
363.656	2562.69
363.882	2576.69
364.109	2538.69
364.335	2554.69
364.562	2536.69
364.788	2553.69
365.015	2600.69
365.241	2645.69
365.468	2807.69
365.694	2937.69
365.92	2864.69
366.147	2638.69
366.373	2607.69
366.599	2612.69
366.826	2627.69
367.052	2598.69
367.278	2640.69
367.505	2639.69
367.731	2576.69
367.957	2617.69
368.184	2623.69
368.41	2680.69
368.636	2656.69
368.862	2649.69
369.089	2665.69
369.315	2679.69
369.541	2638.69
369.767	2645.69
369.993	2605.69
370.219	2603.69
370.445	2654.69
370.672	2676.69
370.898	2706.69
371.124	2697.69
371.35	2755.69
371.576	2697.69
371.802	2751.69
372.028	2739.69
372.254	2778.69
372.48	2769.69
372.706	2755.69
372.932	2804.69
373.158	2761.69
373.384	2769.69
373.61	2783.69
373.835	2828.69
374.061	2832.69
374.287	2803.69
374.513	2837.69
374.739	2845.69
374.965	2885.69
375.191	2899.69
375.416	2913.69
375.642	2885.69
375.868	2870.69
376.094	2808.69
376.319	2776.69
376.545	2746.69
376.771	2753.69
376.997	2737.69
377.222	2774.69
377.448	2688.69
377.674	2783.69
377.899	2757.69
378.125	2703.69
378.35	2731.69
378.576	2723.69
378.802	2800.69
379.027	2808.69
379.253	2892.69
379.478	3110.69
379.704	3669.69
379.929	5361.69
380.155	8279.69
380.38	9036.69
380.606	5464.69
380.831	3808.69
381.057	3282.69
381.282	3071.69
381.507	2882.69
381.733	2887.69
381.958	2761.69
382.184	2727.69
382.409	2734.69
382.634	2703.69
382.86	2711.69
383.085	2734.69
383.31	2665.69
383.535	2700.69
383.761	2724.69
383.986	2738.69
384.211	2721.69
384.436	2795.69
384.662	2764.69
384.887	2839.69
385.112	2778.69
385.337	2738.69
385.562	2782.69
385.787	2773.69
386.013	2866.69
386.238	2848.69
386.463	2825.69
386.688	2777.69
386.913	2729.69
387.138	2785.69
387.363	2717.69
387.588	2711.69
387.813	2751.69
388.038	2768.69
388.263	2775.69
388.488	2769.69
388.713	2756.69
388.938	2764.69
389.163	2740.69
389.387	2832.69
389.612	2792.69
389.837	2795.69
390.062	2778.69
390.287	2796.69
390.512	2808.69
390.736	2832.69
390.961	2851.69
391.186	2882.69
391.411	2950.69
391.636	2921.69
391.86	2950.69
392.085	2911.69
392.31	2906.69
392.534	2848.69
392.759	2814.69
392.984	2844.69
393.208	2820.69
393.433	2871.69
393.658	2890.69
393.882	2746.69
394.107	2770.69
394.331	2811.69
394.556	2834.69
394.78	2856.69
395.005	2871.69
395.229	2822.69
395.454	2899.69
395.678	2907.69
395.903	2905.69
396.127	2903.69
396.352	2852.69
396.576	2844.69
396.801	2890.69
397.025	2955.69
397.249	2956.69
397.474	2886.69
397.698	2902.69
397.922	2978.69
398.147	2954.69
398.371	2972.69
398.595	3049.69
398.82	3115.69
399.044	3251.69
399.268	3334.69
399.492	3579.69
399.717	3670.69
399.941	3691.69
400.165	3540.69
400.389	3446.69
400.613	3278.69
400.837	3206.69
401.062	3150.69
401.286	3131.69
401.51	3051.69
401.734	3048.69
401.958	3081.69
402.182	3110.69
402.406	3064.69
402.63	3084.69
402.854	3067.69
403.078	3118.69
403.302	3116.69
403.526	3162.69
403.75	3191.69
403.974	3215.69
404.198	3191.69
404.422	3169.69
404.645	3153.69
404.869	3222.69
405.093	3221.69
405.317	3158.69
405.541	3243.69
405.765	3294.69
405.988	3315.69
406.212	3321.69
406.436	3228.69
406.66	3348.69
406.883	3239.69
407.107	3412.69
407.331	3456.69
407.555	3491.69
407.778	3430.69
408.002	3426.69
408.226	3387.69
408.449	3355.69
408.673	3355.69
408.896	3209.69
409.12	3276.69
409.344	3258.69
409.567	3175.69
409.791	3187.69
410.014	3205.69
410.238	3146.69
410.461	3147.69
410.685	3142.69
410.908	3179.69
411.132	3105.69
411.355	3042.69
411.578	3071.69
411.802	3074.69
412.025	3058.69
412.249	3099.69
412.472	3041.69
412.695	2988.69
412.919	2976.69
413.142	3026.69
413.365	3019.69
413.589	2996.69
413.812	2965.69
414.035	3015.69
414.258	2980.69
414.482	3037.69
414.705	3044.69
414.928	3012.69
415.151	3002.69
415.374	2960.69
415.597	2914.69
415.821	2867.69
416.044	2919.69
416.267	2919.69
416.49	2887.69
416.713	2903.69
416.936	2854.69
417.159	2871.69
417.382	2835.69
417.605	2846.69
417.828	2879.69
418.051	2927.69
418.274	2900.69
418.497	2905.69
418.72	3013.69
418.943	2960.69
419.166	3030.69
419.389	3226.69
419.611	3145.69
419.834	3130.69
420.057	2968.69
420.28	2954.69
420.503	2856.69
420.726	2847.69
420.948	2840.69
421.171	2874.69
421.394	2885.69
421.617	2914.69
421.839	2889.69
422.062	2910.69
422.285	2896.69
422.507	2935.69
422.73	2944.69
422.953	2920.69
423.175	3012.69
423.398	2934.69
423.621	2890.69
423.843	2911.69
424.066	2939.69
424.288	2911.69
424.511	2920.69
424.733	2867.69
424.956	2870.69
425.178	2848.69
425.401	2839.69
425.623	2850.69
425.846	2775.69
426.068	2823.69
426.291	2795.69
426.513	2720.69
426.735	2770.69
426.958	2774.69
427.18	2703.69
427.402	2744.69
427.625	2691.69
427.847	2699.69
428.069	2693.69
428.292	2698.69
428.514	2708.69
428.736	2708.69
428.958	2724.69
429.181	2661.69
429.403	2648.69
429.625	2647.69
429.847	2618.69
430.069	2711.69
430.292	2828.69
430.514	2848.69
430.736	2904.69
430.958	2726.69
431.18	2610.69
431.402	2645.69
431.624	2663.69
431.846	2644.69
432.068	2652.69
432.29	2647.69
432.512	2635.69
432.734	2659.69
432.956	2611.69
433.178	2622.69
433.4	2657.69
433.622	2715.69
433.844	2700.69
434.066	2683.69
434.287	2646.69
434.509	2720.69
434.731	2750.69
434.953	2755.69
435.175	2699.69
435.397	2810.69
435.618	2706.69
435.84	2638.69
436.062	2586.69
436.284	2604.69
436.505	2607.69
436.727	2658.69
436.949	2657.69
437.17	2602.69
437.392	2616.69
437.614	2571.69
437.835	2511.69
438.057	2560.69
438.278	2547.69
438.5	2592.69
438.721	2610.69
438.943	2713.69
439.165	2742.69
439.386	2751.69
439.608	2724.69
439.829	2767.69
440.05	2857.69
440.272	2894.69
440.493	2818.69
440.715	2742.69
440.936	2752.69
441.158	2792.69
441.379	2784.69
441.6	2900.69
441.822	3003.69
442.043	3162.69
442.264	3187.69
442.486	3032.69
442.707	2880.69
442.928	2799.69
443.149	2882.69
443.371	2832.69
443.592	2823.69
443.813	2859.69
444.034	2850.69
444.255	2915.69
444.476	2948.69
444.698	3007.69
444.919	3023.69
445.14	3061.69
445.361	2956.69
445.582	2904.69
445.803	2849.69
446.024	2846.69
446.245	2827.69
446.466	2817.69
446.687	2762.69
446.908	2781.69
447.129	2690.69
447.35	2647.69
447.571	2688.69
447.792	2595.69
448.013	2604.69
448.234	2585.69
448.455	2645.69
448.675	2685.69
448.896	2694.69
449.117	2845.69
449.338	3035.69
449.559	3233.69
449.779	2824.69
450	2624.69
450.221	2561.69
450.442	2634.69
450.662	2591.69
450.883	2570.69
451.104	2582.69
451.324	2548.69
451.545	2515.69
451.766	2617.69
451.986	2613.69
452.207	2828.69
452.428	3677.69
452.648	5682.69
452.869	4699.69
453.089	3232.69
453.31	2999.69
453.53	2991.69
453.751	3077.69
453.971	3302.69
454.192	3193.69
454.412	2724.69
454.633	2534.69
454.853	2520.69
455.073	2482.69
455.294	2497.69
455.514	2420.69
455.734	2430.69
455.955	2404.69
456.175	2416.69
456.395	2418.69
456.616	2453.69
456.836	2490.69
457.056	2466.69
457.276	2501.69
457.497	2664.69
457.717	2680.69
457.937	2596.69
458.157	2583.69
458.377	2609.69
458.598	2584.69
458.818	2594.69
459.038	2644.69
459.258	2623.69
459.478	2667.69
459.698	2653.69
459.918	2718.69
460.138	2726.69
460.358	2813.69
460.578	2865.69
460.798	2862.69
461.018	2887.69
461.238	2857.69
461.458	2940.69
461.678	2951.69
461.898	3093.69
462.118	3064.69
462.338	3094.69
462.558	3133.69
462.777	3174.69
462.997	3287.69
463.217	3437.69
463.437	3518.69
463.657	3610.69
463.876	3643.69
464.096	3394.69
464.316	3260.69
464.536	3181.69
464.755	3097.69
464.975	3064.69
465.195	2908.69
465.414	2864.69
465.634	2788.69
465.854	2741.69
466.073	2739.69
466.293	2664.69
466.512	2699.69
466.732	2726.69
466.951	2858.69
467.171	3029.69
467.391	2994.69
467.61	2756.69
467.829	2630.69
468.049	2614.69
468.268	2578.69
468.488	2548.69
468.707	2576.69
468.927	2598.69
469.146	2596.69
469.365	2638.69
469.585	2712.69
469.804	2733.69
470.023	2761.69
470.243	2783.69
470.462	2905.69
470.681	3035.69
470.901	3368.69
471.12	3934.69
471.339	3920.69
471.558	3239.69
471.777	2864.69
471.997	2827.69
472.216	2748.69
472.435	2678.69
472.654	2631.69
472.873	2594.69
473.092	2624.69
473.311	2602.69
473.53	2622.69
473.749	2778.69
473.968	2819.69
474.187	2668.69
474.406	2602.69
474.625	2661.69
474.844	2619.69
475.063	2652.69
475.282	2650.69
475.501	2683.69
475.72	2637.69
475.939	2673.69
476.158	2730.69
476.377	2817.69
476.596	2766.69
476.814	2769.69
477.033	2738.69
477.252	2801.69
477.471	2851.69
477.69	2888.69
477.908	2942.69
478.127	2942.69
478.346	3027.69
478.564	2993.69
478.783	3008.69
479.002	3140.69
479.22	3121.69
479.439	3091.69
479.658	3120.69
479.876	3174.69
480.095	3164.69
480.313	3189.69
480.532	3275.69
480.751	3290.69
480.969	3204.69
481.188	3175.69
481.406	3124.69
481.624	3148.69
481.843	3227.69
482.061	3219.69
482.28	3189.69
482.498	3171.69
482.717	3180.69
482.935	3174.69
483.153	3236.69
483.372	3297.69
483.59	3376.69
483.808	3411.69
484.027	3495.69
484.245	3692.69
484.463	4155.69
484.681	4721.69
484.9	4208.69
485.118	3871.69
485.336	3759.69
485.554	3807.69
485.772	4127.69
485.99	4667.69
486.209	5055.69
486.427	4181.69
486.645	3726.69
486.863	3570.69
487.081	3505.69
487.299	3393.69
487.517	3444.69
487.735	3392.69
487.953	3393.69
488.171	3408.69
488.389	3320.69
488.607	3336.69
488.825	3289.69
489.043	3303.69
489.261	3264.69
489.479	3251.69
489.696	3266.69
489.914	3289.69
490.132	3294.69
490.35	3309.69
490.568	3395.69
490.786	3334.69
491.003	3378.69
491.221	3374.69
491.439	3445.69
491.657	3394.69
491.874	3408.69
492.092	3438.69
492.31	3432.69
492.527	3402.69
492.745	3404.69
492.963	3399.69
493.18	3421.69
493.398	3402.69
493.615	3406.69
493.833	3408.69
494.05	3420.69
494.268	3454.69
494.485	3506.69
494.703	3450.69
494.92	3445.69
495.138	3412.69
495.355	3454.69
495.573	3426.69
495.79	3493.69
496.008	3471.69
496.225	3521.69
496.442	3600.69
496.66	3698.69
496.877	3923.69
497.094	3853.69
497.312	3744.69
497.529	3724.69
497.746	3764.69
497.963	3808.69
498.181	3916.69
498.398	3958.69
498.615	4088.69
498.832	4236.69
499.049	4457.69
499.267	4819.69
499.484	5130.69
499.701	5124.69
499.918	5185.69
500.135	5523.69
500.352	5797.69
500.569	5840.69
500.786	5762.69
501.003	5682.69
501.22	5237.69
501.437	5054.69
501.654	4776.69
501.871	4588.69
502.088	4418.69
502.305	4287.69
502.522	4107.69
502.739	3968.69
502.956	3875.69
503.172	3767.69
503.389	3720.69
503.606	3638.69
503.823	3620.69
504.04	3581.69
504.256	3539.69
504.473	3577.69
504.69	3558.69
504.907	3476.69
505.123	3473.69
505.34	3382.69
505.557	3280.69
505.773	3251.69
505.99	3224.69
506.207	3124.69
506.423	3160.69
506.64	3085.69
506.856	3095.69
507.073	3065.69
507.289	3011.69
507.506	3020.69
507.722	3060.69
507.939	3026.69
508.155	3000.69
508.372	2959.69
508.588	2976.69
508.805	2932.69
509.021	3000.69
509.238	3032.69
509.454	3254.69
509.67	3425.69
509.887	3120.69
510.103	3035.69
510.319	2991.69
510.536	3003.69
510.752	2966.69
510.968	2910.69
511.184	2883.69
511.401	2890.69
511.617	2870.69
511.833	2867.69
512.049	2850.69
512.265	2892.69
512.481	2885.69
512.698	2840.69
512.914	2858.69
513.13	2856.69
513.346	2864.69
513.562	2886.69
513.778	2892.69
513.994	2939.69
514.21	3027.69
514.426	3201.69
514.642	3341.69
514.858	3046.69
515.074	2969.69
515.29	2911.69
515.506	2942.69
515.721	2949.69
515.937	2948.69
516.153	2963.69
516.369	3033.69
516.585	2989.69
516.801	3022.69
517.016	3030.69
517.232	3155.69
517.448	3230.69
517.664	3257.69
517.879	3230.69
518.095	3194.69
518.311	3245.69
518.527	3220.69
518.742	3162.69
518.958	3193.69
519.173	3259.69
519.389	3110.69
519.605	2995.69
519.82	2976.69
520.036	2974.69
520.251	2917.69
520.467	2867.69
520.682	2800.69
520.898	2751.69
521.113	2806.69
521.329	2795.69
521.544	2810.69
521.76	2794.69
521.975	2828.69
522.19	2756.69
522.406	2794.69
522.621	2794.69
522.836	2760.69
523.052	2760.69
523.267	2718.69
523.482	2736.69
523.698	2710.69
523.913	2721.69
524.128	2744.69
524.343	2718.69
524.559	2752.69
524.774	2700.69
524.989	2686.69
525.204	2700.69
525.419	2693.69
525.634	2679.69
525.849	2743.69
526.064	2740.69
526.28	2707.69
526.495	2729.69
526.71	2698.69
526.925	2732.69
527.14	2750.69
527.355	2731.69
527.57	2769.69
527.785	2730.69
527.999	2756.69
528.214	2780.69
528.429	2800.69
528.644	2867.69
528.859	2854.69
529.074	2898.69
529.289	2892.69
529.503	2927.69
529.718	2938.69
529.933	2891.69
530.148	2914.69
530.363	2946.69
530.577	2859.69
530.792	2939.69
531.007	2910.69
531.221	2994.69
531.436	3024.69
531.651	3001.69
531.865	3072.69
532.08	3116.69
532.295	3233.69
532.509	3438.69
532.724	3526.69
532.938	3481.69
533.153	3615.69
533.367	3945.69
533.582	4215.69
533.796	4070.69
534.011	3871.69
534.225	3737.69
534.44	3546.69
534.654	3452.69
534.868	3395.69
535.083	3364.69
535.297	3264.69
535.511	3196.69
535.726	3160.69
535.94	3096.69
536.154	3060.69
536.369	3063.69
536.583	2960.69
536.797	2962.69
537.011	2916.69
537.225	2866.69
537.44	2851.69
537.654	2859.69
537.868	2822.69
538.082	2782.69
538.296	2750.69
538.51	2727.69
538.724	2786.69
538.938	2706.69
539.153	2652.69
539.367	2681.69
539.581	2687.69
539.795	2607.69
540.009	2612.69
540.222	2608.69
540.436	2611.69
540.65	2621.69
540.864	2659.69
541.078	2721.69
541.292	2899.69
541.506	3416.69
541.72	3662.69
541.934	3042.69
542.147	2927.69
542.361	2760.69
542.575	2682.69
542.789	2658.69
543.002	2657.69
543.216	2566.69
543.43	2526.69
543.644	2515.69
543.857	2546.69
544.071	2578.69
544.285	2596.69
544.498	2535.69
544.712	2551.69
544.925	2602.69
545.139	2580.69
545.352	2555.69
545.566	2580.69
545.779	2587.69
545.993	2597.69
546.206	2567.69
546.42	2560.69
546.633	2552.69
546.847	2579.69
547.06	2572.69
547.274	2530.69
547.487	2568.69
547.7	2584.69
547.914	2566.69
548.127	2563.69
548.34	2577.69
548.554	2597.69
548.767	2562.69
548.98	2577.69
549.193	2603.69
549.407	2595.69
549.62	2632.69
549.833	2610.69
550.046	2594.69
550.259	2550.69
550.473	2505.69
550.686	2620.69
550.899	2579.69
551.112	2589.69
551.325	2590.69
551.538	2627.69
551.751	2584.69
551.964	2591.69
552.177	2585.69
552.39	2618.69
552.603	2720.69
552.816	2736.69
553.029	2784.69
553.242	2863.69
553.455	2834.69
553.667	2863.69
553.88	2913.69
554.093	2881.69
554.306	2943.69
554.519	2924.69
554.732	2968.69
554.944	3030.69
555.157	3072.69
555.37	3195.69
555.583	3304.69
555.795	3550.69
556.008	3842.69
556.221	4361.69
556.433	4723.69
556.646	4738.69
556.859	4483.69
557.071	4235.69
557.284	4064.69
557.496	3937.69
557.709	3833.69
557.921	3760.69
558.134	3786.69
558.346	3869.69
558.559	4020.69
558.771	4248.69
558.984	4781.69
559.196	5143.69
559.409	4877.69
559.621	4385.69
559.833	4123.69
560.046	3926.69
560.258	3672.69
560.47	3449.69
560.683	3338.69
560.895	3217.69
561.107	3065.69
561.32	2942.69
561.532	2971.69
561.744	2826.69
561.956	2782.69
562.168	2790.69
562.381	2716.69
562.593	2694.69
562.805	2693.69
563.017	2794.69
563.229	2809.69
563.441	3243.69
563.653	2737.69
563.865	2537.69
564.077	2480.69
564.289	2420.69
564.501	2409.69
564.713	2398.69
564.925	2391.69
565.137	2422.69
565.349	2409.69
565.561	2398.69
565.773	2421.69
565.985	2462.69
566.197	2491.69
566.408	2469.69
566.62	2547.69
566.832	2600.69
567.044	2639.69
567.255	2678.69
567.467	2624.69
567.679	2750.69
567.891	2939.69
568.102	3194.69
568.314	3736.69
568.526	3203.69
568.737	2816.69
568.949	2482.69
569.161	2373.69
569.372	2248.69
569.584	2202.69
569.795	2163.69
570.007	2142.69
570.218	2218.69
570.43	2271.69
570.641	2125.69
570.853	2010.69
571.064	1991.69
571.276	1967.69
571.487	1955.69
571.698	1909.69
571.91	1904.69
572.121	1898.69
572.333	1854.69
572.544	1877.69
572.755	2001.69
572.966	2391.69
573.178	2170.69
573.389	1938.69
573.6	1846.69
573.811	1796.69
574.023	1778.69
574.234	1750.69
574.445	1745.69
574.656	1762.69
574.867	1720.69
575.078	1743.69
575.289	1744.69
575.501	1737.69
575.712	1756.69
575.923	1700.69
576.134	1691.69
576.345	1701.69
576.556	1736.69
576.767	1724.69
576.978	1746.69
577.188	1734.69
577.399	1779.69
577.61	1735.69
577.821	1774.69
578.032	1821.69
578.243	1864.69
578.454	1865.69
578.665	1954.69
578.875	1969.69
579.086	2012.69
579.297	2149.69
579.508	2282.69
579.718	2494.69
579.929	2908.69
580.14	3420.69
580.35	3529.69
580.561	3195.69
580.772	2847.69
580.982	2610.69
581.193	2387.69
581.403	2291.69
581.614	2198.69
581.825	2101.69
582.035	1968.69
582.246	1888.69
582.456	1838.69
582.667	1851.69
582.877	1783.69
583.087	1794.69
583.298	1671.69
583.508	1666.69
583.719	1580.69
583.929	1560.69
584.139	1567.69
584.35	1490.69
584.56	1499.69
584.77	1484.69
584.981	1472.69
585.191	1426.69
585.401	1451.69
585.611	1375.69
585.821	1341.69
586.032	1385.69
586.242	1345.69
586.452	1364.69
586.662	1313.69
586.872	1303.69
587.082	1287.69
587.292	1252.69
587.502	1282.69
587.713	1292.69
587.923	1246.69
588.133	1263.69
588.343	1255.69
588.553	1250.69
588.762	1225.69
588.972	1193.69
589.182	1253.69
589.392	1227.69
589.602	1209.69
589.812	1238.69
590.022	1205.69
590.232	1192.69
590.441	1202.69
590.651	1183.69
590.861	1154.69
591.071	1227.69
591.281	1188.69
591.49	1195.69
591.7	1190.69
591.91	1210.69
592.119	1187.69
592.329	1184.69
592.539	1210.69
592.748	1224.69
592.958	1242.69
593.167	1215.69
593.377	1225.69
593.587	1241.69
593.796	1218.69
594.006	1207.69
594.215	1239.69
594.424	1222.69
594.634	1208.69
594.843	1210.69
595.053	1178.69
595.262	1168.69
595.472	1124.69
595.681	1122.69
595.89	1097.69
596.1	1099.69
596.309	1089.69
596.518	1052.69
596.727	1032.69
596.937	999.69
597.146	1029.69
597.355	1030.69
597.564	1025.69
597.774	1028.69
597.983	994.69
598.192	990.69
598.401	970.69
598.61	993.69
598.819	968.69
599.028	975.69
599.237	970.69
599.446	950.69
599.655	972.69
599.864	963.69
600.073	980.69
600.282	954.69
600.491	966.69
600.7	963.69
600.909	949.69
601.118	933.69
601.327	955.69
601.536	947.69
601.745	992.69
601.953	1090.69
602.162	1230.69
602.371	1072.69
602.58	983.69
602.789	956.69
602.997	924.69
603.206	946.69
603.415	938.69
603.623	920.69
603.832	927.69
604.041	927.69
604.249	908.69
604.458	903.69
604.666	883.69
604.875	896.69
605.084	886.69
605.292	916.69
605.501	902.69
605.709	905.69
605.918	902.69
606.126	919.69
606.334	898.69
606.543	954.69
606.751	990.69
606.96	1160.69
607.168	1230.69
607.376	1067.69
607.585	999.69
607.793	954.69
608.001	927.69
608.21	902.69
608.418	889.69
608.626	880.69
608.834	891.69
609.043	851.69
609.251	880.69
609.459	887.69
609.667	877.69
609.875	838.69
610.083	849.69
610.291	833.69
610.499	839.69
610.707	835.69
610.916	826.69
611.124	844.69
611.332	817.69
611.54	832.69
611.748	807.69
611.955	831.69
612.163	808.69
612.371	796.69
612.579	832.69
612.787	781.69
612.995	804.69
613.203	819.69
613.411	798.69
613.618	802.69
613.826	801.69
614.034	810.69
614.242	802.69
614.449	801.69
614.657	818.69
614.865	790.69
615.072	799.69
615.28	820.69
615.488	814.69
615.695	796.69
615.903	768.69
616.111	787.69
616.318	783.69
616.526	795.69
616.733	785.69
616.941	783.69
617.148	792.69
617.356	787.69
617.563	765.69
617.771	795.69
617.978	770.69
618.185	774.69
618.393	752.69
618.6	750.69
618.807	763.69
619.015	758.69
619.222	746.69
619.429	747.69
619.637	762.69
619.844	729.69
620.051	713.69
620.258	721.69
620.466	710.69
620.673	712.69
620.88	703.69
621.087	707.69
621.294	709.69
621.501	692.69
621.708	727.69
621.915	719.69
622.122	721.69
622.329	688.69
622.536	716.69
622.743	705.69
622.95	717.69
623.157	696.69
623.364	666.69
623.571	670.69
623.778	683.69
623.985	678.69
624.192	679.69
624.399	681.69
624.606	686.69
624.812	676.69
625.019	669.69
625.226	674.69
625.433	673.69
625.639	643.69
625.846	650.69
626.053	644.69
626.259	626.69
626.466	634.69
626.673	649.69
626.879	633.69
627.086	622.69
627.293	637.69
627.499	659.69
627.706	638.69
627.912	656.69
628.119	662.69
628.325	635.69
628.532	637.69
628.738	628.69
628.945	639.69
629.151	617.69
629.357	629.69
629.564	610.69
629.77	586.69
629.976	617.69
630.183	610.69
630.389	620.69
630.595	589.69
630.802	616.69
631.008	617.69
631.214	624.69
631.42	615.69
631.627	610.69
631.833	610.69
632.039	580.69
632.245	596.69
632.451	580.69
632.657	600.69
632.863	608.69
633.069	580.69
633.275	581.69
633.481	590.69
633.688	599.69
633.893	587.69
634.099	590.69
634.305	589.69
634.511	593.69
634.717	608.69
634.923	632.69
635.129	688.69
635.335	789.69
635.541	714.69
635.747	650.69
635.952	627.69
636.158	610.69
636.364	587.69
636.57	579.69
636.775	607.69
636.981	603.69
637.187	599.69
637.392	594.69
637.598	584.69
637.804	578.69
638.009	583.69
638.215	589.69
638.421	566.69
638.626	586.69
638.832	611.69
639.037	603.69
639.243	595.69
639.448	617.69
639.654	600.69
639.859	610.69
640.065	625.69
640.27	638.69
640.475	642.69
640.681	629.69
640.886	612.69
641.091	642.69
641.297	626.69
641.502	648.69
641.707	635.69
641.913	654.69
642.118	656.69
642.323	683.69
642.528	704.69
642.733	684.69
642.939	735.69
643.144	733.69
643.349	756.69
643.554	816.69
643.759	844.69
643.964	882.69
644.169	923.69
644.374	982.69
644.579	1096.69
644.784	1206.69
644.989	1378.69
645.194	1641.69
645.399	2056.69
645.604	2234.69
645.809	1624.69
646.014	1182.69
646.219	1000.69
646.423	863.69
646.628	796.69
646.833	723.69
647.038	662.69
647.243	646.69
647.447	648.69
647.652	618.69
647.857	597.69
648.062	602.69
648.266	572.69
648.471	573.69
648.676	568.69
648.88	568.69
649.085	547.69
649.289	524.69
649.494	523.69
649.698	517.69
649.903	505.69
650.107	489.69
650.312	482.69
650.516	491.69
650.721	479.69
650.925	450.69
651.13	448.69
651.334	422.69
651.539	435.69
651.743	434.69
651.947	433.69
652.152	432.69
652.356	434.69
652.56	463.69
652.764	522.69
652.969	490.69
653.173	432.69
653.377	405.69
653.581	404.69
653.785	390.69
653.99	381.69
654.194	386.69
654.398	358.69
654.602	341.69
654.806	374.69
655.01	358.69
655.214	343.69
655.418	347.69
655.622	369.69
655.826	350.69
656.03	351.69
656.234	376.69
656.438	398.69
656.642	380.69
656.846	382.69
657.049	353.69
657.253	346.69
657.457	311.69
657.661	286.69
657.865	278.69
658.068	274.69
658.272	268.69
658.476	235.69
658.68	246.69
658.883	222.69
659.087	196.69
659.291	201.69
659.494	192.69
659.698	183.69
659.901	196.69
660.105	166.69
660.309	152.69
660.512	163.69
660.716	154.69
660.919	131.69
661.123	164.69
661.326	133.69
661.53	131.69
661.733	122.69
661.936	139.69
662.14	128.69
662.343	105.69
662.546	110.69
662.75	96.69
662.953	104.69
663.156	101.69
663.36	108.69
663.563	95.69
663.766	107.69
663.969	100.69
664.173	87.69
664.376	97.69
664.579	95.69
664.782	107.69
664.985	94.69
665.188	96.69
665.391	90.69
665.594	86.69
665.797	79.69
666	81.69
666.203	97.69
666.406	79.69
666.609	81.69
666.812	82.69
667.015	87.69
667.218	96.69
667.421	96.69
667.624	87.69
667.827	88.69
668.03	85.69
668.232	88.69
668.435	81.69
668.638	80.69
668.841	80.69
669.043	89.69
669.246	87.69
669.449	79.69
669.651	84.69
669.854	90.69
670.057	86.69
670.259	95.69
670.462	86.69
670.665	91.69
670.867	88.69
671.07	79.69
671.272	85.69
671.475	104.69
671.677	92.69
671.88	80.69
672.082	76.69
672.284	88.69
672.487	87.69
672.689	87.69
672.892	76.69
