Data from SnStandardFlinnAPT0064_LampEnergy5.5_LIBS07252019.E.O._I.C._HRD10591_15-17-06-492.txt Node
Date: Thu Jul 25 15:17:06 EDT 2019
User: cochatt
Spectrometer: HR+D1059
Trigger mode: 1
Integration Time (sec): 1.000000E-1
Scans to average: 1
Electric dark correction enabled: true
Nonlinearity correction enabled: false
Boxcar width: 0
XAxis mode: Wavelengths
Number of Pixels in Spectrum: 2048
>>>>>Begin Spectral Data<<<<<
223.165	-17.5
223.4	-17.5
223.635	-17.5
223.869	-16.5
224.104	-21.5
224.338	-20.5
224.573	-25.5
224.808	-12.5
225.042	0.5
225.277	7.5
225.511	-3.5
225.746	12.5
225.98	8.5
226.215	7.5
226.449	6.5
226.683	24.5
226.918	21.5
227.152	28.5
227.387	38.5
227.621	22.5
227.856	51.5
228.09	54.5
228.324	50.5
228.559	42.5
228.793	84.5
229.027	173.5
229.262	174.5
229.496	173.5
229.73	163.5
229.964	170.5
230.199	180.5
230.433	184.5
230.667	182.5
230.901	168.5
231.136	171.5
231.37	195.5
231.604	194.5
231.838	222.5
232.072	260.5
232.306	238.5
232.541	242.5
232.775	210.5
233.009	219.5
233.243	223.5
233.477	235.5
233.711	252.5
233.945	290.5
234.179	241.5
234.413	206.5
234.647	212.5
234.881	217.5
235.115	233.5
235.349	297.5
235.583	335.5
235.817	443.5
236.051	448.5
236.285	313.5
236.519	244.5
236.753	234.5
236.987	238.5
237.221	238.5
237.455	255.5
237.689	228.5
237.922	236.5
238.156	227.5
238.39	233.5
238.624	235.5
238.858	244.5
239.091	239.5
239.325	240.5
239.559	243.5
239.793	234.5
240.027	259.5
240.26	248.5
240.494	260.5
240.728	282.5
240.961	288.5
241.195	295.5
241.429	327.5
241.662	319.5
241.896	347.5
242.13	395.5
242.363	534.5
242.597	667.5
242.83	675.5
243.064	681.5
243.298	773.5
243.531	660.5
243.765	446.5
243.998	328.5
244.232	315.5
244.465	301.5
244.699	280.5
244.932	272.5
245.166	304.5
245.399	302.5
245.633	303.5
245.866	320.5
246.099	309.5
246.333	294.5
246.566	312.5
246.8	302.5
247.033	299.5
247.266	294.5
247.5	324.5
247.733	319.5
247.966	329.5
248.2	352.5
248.433	387.5
248.666	446.5
248.899	428.5
249.133	367.5
249.366	394.5
249.599	427.5
249.832	454.5
250.066	449.5
250.299	394.5
250.532	360.5
250.765	346.5
250.998	346.5
251.231	317.5
251.465	335.5
251.698	340.5
251.931	335.5
252.164	340.5
252.397	351.5
252.63	345.5
252.863	347.5
253.096	343.5
253.329	341.5
253.562	356.5
253.795	336.5
254.028	370.5
254.261	372.5
254.494	390.5
254.727	470.5
254.96	533.5
255.193	532.5
255.426	434.5
255.659	383.5
255.892	381.5
256.124	387.5
256.357	400.5
256.59	408.5
256.823	421.5
257.056	469.5
257.289	556.5
257.521	635.5
257.754	518.5
257.987	450.5
258.22	411.5
258.452	418.5
258.685	413.5
258.918	406.5
259.151	423.5
259.383	481.5
259.616	512.5
259.849	554.5
260.081	479.5
260.314	442.5
260.547	429.5
260.779	412.5
261.012	435.5
261.244	430.5
261.477	447.5
261.71	426.5
261.942	462.5
262.175	465.5
262.407	473.5
262.64	457.5
262.872	515.5
263.105	510.5
263.337	528.5
263.57	567.5
263.802	581.5
264.035	568.5
264.267	583.5
264.499	618.5
264.732	634.5
264.964	632.5
265.197	653.5
265.429	642.5
265.661	632.5
265.894	687.5
266.126	746.5
266.358	822.5
266.591	798.5
266.823	675.5
267.055	636.5
267.287	615.5
267.52	615.5
267.752	574.5
267.984	560.5
268.216	569.5
268.448	560.5
268.681	536.5
268.913	546.5
269.145	559.5
269.377	549.5
269.609	584.5
269.841	557.5
270.073	613.5
270.306	712.5
270.538	913.5
270.77	1347.5
271.002	1626.5
271.234	1152.5
271.466	776.5
271.698	651.5
271.93	589.5
272.162	563.5
272.394	564.5
272.626	583.5
272.858	555.5
273.09	525.5
273.322	523.5
273.553	531.5
273.785	530.5
274.017	532.5
274.249	541.5
274.481	534.5
274.713	543.5
274.945	546.5
275.176	540.5
275.408	552.5
275.64	555.5
275.872	554.5
276.104	565.5
276.335	550.5
276.567	590.5
276.799	571.5
277.031	567.5
277.262	571.5
277.494	575.5
277.726	661.5
277.957	778.5
278.189	834.5
278.421	790.5
278.652	744.5
278.884	724.5
279.115	642.5
279.347	610.5
279.579	614.5
279.81	591.5
280.042	597.5
280.273	621.5
280.505	650.5
280.736	636.5
280.968	668.5
281.199	737.5
281.431	822.5
281.662	859.5
281.894	739.5
282.125	667.5
282.356	665.5
282.588	717.5
282.819	703.5
283.051	744.5
283.282	825.5
283.513	1040.5
283.745	1504.5
283.976	2397.5
284.207	3416.5
284.439	2988.5
284.67	1755.5
284.901	1422.5
285.132	1443.5
285.364	1371.5
285.595	1064.5
285.826	980.5
286.057	1199.5
286.288	1598.5
286.52	2139.5
286.751	1998.5
286.982	1216.5
287.213	914.5
287.444	818.5
287.675	758.5
287.906	722.5
288.138	712.5
288.369	726.5
288.6	754.5
288.831	726.5
289.062	710.5
289.293	703.5
289.524	728.5
289.755	716.5
289.986	732.5
290.217	750.5
290.448	719.5
290.679	725.5
290.91	746.5
291.141	775.5
291.371	826.5
291.602	837.5
291.833	773.5
292.064	740.5
292.295	711.5
292.526	715.5
292.757	675.5
292.987	679.5
293.218	688.5
293.449	695.5
293.68	692.5
293.91	699.5
294.141	672.5
294.372	676.5
294.603	696.5
294.833	675.5
295.064	668.5
295.295	680.5
295.525	655.5
295.756	645.5
295.987	688.5
296.217	681.5
296.448	691.5
296.679	674.5
296.909	690.5
297.14	703.5
297.37	693.5
297.601	704.5
297.831	711.5
298.062	692.5
298.292	710.5
298.523	711.5
298.753	724.5
298.984	716.5
299.214	750.5
299.445	738.5
299.675	756.5
299.905	796.5
300.136	795.5
300.366	944.5
300.597	1150.5
300.827	1594.5
301.057	2116.5
301.288	2146.5
301.518	1338.5
301.748	1040.5
301.979	942.5
302.209	924.5
302.439	944.5
302.669	991.5
302.9	1218.5
303.13	1684.5
303.36	2532.5
303.59	3336.5
303.82	2898.5
304.051	1640.5
304.281	1183.5
304.511	982.5
304.741	944.5
304.971	896.5
305.201	847.5
305.431	838.5
305.661	819.5
305.891	804.5
306.121	772.5
306.352	793.5
306.582	795.5
306.812	778.5
307.042	780.5
307.272	772.5
307.502	818.5
307.731	780.5
307.961	762.5
308.191	756.5
308.421	765.5
308.651	758.5
308.881	777.5
309.111	790.5
309.341	784.5
309.571	797.5
309.8	788.5
310.03	786.5
310.26	789.5
310.49	793.5
310.72	783.5
310.949	797.5
311.179	830.5
311.409	814.5
311.639	809.5
311.868	814.5
312.098	814.5
312.328	820.5
312.557	857.5
312.787	834.5
313.017	816.5
313.246	855.5
313.476	878.5
313.706	861.5
313.935	911.5
314.165	966.5
314.394	999.5
314.624	976.5
314.853	908.5
315.083	910.5
315.312	911.5
315.542	903.5
315.771	925.5
316.001	942.5
316.23	974.5
316.46	998.5
316.689	1085.5
316.919	1350.5
317.148	1931.5
317.377	2972.5
317.607	4380.5
317.836	4486.5
318.065	2586.5
318.295	1650.5
318.524	1318.5
318.753	1209.5
318.983	1099.5
319.212	1039.5
319.441	1044.5
319.67	994.5
319.9	970.5
320.129	991.5
320.358	983.5
320.587	973.5
320.816	967.5
321.046	989.5
321.275	970.5
321.504	992.5
321.733	996.5
321.962	1037.5
322.191	1057.5
322.42	1034.5
322.649	1019.5
322.878	1020.5
323.108	1007.5
323.337	1076.5
323.566	1062.5
323.795	1098.5
324.024	1093.5
324.253	1108.5
324.482	1138.5
324.71	1230.5
324.939	1292.5
325.168	1296.5
325.397	1389.5
325.626	1610.5
325.855	2280.5
326.084	3627.5
326.313	5414.5
326.542	5701.5
326.77	3472.5
326.999	2255.5
327.228	1894.5
327.457	1813.5
327.686	1846.5
327.914	1963.5
328.143	2238.5
328.372	2554.5
328.6	2753.5
328.829	2544.5
329.058	2222.5
329.287	1972.5
329.515	1835.5
329.744	1686.5
329.972	1604.5
330.201	1516.5
330.43	1447.5
330.658	1462.5
330.887	1436.5
331.115	1411.5
331.344	1387.5
331.572	1388.5
331.801	1427.5
332.03	1454.5
332.258	1465.5
332.486	1519.5
332.715	1723.5
332.943	2106.5
333.172	2598.5
333.4	2511.5
333.629	1930.5
333.857	1794.5
334.085	1774.5
334.314	1857.5
334.542	2031.5
334.771	2283.5
334.999	2727.5
335.227	3395.5
335.455	3757.5
335.684	3406.5
335.912	2915.5
336.14	2522.5
336.369	2249.5
336.597	2074.5
336.825	1880.5
337.053	1792.5
337.281	1724.5
337.51	1623.5
337.738	1574.5
337.966	1528.5
338.194	1454.5
338.422	1441.5
338.65	1390.5
338.878	1364.5
339.106	1330.5
339.334	1315.5
339.562	1315.5
339.79	1291.5
340.018	1231.5
340.246	1273.5
340.474	1270.5
340.702	1275.5
340.93	1259.5
341.158	1235.5
341.386	1250.5
341.614	1248.5
341.842	1217.5
342.07	1194.5
342.298	1169.5
342.526	1162.5
342.754	1136.5
342.981	1158.5
343.209	1147.5
343.437	1172.5
343.665	1205.5
343.893	1183.5
344.12	1169.5
344.348	1190.5
344.576	1156.5
344.804	1106.5
345.031	1118.5
345.259	1120.5
345.487	1112.5
345.714	1053.5
345.942	1061.5
346.17	1077.5
346.397	1065.5
346.625	1085.5
346.853	1039.5
347.08	1031.5
347.308	1065.5
347.535	1026.5
347.763	1049.5
347.99	1060.5
348.218	1072.5
348.445	1057.5
348.673	1045.5
348.9	1080.5
349.128	1061.5
349.355	1062.5
349.583	1053.5
349.81	1038.5
350.037	1010.5
350.265	1005.5
350.492	1026.5
350.72	999.5
350.947	1023.5
351.174	1008.5
351.402	1016.5
351.629	1024.5
351.856	1032.5
352.083	1030.5
352.311	1011.5
352.538	1001.5
352.765	1015.5
352.992	996.5
353.22	1032.5
353.447	1020.5
353.674	1019.5
353.901	1033.5
354.128	999.5
354.355	1020.5
354.583	1050.5
354.81	1021.5
355.037	1024.5
355.264	1036.5
355.491	1052.5
355.718	1036.5
355.945	1036.5
356.172	1034.5
356.399	1028.5
356.626	1044.5
356.853	1062.5
357.08	1073.5
357.307	1086.5
357.534	1089.5
357.761	1076.5
357.988	1057.5
358.215	1079.5
358.441	1094.5
358.668	1077.5
358.895	1102.5
359.122	1082.5
359.349	1080.5
359.576	1075.5
359.802	1085.5
360.029	1063.5
360.256	1084.5
360.483	1098.5
360.709	1074.5
360.936	1081.5
361.163	1071.5
361.39	1091.5
361.616	1086.5
361.843	1071.5
362.07	1114.5
362.296	1087.5
362.523	1113.5
362.749	1079.5
362.976	1093.5
363.203	1065.5
363.429	1073.5
363.656	1083.5
363.882	1086.5
364.109	1070.5
364.335	1090.5
364.562	1104.5
364.788	1099.5
365.015	1107.5
365.241	1112.5
365.468	1163.5
365.694	1189.5
365.92	1165.5
366.147	1091.5
366.373	1107.5
366.599	1096.5
366.826	1092.5
367.052	1085.5
367.278	1086.5
367.505	1114.5
367.731	1111.5
367.957	1104.5
368.184	1127.5
368.41	1126.5
368.636	1154.5
368.862	1144.5
369.089	1104.5
369.315	1107.5
369.541	1117.5
369.767	1117.5
369.993	1137.5
370.219	1119.5
370.445	1128.5
370.672	1144.5
370.898	1128.5
371.124	1113.5
371.35	1172.5
371.576	1129.5
371.802	1182.5
372.028	1182.5
372.254	1194.5
372.48	1163.5
372.706	1206.5
372.932	1193.5
373.158	1197.5
373.384	1206.5
373.61	1172.5
373.835	1190.5
374.061	1202.5
374.287	1235.5
374.513	1223.5
374.739	1219.5
374.965	1222.5
375.191	1227.5
375.416	1239.5
375.642	1236.5
375.868	1238.5
376.094	1189.5
376.319	1216.5
376.545	1210.5
376.771	1192.5
376.997	1187.5
377.222	1197.5
377.448	1160.5
377.674	1182.5
377.899	1172.5
378.125	1130.5
378.35	1166.5
378.576	1160.5
378.802	1170.5
379.027	1207.5
379.253	1220.5
379.478	1306.5
379.704	1540.5
379.929	2139.5
380.155	3200.5
380.38	3415.5
380.606	2086.5
380.831	1490.5
381.057	1319.5
381.282	1260.5
381.507	1192.5
381.733	1188.5
381.958	1168.5
382.184	1154.5
382.409	1170.5
382.634	1145.5
382.86	1170.5
383.085	1163.5
383.31	1173.5
383.535	1185.5
383.761	1148.5
383.986	1172.5
384.211	1154.5
384.436	1175.5
384.662	1208.5
384.887	1208.5
385.112	1191.5
385.337	1206.5
385.562	1193.5
385.787	1224.5
386.013	1181.5
386.238	1190.5
386.463	1172.5
386.688	1217.5
386.913	1190.5
387.138	1183.5
387.363	1155.5
387.588	1186.5
387.813	1208.5
388.038	1177.5
388.263	1227.5
388.488	1207.5
388.713	1179.5
388.938	1183.5
389.163	1169.5
389.387	1210.5
389.612	1203.5
389.837	1191.5
390.062	1176.5
390.287	1219.5
390.512	1214.5
390.736	1226.5
390.961	1223.5
391.186	1263.5
391.411	1248.5
391.636	1229.5
391.86	1260.5
392.085	1262.5
392.31	1209.5
392.534	1245.5
392.759	1247.5
392.984	1222.5
393.208	1251.5
393.433	1256.5
393.658	1265.5
393.882	1211.5
394.107	1208.5
394.331	1206.5
394.556	1194.5
394.78	1216.5
395.005	1208.5
395.229	1199.5
395.454	1228.5
395.678	1244.5
395.903	1232.5
396.127	1232.5
396.352	1203.5
396.576	1264.5
396.801	1279.5
397.025	1283.5
397.249	1261.5
397.474	1260.5
397.698	1259.5
397.922	1284.5
398.147	1240.5
398.371	1287.5
398.595	1330.5
398.82	1354.5
399.044	1387.5
399.268	1459.5
399.492	1497.5
399.717	1562.5
399.941	1571.5
400.165	1548.5
400.389	1462.5
400.613	1436.5
400.837	1381.5
401.062	1321.5
401.286	1325.5
401.51	1332.5
401.734	1292.5
401.958	1341.5
402.182	1319.5
402.406	1286.5
402.63	1345.5
402.854	1348.5
403.078	1313.5
403.302	1349.5
403.526	1336.5
403.75	1342.5
403.974	1369.5
404.198	1387.5
404.422	1365.5
404.645	1368.5
404.869	1364.5
405.093	1370.5
405.317	1371.5
405.541	1375.5
405.765	1399.5
405.988	1376.5
406.212	1371.5
406.436	1390.5
406.66	1395.5
406.883	1422.5
407.107	1463.5
407.331	1475.5
407.555	1510.5
407.778	1476.5
408.002	1464.5
408.226	1450.5
408.449	1447.5
408.673	1423.5
408.896	1384.5
409.12	1396.5
409.344	1370.5
409.567	1384.5
409.791	1346.5
410.014	1387.5
410.238	1340.5
410.461	1343.5
410.685	1349.5
410.908	1380.5
411.132	1339.5
411.355	1306.5
411.578	1298.5
411.802	1299.5
412.025	1314.5
412.249	1336.5
412.472	1326.5
412.695	1298.5
412.919	1289.5
413.142	1314.5
413.365	1299.5
413.589	1293.5
413.812	1272.5
414.035	1332.5
414.258	1279.5
414.482	1278.5
414.705	1292.5
414.928	1285.5
415.151	1290.5
415.374	1286.5
415.597	1263.5
415.821	1239.5
416.044	1261.5
416.267	1253.5
416.49	1248.5
416.713	1223.5
416.936	1231.5
417.159	1251.5
417.382	1242.5
417.605	1248.5
417.828	1236.5
418.051	1260.5
418.274	1241.5
418.497	1276.5
418.72	1307.5
418.943	1270.5
419.166	1302.5
419.389	1381.5
419.611	1382.5
419.834	1295.5
420.057	1294.5
420.28	1295.5
420.503	1242.5
420.726	1222.5
420.948	1238.5
421.171	1243.5
421.394	1248.5
421.617	1246.5
421.839	1269.5
422.062	1252.5
422.285	1246.5
422.507	1322.5
422.73	1279.5
422.953	1314.5
423.175	1298.5
423.398	1288.5
423.621	1255.5
423.843	1263.5
424.066	1267.5
424.288	1274.5
424.511	1278.5
424.733	1235.5
424.956	1232.5
425.178	1247.5
425.401	1258.5
425.623	1244.5
425.846	1222.5
426.068	1216.5
426.291	1213.5
426.513	1165.5
426.735	1176.5
426.958	1219.5
427.18	1188.5
427.402	1196.5
427.625	1165.5
427.847	1164.5
428.069	1140.5
428.292	1192.5
428.514	1180.5
428.736	1138.5
428.958	1182.5
429.181	1174.5
429.403	1134.5
429.625	1148.5
429.847	1133.5
430.069	1167.5
430.292	1190.5
430.514	1242.5
430.736	1227.5
430.958	1154.5
431.18	1143.5
431.402	1146.5
431.624	1171.5
431.846	1145.5
432.068	1128.5
432.29	1113.5
432.512	1131.5
432.734	1147.5
432.956	1145.5
433.178	1154.5
433.4	1168.5
433.622	1159.5
433.844	1181.5
434.066	1144.5
434.287	1152.5
434.509	1152.5
434.731	1193.5
434.953	1179.5
435.175	1185.5
435.397	1188.5
435.618	1168.5
435.84	1138.5
436.062	1135.5
436.284	1146.5
436.505	1135.5
436.727	1146.5
436.949	1133.5
437.17	1112.5
437.392	1116.5
437.614	1111.5
437.835	1081.5
438.057	1097.5
438.278	1090.5
438.5	1126.5
438.721	1132.5
438.943	1164.5
439.165	1172.5
439.386	1204.5
439.608	1218.5
439.829	1190.5
440.05	1242.5
440.272	1259.5
440.493	1191.5
440.715	1207.5
440.936	1186.5
441.158	1227.5
441.379	1206.5
441.6	1276.5
441.822	1320.5
442.043	1370.5
442.264	1384.5
442.486	1263.5
442.707	1251.5
442.928	1248.5
443.149	1207.5
443.371	1206.5
443.592	1242.5
443.813	1225.5
444.034	1202.5
444.255	1291.5
444.476	1288.5
444.698	1299.5
444.919	1337.5
445.14	1396.5
445.361	1309.5
445.582	1286.5
445.803	1246.5
446.024	1239.5
446.245	1235.5
446.466	1255.5
446.687	1238.5
446.908	1248.5
447.129	1158.5
447.35	1158.5
447.571	1188.5
447.792	1151.5
448.013	1170.5
448.234	1136.5
448.455	1148.5
448.675	1144.5
448.896	1160.5
449.117	1222.5
449.338	1302.5
449.559	1391.5
449.779	1191.5
450	1164.5
450.221	1110.5
450.442	1140.5
450.662	1110.5
450.883	1075.5
451.104	1110.5
451.324	1113.5
451.545	1091.5
451.766	1115.5
451.986	1149.5
452.207	1210.5
452.428	1478.5
452.648	2068.5
452.869	1765.5
453.089	1263.5
453.31	1236.5
453.53	1207.5
453.751	1245.5
453.971	1310.5
454.192	1344.5
454.412	1152.5
454.633	1091.5
454.853	1072.5
455.073	1070.5
455.294	1070.5
455.514	1060.5
455.734	1065.5
455.955	1042.5
456.175	1020.5
456.395	1015.5
456.616	1023.5
456.836	1065.5
457.056	1074.5
457.276	1052.5
457.497	1127.5
457.717	1170.5
457.937	1143.5
458.157	1097.5
458.377	1075.5
458.598	1140.5
458.818	1128.5
459.038	1110.5
459.258	1095.5
459.478	1105.5
459.698	1145.5
459.918	1184.5
460.138	1182.5
460.358	1203.5
460.578	1231.5
460.798	1228.5
461.018	1221.5
461.238	1247.5
461.458	1269.5
461.678	1294.5
461.898	1279.5
462.118	1298.5
462.338	1289.5
462.558	1308.5
462.777	1387.5
462.997	1406.5
463.217	1443.5
463.437	1448.5
463.657	1500.5
463.876	1477.5
464.096	1417.5
464.316	1364.5
464.536	1324.5
464.755	1334.5
464.975	1318.5
465.195	1278.5
465.414	1220.5
465.634	1209.5
465.854	1191.5
466.073	1178.5
466.293	1138.5
466.512	1169.5
466.732	1209.5
466.951	1231.5
467.171	1273.5
467.391	1245.5
467.61	1161.5
467.829	1150.5
468.049	1152.5
468.268	1130.5
468.488	1131.5
468.707	1115.5
468.927	1114.5
469.146	1128.5
469.365	1175.5
469.585	1189.5
469.804	1179.5
470.023	1213.5
470.243	1186.5
470.462	1234.5
470.681	1286.5
470.901	1409.5
471.12	1652.5
471.339	1650.5
471.558	1365.5
471.777	1248.5
471.997	1207.5
472.216	1162.5
472.435	1163.5
472.654	1119.5
472.873	1129.5
473.092	1154.5
473.311	1147.5
473.53	1169.5
473.749	1198.5
473.968	1192.5
474.187	1158.5
474.406	1115.5
474.625	1142.5
474.844	1125.5
475.063	1156.5
475.282	1126.5
475.501	1109.5
475.72	1152.5
475.939	1154.5
476.158	1167.5
476.377	1174.5
476.596	1204.5
476.814	1191.5
477.033	1192.5
477.252	1182.5
477.471	1220.5
477.69	1251.5
477.908	1304.5
478.127	1289.5
478.346	1282.5
478.564	1280.5
478.783	1308.5
479.002	1353.5
479.22	1330.5
479.439	1386.5
479.658	1364.5
479.876	1312.5
480.095	1334.5
480.313	1389.5
480.532	1428.5
480.751	1362.5
480.969	1347.5
481.188	1356.5
481.406	1305.5
481.624	1333.5
481.843	1336.5
482.061	1345.5
482.28	1338.5
482.498	1331.5
482.717	1345.5
482.935	1381.5
483.153	1386.5
483.372	1376.5
483.59	1387.5
483.808	1441.5
484.027	1438.5
484.245	1534.5
484.463	1730.5
484.681	1941.5
484.9	1770.5
485.118	1586.5
485.336	1597.5
485.554	1617.5
485.772	1664.5
485.99	1930.5
486.209	2079.5
486.427	1759.5
486.645	1564.5
486.863	1508.5
487.081	1472.5
487.299	1430.5
487.517	1439.5
487.735	1462.5
487.953	1477.5
488.171	1448.5
488.389	1431.5
488.607	1439.5
488.825	1368.5
489.043	1411.5
489.261	1371.5
489.479	1353.5
489.696	1373.5
489.914	1404.5
490.132	1428.5
490.35	1435.5
490.568	1440.5
490.786	1470.5
491.003	1470.5
491.221	1493.5
491.439	1469.5
491.657	1492.5
491.874	1528.5
492.092	1549.5
492.31	1556.5
492.527	1537.5
492.745	1517.5
492.963	1517.5
493.18	1517.5
493.398	1482.5
493.615	1492.5
493.833	1526.5
494.05	1514.5
494.268	1486.5
494.485	1526.5
494.703	1520.5
494.92	1491.5
495.138	1482.5
495.355	1470.5
495.573	1520.5
495.79	1547.5
496.008	1519.5
496.225	1519.5
496.442	1533.5
496.66	1607.5
496.877	1654.5
497.094	1656.5
497.312	1595.5
497.529	1607.5
497.746	1579.5
497.963	1630.5
498.181	1682.5
498.398	1728.5
498.615	1735.5
498.832	1799.5
499.049	1919.5
499.267	2025.5
499.484	2157.5
499.701	2222.5
499.918	2249.5
500.135	2342.5
500.352	2445.5
500.569	2523.5
500.786	2480.5
501.003	2418.5
501.22	2282.5
501.437	2166.5
501.654	2050.5
501.871	1945.5
502.088	1847.5
502.305	1836.5
502.522	1782.5
502.739	1742.5
502.956	1682.5
503.172	1652.5
503.389	1613.5
503.606	1586.5
503.823	1526.5
504.04	1541.5
504.256	1534.5
504.473	1552.5
504.69	1557.5
504.907	1466.5
505.123	1502.5
505.34	1450.5
505.557	1399.5
505.773	1415.5
505.99	1415.5
506.207	1347.5
506.423	1362.5
506.64	1353.5
506.856	1314.5
507.073	1311.5
507.289	1323.5
507.506	1310.5
507.722	1344.5
507.939	1289.5
508.155	1309.5
508.372	1305.5
508.588	1334.5
508.805	1261.5
509.021	1268.5
509.238	1281.5
509.454	1350.5
509.67	1422.5
509.887	1324.5
510.103	1295.5
510.319	1255.5
510.536	1263.5
510.752	1268.5
510.968	1224.5
511.184	1238.5
511.401	1194.5
511.617	1209.5
511.833	1198.5
512.049	1178.5
512.265	1232.5
512.481	1198.5
512.698	1189.5
512.914	1194.5
513.13	1213.5
513.346	1196.5
513.562	1222.5
513.778	1192.5
513.994	1256.5
514.21	1256.5
514.426	1310.5
514.642	1362.5
514.858	1263.5
515.074	1254.5
515.29	1246.5
515.506	1237.5
515.721	1254.5
515.937	1238.5
516.153	1256.5
516.369	1270.5
516.585	1309.5
516.801	1318.5
517.016	1327.5
517.232	1337.5
517.448	1357.5
517.664	1415.5
517.879	1396.5
518.095	1366.5
518.311	1378.5
518.527	1355.5
518.742	1362.5
518.958	1365.5
519.173	1382.5
519.389	1366.5
519.605	1282.5
519.82	1269.5
520.036	1287.5
520.251	1214.5
520.467	1222.5
520.682	1218.5
520.898	1189.5
521.113	1205.5
521.329	1209.5
521.544	1236.5
521.76	1196.5
521.975	1179.5
522.19	1176.5
522.406	1168.5
522.621	1180.5
522.836	1190.5
523.052	1175.5
523.267	1186.5
523.482	1212.5
523.698	1188.5
523.913	1163.5
524.128	1183.5
524.343	1169.5
524.559	1160.5
524.774	1174.5
524.989	1197.5
525.204	1186.5
525.419	1148.5
525.634	1156.5
525.849	1175.5
526.064	1184.5
526.28	1148.5
526.495	1146.5
526.71	1177.5
526.925	1168.5
527.14	1138.5
527.355	1182.5
527.57	1167.5
527.785	1170.5
527.999	1198.5
528.214	1181.5
528.429	1214.5
528.644	1227.5
528.859	1250.5
529.074	1251.5
529.289	1269.5
529.503	1236.5
529.718	1266.5
529.933	1230.5
530.148	1216.5
530.363	1247.5
530.577	1227.5
530.792	1229.5
531.007	1235.5
531.221	1260.5
531.436	1276.5
531.651	1257.5
531.865	1284.5
532.08	1320.5
532.295	1345.5
532.509	1375.5
532.724	1399.5
532.938	1410.5
533.153	1444.5
533.367	1514.5
533.582	1573.5
533.796	1547.5
534.011	1508.5
534.225	1455.5
534.44	1413.5
534.654	1421.5
534.868	1385.5
535.083	1376.5
535.297	1312.5
535.511	1330.5
535.726	1327.5
535.94	1287.5
536.154	1241.5
536.369	1264.5
536.583	1245.5
536.797	1235.5
537.011	1228.5
537.225	1196.5
537.44	1208.5
537.654	1196.5
537.868	1178.5
538.082	1200.5
538.296	1167.5
538.51	1179.5
538.724	1193.5
538.938	1147.5
539.153	1156.5
539.367	1180.5
539.581	1148.5
539.795	1119.5
540.009	1096.5
540.222	1096.5
540.436	1089.5
540.65	1146.5
540.864	1157.5
541.078	1168.5
541.292	1250.5
541.506	1473.5
541.72	1561.5
541.934	1336.5
542.147	1270.5
542.361	1234.5
542.575	1150.5
542.789	1147.5
543.002	1096.5
543.216	1096.5
543.43	1104.5
543.644	1115.5
543.857	1126.5
544.071	1150.5
544.285	1131.5
544.498	1169.5
544.712	1160.5
544.925	1152.5
545.139	1146.5
545.352	1133.5
545.566	1162.5
545.779	1142.5
545.993	1175.5
546.206	1124.5
546.42	1158.5
546.633	1138.5
546.847	1135.5
547.06	1160.5
547.274	1146.5
547.487	1167.5
547.7	1179.5
547.914	1169.5
548.127	1166.5
548.34	1187.5
548.554	1156.5
548.767	1131.5
548.98	1124.5
549.193	1144.5
549.407	1126.5
549.62	1174.5
549.833	1164.5
550.046	1191.5
550.259	1169.5
550.473	1163.5
550.686	1142.5
550.899	1134.5
551.112	1146.5
551.325	1123.5
551.538	1140.5
551.751	1132.5
551.964	1146.5
552.177	1124.5
552.39	1157.5
552.603	1180.5
552.816	1192.5
553.029	1202.5
553.242	1194.5
553.455	1259.5
553.667	1259.5
553.88	1260.5
554.093	1258.5
554.306	1241.5
554.519	1268.5
554.732	1246.5
554.944	1296.5
555.157	1299.5
555.37	1334.5
555.583	1393.5
555.795	1412.5
556.008	1493.5
556.221	1639.5
556.433	1702.5
556.646	1694.5
556.859	1671.5
557.071	1602.5
557.284	1594.5
557.496	1557.5
557.709	1532.5
557.921	1529.5
558.134	1530.5
558.346	1532.5
558.559	1582.5
558.771	1657.5
558.984	1772.5
559.196	1860.5
559.409	1794.5
559.621	1719.5
559.833	1586.5
560.046	1531.5
560.258	1471.5
560.47	1405.5
560.683	1388.5
560.895	1337.5
561.107	1272.5
561.32	1242.5
561.532	1183.5
561.744	1210.5
561.956	1194.5
562.168	1153.5
562.381	1193.5
562.593	1139.5
562.805	1133.5
563.017	1173.5
563.229	1204.5
563.441	1291.5
563.653	1166.5
563.865	1083.5
564.077	1068.5
564.289	1051.5
564.501	1019.5
564.713	1067.5
564.925	1062.5
565.137	1054.5
565.349	1068.5
565.561	1074.5
565.773	1089.5
565.985	1053.5
566.197	1090.5
566.408	1102.5
566.62	1118.5
566.832	1149.5
567.044	1138.5
567.255	1151.5
567.467	1161.5
567.679	1176.5
567.891	1246.5
568.102	1406.5
568.314	1608.5
568.526	1319.5
568.737	1174.5
568.949	1107.5
569.161	1048.5
569.372	989.5
569.584	950.5
569.795	936.5
570.007	936.5
570.218	955.5
570.43	1007.5
570.641	911.5
570.853	888.5
571.064	898.5
571.276	850.5
571.487	911.5
571.698	871.5
571.91	866.5
572.121	876.5
572.333	836.5
572.544	846.5
572.755	904.5
572.966	1032.5
573.178	943.5
573.389	822.5
573.6	784.5
573.811	796.5
574.023	765.5
574.234	760.5
574.445	780.5
574.656	767.5
574.867	750.5
575.078	756.5
575.289	776.5
575.501	769.5
575.712	739.5
575.923	776.5
576.134	759.5
576.345	782.5
576.556	772.5
576.767	764.5
576.978	791.5
577.188	758.5
577.399	757.5
577.61	769.5
577.821	794.5
578.032	761.5
578.243	789.5
578.454	787.5
578.665	822.5
578.875	799.5
579.086	834.5
579.297	884.5
579.508	928.5
579.718	990.5
579.929	1116.5
580.14	1239.5
580.35	1263.5
580.561	1199.5
580.772	1097.5
580.982	1066.5
581.193	995.5
581.403	954.5
581.614	914.5
581.825	886.5
582.035	849.5
582.246	828.5
582.456	814.5
582.667	796.5
582.877	766.5
583.087	741.5
583.298	758.5
583.508	722.5
583.719	699.5
583.929	696.5
584.139	692.5
584.35	683.5
584.56	673.5
584.77	647.5
584.981	643.5
585.191	656.5
585.401	631.5
585.611	609.5
585.821	624.5
586.032	614.5
586.242	601.5
586.452	629.5
586.662	599.5
586.872	592.5
587.082	604.5
587.292	579.5
587.502	579.5
587.713	596.5
587.923	564.5
588.133	573.5
588.343	592.5
588.553	580.5
588.762	555.5
588.972	574.5
589.182	606.5
589.392	587.5
589.602	573.5
589.812	563.5
590.022	557.5
590.232	556.5
590.441	549.5
590.651	550.5
590.861	543.5
591.071	541.5
591.281	540.5
591.49	557.5
591.7	547.5
591.91	545.5
592.119	562.5
592.329	538.5
592.539	574.5
592.748	541.5
592.958	574.5
593.167	596.5
593.377	566.5
593.587	538.5
593.796	547.5
594.006	564.5
594.215	588.5
594.424	570.5
594.634	575.5
594.843	582.5
595.053	536.5
595.262	557.5
595.472	554.5
595.681	525.5
595.89	532.5
596.1	525.5
596.309	502.5
596.518	492.5
596.727	516.5
596.937	487.5
597.146	503.5
597.355	487.5
597.564	481.5
597.774	493.5
597.983	493.5
598.192	466.5
598.401	458.5
598.61	450.5
598.819	470.5
599.028	475.5
599.237	457.5
599.446	481.5
599.655	471.5
599.864	475.5
600.073	462.5
600.282	444.5
600.491	446.5
600.7	444.5
600.909	458.5
601.118	456.5
601.327	453.5
601.536	467.5
601.745	479.5
601.953	520.5
602.162	568.5
602.371	501.5
602.58	479.5
602.789	460.5
602.997	480.5
603.206	456.5
603.415	462.5
603.623	441.5
603.832	439.5
604.041	420.5
604.249	423.5
604.458	421.5
604.666	431.5
604.875	437.5
605.084	444.5
605.292	444.5
605.501	439.5
605.709	444.5
605.918	451.5
606.126	426.5
606.334	453.5
606.543	454.5
606.751	481.5
606.96	542.5
607.168	605.5
607.376	503.5
607.585	456.5
607.793	446.5
608.001	456.5
608.21	445.5
608.418	442.5
608.626	406.5
608.834	447.5
609.043	414.5
609.251	420.5
609.459	410.5
609.667	424.5
609.875	428.5
610.083	422.5
610.291	401.5
610.499	421.5
610.707	407.5
610.916	408.5
611.124	404.5
611.332	421.5
611.54	430.5
611.748	423.5
611.955	401.5
612.163	407.5
612.371	404.5
612.579	402.5
612.787	411.5
612.995	414.5
613.203	404.5
613.411	388.5
613.618	394.5
613.826	392.5
614.034	390.5
614.242	403.5
614.449	407.5
614.657	409.5
614.865	383.5
615.072	403.5
615.28	407.5
615.488	372.5
615.695	418.5
615.903	415.5
616.111	394.5
616.318	422.5
616.526	409.5
616.733	386.5
616.941	422.5
617.148	406.5
617.356	380.5
617.563	390.5
617.771	402.5
617.978	385.5
618.185	371.5
618.393	400.5
618.6	390.5
618.807	380.5
619.015	395.5
619.222	373.5
619.429	388.5
619.637	378.5
619.844	365.5
620.051	378.5
620.258	362.5
620.466	359.5
620.673	359.5
620.88	363.5
621.087	350.5
621.294	363.5
621.501	364.5
621.708	346.5
621.915	360.5
622.122	370.5
622.329	363.5
622.536	380.5
622.743	366.5
622.95	365.5
623.157	344.5
623.364	363.5
623.571	353.5
623.778	353.5
623.985	359.5
624.192	369.5
624.399	336.5
624.606	363.5
624.812	346.5
625.019	349.5
625.226	352.5
625.433	335.5
625.639	340.5
625.846	344.5
626.053	316.5
626.259	340.5
626.466	343.5
626.673	310.5
626.879	322.5
627.086	334.5
627.293	333.5
627.499	311.5
627.706	329.5
627.912	325.5
628.119	333.5
628.325	327.5
628.532	334.5
628.738	327.5
628.945	333.5
629.151	310.5
629.357	314.5
629.564	322.5
629.77	340.5
629.976	313.5
630.183	314.5
630.389	326.5
630.595	317.5
630.802	296.5
631.008	295.5
631.214	310.5
631.42	327.5
631.627	318.5
631.833	333.5
632.039	318.5
632.245	301.5
632.451	306.5
632.657	307.5
632.863	313.5
633.069	300.5
633.275	303.5
633.481	304.5
633.688	301.5
633.893	316.5
634.099	319.5
634.305	285.5
634.511	319.5
634.717	302.5
634.923	306.5
635.129	374.5
635.335	396.5
635.541	336.5
635.747	333.5
635.952	306.5
636.158	309.5
636.364	318.5
636.57	313.5
636.775	315.5
636.981	300.5
637.187	302.5
637.392	301.5
637.598	294.5
637.804	292.5
638.009	303.5
638.215	307.5
638.421	325.5
638.626	301.5
638.832	317.5
639.037	308.5
639.243	318.5
639.448	290.5
639.654	327.5
639.859	332.5
640.065	316.5
640.27	324.5
640.475	318.5
640.681	312.5
640.886	318.5
641.091	322.5
641.297	339.5
641.502	343.5
641.707	341.5
641.913	337.5
642.118	348.5
642.323	339.5
642.528	352.5
642.733	341.5
642.939	355.5
643.144	368.5
643.349	364.5
643.554	377.5
643.759	404.5
643.964	399.5
644.169	435.5
644.374	463.5
644.579	451.5
644.784	525.5
644.989	564.5
645.194	651.5
645.399	768.5
645.604	779.5
645.809	609.5
646.014	492.5
646.219	443.5
646.423	425.5
646.628	387.5
646.833	368.5
647.038	340.5
647.243	331.5
647.447	302.5
647.652	322.5
647.857	306.5
648.062	294.5
648.266	306.5
648.471	296.5
648.676	293.5
648.88	278.5
649.085	278.5
649.289	267.5
649.494	276.5
649.698	275.5
649.903	261.5
650.107	264.5
650.312	252.5
650.516	277.5
650.721	262.5
650.925	243.5
651.13	248.5
651.334	231.5
651.539	231.5
651.743	236.5
651.947	252.5
652.152	237.5
652.356	242.5
652.56	266.5
652.764	267.5
652.969	261.5
653.173	256.5
653.377	220.5
653.581	217.5
653.785	222.5
653.99	210.5
654.194	203.5
654.398	230.5
654.602	226.5
654.806	216.5
655.01	214.5
655.214	201.5
655.418	204.5
655.622	211.5
655.826	222.5
656.03	208.5
656.234	235.5
656.438	231.5
656.642	225.5
656.846	216.5
657.049	203.5
657.253	197.5
657.457	200.5
657.661	196.5
657.865	169.5
658.068	152.5
658.272	154.5
658.476	147.5
658.68	152.5
658.883	152.5
659.087	154.5
659.291	136.5
659.494	134.5
659.698	128.5
659.901	124.5
660.105	125.5
660.309	124.5
660.512	126.5
660.716	133.5
660.919	119.5
661.123	106.5
661.326	108.5
661.53	106.5
661.733	114.5
661.936	108.5
662.14	101.5
662.343	91.5
662.546	101.5
662.75	99.5
662.953	98.5
663.156	88.5
663.36	108.5
663.563	95.5
663.766	99.5
663.969	79.5
664.173	86.5
664.376	92.5
664.579	72.5
664.782	77.5
664.985	92.5
665.188	92.5
665.391	97.5
665.594	79.5
665.797	82.5
666	87.5
666.203	99.5
666.406	69.5
666.609	91.5
666.812	95.5
667.015	87.5
667.218	88.5
667.421	74.5
667.624	86.5
667.827	85.5
668.03	91.5
668.232	76.5
668.435	73.5
668.638	88.5
668.841	87.5
669.043	72.5
669.246	90.5
669.449	94.5
669.651	77.5
669.854	89.5
670.057	99.5
670.259	89.5
670.462	91.5
670.665	85.5
670.867	85.5
671.07	72.5
671.272	85.5
671.475	86.5
671.677	103.5
671.88	91.5
672.082	88.5
672.284	85.5
672.487	87.5
672.689	92.5
672.892	86.5
