Data from SnStandardFlinnAPT0064_LampEnergy10_LIBS07252019.E.O._I.C._HRD10591_15-22-11-494.txt Node
Date: Thu Jul 25 15:22:11 EDT 2019
User: cochatt
Spectrometer: HR+D1059
Trigger mode: 1
Integration Time (sec): 1.000000E-1
Scans to average: 1
Electric dark correction enabled: true
Nonlinearity correction enabled: false
Boxcar width: 0
XAxis mode: Wavelengths
Number of Pixels in Spectrum: 2048
>>>>>Begin Spectral Data<<<<<
223.165	-13.5
223.4	-13.5
223.635	-13.5
223.869	-16.5
224.104	-23.5
224.338	1.5
224.573	-13.5
224.808	-11.5
225.042	-12.5
225.277	-0.5
225.511	-8.5
225.746	-10.5
225.98	11.5
226.215	10.5
226.449	21.5
226.683	26.5
226.918	18.5
227.152	20.5
227.387	44.5
227.621	41.5
227.856	53.5
228.09	42.5
228.324	57.5
228.559	60.5
228.793	129.5
229.027	308.5
229.262	326.5
229.496	300.5
229.73	291.5
229.964	295.5
230.199	282.5
230.433	305.5
230.667	313.5
230.901	322.5
231.136	322.5
231.37	344.5
231.604	389.5
231.838	417.5
232.072	480.5
232.306	545.5
232.541	452.5
232.775	391.5
233.009	409.5
233.243	398.5
233.477	449.5
233.711	523.5
233.945	567.5
234.179	513.5
234.413	458.5
234.647	454.5
234.881	446.5
235.115	496.5
235.349	588.5
235.583	728.5
235.817	972.5
236.051	955.5
236.285	643.5
236.519	511.5
236.753	478.5
236.987	490.5
237.221	510.5
237.455	506.5
237.689	479.5
237.922	429.5
238.156	461.5
238.39	505.5
238.624	487.5
238.858	480.5
239.091	470.5
239.325	489.5
239.559	459.5
239.793	517.5
240.027	497.5
240.26	535.5
240.494	532.5
240.728	564.5
240.961	582.5
241.195	626.5
241.429	665.5
241.662	688.5
241.896	732.5
242.13	925.5
242.363	1218.5
242.597	1560.5
242.83	1491.5
243.064	1479.5
243.298	1755.5
243.531	1442.5
243.765	927.5
243.998	722.5
244.232	665.5
244.465	662.5
244.699	626.5
244.932	630.5
245.166	640.5
245.399	661.5
245.633	657.5
245.866	693.5
246.099	661.5
246.333	661.5
246.566	629.5
246.8	632.5
247.033	624.5
247.266	608.5
247.5	636.5
247.733	675.5
247.966	688.5
248.2	759.5
248.433	834.5
248.666	951.5
248.899	915.5
249.133	835.5
249.366	861.5
249.599	919.5
249.832	1058.5
250.066	1044.5
250.299	821.5
250.532	778.5
250.765	715.5
250.998	722.5
251.231	728.5
251.465	738.5
251.698	708.5
251.931	721.5
252.164	713.5
252.397	745.5
252.63	768.5
252.863	797.5
253.096	768.5
253.329	775.5
253.562	747.5
253.795	779.5
254.028	791.5
254.261	802.5
254.494	881.5
254.727	989.5
254.96	1210.5
255.193	1173.5
255.426	963.5
255.659	851.5
255.892	830.5
256.124	833.5
256.357	866.5
256.59	913.5
256.823	980.5
257.056	1104.5
257.289	1283.5
257.521	1447.5
257.754	1151.5
257.987	937.5
258.22	908.5
258.452	936.5
258.685	921.5
258.918	920.5
259.151	989.5
259.383	1045.5
259.616	1185.5
259.849	1234.5
260.081	1075.5
260.314	968.5
260.547	959.5
260.779	907.5
261.012	949.5
261.244	961.5
261.477	956.5
261.71	984.5
261.942	992.5
262.175	950.5
262.407	1028.5
262.64	1039.5
262.872	1073.5
263.105	1105.5
263.337	1186.5
263.57	1221.5
263.802	1297.5
264.035	1293.5
264.267	1299.5
264.499	1365.5
264.732	1440.5
264.964	1467.5
265.197	1411.5
265.429	1443.5
265.661	1472.5
265.894	1543.5
266.126	1735.5
266.358	1922.5
266.591	1881.5
266.823	1607.5
267.055	1443.5
267.287	1372.5
267.52	1329.5
267.752	1301.5
267.984	1279.5
268.216	1283.5
268.448	1251.5
268.681	1247.5
268.913	1216.5
269.145	1203.5
269.377	1203.5
269.609	1239.5
269.841	1275.5
270.073	1355.5
270.306	1581.5
270.538	2101.5
270.77	3117.5
271.002	3807.5
271.234	2663.5
271.466	1824.5
271.698	1503.5
271.93	1402.5
272.162	1287.5
272.394	1267.5
272.626	1242.5
272.858	1207.5
273.09	1199.5
273.322	1193.5
273.553	1185.5
273.785	1166.5
274.017	1193.5
274.249	1179.5
274.481	1196.5
274.713	1193.5
274.945	1215.5
275.176	1212.5
275.408	1214.5
275.64	1224.5
275.872	1197.5
276.104	1243.5
276.335	1240.5
276.567	1256.5
276.799	1244.5
277.031	1258.5
277.262	1293.5
277.494	1383.5
277.726	1524.5
277.957	1769.5
278.189	2053.5
278.421	1897.5
278.652	1703.5
278.884	1610.5
279.115	1476.5
279.347	1427.5
279.579	1370.5
279.81	1348.5
280.042	1399.5
280.273	1356.5
280.505	1451.5
280.736	1497.5
280.968	1575.5
281.199	1758.5
281.431	1952.5
281.662	2008.5
281.894	1731.5
282.125	1577.5
282.356	1635.5
282.588	1605.5
282.819	1672.5
283.051	1768.5
283.282	1957.5
283.513	2426.5
283.745	3511.5
283.976	5454.5
284.207	7767.5
284.439	7008.5
284.67	4419.5
284.901	3587.5
285.132	3603.5
285.364	3445.5
285.595	2600.5
285.826	2396.5
286.057	2791.5
286.288	3664.5
286.52	5003.5
286.751	4639.5
286.982	2882.5
287.213	2234.5
287.444	1930.5
287.675	1801.5
287.906	1753.5
288.138	1716.5
288.369	1706.5
288.6	1650.5
288.831	1613.5
289.062	1632.5
289.293	1639.5
289.524	1660.5
289.755	1647.5
289.986	1709.5
290.217	1737.5
290.448	1708.5
290.679	1692.5
290.91	1738.5
291.141	1848.5
291.371	1970.5
291.602	2095.5
291.833	1830.5
292.064	1719.5
292.295	1653.5
292.526	1630.5
292.757	1598.5
292.987	1581.5
293.218	1554.5
293.449	1588.5
293.68	1555.5
293.91	1549.5
294.141	1553.5
294.372	1551.5
294.603	1540.5
294.833	1511.5
295.064	1484.5
295.295	1530.5
295.525	1519.5
295.756	1541.5
295.987	1535.5
296.217	1578.5
296.448	1576.5
296.679	1579.5
296.909	1524.5
297.14	1598.5
297.37	1600.5
297.601	1639.5
297.831	1613.5
298.062	1620.5
298.292	1629.5
298.523	1652.5
298.753	1667.5
298.984	1700.5
299.214	1678.5
299.445	1730.5
299.675	1741.5
299.905	1825.5
300.136	1911.5
300.366	2105.5
300.597	2675.5
300.827	3719.5
301.057	5073.5
301.288	5025.5
301.518	3255.5
301.748	2505.5
301.979	2256.5
302.209	2235.5
302.439	2235.5
302.669	2407.5
302.9	2912.5
303.13	4051.5
303.36	5900.5
303.59	7858.5
303.82	6851.5
304.051	4010.5
304.281	2936.5
304.511	2503.5
304.741	2303.5
304.971	2108.5
305.201	2022.5
305.431	1968.5
305.661	1915.5
305.891	1874.5
306.121	1872.5
306.352	1822.5
306.582	1805.5
306.812	1801.5
307.042	1824.5
307.272	1827.5
307.502	1786.5
307.731	1769.5
307.961	1791.5
308.191	1772.5
308.421	1834.5
308.651	1781.5
308.881	1805.5
309.111	1807.5
309.341	1765.5
309.571	1810.5
309.8	1843.5
310.03	1871.5
310.26	1846.5
310.49	1846.5
310.72	1863.5
310.949	1869.5
311.179	1859.5
311.409	1860.5
311.639	1912.5
311.868	1884.5
312.098	1879.5
312.328	1911.5
312.557	1961.5
312.787	1947.5
313.017	1948.5
313.246	1977.5
313.476	1984.5
313.706	2070.5
313.935	2159.5
314.165	2307.5
314.394	2386.5
314.624	2315.5
314.853	2131.5
315.083	2104.5
315.312	2156.5
315.542	2155.5
315.771	2168.5
316.001	2244.5
316.23	2273.5
316.46	2348.5
316.689	2641.5
316.919	3127.5
317.148	4465.5
317.377	6942.5
317.607	10120.5
317.836	10467.5
318.065	6299.5
318.295	4096.5
318.524	3354.5
318.753	2857.5
318.983	2696.5
319.212	2523.5
319.441	2492.5
319.67	2419.5
319.9	2326.5
320.129	2314.5
320.358	2313.5
320.587	2310.5
320.816	2321.5
321.046	2332.5
321.275	2332.5
321.504	2341.5
321.733	2416.5
321.962	2437.5
322.191	2496.5
322.42	2467.5
322.649	2487.5
322.878	2457.5
323.108	2434.5
323.337	2457.5
323.566	2522.5
323.795	2543.5
324.024	2585.5
324.253	2622.5
324.482	2743.5
324.71	2967.5
324.939	3100.5
325.168	3172.5
325.397	3307.5
325.626	3904.5
325.855	5495.5
326.084	8491.5
326.313	12341.5
326.542	12998.5
326.77	8644.5
326.999	5785.5
327.228	4795.5
327.457	4563.5
327.686	4676.5
327.914	4887.5
328.143	5775.5
328.372	6879.5
328.6	7473.5
328.829	6688.5
329.058	5597.5
329.287	4950.5
329.515	4487.5
329.744	4186.5
329.972	3945.5
330.201	3757.5
330.43	3617.5
330.658	3558.5
330.887	3486.5
331.115	3459.5
331.344	3462.5
331.572	3374.5
331.801	3428.5
332.03	3461.5
332.258	3562.5
332.486	3679.5
332.715	4171.5
332.943	5159.5
333.172	6374.5
333.4	6334.5
333.629	4847.5
333.857	4401.5
334.085	4408.5
334.314	4591.5
334.542	4986.5
334.771	5820.5
334.999	7143.5
335.227	8913.5
335.455	10054.5
335.684	9046.5
335.912	7418.5
336.14	6303.5
336.369	5501.5
336.597	5135.5
336.825	4692.5
337.053	4441.5
337.281	4163.5
337.51	3972.5
337.738	3780.5
337.966	3652.5
338.194	3569.5
338.422	3427.5
338.65	3331.5
338.878	3248.5
339.106	3231.5
339.334	3203.5
339.562	3125.5
339.79	3018.5
340.018	2996.5
340.246	3011.5
340.474	2935.5
340.702	3003.5
340.93	2961.5
341.158	3000.5
341.386	2973.5
341.614	2967.5
341.842	2892.5
342.07	2801.5
342.298	2800.5
342.526	2728.5
342.754	2689.5
342.981	2664.5
343.209	2700.5
343.437	2821.5
343.665	2752.5
343.893	2751.5
344.12	2801.5
344.348	2740.5
344.576	2712.5
344.804	2676.5
345.031	2626.5
345.259	2600.5
345.487	2586.5
345.714	2564.5
345.942	2561.5
346.17	2531.5
346.397	2517.5
346.625	2522.5
346.853	2506.5
347.08	2524.5
347.308	2507.5
347.535	2522.5
347.763	2501.5
347.99	2460.5
348.218	2482.5
348.445	2429.5
348.673	2404.5
348.9	2451.5
349.128	2444.5
349.355	2449.5
349.583	2432.5
349.81	2381.5
350.037	2374.5
350.265	2384.5
350.492	2393.5
350.72	2347.5
350.947	2346.5
351.174	2418.5
351.402	2390.5
351.629	2332.5
351.856	2347.5
352.083	2370.5
352.311	2363.5
352.538	2362.5
352.765	2349.5
352.992	2335.5
353.22	2332.5
353.447	2337.5
353.674	2375.5
353.901	2360.5
354.128	2377.5
354.355	2357.5
354.583	2327.5
354.81	2400.5
355.037	2426.5
355.264	2375.5
355.491	2395.5
355.718	2410.5
355.945	2422.5
356.172	2427.5
356.399	2452.5
356.626	2465.5
356.853	2475.5
357.08	2454.5
357.307	2490.5
357.534	2570.5
357.761	2560.5
357.988	2602.5
358.215	2535.5
358.441	2532.5
358.668	2481.5
358.895	2490.5
359.122	2495.5
359.349	2547.5
359.576	2511.5
359.802	2521.5
360.029	2467.5
360.256	2555.5
360.483	2544.5
360.709	2514.5
360.936	2500.5
361.163	2495.5
361.39	2504.5
361.616	2513.5
361.843	2528.5
362.07	2553.5
362.296	2593.5
362.523	2547.5
362.749	2544.5
362.976	2553.5
363.203	2531.5
363.429	2532.5
363.656	2500.5
363.882	2527.5
364.109	2505.5
364.335	2480.5
364.562	2543.5
364.788	2538.5
365.015	2586.5
365.241	2652.5
365.468	2739.5
365.694	2858.5
365.92	2813.5
366.147	2631.5
366.373	2602.5
366.599	2515.5
366.826	2575.5
367.052	2541.5
367.278	2596.5
367.505	2572.5
367.731	2620.5
367.957	2563.5
368.184	2637.5
368.41	2607.5
368.636	2630.5
368.862	2597.5
369.089	2591.5
369.315	2596.5
369.541	2625.5
369.767	2645.5
369.993	2631.5
370.219	2603.5
370.445	2634.5
370.672	2647.5
370.898	2627.5
371.124	2668.5
371.35	2679.5
371.576	2671.5
371.802	2729.5
372.028	2705.5
372.254	2721.5
372.48	2760.5
372.706	2769.5
372.932	2778.5
373.158	2785.5
373.384	2788.5
373.61	2679.5
373.835	2803.5
374.061	2761.5
374.287	2828.5
374.513	2780.5
374.739	2876.5
374.965	2899.5
375.191	2892.5
375.416	2823.5
375.642	2829.5
375.868	2816.5
376.094	2736.5
376.319	2761.5
376.545	2705.5
376.771	2722.5
376.997	2729.5
377.222	2736.5
377.448	2721.5
377.674	2735.5
377.899	2730.5
378.125	2761.5
378.35	2664.5
378.576	2726.5
378.802	2707.5
379.027	2745.5
379.253	2860.5
379.478	2999.5
379.704	3549.5
379.929	5015.5
380.155	7651.5
380.38	8225.5
380.606	5065.5
380.831	3651.5
381.057	3207.5
381.282	2962.5
381.507	2807.5
381.733	2776.5
381.958	2693.5
382.184	2619.5
382.409	2704.5
382.634	2639.5
382.86	2656.5
383.085	2633.5
383.31	2666.5
383.535	2716.5
383.761	2696.5
383.986	2671.5
384.211	2735.5
384.436	2781.5
384.662	2724.5
384.887	2784.5
385.112	2752.5
385.337	2775.5
385.562	2770.5
385.787	2770.5
386.013	2778.5
386.238	2772.5
386.463	2765.5
386.688	2801.5
386.913	2745.5
387.138	2725.5
387.363	2785.5
387.588	2744.5
387.813	2741.5
388.038	2747.5
388.263	2723.5
388.488	2761.5
388.713	2765.5
388.938	2783.5
389.163	2735.5
389.387	2743.5
389.612	2717.5
389.837	2737.5
390.062	2732.5
390.287	2776.5
390.512	2774.5
390.736	2826.5
390.961	2878.5
391.186	2877.5
391.411	2911.5
391.636	2879.5
391.86	2888.5
392.085	2915.5
392.31	2865.5
392.534	2823.5
392.759	2809.5
392.984	2778.5
393.208	2823.5
393.433	2829.5
393.658	2788.5
393.882	2791.5
394.107	2789.5
394.331	2762.5
394.556	2744.5
394.78	2783.5
395.005	2882.5
395.229	2810.5
395.454	2922.5
395.678	2895.5
395.903	2859.5
396.127	2859.5
396.352	2853.5
396.576	2881.5
396.801	2884.5
397.025	2917.5
397.249	2917.5
397.474	2911.5
397.698	2900.5
397.922	2927.5
398.147	2891.5
398.371	2957.5
398.595	2998.5
398.82	3093.5
399.044	3152.5
399.268	3361.5
399.492	3531.5
399.717	3651.5
399.941	3673.5
400.165	3490.5
400.389	3356.5
400.613	3195.5
400.837	3104.5
401.062	3114.5
401.286	3092.5
401.51	3042.5
401.734	3035.5
401.958	3072.5
402.182	3066.5
402.406	3053.5
402.63	3017.5
402.854	3105.5
403.078	3116.5
403.302	3126.5
403.526	3120.5
403.75	3098.5
403.974	3145.5
404.198	3145.5
404.422	3177.5
404.645	3108.5
404.869	3148.5
405.093	3149.5
405.317	3164.5
405.541	3172.5
405.765	3194.5
405.988	3273.5
406.212	3207.5
406.436	3228.5
406.66	3263.5
406.883	3261.5
407.107	3416.5
407.331	3393.5
407.555	3440.5
407.778	3441.5
408.002	3412.5
408.226	3340.5
408.449	3365.5
408.673	3296.5
408.896	3271.5
409.12	3201.5
409.344	3202.5
409.567	3146.5
409.791	3195.5
410.014	3167.5
410.238	3160.5
410.461	3121.5
410.685	3121.5
410.908	3081.5
411.132	3072.5
411.355	3032.5
411.578	3025.5
411.802	3001.5
412.025	3042.5
412.249	3001.5
412.472	3031.5
412.695	2993.5
412.919	2941.5
413.142	3008.5
413.365	2997.5
413.589	2995.5
413.812	2981.5
414.035	2995.5
414.258	2983.5
414.482	2940.5
414.705	2990.5
414.928	2970.5
415.151	2972.5
415.374	2965.5
415.597	2892.5
415.821	2857.5
416.044	2859.5
416.267	2849.5
416.49	2823.5
416.713	2856.5
416.936	2822.5
417.159	2842.5
417.382	2830.5
417.605	2764.5
417.828	2799.5
418.051	2893.5
418.274	2852.5
418.497	2837.5
418.72	2921.5
418.943	2908.5
419.166	2988.5
419.389	3180.5
419.611	3113.5
419.834	3025.5
420.057	2969.5
420.28	2881.5
420.503	2823.5
420.726	2801.5
420.948	2819.5
421.171	2828.5
421.394	2824.5
421.617	2838.5
421.839	2843.5
422.062	2892.5
422.285	2804.5
422.507	2880.5
422.73	2919.5
422.953	2922.5
423.175	2956.5
423.398	2951.5
423.621	2886.5
423.843	2878.5
424.066	2945.5
424.288	2872.5
424.511	2858.5
424.733	2831.5
424.956	2820.5
425.178	2791.5
425.401	2837.5
425.623	2806.5
425.846	2719.5
426.068	2757.5
426.291	2748.5
426.513	2705.5
426.735	2728.5
426.958	2749.5
427.18	2676.5
427.402	2736.5
427.625	2680.5
427.847	2662.5
428.069	2612.5
428.292	2671.5
428.514	2657.5
428.736	2660.5
428.958	2693.5
429.181	2605.5
429.403	2582.5
429.625	2625.5
429.847	2623.5
430.069	2721.5
430.292	2771.5
430.514	2810.5
430.736	2851.5
430.958	2666.5
431.18	2623.5
431.402	2616.5
431.624	2609.5
431.846	2607.5
432.068	2572.5
432.29	2609.5
432.512	2585.5
432.734	2629.5
432.956	2564.5
433.178	2611.5
433.4	2641.5
433.622	2665.5
433.844	2660.5
434.066	2602.5
434.287	2604.5
434.509	2685.5
434.731	2688.5
434.953	2715.5
435.175	2737.5
435.397	2741.5
435.618	2644.5
435.84	2644.5
436.062	2586.5
436.284	2607.5
436.505	2587.5
436.727	2633.5
436.949	2569.5
437.17	2558.5
437.392	2613.5
437.614	2554.5
437.835	2498.5
438.057	2506.5
438.278	2511.5
438.5	2584.5
438.721	2533.5
438.943	2618.5
439.165	2688.5
439.386	2713.5
439.608	2676.5
439.829	2747.5
440.05	2796.5
440.272	2830.5
440.493	2727.5
440.715	2664.5
440.936	2696.5
441.158	2702.5
441.379	2713.5
441.6	2784.5
441.822	2867.5
442.043	2997.5
442.264	3159.5
442.486	2944.5
442.707	2792.5
442.928	2791.5
443.149	2776.5
443.371	2779.5
443.592	2848.5
443.813	2822.5
444.034	2793.5
444.255	2894.5
444.476	2927.5
444.698	2960.5
444.919	3011.5
445.14	3102.5
445.361	2968.5
445.582	2883.5
445.803	2762.5
446.024	2743.5
446.245	2781.5
446.466	2762.5
446.687	2748.5
446.908	2740.5
447.129	2638.5
447.35	2645.5
447.571	2604.5
447.792	2580.5
448.013	2557.5
448.234	2534.5
448.455	2571.5
448.675	2647.5
448.896	2698.5
449.117	2719.5
449.338	2930.5
449.559	3119.5
449.779	2793.5
450	2620.5
450.221	2522.5
450.442	2494.5
450.662	2497.5
450.883	2496.5
451.104	2504.5
451.324	2490.5
451.545	2512.5
451.766	2528.5
451.986	2561.5
452.207	2756.5
452.428	3530.5
452.648	5238.5
452.869	4351.5
453.089	3060.5
453.31	2953.5
453.53	2965.5
453.751	2991.5
453.971	3133.5
454.192	3097.5
454.412	2688.5
454.633	2514.5
454.853	2453.5
455.073	2444.5
455.294	2396.5
455.514	2419.5
455.734	2412.5
455.955	2433.5
456.175	2364.5
456.395	2400.5
456.616	2425.5
456.836	2427.5
457.056	2473.5
457.276	2458.5
457.497	2621.5
457.717	2637.5
457.937	2583.5
458.157	2569.5
458.377	2504.5
458.598	2519.5
458.818	2526.5
459.038	2555.5
459.258	2577.5
459.478	2652.5
459.698	2694.5
459.918	2645.5
460.138	2681.5
460.358	2748.5
460.578	2783.5
460.798	2840.5
461.018	2845.5
461.238	2845.5
461.458	2875.5
461.678	2872.5
461.898	2911.5
462.118	3008.5
462.338	3049.5
462.558	3079.5
462.777	3121.5
462.997	3203.5
463.217	3359.5
463.437	3473.5
463.657	3533.5
463.876	3542.5
464.096	3368.5
464.316	3171.5
464.536	3053.5
464.755	3064.5
464.975	2963.5
465.195	2831.5
465.414	2787.5
465.634	2682.5
465.854	2711.5
466.073	2660.5
466.293	2637.5
466.512	2653.5
466.732	2667.5
466.951	2795.5
467.171	2957.5
467.391	2942.5
467.61	2652.5
467.829	2595.5
468.049	2604.5
468.268	2538.5
468.488	2586.5
468.707	2540.5
468.927	2552.5
469.146	2550.5
469.365	2632.5
469.585	2594.5
469.804	2609.5
470.023	2676.5
470.243	2737.5
470.462	2833.5
470.681	2945.5
470.901	3219.5
471.12	3735.5
471.339	3692.5
471.558	3122.5
471.777	2858.5
471.997	2747.5
472.216	2676.5
472.435	2587.5
472.654	2609.5
472.873	2588.5
473.092	2614.5
473.311	2593.5
473.53	2573.5
473.749	2635.5
473.968	2741.5
474.187	2627.5
474.406	2532.5
474.625	2627.5
474.844	2603.5
475.063	2621.5
475.282	2634.5
475.501	2615.5
475.72	2680.5
475.939	2627.5
476.158	2675.5
476.377	2809.5
476.596	2750.5
476.814	2758.5
477.033	2715.5
477.252	2775.5
477.471	2791.5
477.69	2829.5
477.908	2913.5
478.127	2965.5
478.346	2966.5
478.564	2997.5
478.783	3018.5
479.002	3038.5
479.22	2982.5
479.439	3049.5
479.658	3093.5
479.876	3114.5
480.095	3171.5
480.313	3197.5
480.532	3217.5
480.751	3200.5
480.969	3133.5
481.188	3083.5
481.406	3141.5
481.624	3132.5
481.843	3126.5
482.061	3164.5
482.28	3078.5
482.498	3107.5
482.717	3100.5
482.935	3165.5
483.153	3203.5
483.372	3245.5
483.59	3248.5
483.808	3273.5
484.027	3411.5
484.245	3577.5
484.463	4007.5
484.681	4409.5
484.9	3991.5
485.118	3728.5
485.336	3714.5
485.554	3755.5
485.772	3996.5
485.99	4457.5
486.209	4868.5
486.427	4013.5
486.645	3640.5
486.863	3534.5
487.081	3413.5
487.299	3331.5
487.517	3304.5
487.735	3258.5
487.953	3290.5
488.171	3336.5
488.389	3288.5
488.607	3219.5
488.825	3147.5
489.043	3167.5
489.261	3174.5
489.479	3198.5
489.696	3228.5
489.914	3187.5
490.132	3235.5
490.35	3248.5
490.568	3276.5
490.786	3292.5
491.003	3274.5
491.221	3371.5
491.439	3324.5
491.657	3353.5
491.874	3340.5
492.092	3424.5
492.31	3393.5
492.527	3457.5
492.745	3419.5
492.963	3389.5
493.18	3340.5
493.398	3388.5
493.615	3423.5
493.833	3383.5
494.05	3357.5
494.268	3386.5
494.485	3378.5
494.703	3390.5
494.92	3445.5
495.138	3410.5
495.355	3352.5
495.573	3404.5
495.79	3405.5
496.008	3441.5
496.225	3435.5
496.442	3519.5
496.66	3665.5
496.877	3828.5
497.094	3725.5
497.312	3629.5
497.529	3615.5
497.746	3715.5
497.963	3762.5
498.181	3847.5
498.398	3941.5
498.615	4079.5
498.832	4187.5
499.049	4392.5
499.267	4727.5
499.484	5063.5
499.701	4982.5
499.918	5125.5
500.135	5362.5
500.352	5721.5
500.569	5777.5
500.786	5623.5
501.003	5603.5
501.22	5269.5
501.437	4969.5
501.654	4734.5
501.871	4472.5
502.088	4378.5
502.305	4263.5
502.522	4059.5
502.739	3989.5
502.956	3845.5
503.172	3808.5
503.389	3715.5
503.606	3655.5
503.823	3602.5
504.04	3588.5
504.256	3595.5
504.473	3569.5
504.69	3483.5
504.907	3514.5
505.123	3414.5
505.34	3281.5
505.557	3241.5
505.773	3200.5
505.99	3205.5
506.207	3116.5
506.423	3120.5
506.64	3090.5
506.856	3067.5
507.073	3044.5
507.289	2986.5
507.506	3006.5
507.722	2989.5
507.939	2953.5
508.155	2961.5
508.372	2946.5
508.588	2913.5
508.805	2928.5
509.021	2943.5
509.238	2954.5
509.454	3124.5
509.67	3301.5
509.887	3107.5
510.103	3056.5
510.319	2932.5
510.536	2942.5
510.752	2934.5
510.968	2955.5
511.184	2828.5
511.401	2822.5
511.617	2851.5
511.833	2815.5
512.049	2832.5
512.265	2845.5
512.481	2828.5
512.698	2795.5
512.914	2763.5
513.13	2802.5
513.346	2802.5
513.562	2815.5
513.778	2793.5
513.994	2880.5
514.21	2954.5
514.426	3135.5
514.642	3221.5
514.858	2967.5
515.074	2911.5
515.29	2896.5
515.506	2857.5
515.721	2877.5
515.937	2927.5
516.153	2907.5
516.369	2909.5
516.585	2934.5
516.801	3057.5
517.016	3021.5
517.232	3146.5
517.448	3154.5
517.664	3162.5
517.879	3156.5
518.095	3211.5
518.311	3188.5
518.527	3153.5
518.742	3135.5
518.958	3158.5
519.173	3198.5
519.389	3115.5
519.605	2973.5
519.82	2902.5
520.036	2908.5
520.251	2861.5
520.467	2868.5
520.682	2795.5
520.898	2788.5
521.113	2812.5
521.329	2770.5
521.544	2775.5
521.76	2773.5
521.975	2764.5
522.19	2753.5
522.406	2771.5
522.621	2753.5
522.836	2703.5
523.052	2714.5
523.267	2676.5
523.482	2709.5
523.698	2709.5
523.913	2680.5
524.128	2687.5
524.343	2731.5
524.559	2663.5
524.774	2709.5
524.989	2646.5
525.204	2687.5
525.419	2689.5
525.634	2684.5
525.849	2709.5
526.064	2699.5
526.28	2659.5
526.495	2732.5
526.71	2694.5
526.925	2715.5
527.14	2658.5
527.355	2710.5
527.57	2659.5
527.785	2709.5
527.999	2755.5
528.214	2750.5
528.429	2777.5
528.644	2764.5
528.859	2785.5
529.074	2841.5
529.289	2855.5
529.503	2904.5
529.718	2899.5
529.933	2853.5
530.148	2884.5
530.363	2887.5
530.577	2901.5
530.792	2858.5
531.007	2881.5
531.221	2963.5
531.436	2939.5
531.651	2930.5
531.865	2959.5
532.08	2994.5
532.295	3089.5
532.509	3259.5
532.724	3333.5
532.938	3351.5
533.153	3498.5
533.367	3771.5
533.582	3871.5
533.796	3848.5
534.011	3697.5
534.225	3525.5
534.44	3410.5
534.654	3338.5
534.868	3250.5
535.083	3200.5
535.297	3159.5
535.511	3112.5
535.726	3033.5
535.94	3029.5
536.154	2940.5
536.369	2945.5
536.583	2863.5
536.797	2823.5
537.011	2793.5
537.225	2790.5
537.44	2778.5
537.654	2769.5
537.868	2676.5
538.082	2694.5
538.296	2662.5
538.51	2645.5
538.724	2643.5
538.938	2674.5
539.153	2667.5
539.367	2657.5
539.581	2664.5
539.795	2570.5
540.009	2620.5
540.222	2525.5
540.436	2528.5
540.65	2563.5
540.864	2629.5
541.078	2673.5
541.292	2846.5
541.506	3289.5
541.72	3368.5
541.934	2961.5
542.147	2831.5
542.361	2715.5
542.575	2631.5
542.789	2575.5
543.002	2555.5
543.216	2505.5
543.43	2506.5
543.644	2455.5
543.857	2521.5
544.071	2496.5
544.285	2494.5
544.498	2520.5
544.712	2491.5
544.925	2526.5
545.139	2528.5
545.352	2534.5
545.566	2475.5
545.779	2487.5
545.993	2543.5
546.206	2488.5
546.42	2529.5
546.633	2479.5
546.847	2512.5
547.06	2513.5
547.274	2492.5
547.487	2515.5
547.7	2532.5
547.914	2491.5
548.127	2548.5
548.34	2481.5
548.554	2485.5
548.767	2548.5
548.98	2483.5
549.193	2500.5
549.407	2511.5
549.62	2556.5
549.833	2520.5
550.046	2502.5
550.259	2513.5
550.473	2472.5
550.686	2518.5
550.899	2527.5
551.112	2517.5
551.325	2488.5
551.538	2511.5
551.751	2472.5
551.964	2513.5
552.177	2530.5
552.39	2554.5
552.603	2635.5
552.816	2675.5
553.029	2689.5
553.242	2729.5
553.455	2795.5
553.667	2773.5
553.88	2819.5
554.093	2799.5
554.306	2835.5
554.519	2824.5
554.732	2898.5
554.944	2927.5
555.157	2969.5
555.37	3061.5
555.583	3164.5
555.795	3313.5
556.008	3612.5
556.221	3997.5
556.433	4310.5
556.646	4303.5
556.859	4187.5
557.071	3975.5
557.284	3879.5
557.496	3673.5
557.709	3615.5
557.921	3591.5
558.134	3562.5
558.346	3596.5
558.559	3751.5
558.771	3965.5
558.984	4348.5
559.196	4713.5
559.409	4479.5
559.621	4063.5
559.833	3787.5
560.046	3604.5
560.258	3448.5
560.47	3256.5
560.683	3116.5
560.895	3013.5
561.107	2930.5
561.32	2901.5
561.532	2778.5
561.744	2728.5
561.956	2668.5
562.168	2635.5
562.381	2606.5
562.593	2633.5
562.805	2658.5
563.017	2668.5
563.229	2683.5
563.441	3038.5
563.653	2632.5
563.865	2453.5
564.077	2396.5
564.289	2316.5
564.501	2327.5
564.713	2329.5
564.925	2351.5
565.137	2356.5
565.349	2331.5
565.561	2317.5
565.773	2366.5
565.985	2354.5
566.197	2365.5
566.408	2433.5
566.62	2471.5
566.832	2574.5
567.044	2623.5
567.255	2599.5
567.467	2573.5
567.679	2670.5
567.891	2840.5
568.102	3125.5
568.314	3531.5
568.526	3093.5
568.737	2678.5
568.949	2491.5
569.161	2298.5
569.372	2214.5
569.584	2191.5
569.795	2147.5
570.007	2148.5
570.218	2129.5
570.43	2188.5
570.641	2063.5
570.853	2015.5
571.064	1971.5
571.276	1927.5
571.487	1886.5
571.698	1879.5
571.91	1872.5
572.121	1820.5
572.333	1865.5
572.544	1856.5
572.755	1964.5
572.966	2287.5
573.178	2038.5
573.389	1855.5
573.6	1810.5
573.811	1758.5
574.023	1738.5
574.234	1737.5
574.445	1684.5
574.656	1731.5
574.867	1716.5
575.078	1690.5
575.289	1698.5
575.501	1652.5
575.712	1675.5
575.923	1649.5
576.134	1685.5
576.345	1672.5
576.556	1708.5
576.767	1658.5
576.978	1728.5
577.188	1712.5
577.399	1686.5
577.61	1697.5
577.821	1717.5
578.032	1705.5
578.243	1760.5
578.454	1797.5
578.665	1822.5
578.875	1910.5
579.086	1953.5
579.297	2071.5
579.508	2202.5
579.718	2323.5
579.929	2684.5
580.14	3156.5
580.35	3192.5
580.561	2900.5
580.772	2637.5
580.982	2431.5
581.193	2275.5
581.403	2165.5
581.614	2057.5
581.825	2004.5
582.035	1917.5
582.246	1827.5
582.456	1780.5
582.667	1744.5
582.877	1709.5
583.087	1694.5
583.298	1644.5
583.508	1615.5
583.719	1539.5
583.929	1520.5
584.139	1488.5
584.35	1455.5
584.56	1480.5
584.77	1456.5
584.981	1416.5
585.191	1379.5
585.401	1397.5
585.611	1395.5
585.821	1349.5
586.032	1341.5
586.242	1333.5
586.452	1328.5
586.662	1283.5
586.872	1265.5
587.082	1278.5
587.292	1234.5
587.502	1260.5
587.713	1279.5
587.923	1244.5
588.133	1225.5
588.343	1234.5
588.553	1227.5
588.762	1215.5
588.972	1192.5
589.182	1243.5
589.392	1211.5
589.602	1188.5
589.812	1177.5
590.022	1177.5
590.232	1190.5
590.441	1183.5
590.651	1171.5
590.861	1145.5
591.071	1153.5
591.281	1147.5
591.49	1160.5
591.7	1192.5
591.91	1182.5
592.119	1148.5
592.329	1193.5
592.539	1162.5
592.748	1184.5
592.958	1204.5
593.167	1222.5
593.377	1234.5
593.587	1250.5
593.796	1222.5
594.006	1177.5
594.215	1217.5
594.424	1224.5
594.634	1258.5
594.843	1180.5
595.053	1183.5
595.262	1137.5
595.472	1124.5
595.681	1096.5
595.89	1108.5
596.1	1061.5
596.309	1020.5
596.518	1051.5
596.727	1043.5
596.937	1032.5
597.146	1011.5
597.355	1011.5
597.564	969.5
597.774	998.5
597.983	977.5
598.192	981.5
598.401	988.5
598.61	976.5
598.819	944.5
599.028	929.5
599.237	957.5
599.446	955.5
599.655	933.5
599.864	953.5
600.073	971.5
600.282	905.5
600.491	915.5
600.7	909.5
600.909	956.5
601.118	909.5
601.327	935.5
601.536	937.5
601.745	948.5
601.953	1043.5
602.162	1191.5
602.371	1064.5
602.58	981.5
602.789	930.5
602.997	943.5
603.206	912.5
603.415	954.5
603.623	957.5
603.832	910.5
604.041	894.5
604.249	899.5
604.458	897.5
604.666	874.5
604.875	871.5
605.084	875.5
605.292	882.5
605.501	887.5
605.709	882.5
605.918	899.5
606.126	919.5
606.334	926.5
606.543	923.5
606.751	977.5
606.96	1112.5
607.168	1222.5
607.376	1034.5
607.585	965.5
607.793	920.5
608.001	932.5
608.21	884.5
608.418	870.5
608.626	883.5
608.834	857.5
609.043	863.5
609.251	869.5
609.459	827.5
609.667	810.5
609.875	839.5
610.083	850.5
610.291	818.5
610.499	832.5
610.707	821.5
610.916	790.5
611.124	834.5
611.332	828.5
611.54	818.5
611.748	778.5
611.955	792.5
612.163	809.5
612.371	790.5
612.579	801.5
612.787	795.5
612.995	767.5
613.203	785.5
613.411	791.5
613.618	756.5
613.826	793.5
614.034	765.5
614.242	773.5
614.449	786.5
614.657	788.5
614.865	763.5
615.072	801.5
615.28	797.5
615.488	766.5
615.695	805.5
615.903	789.5
616.111	789.5
616.318	798.5
616.526	775.5
616.733	798.5
616.941	757.5
617.148	758.5
617.356	780.5
617.563	775.5
617.771	759.5
617.978	744.5
618.185	714.5
618.393	737.5
618.6	765.5
618.807	744.5
619.015	736.5
619.222	717.5
619.429	742.5
619.637	738.5
619.844	707.5
620.051	701.5
620.258	724.5
620.466	710.5
620.673	693.5
620.88	687.5
621.087	729.5
621.294	689.5
621.501	669.5
621.708	687.5
621.915	689.5
622.122	687.5
622.329	704.5
622.536	682.5
622.743	699.5
622.95	675.5
623.157	690.5
623.364	680.5
623.571	692.5
623.778	687.5
623.985	685.5
624.192	688.5
624.399	670.5
624.606	683.5
624.812	659.5
625.019	660.5
625.226	654.5
625.433	662.5
625.639	633.5
625.846	649.5
626.053	647.5
626.259	619.5
626.466	624.5
626.673	639.5
626.879	599.5
627.086	625.5
627.293	625.5
627.499	640.5
627.706	635.5
627.912	627.5
628.119	647.5
628.325	630.5
628.532	617.5
628.738	637.5
628.945	617.5
629.151	619.5
629.357	612.5
629.564	601.5
629.77	594.5
629.976	601.5
630.183	570.5
630.389	602.5
630.595	592.5
630.802	591.5
631.008	596.5
631.214	624.5
631.42	596.5
631.627	595.5
631.833	590.5
632.039	551.5
632.245	554.5
632.451	587.5
632.657	619.5
632.863	580.5
633.069	579.5
633.275	569.5
633.481	577.5
633.688	545.5
633.893	562.5
634.099	592.5
634.305	567.5
634.511	581.5
634.717	581.5
634.923	594.5
635.129	679.5
635.335	767.5
635.541	663.5
635.747	637.5
635.952	582.5
636.158	591.5
636.364	608.5
636.57	613.5
636.775	580.5
636.981	577.5
637.187	583.5
637.392	566.5
637.598	576.5
637.804	586.5
638.009	583.5
638.215	582.5
638.421	577.5
638.626	597.5
638.832	567.5
639.037	597.5
639.243	590.5
639.448	598.5
639.654	598.5
639.859	587.5
640.065	595.5
640.27	617.5
640.475	612.5
640.681	607.5
640.886	617.5
641.091	610.5
641.297	612.5
641.502	632.5
641.707	628.5
641.913	621.5
642.118	636.5
642.323	651.5
642.528	663.5
642.733	692.5
642.939	692.5
643.144	714.5
643.349	756.5
643.554	748.5
643.759	797.5
643.964	831.5
644.169	855.5
644.374	898.5
644.579	999.5
644.784	1128.5
644.989	1273.5
645.194	1484.5
645.399	1814.5
645.604	1969.5
645.809	1458.5
646.014	1108.5
646.219	968.5
646.423	819.5
646.628	748.5
646.833	690.5
647.038	669.5
647.243	631.5
647.447	612.5
647.652	583.5
647.857	574.5
648.062	550.5
648.266	579.5
648.471	538.5
648.676	538.5
648.88	545.5
649.085	529.5
649.289	508.5
649.494	513.5
649.698	482.5
649.903	493.5
650.107	482.5
650.312	485.5
650.516	462.5
650.721	456.5
650.925	444.5
651.13	437.5
651.334	418.5
651.539	411.5
651.743	434.5
651.947	419.5
652.152	391.5
652.356	421.5
652.56	465.5
652.764	504.5
652.969	447.5
653.173	395.5
653.377	405.5
653.581	388.5
653.785	365.5
653.99	360.5
654.194	357.5
654.398	358.5
654.602	342.5
654.806	361.5
655.01	365.5
655.214	350.5
655.418	363.5
655.622	338.5
655.826	355.5
656.03	349.5
656.234	358.5
656.438	371.5
656.642	371.5
656.846	373.5
657.049	332.5
657.253	328.5
657.457	308.5
657.661	281.5
657.865	287.5
658.068	265.5
658.272	257.5
658.476	243.5
658.68	241.5
658.883	201.5
659.087	209.5
659.291	183.5
659.494	179.5
659.698	175.5
659.901	188.5
660.105	172.5
660.309	175.5
660.512	165.5
660.716	151.5
660.919	134.5
661.123	147.5
661.326	139.5
661.53	128.5
661.733	123.5
661.936	124.5
662.14	128.5
662.343	116.5
662.546	109.5
662.75	101.5
662.953	100.5
663.156	88.5
663.36	93.5
663.563	100.5
663.766	92.5
663.969	87.5
664.173	99.5
664.376	89.5
664.579	89.5
664.782	83.5
664.985	88.5
665.188	98.5
665.391	86.5
665.594	88.5
665.797	84.5
666	79.5
666.203	82.5
666.406	66.5
666.609	97.5
666.812	83.5
667.015	89.5
667.218	96.5
667.421	96.5
667.624	96.5
667.827	84.5
668.03	79.5
668.232	80.5
668.435	71.5
668.638	71.5
668.841	63.5
669.043	86.5
669.246	89.5
669.449	101.5
669.651	88.5
669.854	100.5
670.057	92.5
670.259	97.5
670.462	81.5
670.665	76.5
670.867	77.5
671.07	93.5
671.272	93.5
671.475	89.5
671.677	83.5
671.88	86.5
672.082	83.5
672.284	98.5
672.487	91.5
672.689	85.5
672.892	82.5
