Data from SnStandardFlinnAPT0064_LampEnergy10_LIBS07252019.E.O._I.C._HRD10591_15-21-25-494.txt Node
Date: Thu Jul 25 15:21:25 EDT 2019
User: cochatt
Spectrometer: HR+D1059
Trigger mode: 1
Integration Time (sec): 1.000000E-1
Scans to average: 1
Electric dark correction enabled: true
Nonlinearity correction enabled: false
Boxcar width: 0
XAxis mode: Wavelengths
Number of Pixels in Spectrum: 2048
>>>>>Begin Spectral Data<<<<<
223.165	-15.25
223.4	-15.25
223.635	-15.25
223.869	-15.25
224.104	-16.25
224.338	-29.25
224.573	-15.25
224.808	-10.25
225.042	-0.25
225.277	-0.25
225.511	-6.25
225.746	11.75
225.98	4.75
226.215	5.75
226.449	11.75
226.683	20.75
226.918	28.75
227.152	24.75
227.387	35.75
227.621	34.75
227.856	33.75
228.09	43.75
228.324	48.75
228.559	46.75
228.793	118.75
229.027	305.75
229.262	336.75
229.496	302.75
229.73	287.75
229.964	309.75
230.199	297.75
230.433	305.75
230.667	295.75
230.901	318.75
231.136	345.75
231.37	401.75
231.604	392.75
231.838	450.75
232.072	521.75
232.306	556.75
232.541	450.75
232.775	419.75
233.009	404.75
233.243	412.75
233.477	463.75
233.711	531.75
233.945	584.75
234.179	527.75
234.413	430.75
234.647	451.75
234.881	488.75
235.115	507.75
235.349	604.75
235.583	767.75
235.817	992.75
236.051	991.75
236.285	661.75
236.519	543.75
236.753	500.75
236.987	498.75
237.221	543.75
237.455	514.75
237.689	484.75
237.922	473.75
238.156	457.75
238.39	479.75
238.624	484.75
238.858	496.75
239.091	504.75
239.325	481.75
239.559	497.75
239.793	505.75
240.027	539.75
240.26	559.75
240.494	572.75
240.728	582.75
240.961	608.75
241.195	644.75
241.429	681.75
241.662	684.75
241.896	775.75
242.13	935.75
242.363	1277.75
242.597	1608.75
242.83	1507.75
243.064	1522.75
243.298	1805.75
243.531	1504.75
243.765	977.75
243.998	791.75
244.232	722.75
244.465	673.75
244.699	649.75
244.932	662.75
245.166	649.75
245.399	679.75
245.633	696.75
245.866	680.75
246.099	687.75
246.333	667.75
246.566	632.75
246.8	662.75
247.033	667.75
247.266	639.75
247.5	669.75
247.733	657.75
247.966	699.75
248.2	773.75
248.433	899.75
248.666	1010.75
248.899	952.75
249.133	865.75
249.366	862.75
249.599	984.75
249.832	1084.75
250.066	1100.75
250.299	844.75
250.532	782.75
250.765	757.75
250.998	735.75
251.231	744.75
251.465	716.75
251.698	714.75
251.931	735.75
252.164	755.75
252.397	792.75
252.63	792.75
252.863	777.75
253.096	812.75
253.329	782.75
253.562	789.75
253.795	805.75
254.028	802.75
254.261	825.75
254.494	897.75
254.727	1003.75
254.96	1193.75
255.193	1221.75
255.426	992.75
255.659	867.75
255.892	849.75
256.124	867.75
256.357	872.75
256.59	915.75
256.823	987.75
257.056	1104.75
257.289	1344.75
257.521	1504.75
257.754	1185.75
257.987	978.75
258.22	918.75
258.452	901.75
258.685	921.75
258.918	927.75
259.151	1033.75
259.383	1109.75
259.616	1215.75
259.849	1267.75
260.081	1125.75
260.314	1004.75
260.547	992.75
260.779	966.75
261.012	969.75
261.244	950.75
261.477	944.75
261.71	988.75
261.942	1004.75
262.175	1016.75
262.407	1045.75
262.64	1045.75
262.872	1094.75
263.105	1153.75
263.337	1223.75
263.57	1279.75
263.802	1366.75
264.035	1334.75
264.267	1376.75
264.499	1396.75
264.732	1439.75
264.964	1453.75
265.197	1436.75
265.429	1426.75
265.661	1454.75
265.894	1562.75
266.126	1774.75
266.358	1988.75
266.591	1936.75
266.823	1619.75
267.055	1466.75
267.287	1391.75
267.52	1342.75
267.752	1314.75
267.984	1279.75
268.216	1281.75
268.448	1265.75
268.681	1238.75
268.913	1235.75
269.145	1237.75
269.377	1233.75
269.609	1272.75
269.841	1291.75
270.073	1371.75
270.306	1623.75
270.538	2175.75
270.77	3195.75
271.002	3882.75
271.234	2749.75
271.466	1879.75
271.698	1488.75
271.93	1397.75
272.162	1339.75
272.394	1276.75
272.626	1247.75
272.858	1231.75
273.09	1223.75
273.322	1203.75
273.553	1204.75
273.785	1210.75
274.017	1211.75
274.249	1213.75
274.481	1210.75
274.713	1202.75
274.945	1201.75
275.176	1207.75
275.408	1211.75
275.64	1261.75
275.872	1222.75
276.104	1263.75
276.335	1290.75
276.567	1260.75
276.799	1267.75
277.031	1281.75
277.262	1379.75
277.494	1411.75
277.726	1525.75
277.957	1846.75
278.189	2123.75
278.421	1983.75
278.652	1794.75
278.884	1671.75
279.115	1460.75
279.347	1435.75
279.579	1409.75
279.81	1400.75
280.042	1371.75
280.273	1431.75
280.505	1467.75
280.736	1493.75
280.968	1602.75
281.199	1771.75
281.431	2107.75
281.662	2108.75
281.894	1773.75
282.125	1603.75
282.356	1633.75
282.588	1667.75
282.819	1722.75
283.051	1804.75
283.282	1941.75
283.513	2475.75
283.745	3573.75
283.976	5636.75
284.207	8061.75
284.439	7269.75
284.67	4522.75
284.901	3719.75
285.132	3690.75
285.364	3562.75
285.595	2708.75
285.826	2422.75
286.057	2826.75
286.288	3837.75
286.52	5175.75
286.751	4912.75
286.982	2995.75
287.213	2276.75
287.444	2036.75
287.675	1912.75
287.906	1796.75
288.138	1723.75
288.369	1683.75
288.6	1723.75
288.831	1682.75
289.062	1695.75
289.293	1673.75
289.524	1706.75
289.755	1681.75
289.986	1718.75
290.217	1710.75
290.448	1744.75
290.679	1741.75
290.91	1793.75
291.141	1910.75
291.371	2086.75
291.602	2170.75
291.833	1957.75
292.064	1767.75
292.295	1671.75
292.526	1664.75
292.757	1643.75
292.987	1649.75
293.218	1578.75
293.449	1600.75
293.68	1621.75
293.91	1642.75
294.141	1574.75
294.372	1589.75
294.603	1595.75
294.833	1574.75
295.064	1564.75
295.295	1569.75
295.525	1549.75
295.756	1571.75
295.987	1563.75
296.217	1568.75
296.448	1588.75
296.679	1585.75
296.909	1622.75
297.14	1626.75
297.37	1643.75
297.601	1634.75
297.831	1676.75
298.062	1681.75
298.292	1672.75
298.523	1664.75
298.753	1724.75
298.984	1745.75
299.214	1739.75
299.445	1761.75
299.675	1784.75
299.905	1851.75
300.136	1939.75
300.366	2162.75
300.597	2756.75
300.827	3827.75
301.057	5235.75
301.288	5173.75
301.518	3361.75
301.748	2546.75
301.979	2374.75
302.209	2263.75
302.439	2325.75
302.669	2412.75
302.9	2921.75
303.13	4154.75
303.36	6137.75
303.59	8186.75
303.82	7103.75
304.051	4179.75
304.281	2949.75
304.511	2537.75
304.741	2343.75
304.971	2199.75
305.201	2048.75
305.431	1979.75
305.661	1957.75
305.891	1904.75
306.121	1920.75
306.352	1834.75
306.582	1854.75
306.812	1860.75
307.042	1834.75
307.272	1861.75
307.502	1843.75
307.731	1820.75
307.961	1819.75
308.191	1805.75
308.421	1787.75
308.651	1824.75
308.881	1788.75
309.111	1836.75
309.341	1842.75
309.571	1875.75
309.8	1843.75
310.03	1877.75
310.26	1864.75
310.49	1874.75
310.72	1909.75
310.949	1897.75
311.179	1887.75
311.409	1921.75
311.639	1948.75
311.868	1977.75
312.098	1956.75
312.328	1963.75
312.557	1965.75
312.787	1960.75
313.017	1968.75
313.246	2005.75
313.476	2053.75
313.706	2095.75
313.935	2210.75
314.165	2363.75
314.394	2520.75
314.624	2392.75
314.853	2150.75
315.083	2164.75
315.312	2225.75
315.542	2187.75
315.771	2246.75
316.001	2247.75
316.23	2369.75
316.46	2441.75
316.689	2656.75
316.919	3210.75
317.148	4659.75
317.377	7044.75
317.607	10389.75
317.836	10792.75
318.065	6555.75
318.295	4265.75
318.524	3385.75
318.753	2927.75
318.983	2697.75
319.212	2572.75
319.441	2499.75
319.67	2465.75
319.9	2395.75
320.129	2352.75
320.358	2356.75
320.587	2360.75
320.816	2379.75
321.046	2373.75
321.275	2400.75
321.504	2352.75
321.733	2435.75
321.962	2516.75
322.191	2556.75
322.42	2531.75
322.649	2508.75
322.878	2488.75
323.108	2476.75
323.337	2567.75
323.566	2611.75
323.795	2594.75
324.024	2663.75
324.253	2719.75
324.482	2836.75
324.71	3015.75
324.939	3218.75
325.168	3222.75
325.397	3412.75
325.626	3971.75
325.855	5621.75
326.084	8728.75
326.313	12543.75
326.542	13395.75
326.77	9021.75
326.999	5905.75
327.228	4951.75
327.457	4811.75
327.686	4803.75
327.914	5180.75
328.143	6025.75
328.372	7263.75
328.6	7896.75
328.829	7073.75
329.058	5885.75
329.287	5160.75
329.515	4677.75
329.744	4315.75
329.972	4122.75
330.201	3946.75
330.43	3786.75
330.658	3652.75
330.887	3597.75
331.115	3558.75
331.344	3523.75
331.572	3515.75
331.801	3503.75
332.03	3519.75
332.258	3593.75
332.486	3740.75
332.715	4345.75
332.943	5299.75
333.172	6613.75
333.4	6586.75
333.629	4967.75
333.857	4561.75
334.085	4492.75
334.314	4737.75
334.542	5117.75
334.771	6042.75
334.999	7519.75
335.227	9435.75
335.455	10607.75
335.684	9440.75
335.912	7781.75
336.14	6567.75
336.369	5770.75
336.597	5257.75
336.825	4841.75
337.053	4543.75
337.281	4247.75
337.51	4084.75
337.738	3935.75
337.966	3677.75
338.194	3576.75
338.422	3546.75
338.65	3467.75
338.878	3370.75
339.106	3263.75
339.334	3231.75
339.562	3169.75
339.79	3126.75
340.018	3080.75
340.246	3025.75
340.474	3012.75
340.702	3028.75
340.93	3056.75
341.158	3027.75
341.386	3027.75
341.614	3003.75
341.842	2898.75
342.07	2882.75
342.298	2799.75
342.526	2808.75
342.754	2718.75
342.981	2703.75
343.209	2790.75
343.437	2785.75
343.665	2821.75
343.893	2883.75
344.12	2852.75
344.348	2778.75
344.576	2795.75
344.804	2714.75
345.031	2705.75
345.259	2630.75
345.487	2611.75
345.714	2593.75
345.942	2561.75
346.17	2566.75
346.397	2552.75
346.625	2513.75
346.853	2508.75
347.08	2516.75
347.308	2582.75
347.535	2555.75
347.763	2554.75
347.99	2539.75
348.218	2529.75
348.445	2524.75
348.673	2465.75
348.9	2497.75
349.128	2468.75
349.355	2469.75
349.583	2410.75
349.81	2417.75
350.037	2473.75
350.265	2404.75
350.492	2400.75
350.72	2417.75
350.947	2419.75
351.174	2440.75
351.402	2447.75
351.629	2423.75
351.856	2422.75
352.083	2408.75
352.311	2439.75
352.538	2381.75
352.765	2413.75
352.992	2386.75
353.22	2369.75
353.447	2330.75
353.674	2379.75
353.901	2398.75
354.128	2437.75
354.355	2374.75
354.583	2393.75
354.81	2438.75
355.037	2497.75
355.264	2441.75
355.491	2441.75
355.718	2449.75
355.945	2472.75
356.172	2452.75
356.399	2476.75
356.626	2512.75
356.853	2519.75
357.08	2511.75
357.307	2501.75
357.534	2584.75
357.761	2623.75
357.988	2591.75
358.215	2596.75
358.441	2597.75
358.668	2587.75
358.895	2593.75
359.122	2513.75
359.349	2546.75
359.576	2510.75
359.802	2541.75
360.029	2588.75
360.256	2573.75
360.483	2597.75
360.709	2545.75
360.936	2590.75
361.163	2563.75
361.39	2591.75
361.616	2548.75
361.843	2591.75
362.07	2564.75
362.296	2607.75
362.523	2585.75
362.749	2559.75
362.976	2570.75
363.203	2605.75
363.429	2547.75
363.656	2559.75
363.882	2494.75
364.109	2556.75
364.335	2544.75
364.562	2527.75
364.788	2561.75
365.015	2646.75
365.241	2695.75
365.468	2803.75
365.694	2956.75
365.92	2879.75
366.147	2641.75
366.373	2640.75
366.599	2599.75
366.826	2619.75
367.052	2567.75
367.278	2633.75
367.505	2616.75
367.731	2610.75
367.957	2602.75
368.184	2651.75
368.41	2712.75
368.636	2697.75
368.862	2652.75
369.089	2667.75
369.315	2661.75
369.541	2645.75
369.767	2678.75
369.993	2654.75
370.219	2613.75
370.445	2682.75
370.672	2713.75
370.898	2711.75
371.124	2738.75
371.35	2739.75
371.576	2726.75
371.802	2815.75
372.028	2753.75
372.254	2797.75
372.48	2770.75
372.706	2787.75
372.932	2812.75
373.158	2822.75
373.384	2753.75
373.61	2756.75
373.835	2781.75
374.061	2871.75
374.287	2857.75
374.513	2883.75
374.739	2914.75
374.965	2946.75
375.191	2924.75
375.416	2943.75
375.642	2889.75
375.868	2876.75
376.094	2794.75
376.319	2845.75
376.545	2812.75
376.771	2759.75
376.997	2751.75
377.222	2736.75
377.448	2723.75
377.674	2799.75
377.899	2737.75
378.125	2760.75
378.35	2762.75
378.576	2739.75
378.802	2728.75
379.027	2785.75
379.253	2874.75
379.478	3079.75
379.704	3624.75
379.929	5136.75
380.155	7903.75
380.38	8601.75
380.606	5213.75
380.831	3700.75
381.057	3223.75
381.282	2978.75
381.507	2869.75
381.733	2755.75
381.958	2788.75
382.184	2717.75
382.409	2690.75
382.634	2714.75
382.86	2687.75
383.085	2687.75
383.31	2707.75
383.535	2732.75
383.761	2703.75
383.986	2709.75
384.211	2725.75
384.436	2774.75
384.662	2824.75
384.887	2803.75
385.112	2792.75
385.337	2836.75
385.562	2777.75
385.787	2775.75
386.013	2822.75
386.238	2819.75
386.463	2784.75
386.688	2777.75
386.913	2788.75
387.138	2794.75
387.363	2755.75
387.588	2772.75
387.813	2816.75
388.038	2770.75
388.263	2766.75
388.488	2807.75
388.713	2792.75
388.938	2786.75
389.163	2786.75
389.387	2773.75
389.612	2782.75
389.837	2782.75
390.062	2762.75
390.287	2815.75
390.512	2825.75
390.736	2859.75
390.961	2928.75
391.186	2905.75
391.411	2905.75
391.636	2943.75
391.86	2936.75
392.085	2925.75
392.31	2963.75
392.534	2872.75
392.759	2885.75
392.984	2852.75
393.208	2825.75
393.433	2829.75
393.658	2869.75
393.882	2811.75
394.107	2806.75
394.331	2814.75
394.556	2891.75
394.78	2879.75
395.005	2884.75
395.229	2854.75
395.454	2905.75
395.678	2900.75
395.903	2887.75
396.127	2900.75
396.352	2887.75
396.576	2892.75
396.801	2857.75
397.025	2882.75
397.249	2902.75
397.474	2905.75
397.698	2929.75
397.922	2981.75
398.147	2992.75
398.371	3045.75
398.595	3085.75
398.82	3127.75
399.044	3208.75
399.268	3367.75
399.492	3552.75
399.717	3634.75
399.941	3717.75
400.165	3525.75
400.389	3402.75
400.613	3337.75
400.837	3214.75
401.062	3151.75
401.286	3178.75
401.51	3083.75
401.734	3067.75
401.958	3099.75
402.182	3074.75
402.406	3072.75
402.63	3133.75
402.854	3121.75
403.078	3126.75
403.302	3143.75
403.526	3136.75
403.75	3252.75
403.974	3239.75
404.198	3204.75
404.422	3185.75
404.645	3203.75
404.869	3194.75
405.093	3212.75
405.317	3211.75
405.541	3279.75
405.765	3283.75
405.988	3292.75
406.212	3328.75
406.436	3218.75
406.66	3281.75
406.883	3298.75
407.107	3426.75
407.331	3433.75
407.555	3501.75
407.778	3494.75
408.002	3479.75
408.226	3433.75
408.449	3439.75
408.673	3284.75
408.896	3265.75
409.12	3218.75
409.344	3228.75
409.567	3211.75
409.791	3226.75
410.014	3179.75
410.238	3214.75
410.461	3184.75
410.685	3159.75
410.908	3157.75
411.132	3147.75
411.355	3070.75
411.578	3080.75
411.802	3044.75
412.025	3074.75
412.249	3079.75
412.472	3073.75
412.695	3059.75
412.919	3012.75
413.142	3046.75
413.365	2988.75
413.589	3053.75
413.812	2973.75
414.035	3035.75
414.258	3028.75
414.482	2985.75
414.705	3009.75
414.928	3051.75
415.151	2957.75
415.374	3007.75
415.597	2929.75
415.821	2898.75
416.044	2890.75
416.267	2880.75
416.49	2931.75
416.713	2909.75
416.936	2886.75
417.159	2816.75
417.382	2833.75
417.605	2840.75
417.828	2825.75
418.051	2932.75
418.274	2843.75
418.497	2891.75
418.72	3002.75
418.943	2909.75
419.166	3104.75
419.389	3255.75
419.611	3193.75
419.834	3140.75
420.057	3027.75
420.28	2959.75
420.503	2938.75
420.726	2915.75
420.948	2899.75
421.171	2847.75
421.394	2919.75
421.617	2904.75
421.839	2893.75
422.062	2942.75
422.285	2888.75
422.507	2967.75
422.73	2953.75
422.953	2967.75
423.175	3045.75
423.398	2968.75
423.621	2903.75
423.843	2890.75
424.066	2962.75
424.288	2856.75
424.511	2859.75
424.733	2879.75
424.956	2901.75
425.178	2904.75
425.401	2854.75
425.623	2847.75
425.846	2769.75
426.068	2802.75
426.291	2779.75
426.513	2797.75
426.735	2794.75
426.958	2772.75
427.18	2678.75
427.402	2791.75
427.625	2772.75
427.847	2678.75
428.069	2657.75
428.292	2716.75
428.514	2665.75
428.736	2651.75
428.958	2703.75
429.181	2689.75
429.403	2638.75
429.625	2644.75
429.847	2700.75
430.069	2714.75
430.292	2804.75
430.514	2888.75
430.736	2850.75
430.958	2723.75
431.18	2684.75
431.402	2698.75
431.624	2620.75
431.846	2669.75
432.068	2618.75
432.29	2652.75
432.512	2633.75
432.734	2643.75
432.956	2680.75
433.178	2700.75
433.4	2627.75
433.622	2617.75
433.844	2667.75
434.066	2645.75
434.287	2650.75
434.509	2679.75
434.731	2739.75
434.953	2748.75
435.175	2787.75
435.397	2809.75
435.618	2715.75
435.84	2694.75
436.062	2643.75
436.284	2625.75
436.505	2649.75
436.727	2629.75
436.949	2664.75
437.17	2609.75
437.392	2605.75
437.614	2599.75
437.835	2486.75
438.057	2583.75
438.278	2567.75
438.5	2559.75
438.721	2600.75
438.943	2700.75
439.165	2683.75
439.386	2729.75
439.608	2753.75
439.829	2761.75
440.05	2788.75
440.272	2878.75
440.493	2772.75
440.715	2704.75
440.936	2754.75
441.158	2767.75
441.379	2786.75
441.6	2904.75
441.822	2932.75
442.043	3109.75
442.264	3207.75
442.486	2926.75
442.707	2840.75
442.928	2782.75
443.149	2850.75
443.371	2821.75
443.592	2871.75
443.813	2853.75
444.034	2839.75
444.255	2906.75
444.476	2966.75
444.698	3042.75
444.919	3115.75
445.14	3135.75
445.361	2946.75
445.582	2920.75
445.803	2844.75
446.024	2799.75
446.245	2776.75
446.466	2787.75
446.687	2721.75
446.908	2757.75
447.129	2667.75
447.35	2685.75
447.571	2687.75
447.792	2573.75
448.013	2574.75
448.234	2581.75
448.455	2564.75
448.675	2603.75
448.896	2702.75
449.117	2790.75
449.338	3019.75
449.559	3104.75
449.779	2841.75
450	2628.75
450.221	2627.75
450.442	2569.75
450.662	2586.75
450.883	2526.75
451.104	2553.75
451.324	2523.75
451.545	2536.75
451.766	2550.75
451.986	2624.75
452.207	2834.75
452.428	3617.75
452.648	5509.75
452.869	4584.75
453.089	3195.75
453.31	2962.75
453.53	2957.75
453.751	3021.75
453.971	3168.75
454.192	3035.75
454.412	2744.75
454.633	2601.75
454.853	2527.75
455.073	2458.75
455.294	2436.75
455.514	2436.75
455.734	2403.75
455.955	2385.75
456.175	2464.75
456.395	2440.75
456.616	2438.75
456.836	2475.75
457.056	2498.75
457.276	2535.75
457.497	2663.75
457.717	2713.75
457.937	2623.75
458.157	2552.75
458.377	2644.75
458.598	2612.75
458.818	2598.75
459.038	2617.75
459.258	2609.75
459.478	2672.75
459.698	2702.75
459.918	2772.75
460.138	2736.75
460.358	2842.75
460.578	2846.75
460.798	2855.75
461.018	2890.75
461.238	2826.75
461.458	2928.75
461.678	2901.75
461.898	3001.75
462.118	3034.75
462.338	3086.75
462.558	3115.75
462.777	3175.75
462.997	3265.75
463.217	3425.75
463.437	3557.75
463.657	3596.75
463.876	3554.75
464.096	3449.75
464.316	3285.75
464.536	3155.75
464.755	3083.75
464.975	3009.75
465.195	2938.75
465.414	2806.75
465.634	2802.75
465.854	2738.75
466.073	2709.75
466.293	2693.75
466.512	2688.75
466.732	2680.75
466.951	2853.75
467.171	3073.75
467.391	2982.75
467.61	2687.75
467.829	2675.75
468.049	2633.75
468.268	2567.75
468.488	2607.75
468.707	2586.75
468.927	2647.75
469.146	2607.75
469.365	2648.75
469.585	2635.75
469.804	2727.75
470.023	2763.75
470.243	2811.75
470.462	2831.75
470.681	3012.75
470.901	3267.75
471.12	3790.75
471.339	3756.75
471.558	3163.75
471.777	2893.75
471.997	2782.75
472.216	2719.75
472.435	2662.75
472.654	2615.75
472.873	2643.75
473.092	2630.75
473.311	2597.75
473.53	2639.75
473.749	2751.75
473.968	2791.75
474.187	2660.75
474.406	2571.75
474.625	2615.75
474.844	2614.75
475.063	2619.75
475.282	2603.75
475.501	2657.75
475.72	2680.75
475.939	2745.75
476.158	2739.75
476.377	2809.75
476.596	2760.75
476.814	2763.75
477.033	2738.75
477.252	2814.75
477.471	2870.75
477.69	2916.75
477.908	2920.75
478.127	2960.75
478.346	3000.75
478.564	3041.75
478.783	3080.75
479.002	3170.75
479.22	3097.75
479.439	3097.75
479.658	3150.75
479.876	3135.75
480.095	3181.75
480.313	3258.75
480.532	3292.75
480.751	3248.75
480.969	3161.75
481.188	3177.75
481.406	3121.75
481.624	3162.75
481.843	3167.75
482.061	3207.75
482.28	3186.75
482.498	3162.75
482.717	3169.75
482.935	3248.75
483.153	3224.75
483.372	3282.75
483.59	3329.75
483.808	3420.75
484.027	3418.75
484.245	3617.75
484.463	4048.75
484.681	4502.75
484.9	4139.75
485.118	3851.75
485.336	3752.75
485.554	3771.75
485.772	4079.75
485.99	4570.75
486.209	4880.75
486.427	4149.75
486.645	3688.75
486.863	3568.75
487.081	3395.75
487.299	3427.75
487.517	3337.75
487.735	3347.75
487.953	3413.75
488.171	3402.75
488.389	3373.75
488.607	3319.75
488.825	3303.75
489.043	3211.75
489.261	3194.75
489.479	3280.75
489.696	3258.75
489.914	3288.75
490.132	3350.75
490.35	3313.75
490.568	3276.75
490.786	3335.75
491.003	3361.75
491.221	3475.75
491.439	3381.75
491.657	3388.75
491.874	3368.75
492.092	3435.75
492.31	3458.75
492.527	3465.75
492.745	3448.75
492.963	3411.75
493.18	3386.75
493.398	3436.75
493.615	3397.75
493.833	3462.75
494.05	3428.75
494.268	3433.75
494.485	3492.75
494.703	3491.75
494.92	3468.75
495.138	3466.75
495.355	3401.75
495.573	3506.75
495.79	3456.75
496.008	3517.75
496.225	3496.75
496.442	3600.75
496.66	3724.75
496.877	3874.75
497.094	3845.75
497.312	3714.75
497.529	3777.75
497.746	3803.75
497.963	3775.75
498.181	3907.75
498.398	4055.75
498.615	4066.75
498.832	4255.75
499.049	4516.75
499.267	4794.75
499.484	5124.75
499.701	5094.75
499.918	5182.75
500.135	5484.75
500.352	5726.75
500.569	5752.75
500.786	5754.75
501.003	5587.75
501.22	5349.75
501.437	5040.75
501.654	4748.75
501.871	4617.75
502.088	4383.75
502.305	4259.75
502.522	4084.75
502.739	4050.75
502.956	3931.75
503.172	3829.75
503.389	3763.75
503.606	3695.75
503.823	3644.75
504.04	3659.75
504.256	3618.75
504.473	3633.75
504.69	3627.75
504.907	3506.75
505.123	3515.75
505.34	3379.75
505.557	3295.75
505.773	3267.75
505.99	3245.75
506.207	3170.75
506.423	3123.75
506.64	3192.75
506.856	3107.75
507.073	3075.75
507.289	3074.75
507.506	3040.75
507.722	3045.75
507.939	3008.75
508.155	3012.75
508.372	3008.75
508.588	2966.75
508.805	2908.75
509.021	2972.75
509.238	3051.75
509.454	3157.75
509.67	3381.75
509.887	3129.75
510.103	3003.75
510.319	2953.75
510.536	2997.75
510.752	2967.75
510.968	2883.75
511.184	2871.75
511.401	2862.75
511.617	2888.75
511.833	2915.75
512.049	2842.75
512.265	2876.75
512.481	2866.75
512.698	2835.75
512.914	2884.75
513.13	2874.75
513.346	2875.75
513.562	2903.75
513.778	2886.75
513.994	2876.75
514.21	3003.75
514.426	3198.75
514.642	3283.75
514.858	3012.75
515.074	2904.75
515.29	2938.75
515.506	2938.75
515.721	2948.75
515.937	2942.75
516.153	2952.75
516.369	2910.75
516.585	2996.75
516.801	3041.75
517.016	3057.75
517.232	3171.75
517.448	3244.75
517.664	3292.75
517.879	3229.75
518.095	3223.75
518.311	3247.75
518.527	3175.75
518.742	3159.75
518.958	3186.75
519.173	3275.75
519.389	3160.75
519.605	3021.75
519.82	2938.75
520.036	2938.75
520.251	2839.75
520.467	2860.75
520.682	2890.75
520.898	2847.75
521.113	2801.75
521.329	2805.75
521.544	2807.75
521.76	2813.75
521.975	2802.75
522.19	2768.75
522.406	2779.75
522.621	2751.75
522.836	2736.75
523.052	2792.75
523.267	2740.75
523.482	2764.75
523.698	2709.75
523.913	2741.75
524.128	2731.75
524.343	2703.75
524.559	2705.75
524.774	2740.75
524.989	2707.75
525.204	2739.75
525.419	2713.75
525.634	2676.75
525.849	2788.75
526.064	2732.75
526.28	2720.75
526.495	2744.75
526.71	2712.75
526.925	2736.75
527.14	2774.75
527.355	2734.75
527.57	2668.75
527.785	2717.75
527.999	2761.75
528.214	2815.75
528.429	2815.75
528.644	2855.75
528.859	2899.75
529.074	2902.75
529.289	2960.75
529.503	2890.75
529.718	2986.75
529.933	2909.75
530.148	2881.75
530.363	2919.75
530.577	2885.75
530.792	2928.75
531.007	2920.75
531.221	2980.75
531.436	3077.75
531.651	3000.75
531.865	3064.75
532.08	3096.75
532.295	3177.75
532.509	3371.75
532.724	3432.75
532.938	3460.75
533.153	3578.75
533.367	3882.75
533.582	4083.75
533.796	3996.75
534.011	3836.75
534.225	3658.75
534.44	3520.75
534.654	3446.75
534.868	3341.75
535.083	3321.75
535.297	3231.75
535.511	3139.75
535.726	3190.75
535.94	3139.75
536.154	3066.75
536.369	3001.75
536.583	2944.75
536.797	2951.75
537.011	2954.75
537.225	2843.75
537.44	2858.75
537.654	2829.75
537.868	2786.75
538.082	2743.75
538.296	2737.75
538.51	2752.75
538.724	2757.75
538.938	2744.75
539.153	2691.75
539.367	2687.75
539.581	2658.75
539.795	2613.75
540.009	2639.75
540.222	2584.75
540.436	2673.75
540.65	2627.75
540.864	2650.75
541.078	2707.75
541.292	2843.75
541.506	3364.75
541.72	3511.75
541.934	3016.75
542.147	2891.75
542.361	2758.75
542.575	2671.75
542.789	2644.75
543.002	2577.75
543.216	2578.75
543.43	2522.75
543.644	2511.75
543.857	2537.75
544.071	2535.75
544.285	2560.75
544.498	2560.75
544.712	2597.75
544.925	2586.75
545.139	2568.75
545.352	2577.75
545.566	2564.75
545.779	2557.75
545.993	2561.75
546.206	2591.75
546.42	2560.75
546.633	2536.75
546.847	2596.75
547.06	2540.75
547.274	2565.75
547.487	2591.75
547.7	2582.75
547.914	2531.75
548.127	2595.75
548.34	2595.75
548.554	2562.75
548.767	2559.75
548.98	2568.75
549.193	2590.75
549.407	2576.75
549.62	2600.75
549.833	2614.75
550.046	2611.75
550.259	2571.75
550.473	2503.75
550.686	2605.75
550.899	2550.75
551.112	2572.75
551.325	2601.75
551.538	2563.75
551.751	2563.75
551.964	2558.75
552.177	2631.75
552.39	2623.75
552.603	2707.75
552.816	2750.75
553.029	2777.75
553.242	2779.75
553.455	2766.75
553.667	2876.75
553.88	2863.75
554.093	2855.75
554.306	2862.75
554.519	2940.75
554.732	2986.75
554.944	2979.75
555.157	3096.75
555.37	3176.75
555.583	3324.75
555.795	3470.75
556.008	3767.75
556.221	4224.75
556.433	4567.75
556.646	4533.75
556.859	4307.75
557.071	4146.75
557.284	3985.75
557.496	3883.75
557.709	3792.75
557.921	3783.75
558.134	3655.75
558.346	3790.75
558.559	3958.75
558.771	4183.75
558.984	4551.75
559.196	5000.75
559.409	4763.75
559.621	4337.75
559.833	4057.75
560.046	3726.75
560.258	3579.75
560.47	3396.75
560.683	3282.75
560.895	3161.75
561.107	3044.75
561.32	2944.75
561.532	2892.75
561.744	2840.75
561.956	2764.75
562.168	2755.75
562.381	2715.75
562.593	2681.75
562.805	2681.75
563.017	2670.75
563.229	2786.75
563.441	3171.75
563.653	2705.75
563.865	2497.75
564.077	2455.75
564.289	2378.75
564.501	2363.75
564.713	2379.75
564.925	2363.75
565.137	2384.75
565.349	2403.75
565.561	2365.75
565.773	2394.75
565.985	2424.75
566.197	2446.75
566.408	2499.75
566.62	2573.75
566.832	2612.75
567.044	2628.75
567.255	2608.75
567.467	2659.75
567.679	2663.75
567.891	2850.75
568.102	3132.75
568.314	3583.75
568.526	3136.75
568.737	2743.75
568.949	2511.75
569.161	2381.75
569.372	2219.75
569.584	2257.75
569.795	2195.75
570.007	2176.75
570.218	2207.75
570.43	2276.75
570.641	2097.75
570.853	2028.75
571.064	2001.75
571.276	1983.75
571.487	1927.75
571.698	1920.75
571.91	1883.75
572.121	1861.75
572.333	1853.75
572.544	1878.75
572.755	2011.75
572.966	2327.75
573.178	2108.75
573.389	1892.75
573.6	1808.75
573.811	1790.75
574.023	1778.75
574.234	1751.75
574.445	1739.75
574.656	1775.75
574.867	1772.75
575.078	1711.75
575.289	1759.75
575.501	1736.75
575.712	1721.75
575.923	1692.75
576.134	1719.75
576.345	1692.75
576.556	1732.75
576.767	1672.75
576.978	1739.75
577.188	1759.75
577.399	1703.75
577.61	1756.75
577.821	1738.75
578.032	1794.75
578.243	1811.75
578.454	1854.75
578.665	1901.75
578.875	1939.75
579.086	1991.75
579.297	2096.75
579.508	2205.75
579.718	2466.75
579.929	2778.75
580.14	3335.75
580.35	3379.75
580.561	3039.75
580.772	2767.75
580.982	2538.75
581.193	2352.75
581.403	2239.75
581.614	2144.75
581.825	2067.75
582.035	1944.75
582.246	1943.75
582.456	1866.75
582.667	1821.75
582.877	1775.75
583.087	1717.75
583.298	1618.75
583.508	1609.75
583.719	1603.75
583.929	1547.75
584.139	1538.75
584.35	1500.75
584.56	1499.75
584.77	1455.75
584.981	1459.75
585.191	1455.75
585.401	1404.75
585.611	1411.75
585.821	1354.75
586.032	1372.75
586.242	1354.75
586.452	1354.75
586.662	1313.75
586.872	1320.75
587.082	1325.75
587.292	1308.75
587.502	1309.75
587.713	1282.75
587.923	1255.75
588.133	1261.75
588.343	1250.75
588.553	1257.75
588.762	1225.75
588.972	1220.75
589.182	1227.75
589.392	1208.75
589.602	1231.75
589.812	1188.75
590.022	1207.75
590.232	1185.75
590.441	1188.75
590.651	1172.75
590.861	1160.75
591.071	1151.75
591.281	1165.75
591.49	1204.75
591.7	1191.75
591.91	1183.75
592.119	1170.75
592.329	1197.75
592.539	1209.75
592.748	1212.75
592.958	1227.75
593.167	1227.75
593.377	1244.75
593.587	1269.75
593.796	1231.75
594.006	1220.75
594.215	1245.75
594.424	1240.75
594.634	1211.75
594.843	1186.75
595.053	1156.75
595.262	1132.75
595.472	1140.75
595.681	1113.75
595.89	1097.75
596.1	1067.75
596.309	1071.75
596.518	1080.75
596.727	1063.75
596.937	1055.75
597.146	1043.75
597.355	1021.75
597.564	1030.75
597.774	1021.75
597.983	1007.75
598.192	986.75
598.401	987.75
598.61	979.75
598.819	985.75
599.028	977.75
599.237	951.75
599.446	968.75
599.655	948.75
599.864	969.75
600.073	957.75
600.282	962.75
600.491	945.75
600.7	941.75
600.909	961.75
601.118	955.75
601.327	950.75
601.536	955.75
601.745	989.75
601.953	1054.75
602.162	1173.75
602.371	1096.75
602.58	976.75
602.789	994.75
602.997	946.75
603.206	963.75
603.415	941.75
603.623	907.75
603.832	928.75
604.041	911.75
604.249	903.75
604.458	907.75
604.666	883.75
604.875	904.75
605.084	916.75
605.292	903.75
605.501	902.75
605.709	912.75
605.918	924.75
606.126	888.75
606.334	898.75
606.543	913.75
606.751	1024.75
606.96	1122.75
607.168	1233.75
607.376	1077.75
607.585	953.75
607.793	935.75
608.001	923.75
608.21	922.75
608.418	891.75
608.626	875.75
608.834	862.75
609.043	858.75
609.251	842.75
609.459	858.75
609.667	819.75
609.875	870.75
610.083	841.75
610.291	832.75
610.499	822.75
610.707	817.75
610.916	821.75
611.124	826.75
611.332	832.75
611.54	804.75
611.748	839.75
611.955	843.75
612.163	827.75
612.371	792.75
612.579	823.75
612.787	820.75
612.995	804.75
613.203	795.75
613.411	792.75
613.618	786.75
613.826	781.75
614.034	811.75
614.242	784.75
614.449	790.75
614.657	803.75
614.865	801.75
615.072	812.75
615.28	840.75
615.488	833.75
615.695	819.75
615.903	807.75
616.111	799.75
616.318	815.75
616.526	793.75
616.733	794.75
616.941	799.75
617.148	771.75
617.356	768.75
617.563	759.75
617.771	758.75
617.978	764.75
618.185	756.75
618.393	802.75
618.6	769.75
618.807	726.75
619.015	763.75
619.222	739.75
619.429	748.75
619.637	771.75
619.844	720.75
620.051	716.75
620.258	720.75
620.466	707.75
620.673	715.75
620.88	682.75
621.087	698.75
621.294	705.75
621.501	680.75
621.708	720.75
621.915	687.75
622.122	701.75
622.329	711.75
622.536	682.75
622.743	715.75
622.95	685.75
623.157	671.75
623.364	699.75
623.571	703.75
623.778	692.75
623.985	692.75
624.192	681.75
624.399	673.75
624.606	657.75
624.812	669.75
625.019	683.75
625.226	676.75
625.433	667.75
625.639	631.75
625.846	658.75
626.053	628.75
626.259	648.75
626.466	661.75
626.673	618.75
626.879	630.75
627.086	618.75
627.293	648.75
627.499	633.75
627.706	636.75
627.912	639.75
628.119	639.75
628.325	636.75
628.532	643.75
628.738	648.75
628.945	623.75
629.151	635.75
629.357	638.75
629.564	619.75
629.77	608.75
629.976	615.75
630.183	618.75
630.389	634.75
630.595	601.75
630.802	584.75
631.008	575.75
631.214	586.75
631.42	589.75
631.627	615.75
631.833	600.75
632.039	610.75
632.245	586.75
632.451	583.75
632.657	583.75
632.863	595.75
633.069	581.75
633.275	607.75
633.481	581.75
633.688	574.75
633.893	605.75
634.099	589.75
634.305	609.75
634.511	568.75
634.717	593.75
634.923	620.75
635.129	684.75
635.335	760.75
635.541	703.75
635.747	625.75
635.952	603.75
636.158	596.75
636.364	592.75
636.57	606.75
636.775	608.75
636.981	598.75
637.187	569.75
637.392	587.75
637.598	597.75
637.804	594.75
638.009	581.75
638.215	587.75
638.421	590.75
638.626	585.75
638.832	591.75
639.037	601.75
639.243	589.75
639.448	586.75
639.654	615.75
639.859	617.75
640.065	596.75
640.27	614.75
640.475	617.75
640.681	640.75
640.886	620.75
641.091	623.75
641.297	628.75
641.502	626.75
641.707	619.75
641.913	632.75
642.118	659.75
642.323	686.75
642.528	682.75
642.733	704.75
642.939	698.75
643.144	725.75
643.349	740.75
643.554	782.75
643.759	809.75
643.964	867.75
644.169	921.75
644.374	969.75
644.579	1041.75
644.784	1130.75
644.989	1313.75
645.194	1557.75
645.399	1948.75
645.604	2089.75
645.809	1546.75
646.014	1163.75
646.219	953.75
646.423	839.75
646.628	796.75
646.833	711.75
647.038	650.75
647.243	639.75
647.447	649.75
647.652	612.75
647.857	591.75
648.062	564.75
648.266	572.75
648.471	576.75
648.676	551.75
648.88	544.75
649.085	537.75
649.289	530.75
649.494	509.75
649.698	499.75
649.903	502.75
650.107	490.75
650.312	486.75
650.516	498.75
650.721	475.75
650.925	458.75
651.13	446.75
651.334	442.75
651.539	457.75
651.743	449.75
651.947	424.75
652.152	436.75
652.356	438.75
652.56	445.75
652.764	524.75
652.969	466.75
653.173	415.75
653.377	386.75
653.581	386.75
653.785	373.75
653.99	362.75
654.194	385.75
654.398	371.75
654.602	349.75
654.806	361.75
655.01	367.75
655.214	343.75
655.418	349.75
655.622	355.75
655.826	333.75
656.03	356.75
656.234	376.75
656.438	383.75
656.642	381.75
656.846	369.75
657.049	359.75
657.253	329.75
657.457	326.75
657.661	280.75
657.865	287.75
658.068	279.75
658.272	228.75
658.476	224.75
658.68	237.75
658.883	221.75
659.087	213.75
659.291	190.75
659.494	209.75
659.698	172.75
659.901	189.75
660.105	187.75
660.309	159.75
660.512	151.75
660.716	145.75
660.919	161.75
661.123	152.75
661.326	145.75
661.53	121.75
661.733	125.75
661.936	124.75
662.14	125.75
662.343	129.75
662.546	121.75
662.75	107.75
662.953	112.75
663.156	94.75
663.36	111.75
663.563	99.75
663.766	89.75
663.969	98.75
664.173	91.75
664.376	81.75
664.579	90.75
664.782	79.75
664.985	82.75
665.188	90.75
665.391	94.75
665.594	99.75
665.797	86.75
666	91.75
666.203	86.75
666.406	69.75
666.609	93.75
666.812	68.75
667.015	90.75
667.218	86.75
667.421	82.75
667.624	101.75
667.827	91.75
668.03	72.75
668.232	91.75
668.435	87.75
668.638	91.75
668.841	77.75
669.043	81.75
669.246	74.75
669.449	86.75
669.651	82.75
669.854	88.75
670.057	88.75
670.259	74.75
670.462	79.75
670.665	74.75
670.867	72.75
671.07	88.75
671.272	69.75
671.475	91.75
671.677	83.75
671.88	89.75
672.082	78.75
672.284	92.75
672.487	83.75
672.689	89.75
672.892	82.75
