Data from SnStandardFlinnAPT0064_QswitchEnergy10_LIBS07252019.E.O._I.C._HRD10591_15-26-07-973.txt Node
Date: Thu Jul 25 15:26:07 EDT 2019
User: cochatt
Spectrometer: HR+D1059
Trigger mode: 1
Integration Time (sec): 1.000000E-1
Scans to average: 1
Electric dark correction enabled: true
Nonlinearity correction enabled: false
Boxcar width: 0
XAxis mode: Wavelengths
Number of Pixels in Spectrum: 2048
>>>>>Begin Spectral Data<<<<<
223.165	-8.44
223.4	-8.44
223.635	-8.44
223.869	-18.44
224.104	-17.44
224.338	-19.44
224.573	-15.44
224.808	-18.44
225.042	0.56
225.277	3.56
225.511	-0.44
225.746	2.56
225.98	-2.44
226.215	2.56
226.449	29.56
226.683	4.56
226.918	27.56
227.152	29.56
227.387	34.56
227.621	18.56
227.856	35.56
228.09	18.56
228.324	42.56
228.559	46.56
228.793	56.56
229.027	65.56
229.262	69.56
229.496	85.56
229.73	66.56
229.964	63.56
230.199	71.56
230.433	74.56
230.667	76.56
230.901	60.56
231.136	70.56
231.37	78.56
231.604	87.56
231.838	95.56
232.072	95.56
232.306	107.56
232.541	109.56
232.775	68.56
233.009	76.56
233.243	79.56
233.477	78.56
233.711	94.56
233.945	91.56
234.179	84.56
234.413	78.56
234.647	82.56
234.881	83.56
235.115	94.56
235.349	92.56
235.583	94.56
235.817	111.56
236.051	127.56
236.285	96.56
236.519	78.56
236.753	75.56
236.987	67.56
237.221	77.56
237.455	83.56
237.689	68.56
237.922	74.56
238.156	92.56
238.39	71.56
238.624	82.56
238.858	78.56
239.091	66.56
239.325	68.56
239.559	68.56
239.793	82.56
240.027	91.56
240.26	72.56
240.494	84.56
240.728	80.56
240.961	73.56
241.195	92.56
241.429	77.56
241.662	73.56
241.896	82.56
242.13	99.56
242.363	128.56
242.597	150.56
242.83	139.56
243.064	121.56
243.298	152.56
243.531	136.56
243.765	82.56
243.998	75.56
244.232	78.56
244.465	68.56
244.699	82.56
244.932	80.56
245.166	71.56
245.399	71.56
245.633	61.56
245.866	84.56
246.099	83.56
246.333	77.56
246.566	66.56
246.8	72.56
247.033	70.56
247.266	60.56
247.5	63.56
247.733	88.56
247.966	76.56
248.2	93.56
248.433	102.56
248.666	130.56
248.899	112.56
249.133	89.56
249.366	94.56
249.599	101.56
249.832	114.56
250.066	120.56
250.299	85.56
250.532	84.56
250.765	76.56
250.998	82.56
251.231	78.56
251.465	83.56
251.698	77.56
251.931	84.56
252.164	90.56
252.397	78.56
252.63	84.56
252.863	92.56
253.096	88.56
253.329	82.56
253.562	89.56
253.795	81.56
254.028	73.56
254.261	92.56
254.494	98.56
254.727	103.56
254.96	150.56
255.193	116.56
255.426	102.56
255.659	69.56
255.892	83.56
256.124	90.56
256.357	87.56
256.59	87.56
256.823	95.56
257.056	92.56
257.289	127.56
257.521	180.56
257.754	126.56
257.987	93.56
258.22	95.56
258.452	86.56
258.685	83.56
258.918	80.56
259.151	91.56
259.383	112.56
259.616	110.56
259.849	142.56
260.081	111.56
260.314	100.56
260.547	77.56
260.779	75.56
261.012	71.56
261.244	92.56
261.477	88.56
261.71	83.56
261.942	80.56
262.175	80.56
262.407	90.56
262.64	72.56
262.872	74.56
263.105	90.56
263.337	92.56
263.57	77.56
263.802	75.56
264.035	70.56
264.267	79.56
264.499	82.56
264.732	81.56
264.964	71.56
265.197	82.56
265.429	75.56
265.661	85.56
265.894	88.56
266.126	115.56
266.358	124.56
266.591	144.56
266.823	114.56
267.055	80.56
267.287	77.56
267.52	84.56
267.752	80.56
267.984	72.56
268.216	91.56
268.448	74.56
268.681	87.56
268.913	92.56
269.145	88.56
269.377	97.56
269.609	97.56
269.841	90.56
270.073	97.56
270.306	110.56
270.538	176.56
270.77	286.56
271.002	370.56
271.234	187.56
271.466	114.56
271.698	105.56
271.93	100.56
272.162	88.56
272.394	93.56
272.626	82.56
272.858	81.56
273.09	78.56
273.322	97.56
273.553	91.56
273.785	78.56
274.017	86.56
274.249	83.56
274.481	76.56
274.713	89.56
274.945	89.56
275.176	96.56
275.408	85.56
275.64	106.56
275.872	74.56
276.104	88.56
276.335	82.56
276.567	92.56
276.799	83.56
277.031	93.56
277.262	87.56
277.494	106.56
277.726	118.56
277.957	163.56
278.189	237.56
278.421	219.56
278.652	167.56
278.884	162.56
279.115	140.56
279.347	103.56
279.579	95.56
279.81	95.56
280.042	98.56
280.273	90.56
280.505	93.56
280.736	101.56
280.968	106.56
281.199	159.56
281.431	243.56
281.662	249.56
281.894	150.56
282.125	99.56
282.356	118.56
282.588	110.56
282.819	117.56
283.051	109.56
283.282	128.56
283.513	185.56
283.745	308.56
283.976	490.56
284.207	695.56
284.439	537.56
284.67	241.56
284.901	234.56
285.132	323.56
285.364	364.56
285.595	222.56
285.826	170.56
286.057	229.56
286.288	375.56
286.52	561.56
286.751	442.56
286.982	181.56
287.213	110.56
287.444	90.56
287.675	85.56
287.906	94.56
288.138	96.56
288.369	93.56
288.6	86.56
288.831	88.56
289.062	99.56
289.293	95.56
289.524	78.56
289.755	83.56
289.986	92.56
290.217	95.56
290.448	88.56
290.679	106.56
290.91	110.56
291.141	150.56
291.371	203.56
291.602	251.56
291.833	182.56
292.064	111.56
292.295	96.56
292.526	86.56
292.757	85.56
292.987	78.56
293.218	82.56
293.449	91.56
293.68	90.56
293.91	88.56
294.141	87.56
294.372	74.56
294.603	87.56
294.833	90.56
295.064	85.56
295.295	98.56
295.525	82.56
295.756	85.56
295.987	102.56
296.217	102.56
296.448	80.56
296.679	78.56
296.909	89.56
297.14	79.56
297.37	86.56
297.601	92.56
297.831	89.56
298.062	94.56
298.292	92.56
298.523	112.56
298.753	83.56
298.984	94.56
299.214	92.56
299.445	107.56
299.675	114.56
299.905	113.56
300.136	118.56
300.366	142.56
300.597	262.56
300.827	420.56
301.057	649.56
301.288	588.56
301.518	244.56
301.748	120.56
301.979	117.56
302.209	109.56
302.439	133.56
302.669	165.56
302.9	231.56
303.13	452.56
303.36	805.56
303.59	1134.56
303.82	792.56
304.051	283.56
304.281	154.56
304.511	111.56
304.741	114.56
304.971	107.56
305.201	101.56
305.431	106.56
305.661	98.56
305.891	103.56
306.121	99.56
306.352	110.56
306.582	108.56
306.812	118.56
307.042	110.56
307.272	97.56
307.502	91.56
307.731	94.56
307.961	103.56
308.191	89.56
308.421	95.56
308.651	96.56
308.881	107.56
309.111	101.56
309.341	112.56
309.571	114.56
309.8	94.56
310.03	111.56
310.26	103.56
310.49	113.56
310.72	102.56
310.949	114.56
311.179	85.56
311.409	92.56
311.639	114.56
311.868	85.56
312.098	102.56
312.328	106.56
312.557	89.56
312.787	95.56
313.017	117.56
313.246	92.56
313.476	114.56
313.706	134.56
313.935	135.56
314.165	180.56
314.394	216.56
314.624	163.56
314.853	122.56
315.083	116.56
315.312	125.56
315.542	108.56
315.771	124.56
316.001	135.56
316.23	127.56
316.46	134.56
316.689	162.56
316.919	242.56
317.148	434.56
317.377	854.56
317.607	1354.56
317.836	1280.56
318.065	467.56
318.295	190.56
318.524	135.56
318.753	130.56
318.983	103.56
319.212	114.56
319.441	99.56
319.67	101.56
319.9	108.56
320.129	100.56
320.358	114.56
320.587	103.56
320.816	112.56
321.046	124.56
321.275	128.56
321.504	108.56
321.733	130.56
321.962	157.56
322.191	140.56
322.42	127.56
322.649	113.56
322.878	114.56
323.108	111.56
323.337	125.56
323.566	122.56
323.795	124.56
324.024	113.56
324.253	136.56
324.482	154.56
324.71	187.56
324.939	252.56
325.168	219.56
325.397	158.56
325.626	225.56
325.855	460.56
326.084	848.56
326.313	1501.56
326.542	1418.56
326.77	566.56
326.999	235.56
327.228	202.56
327.457	210.56
327.686	226.56
327.914	141.56
328.143	129.56
328.372	123.56
328.6	114.56
328.829	105.56
329.058	112.56
329.287	115.56
329.515	111.56
329.744	118.56
329.972	116.56
330.201	104.56
330.43	108.56
330.658	110.56
330.887	125.56
331.115	98.56
331.344	106.56
331.572	112.56
331.801	113.56
332.03	108.56
332.258	125.56
332.486	146.56
332.715	266.56
332.943	472.56
333.172	693.56
333.4	599.56
333.629	223.56
333.857	142.56
334.085	122.56
334.314	119.56
334.542	132.56
334.771	114.56
334.999	119.56
335.227	113.56
335.455	106.56
335.684	111.56
335.912	109.56
336.14	105.56
336.369	104.56
336.597	108.56
336.825	97.56
337.053	95.56
337.281	98.56
337.51	90.56
337.738	98.56
337.966	102.56
338.194	112.56
338.422	102.56
338.65	118.56
338.878	98.56
339.106	97.56
339.334	106.56
339.562	100.56
339.79	113.56
340.018	106.56
340.246	110.56
340.474	115.56
340.702	102.56
340.93	115.56
341.158	108.56
341.386	107.56
341.614	108.56
341.842	121.56
342.07	109.56
342.298	127.56
342.526	102.56
342.754	100.56
342.981	88.56
343.209	104.56
343.437	110.56
343.665	98.56
343.893	102.56
344.12	110.56
344.348	100.56
344.576	113.56
344.804	113.56
345.031	106.56
345.259	103.56
345.487	106.56
345.714	106.56
345.942	107.56
346.17	110.56
346.397	102.56
346.625	106.56
346.853	107.56
347.08	95.56
347.308	97.56
347.535	94.56
347.763	103.56
347.99	91.56
348.218	101.56
348.445	81.56
348.673	107.56
348.9	110.56
349.128	102.56
349.355	124.56
349.583	126.56
349.81	107.56
350.037	110.56
350.265	95.56
350.492	95.56
350.72	107.56
350.947	118.56
351.174	97.56
351.402	107.56
351.629	104.56
351.856	107.56
352.083	96.56
352.311	96.56
352.538	94.56
352.765	110.56
352.992	84.56
353.22	103.56
353.447	103.56
353.674	114.56
353.901	97.56
354.128	93.56
354.355	107.56
354.583	102.56
354.81	115.56
355.037	103.56
355.264	100.56
355.491	113.56
355.718	96.56
355.945	96.56
356.172	94.56
356.399	100.56
356.626	115.56
356.853	96.56
357.08	100.56
357.307	96.56
357.534	110.56
357.761	102.56
357.988	108.56
358.215	89.56
358.441	98.56
358.668	93.56
358.895	118.56
359.122	116.56
359.349	104.56
359.576	106.56
359.802	105.56
360.029	107.56
360.256	101.56
360.483	109.56
360.709	86.56
360.936	106.56
361.163	110.56
361.39	101.56
361.616	102.56
361.843	97.56
362.07	113.56
362.296	111.56
362.523	100.56
362.749	108.56
362.976	106.56
363.203	96.56
363.429	98.56
363.656	93.56
363.882	101.56
364.109	93.56
364.335	106.56
364.562	89.56
364.788	99.56
365.015	102.56
365.241	123.56
365.468	172.56
365.694	235.56
365.92	193.56
366.147	111.56
366.373	82.56
366.599	85.56
366.826	79.56
367.052	104.56
367.278	102.56
367.505	78.56
367.731	92.56
367.957	89.56
368.184	100.56
368.41	120.56
368.636	98.56
368.862	85.56
369.089	84.56
369.315	100.56
369.541	82.56
369.767	89.56
369.993	99.56
370.219	88.56
370.445	86.56
370.672	102.56
370.898	101.56
371.124	85.56
371.35	92.56
371.576	96.56
371.802	102.56
372.028	108.56
372.254	110.56
372.48	119.56
372.706	110.56
372.932	102.56
373.158	109.56
373.384	106.56
373.61	116.56
373.835	110.56
374.061	94.56
374.287	112.56
374.513	92.56
374.739	121.56
374.965	117.56
375.191	101.56
375.416	102.56
375.642	96.56
375.868	82.56
376.094	94.56
376.319	100.56
376.545	90.56
376.771	101.56
376.997	103.56
377.222	107.56
377.448	106.56
377.674	88.56
377.899	105.56
378.125	106.56
378.35	100.56
378.576	115.56
378.802	110.56
379.027	112.56
379.253	131.56
379.478	158.56
379.704	299.56
379.929	684.56
380.155	1439.56
380.38	1489.56
380.606	456.56
380.831	170.56
381.057	146.56
381.282	120.56
381.507	106.56
381.733	102.56
381.958	97.56
382.184	102.56
382.409	110.56
382.634	117.56
382.86	88.56
383.085	99.56
383.31	91.56
383.535	93.56
383.761	108.56
383.986	98.56
384.211	95.56
384.436	85.56
384.662	91.56
384.887	85.56
385.112	90.56
385.337	94.56
385.562	96.56
385.787	97.56
386.013	114.56
386.238	112.56
386.463	90.56
386.688	92.56
386.913	85.56
387.138	98.56
387.363	97.56
387.588	107.56
387.813	98.56
388.038	98.56
388.263	84.56
388.488	95.56
388.713	111.56
388.938	106.56
389.163	93.56
389.387	112.56
389.612	95.56
389.837	97.56
390.062	99.56
390.287	93.56
390.512	102.56
390.736	104.56
390.961	94.56
391.186	94.56
391.411	106.56
391.636	78.56
391.86	105.56
392.085	93.56
392.31	100.56
392.534	106.56
392.759	86.56
392.984	103.56
393.208	100.56
393.433	121.56
393.658	112.56
393.882	88.56
394.107	78.56
394.331	85.56
394.556	99.56
394.78	101.56
395.005	91.56
395.229	91.56
395.454	96.56
395.678	96.56
395.903	95.56
396.127	76.56
396.352	99.56
396.576	99.56
396.801	95.56
397.025	130.56
397.249	118.56
397.474	110.56
397.698	104.56
397.922	106.56
398.147	82.56
398.371	99.56
398.595	102.56
398.82	82.56
399.044	93.56
399.268	96.56
399.492	108.56
399.717	93.56
399.941	99.56
400.165	95.56
400.389	94.56
400.613	94.56
400.837	97.56
401.062	80.56
401.286	103.56
401.51	98.56
401.734	73.56
401.958	100.56
402.182	89.56
402.406	104.56
402.63	101.56
402.854	96.56
403.078	85.56
403.302	97.56
403.526	97.56
403.75	91.56
403.974	96.56
404.198	100.56
404.422	97.56
404.645	80.56
404.869	85.56
405.093	86.56
405.317	99.56
405.541	107.56
405.765	114.56
405.988	124.56
406.212	103.56
406.436	99.56
406.66	88.56
406.883	97.56
407.107	89.56
407.331	89.56
407.555	94.56
407.778	92.56
408.002	82.56
408.226	97.56
408.449	95.56
408.673	82.56
408.896	99.56
409.12	97.56
409.344	91.56
409.567	99.56
409.791	95.56
410.014	84.56
410.238	100.56
410.461	104.56
410.685	90.56
410.908	86.56
411.132	88.56
411.355	90.56
411.578	86.56
411.802	91.56
412.025	91.56
412.249	97.56
412.472	81.56
412.695	91.56
412.919	101.56
413.142	81.56
413.365	80.56
413.589	93.56
413.812	92.56
414.035	103.56
414.258	104.56
414.482	83.56
414.705	89.56
414.928	106.56
415.151	87.56
415.374	102.56
415.597	100.56
415.821	90.56
416.044	92.56
416.267	83.56
416.49	84.56
416.713	82.56
416.936	88.56
417.159	89.56
417.382	92.56
417.605	93.56
417.828	90.56
418.051	74.56
418.274	102.56
418.497	80.56
418.72	90.56
418.943	104.56
419.166	97.56
419.389	90.56
419.611	105.56
419.834	87.56
420.057	98.56
420.28	86.56
420.503	97.56
420.726	85.56
420.948	72.56
421.171	100.56
421.394	84.56
421.617	90.56
421.839	85.56
422.062	97.56
422.285	87.56
422.507	90.56
422.73	108.56
422.953	125.56
423.175	107.56
423.398	91.56
423.621	92.56
423.843	104.56
424.066	98.56
424.288	96.56
424.511	92.56
424.733	78.56
424.956	85.56
425.178	87.56
425.401	101.56
425.623	82.56
425.846	91.56
426.068	90.56
426.291	100.56
426.513	85.56
426.735	90.56
426.958	103.56
427.18	91.56
427.402	88.56
427.625	96.56
427.847	90.56
428.069	109.56
428.292	102.56
428.514	88.56
428.736	88.56
428.958	85.56
429.181	93.56
429.403	98.56
429.625	89.56
429.847	104.56
430.069	96.56
430.292	89.56
430.514	112.56
430.736	86.56
430.958	92.56
431.18	98.56
431.402	79.56
431.624	85.56
431.846	85.56
432.068	89.56
432.29	93.56
432.512	104.56
432.734	102.56
432.956	80.56
433.178	88.56
433.4	98.56
433.622	101.56
433.844	80.56
434.066	84.56
434.287	99.56
434.509	82.56
434.731	89.56
434.953	86.56
435.175	86.56
435.397	84.56
435.618	86.56
435.84	81.56
436.062	99.56
436.284	110.56
436.505	96.56
436.727	88.56
436.949	100.56
437.17	97.56
437.392	85.56
437.614	72.56
437.835	86.56
438.057	83.56
438.278	87.56
438.5	102.56
438.721	93.56
438.943	98.56
439.165	108.56
439.386	112.56
439.608	103.56
439.829	92.56
440.05	108.56
440.272	123.56
440.493	112.56
440.715	83.56
440.936	101.56
441.158	92.56
441.379	100.56
441.6	97.56
441.822	99.56
442.043	111.56
442.264	137.56
442.486	118.56
442.707	94.56
442.928	90.56
443.149	97.56
443.371	88.56
443.592	91.56
443.813	84.56
444.034	86.56
444.255	88.56
444.476	95.56
444.698	89.56
444.919	87.56
445.14	196.56
445.361	145.56
445.582	110.56
445.803	89.56
446.024	88.56
446.245	97.56
446.466	107.56
446.687	96.56
446.908	95.56
447.129	99.56
447.35	93.56
447.571	87.56
447.792	98.56
448.013	77.56
448.234	92.56
448.455	94.56
448.675	104.56
448.896	110.56
449.117	102.56
449.338	126.56
449.559	154.56
449.779	118.56
450	102.56
450.221	101.56
450.442	104.56
450.662	94.56
450.883	88.56
451.104	110.56
451.324	99.56
451.545	99.56
451.766	119.56
451.986	146.56
452.207	186.56
452.428	482.56
452.648	1217.56
452.869	695.56
453.089	195.56
453.31	116.56
453.53	101.56
453.751	145.56
453.971	163.56
454.192	132.56
454.412	111.56
454.633	97.56
454.853	91.56
455.073	83.56
455.294	106.56
455.514	93.56
455.734	79.56
455.955	84.56
456.175	93.56
456.395	90.56
456.616	89.56
456.836	92.56
457.056	88.56
457.276	90.56
457.497	103.56
457.717	108.56
457.937	99.56
458.157	92.56
458.377	100.56
458.598	83.56
458.818	91.56
459.038	94.56
459.258	86.56
459.478	82.56
459.698	83.56
459.918	83.56
460.138	90.56
460.358	95.56
460.578	93.56
460.798	87.56
461.018	95.56
461.238	82.56
461.458	89.56
461.678	92.56
461.898	84.56
462.118	89.56
462.338	94.56
462.558	91.56
462.777	106.56
462.997	90.56
463.217	95.56
463.437	148.56
463.657	194.56
463.876	174.56
464.096	119.56
464.316	103.56
464.536	93.56
464.755	103.56
464.975	86.56
465.195	98.56
465.414	100.56
465.634	82.56
465.854	89.56
466.073	87.56
466.293	92.56
466.512	95.56
466.732	97.56
466.951	120.56
467.171	144.56
467.391	128.56
467.61	99.56
467.829	110.56
468.049	95.56
468.268	91.56
468.488	79.56
468.707	85.56
468.927	91.56
469.146	93.56
469.365	99.56
469.585	88.56
469.804	88.56
470.023	98.56
470.243	98.56
470.462	93.56
470.681	99.56
470.901	126.56
471.12	187.56
471.339	220.56
471.558	126.56
471.777	108.56
471.997	114.56
472.216	81.56
472.435	99.56
472.654	92.56
472.873	96.56
473.092	85.56
473.311	90.56
473.53	93.56
473.749	90.56
473.968	95.56
474.187	92.56
474.406	92.56
474.625	101.56
474.844	98.56
475.063	85.56
475.282	84.56
475.501	90.56
475.72	91.56
475.939	96.56
476.158	86.56
476.377	114.56
476.596	118.56
476.814	85.56
477.033	79.56
477.252	90.56
477.471	97.56
477.69	107.56
477.908	88.56
478.127	91.56
478.346	96.56
478.564	90.56
478.783	89.56
479.002	91.56
479.22	103.56
479.439	105.56
479.658	77.56
479.876	85.56
480.095	86.56
480.313	85.56
480.532	88.56
480.751	86.56
480.969	83.56
481.188	87.56
481.406	96.56
481.624	87.56
481.843	101.56
482.061	97.56
482.28	113.56
482.498	83.56
482.717	91.56
482.935	103.56
483.153	104.56
483.372	87.56
483.59	91.56
483.808	90.56
484.027	96.56
484.245	119.56
484.463	162.56
484.681	208.56
484.9	144.56
485.118	112.56
485.336	95.56
485.554	112.56
485.772	103.56
485.99	170.56
486.209	242.56
486.427	150.56
486.645	116.56
486.863	105.56
487.081	97.56
487.299	96.56
487.517	99.56
487.735	106.56
487.953	96.56
488.171	102.56
488.389	103.56
488.607	95.56
488.825	91.56
489.043	100.56
489.261	98.56
489.479	94.56
489.696	83.56
489.914	81.56
490.132	84.56
490.35	98.56
490.568	93.56
490.786	106.56
491.003	101.56
491.221	95.56
491.439	100.56
491.657	87.56
491.874	100.56
492.092	82.56
492.31	89.56
492.527	87.56
492.745	93.56
492.963	106.56
493.18	108.56
493.398	97.56
493.615	90.56
493.833	96.56
494.05	93.56
494.268	94.56
494.485	100.56
494.703	95.56
494.92	107.56
495.138	87.56
495.355	111.56
495.573	109.56
495.79	93.56
496.008	108.56
496.225	92.56
496.442	111.56
496.66	108.56
496.877	147.56
497.094	154.56
497.312	115.56
497.529	95.56
497.746	82.56
497.963	93.56
498.181	93.56
498.398	99.56
498.615	119.56
498.832	103.56
499.049	104.56
499.267	123.56
499.484	164.56
499.701	103.56
499.918	96.56
500.135	98.56
500.352	90.56
500.569	97.56
500.786	99.56
501.003	101.56
501.22	95.56
501.437	96.56
501.654	106.56
501.871	94.56
502.088	96.56
502.305	111.56
502.522	100.56
502.739	93.56
502.956	92.56
503.172	95.56
503.389	104.56
503.606	89.56
503.823	103.56
504.04	111.56
504.256	116.56
504.473	98.56
504.69	78.56
504.907	95.56
505.123	101.56
505.34	112.56
505.557	91.56
505.773	100.56
505.99	98.56
506.207	94.56
506.423	103.56
506.64	106.56
506.856	104.56
507.073	87.56
507.289	115.56
507.506	88.56
507.722	103.56
507.939	82.56
508.155	85.56
508.372	77.56
508.588	87.56
508.805	97.56
509.021	84.56
509.238	117.56
509.454	143.56
509.67	146.56
509.887	110.56
510.103	78.56
510.319	93.56
510.536	102.56
510.752	118.56
510.968	100.56
511.184	90.56
511.401	79.56
511.617	103.56
511.833	83.56
512.049	78.56
512.265	90.56
512.481	85.56
512.698	100.56
512.914	97.56
513.13	88.56
513.346	101.56
513.562	80.56
513.778	105.56
513.994	92.56
514.21	91.56
514.426	142.56
514.642	178.56
514.858	98.56
515.074	97.56
515.29	91.56
515.506	96.56
515.721	103.56
515.937	94.56
516.153	90.56
516.369	102.56
516.585	99.56
516.801	95.56
517.016	87.56
517.232	92.56
517.448	106.56
517.664	97.56
517.879	105.56
518.095	103.56
518.311	86.56
518.527	81.56
518.742	94.56
518.958	112.56
519.173	146.56
519.389	115.56
519.605	91.56
519.82	94.56
520.036	90.56
520.251	88.56
520.467	88.56
520.682	86.56
520.898	94.56
521.113	89.56
521.329	95.56
521.544	95.56
521.76	92.56
521.975	104.56
522.19	104.56
522.406	80.56
522.621	79.56
522.836	89.56
523.052	93.56
523.267	94.56
523.482	104.56
523.698	89.56
523.913	84.56
524.128	97.56
524.343	95.56
524.559	84.56
524.774	99.56
524.989	93.56
525.204	108.56
525.419	81.56
525.634	92.56
525.849	106.56
526.064	86.56
526.28	77.56
526.495	88.56
526.71	83.56
526.925	96.56
527.14	100.56
527.355	96.56
527.57	97.56
527.785	83.56
527.999	98.56
528.214	105.56
528.429	89.56
528.644	87.56
528.859	111.56
529.074	101.56
529.289	86.56
529.503	95.56
529.718	87.56
529.933	97.56
530.148	104.56
530.363	100.56
530.577	101.56
530.792	102.56
531.007	80.56
531.221	104.56
531.436	101.56
531.651	86.56
531.865	83.56
532.08	87.56
532.295	107.56
532.509	141.56
532.724	106.56
532.938	90.56
533.153	94.56
533.367	112.56
533.582	94.56
533.796	85.56
534.011	90.56
534.225	90.56
534.44	95.56
534.654	101.56
534.868	73.56
535.083	100.56
535.297	102.56
535.511	102.56
535.726	100.56
535.94	90.56
536.154	83.56
536.369	90.56
536.583	82.56
536.797	105.56
537.011	104.56
537.225	100.56
537.44	93.56
537.654	92.56
537.868	83.56
538.082	61.56
538.296	98.56
538.51	94.56
538.724	90.56
538.938	99.56
539.153	97.56
539.367	99.56
539.581	85.56
539.795	84.56
540.009	98.56
540.222	107.56
540.436	99.56
540.65	90.56
540.864	87.56
541.078	106.56
541.292	118.56
541.506	185.56
541.72	203.56
541.934	121.56
542.147	92.56
542.361	92.56
542.575	108.56
542.789	93.56
543.002	94.56
543.216	103.56
543.43	89.56
543.644	92.56
543.857	92.56
544.071	98.56
544.285	96.56
544.498	93.56
544.712	105.56
544.925	95.56
545.139	95.56
545.352	69.56
545.566	98.56
545.779	99.56
545.993	102.56
546.206	100.56
546.42	99.56
546.633	97.56
546.847	106.56
547.06	108.56
547.274	95.56
547.487	97.56
547.7	108.56
547.914	108.56
548.127	101.56
548.34	98.56
548.554	90.56
548.767	107.56
548.98	96.56
549.193	92.56
549.407	97.56
549.62	85.56
549.833	110.56
550.046	103.56
550.259	106.56
550.473	101.56
550.686	95.56
550.899	96.56
551.112	93.56
551.325	85.56
551.538	87.56
551.751	102.56
551.964	102.56
552.177	95.56
552.39	102.56
552.603	99.56
552.816	90.56
553.029	103.56
553.242	86.56
553.455	99.56
553.667	86.56
553.88	96.56
554.093	104.56
554.306	103.56
554.519	96.56
554.732	113.56
554.944	116.56
555.157	94.56
555.37	101.56
555.583	101.56
555.795	112.56
556.008	119.56
556.221	154.56
556.433	112.56
556.646	114.56
556.859	85.56
557.071	108.56
557.284	118.56
557.496	100.56
557.709	109.56
557.921	97.56
558.134	111.56
558.346	97.56
558.559	97.56
558.771	99.56
558.984	82.56
559.196	91.56
559.409	103.56
559.621	106.56
559.833	83.56
560.046	99.56
560.258	90.56
560.47	82.56
560.683	100.56
560.895	102.56
561.107	83.56
561.32	90.56
561.532	97.56
561.744	98.56
561.956	87.56
562.168	102.56
562.381	96.56
562.593	91.56
562.805	118.56
563.017	151.56
563.229	229.56
563.441	549.56
563.653	206.56
563.865	106.56
564.077	107.56
564.289	108.56
564.501	92.56
564.713	99.56
564.925	90.56
565.137	94.56
565.349	98.56
565.561	100.56
565.773	85.56
565.985	98.56
566.197	99.56
566.408	94.56
566.62	94.56
566.832	103.56
567.044	94.56
567.255	90.56
567.467	97.56
567.679	86.56
567.891	107.56
568.102	152.56
568.314	220.56
568.526	142.56
568.737	112.56
568.949	94.56
569.161	91.56
569.372	85.56
569.584	92.56
569.795	102.56
570.007	104.56
570.218	127.56
570.43	150.56
570.641	106.56
570.853	86.56
571.064	85.56
571.276	89.56
571.487	85.56
571.698	88.56
571.91	93.56
572.121	93.56
572.333	98.56
572.544	101.56
572.755	133.56
572.966	170.56
573.178	117.56
573.389	101.56
573.6	82.56
573.811	95.56
574.023	102.56
574.234	92.56
574.445	93.56
574.656	91.56
574.867	99.56
575.078	89.56
575.289	86.56
575.501	75.56
575.712	75.56
575.923	89.56
576.134	95.56
576.345	89.56
576.556	89.56
576.767	84.56
576.978	83.56
577.188	95.56
577.399	101.56
577.61	105.56
577.821	90.56
578.032	71.56
578.243	87.56
578.454	104.56
578.665	87.56
578.875	86.56
579.086	88.56
579.297	96.56
579.508	79.56
579.718	78.56
579.929	91.56
580.14	92.56
580.35	82.56
580.561	82.56
580.772	92.56
580.982	87.56
581.193	80.56
581.403	96.56
581.614	90.56
581.825	94.56
582.035	93.56
582.246	86.56
582.456	94.56
582.667	88.56
582.877	104.56
583.087	118.56
583.298	101.56
583.508	80.56
583.719	80.56
583.929	72.56
584.139	94.56
584.35	74.56
584.56	79.56
584.77	86.56
584.981	71.56
585.191	86.56
585.401	90.56
585.611	84.56
585.821	82.56
586.032	93.56
586.242	95.56
586.452	92.56
586.662	80.56
586.872	77.56
587.082	95.56
587.292	73.56
587.502	83.56
587.713	92.56
587.923	84.56
588.133	81.56
588.343	76.56
588.553	89.56
588.762	83.56
588.972	92.56
589.182	116.56
589.392	99.56
589.602	83.56
589.812	98.56
590.022	105.56
590.232	82.56
590.441	84.56
590.651	86.56
590.861	99.56
591.071	92.56
591.281	94.56
591.49	84.56
591.7	92.56
591.91	107.56
592.119	78.56
592.329	90.56
592.539	97.56
592.748	82.56
592.958	102.56
593.167	82.56
593.377	97.56
593.587	96.56
593.796	83.56
594.006	68.56
594.215	97.56
594.424	84.56
594.634	90.56
594.843	86.56
595.053	89.56
595.262	90.56
595.472	73.56
595.681	91.56
595.89	99.56
596.1	100.56
596.309	76.56
596.518	92.56
596.727	85.56
596.937	95.56
597.146	86.56
597.355	98.56
597.564	95.56
597.774	102.56
597.983	102.56
598.192	99.56
598.401	91.56
598.61	87.56
598.819	88.56
599.028	80.56
599.237	97.56
599.446	83.56
599.655	85.56
599.864	84.56
600.073	76.56
600.282	94.56
600.491	87.56
600.7	89.56
600.909	75.56
601.118	91.56
601.327	83.56
601.536	78.56
601.745	93.56
601.953	131.56
602.162	143.56
602.371	103.56
602.58	79.56
602.789	101.56
602.997	94.56
603.206	88.56
603.415	81.56
603.623	94.56
603.832	94.56
604.041	111.56
604.249	88.56
604.458	82.56
604.666	83.56
604.875	84.56
605.084	81.56
605.292	86.56
605.501	88.56
605.709	100.56
605.918	109.56
606.126	99.56
606.334	94.56
606.543	101.56
606.751	101.56
606.96	147.56
607.168	177.56
607.376	116.56
607.585	90.56
607.793	96.56
608.001	115.56
608.21	103.56
608.418	88.56
608.626	87.56
608.834	89.56
609.043	94.56
609.251	95.56
609.459	89.56
609.667	103.56
609.875	86.56
610.083	82.56
610.291	83.56
610.499	81.56
610.707	80.56
610.916	86.56
611.124	83.56
611.332	86.56
611.54	92.56
611.748	103.56
611.955	90.56
612.163	97.56
612.371	71.56
612.579	85.56
612.787	82.56
612.995	74.56
613.203	90.56
613.411	91.56
613.618	87.56
613.826	102.56
614.034	93.56
614.242	92.56
614.449	93.56
614.657	82.56
614.865	93.56
615.072	97.56
615.28	117.56
615.488	101.56
615.695	112.56
615.903	94.56
616.111	89.56
616.318	103.56
616.526	98.56
616.733	87.56
616.941	85.56
617.148	95.56
617.356	89.56
617.563	93.56
617.771	86.56
617.978	91.56
618.185	91.56
618.393	80.56
618.6	88.56
618.807	84.56
619.015	84.56
619.222	83.56
619.429	74.56
619.637	77.56
619.844	85.56
620.051	82.56
620.258	83.56
620.466	91.56
620.673	85.56
620.88	87.56
621.087	79.56
621.294	78.56
621.501	83.56
621.708	75.56
621.915	81.56
622.122	70.56
622.329	94.56
622.536	87.56
622.743	82.56
622.95	87.56
623.157	88.56
623.364	93.56
623.571	88.56
623.778	84.56
623.985	99.56
624.192	96.56
624.399	99.56
624.606	79.56
624.812	99.56
625.019	69.56
625.226	90.56
625.433	82.56
625.639	79.56
625.846	95.56
626.053	85.56
626.259	97.56
626.466	87.56
626.673	83.56
626.879	79.56
627.086	94.56
627.293	89.56
627.499	87.56
627.706	78.56
627.912	84.56
628.119	96.56
628.325	76.56
628.532	92.56
628.738	89.56
628.945	95.56
629.151	87.56
629.357	80.56
629.564	90.56
629.77	83.56
629.976	81.56
630.183	84.56
630.389	83.56
630.595	84.56
630.802	98.56
631.008	84.56
631.214	77.56
631.42	90.56
631.627	95.56
631.833	98.56
632.039	98.56
632.245	87.56
632.451	82.56
632.657	83.56
632.863	88.56
633.069	86.56
633.275	85.56
633.481	72.56
633.688	76.56
633.893	82.56
634.099	95.56
634.305	84.56
634.511	83.56
634.717	85.56
634.923	93.56
635.129	123.56
635.335	122.56
635.541	87.56
635.747	88.56
635.952	84.56
636.158	80.56
636.364	92.56
636.57	75.56
636.775	78.56
636.981	88.56
637.187	83.56
637.392	69.56
637.598	69.56
637.804	94.56
638.009	93.56
638.215	73.56
638.421	79.56
638.626	81.56
638.832	79.56
639.037	89.56
639.243	92.56
639.448	84.56
639.654	84.56
639.859	71.56
640.065	91.56
640.27	93.56
640.475	76.56
640.681	86.56
640.886	67.56
641.091	66.56
641.297	94.56
641.502	88.56
641.707	96.56
641.913	86.56
642.118	79.56
642.323	81.56
642.528	81.56
642.733	109.56
642.939	71.56
643.144	88.56
643.349	97.56
643.554	79.56
643.759	85.56
643.964	75.56
644.169	90.56
644.374	88.56
644.579	97.56
644.784	84.56
644.989	79.56
645.194	89.56
645.399	87.56
645.604	101.56
645.809	89.56
646.014	84.56
646.219	84.56
646.423	77.56
646.628	81.56
646.833	85.56
647.038	81.56
647.243	78.56
647.447	83.56
647.652	79.56
647.857	84.56
648.062	79.56
648.266	89.56
648.471	68.56
648.676	74.56
648.88	93.56
649.085	76.56
649.289	78.56
649.494	76.56
649.698	100.56
649.903	97.56
650.107	95.56
650.312	86.56
650.516	92.56
650.721	81.56
650.925	76.56
651.13	86.56
651.334	77.56
651.539	76.56
651.743	86.56
651.947	73.56
652.152	84.56
652.356	77.56
652.56	102.56
652.764	101.56
652.969	95.56
653.173	72.56
653.377	84.56
653.581	72.56
653.785	74.56
653.99	85.56
654.194	88.56
654.398	103.56
654.602	87.56
654.806	79.56
655.01	85.56
655.214	83.56
655.418	84.56
655.622	87.56
655.826	75.56
656.03	95.56
656.234	77.56
656.438	85.56
656.642	78.56
656.846	88.56
657.049	84.56
657.253	80.56
657.457	85.56
657.661	76.56
657.865	68.56
658.068	82.56
658.272	70.56
658.476	78.56
658.68	84.56
658.883	86.56
659.087	69.56
659.291	78.56
659.494	68.56
659.698	83.56
659.901	91.56
660.105	77.56
660.309	77.56
660.512	77.56
660.716	77.56
660.919	80.56
661.123	64.56
661.326	67.56
661.53	71.56
661.733	99.56
661.936	73.56
662.14	112.56
662.343	76.56
662.546	66.56
662.75	80.56
662.953	70.56
663.156	69.56
663.36	93.56
663.563	86.56
663.766	71.56
663.969	73.56
664.173	77.56
664.376	78.56
664.579	69.56
664.782	68.56
664.985	86.56
665.188	75.56
665.391	66.56
665.594	68.56
665.797	84.56
666	53.56
666.203	77.56
666.406	68.56
666.609	67.56
666.812	78.56
667.015	64.56
667.218	91.56
667.421	93.56
667.624	85.56
667.827	73.56
668.03	78.56
668.232	84.56
668.435	73.56
668.638	71.56
668.841	76.56
669.043	88.56
669.246	70.56
669.449	77.56
669.651	77.56
669.854	84.56
670.057	81.56
670.259	74.56
670.462	76.56
670.665	64.56
670.867	75.56
671.07	73.56
671.272	72.56
671.475	84.56
671.677	75.56
671.88	63.56
672.082	76.56
672.284	82.56
672.487	62.56
672.689	79.56
672.892	74.56
