Data from StandardFe(NO3)3.TAE.3%Agarose.FlatLispGreen.Lamp.Energy10.07252019_HRD10591_11-54-01-439.txt Node
Date: Thu Jul 25 11:54:01 EDT 2019
User: cochatt
Spectrometer: HR+D1059
Trigger mode: 1
Integration Time (sec): 1.000000E-1
Scans to average: 1
Electric dark correction enabled: true
Nonlinearity correction enabled: false
Boxcar width: 0
XAxis mode: Wavelengths
Number of Pixels in Spectrum: 2048
>>>>>Begin Spectral Data<<<<<
223.165	-6.62
223.4	-6.62
223.635	-6.62
223.869	-21.62
224.104	-20.62
224.338	-12.62
224.573	-7.62
224.808	-10.62
225.042	-18.62
225.277	-8.62
225.511	1.38
225.746	3.38
225.98	2.38
226.215	11.38
226.449	3.38
226.683	28.38
226.918	33.38
227.152	23.38
227.387	34.38
227.621	42.38
227.856	35.38
228.09	42.38
228.324	45.38
228.559	62.38
228.793	52.38
229.027	61.38
229.262	57.38
229.496	67.38
229.73	72.38
229.964	61.38
230.199	74.38
230.433	58.38
230.667	81.38
230.901	71.38
231.136	80.38
231.37	79.38
231.604	75.38
231.838	81.38
232.072	79.38
232.306	84.38
232.541	90.38
232.775	93.38
233.009	75.38
233.243	76.38
233.477	73.38
233.711	78.38
233.945	87.38
234.179	85.38
234.413	81.38
234.647	76.38
234.881	67.38
235.115	84.38
235.349	75.38
235.583	74.38
235.817	79.38
236.051	86.38
236.285	80.38
236.519	82.38
236.753	68.38
236.987	93.38
237.221	79.38
237.455	68.38
237.689	100.38
237.922	75.38
238.156	78.38
238.39	70.38
238.624	79.38
238.858	78.38
239.091	79.38
239.325	86.38
239.559	79.38
239.793	87.38
240.027	63.38
240.26	85.38
240.494	75.38
240.728	78.38
240.961	80.38
241.195	87.38
241.429	82.38
241.662	74.38
241.896	81.38
242.13	78.38
242.363	83.38
242.597	71.38
242.83	81.38
243.064	85.38
243.298	74.38
243.531	79.38
243.765	69.38
243.998	77.38
244.232	72.38
244.465	76.38
244.699	75.38
244.932	81.38
245.166	87.38
245.399	77.38
245.633	85.38
245.866	86.38
246.099	72.38
246.333	90.38
246.566	78.38
246.8	85.38
247.033	81.38
247.266	70.38
247.5	79.38
247.733	76.38
247.966	78.38
248.2	79.38
248.433	91.38
248.666	69.38
248.899	78.38
249.133	85.38
249.366	82.38
249.599	89.38
249.832	77.38
250.066	82.38
250.299	73.38
250.532	74.38
250.765	62.38
250.998	87.38
251.231	63.38
251.465	83.38
251.698	91.38
251.931	75.38
252.164	85.38
252.397	77.38
252.63	76.38
252.863	73.38
253.096	77.38
253.329	87.38
253.562	84.38
253.795	81.38
254.028	80.38
254.261	73.38
254.494	76.38
254.727	78.38
254.96	85.38
255.193	83.38
255.426	79.38
255.659	85.38
255.892	78.38
256.124	71.38
256.357	82.38
256.59	91.38
256.823	83.38
257.056	85.38
257.289	83.38
257.521	83.38
257.754	86.38
257.987	85.38
258.22	77.38
258.452	75.38
258.685	80.38
258.918	74.38
259.151	70.38
259.383	78.38
259.616	86.38
259.849	89.38
260.081	89.38
260.314	94.38
260.547	85.38
260.779	76.38
261.012	82.38
261.244	81.38
261.477	91.38
261.71	79.38
261.942	82.38
262.175	69.38
262.407	86.38
262.64	87.38
262.872	87.38
263.105	81.38
263.337	80.38
263.57	74.38
263.802	77.38
264.035	89.38
264.267	85.38
264.499	77.38
264.732	87.38
264.964	88.38
265.197	89.38
265.429	76.38
265.661	95.38
265.894	79.38
266.126	88.38
266.358	96.38
266.591	71.38
266.823	85.38
267.055	85.38
267.287	78.38
267.52	70.38
267.752	86.38
267.984	82.38
268.216	84.38
268.448	86.38
268.681	89.38
268.913	72.38
269.145	83.38
269.377	82.38
269.609	101.38
269.841	95.38
270.073	91.38
270.306	76.38
270.538	89.38
270.77	80.38
271.002	85.38
271.234	85.38
271.466	79.38
271.698	79.38
271.93	84.38
272.162	90.38
272.394	92.38
272.626	83.38
272.858	85.38
273.09	90.38
273.322	85.38
273.553	87.38
273.785	91.38
274.017	70.38
274.249	95.38
274.481	79.38
274.713	87.38
274.945	80.38
275.176	85.38
275.408	79.38
275.64	79.38
275.872	78.38
276.104	84.38
276.335	85.38
276.567	88.38
276.799	93.38
277.031	88.38
277.262	83.38
277.494	83.38
277.726	84.38
277.957	74.38
278.189	82.38
278.421	83.38
278.652	80.38
278.884	78.38
279.115	87.38
279.347	89.38
279.579	87.38
279.81	99.38
280.042	95.38
280.273	83.38
280.505	85.38
280.736	86.38
280.968	98.38
281.199	85.38
281.431	95.38
281.662	78.38
281.894	82.38
282.125	83.38
282.356	87.38
282.588	83.38
282.819	95.38
283.051	91.38
283.282	88.38
283.513	83.38
283.745	77.38
283.976	90.38
284.207	87.38
284.439	83.38
284.67	98.38
284.901	81.38
285.132	80.38
285.364	87.38
285.595	89.38
285.826	80.38
286.057	96.38
286.288	97.38
286.52	106.38
286.751	90.38
286.982	89.38
287.213	91.38
287.444	81.38
287.675	77.38
287.906	84.38
288.138	91.38
288.369	83.38
288.6	89.38
288.831	86.38
289.062	98.38
289.293	87.38
289.524	74.38
289.755	93.38
289.986	77.38
290.217	86.38
290.448	87.38
290.679	102.38
290.91	86.38
291.141	83.38
291.371	79.38
291.602	79.38
291.833	95.38
292.064	97.38
292.295	86.38
292.526	90.38
292.757	87.38
292.987	77.38
293.218	93.38
293.449	100.38
293.68	78.38
293.91	85.38
294.141	92.38
294.372	92.38
294.603	90.38
294.833	89.38
295.064	79.38
295.295	78.38
295.525	90.38
295.756	85.38
295.987	94.38
296.217	80.38
296.448	99.38
296.679	80.38
296.909	91.38
297.14	86.38
297.37	95.38
297.601	90.38
297.831	89.38
298.062	91.38
298.292	86.38
298.523	77.38
298.753	79.38
298.984	83.38
299.214	79.38
299.445	79.38
299.675	85.38
299.905	98.38
300.136	82.38
300.366	85.38
300.597	85.38
300.827	98.38
301.057	94.38
301.288	94.38
301.518	72.38
301.748	85.38
301.979	85.38
302.209	81.38
302.439	76.38
302.669	92.38
302.9	92.38
303.13	86.38
303.36	80.38
303.59	85.38
303.82	92.38
304.051	86.38
304.281	78.38
304.511	85.38
304.741	94.38
304.971	97.38
305.201	88.38
305.431	101.38
305.661	85.38
305.891	83.38
306.121	101.38
306.352	105.38
306.582	86.38
306.812	85.38
307.042	89.38
307.272	91.38
307.502	88.38
307.731	81.38
307.961	85.38
308.191	83.38
308.421	98.38
308.651	100.38
308.881	88.38
309.111	97.38
309.341	93.38
309.571	89.38
309.8	88.38
310.03	91.38
310.26	84.38
310.49	91.38
310.72	78.38
310.949	87.38
311.179	73.38
311.409	96.38
311.639	101.38
311.868	92.38
312.098	89.38
312.328	78.38
312.557	88.38
312.787	81.38
313.017	93.38
313.246	83.38
313.476	74.38
313.706	89.38
313.935	82.38
314.165	83.38
314.394	87.38
314.624	77.38
314.853	78.38
315.083	92.38
315.312	93.38
315.542	85.38
315.771	90.38
316.001	92.38
316.23	94.38
316.46	82.38
316.689	85.38
316.919	83.38
317.148	78.38
317.377	89.38
317.607	82.38
317.836	89.38
318.065	89.38
318.295	92.38
318.524	86.38
318.753	88.38
318.983	88.38
319.212	88.38
319.441	83.38
319.67	81.38
319.9	91.38
320.129	94.38
320.358	85.38
320.587	78.38
320.816	94.38
321.046	83.38
321.275	77.38
321.504	78.38
321.733	82.38
321.962	92.38
322.191	91.38
322.42	91.38
322.649	86.38
322.878	90.38
323.108	79.38
323.337	77.38
323.566	77.38
323.795	84.38
324.024	93.38
324.253	89.38
324.482	89.38
324.71	88.38
324.939	75.38
325.168	80.38
325.397	85.38
325.626	98.38
325.855	96.38
326.084	94.38
326.313	100.38
326.542	87.38
326.77	94.38
326.999	77.38
327.228	85.38
327.457	85.38
327.686	97.38
327.914	98.38
328.143	85.38
328.372	92.38
328.6	82.38
328.829	91.38
329.058	81.38
329.287	85.38
329.515	68.38
329.744	98.38
329.972	105.38
330.201	70.38
330.43	93.38
330.658	105.38
330.887	97.38
331.115	91.38
331.344	77.38
331.572	84.38
331.801	92.38
332.03	86.38
332.258	90.38
332.486	78.38
332.715	89.38
332.943	88.38
333.172	99.38
333.4	94.38
333.629	80.38
333.857	87.38
334.085	90.38
334.314	86.38
334.542	85.38
334.771	91.38
334.999	91.38
335.227	67.38
335.455	93.38
335.684	85.38
335.912	94.38
336.14	93.38
336.369	95.38
336.597	84.38
336.825	80.38
337.053	96.38
337.281	96.38
337.51	82.38
337.738	85.38
337.966	66.38
338.194	87.38
338.422	97.38
338.65	95.38
338.878	84.38
339.106	85.38
339.334	88.38
339.562	77.38
339.79	79.38
340.018	83.38
340.246	91.38
340.474	86.38
340.702	98.38
340.93	96.38
341.158	97.38
341.386	87.38
341.614	80.38
341.842	92.38
342.07	80.38
342.298	93.38
342.526	96.38
342.754	92.38
342.981	90.38
343.209	94.38
343.437	92.38
343.665	85.38
343.893	88.38
344.12	90.38
344.348	80.38
344.576	84.38
344.804	84.38
345.031	82.38
345.259	93.38
345.487	75.38
345.714	90.38
345.942	97.38
346.17	88.38
346.397	89.38
346.625	92.38
346.853	84.38
347.08	80.38
347.308	101.38
347.535	93.38
347.763	92.38
347.99	89.38
348.218	86.38
348.445	92.38
348.673	92.38
348.9	80.38
349.128	92.38
349.355	64.38
349.583	79.38
349.81	98.38
350.037	77.38
350.265	90.38
350.492	94.38
350.72	91.38
350.947	90.38
351.174	73.38
351.402	78.38
351.629	81.38
351.856	78.38
352.083	77.38
352.311	70.38
352.538	65.38
352.765	89.38
352.992	94.38
353.22	83.38
353.447	88.38
353.674	92.38
353.901	90.38
354.128	86.38
354.355	81.38
354.583	89.38
354.81	78.38
355.037	88.38
355.264	86.38
355.491	89.38
355.718	87.38
355.945	82.38
356.172	92.38
356.399	78.38
356.626	85.38
356.853	94.38
357.08	79.38
357.307	77.38
357.534	84.38
357.761	89.38
357.988	100.38
358.215	87.38
358.441	76.38
358.668	85.38
358.895	76.38
359.122	82.38
359.349	88.38
359.576	85.38
359.802	80.38
360.029	86.38
360.256	78.38
360.483	87.38
360.709	89.38
360.936	77.38
361.163	95.38
361.39	80.38
361.616	85.38
361.843	76.38
362.07	85.38
362.296	93.38
362.523	85.38
362.749	82.38
362.976	102.38
363.203	87.38
363.429	107.38
363.656	95.38
363.882	91.38
364.109	76.38
364.335	82.38
364.562	74.38
364.788	96.38
365.015	96.38
365.241	83.38
365.468	87.38
365.694	95.38
365.92	88.38
366.147	101.38
366.373	84.38
366.599	92.38
366.826	92.38
367.052	96.38
367.278	89.38
367.505	100.38
367.731	99.38
367.957	85.38
368.184	75.38
368.41	78.38
368.636	100.38
368.862	93.38
369.089	74.38
369.315	79.38
369.541	105.38
369.767	99.38
369.993	86.38
370.219	93.38
370.445	91.38
370.672	69.38
370.898	91.38
371.124	83.38
371.35	85.38
371.576	97.38
371.802	94.38
372.028	90.38
372.254	100.38
372.48	87.38
372.706	104.38
372.932	83.38
373.158	71.38
373.384	86.38
373.61	79.38
373.835	102.38
374.061	79.38
374.287	75.38
374.513	99.38
374.739	101.38
374.965	97.38
375.191	81.38
375.416	92.38
375.642	92.38
375.868	91.38
376.094	78.38
376.319	102.38
376.545	85.38
376.771	85.38
376.997	80.38
377.222	79.38
377.448	94.38
377.674	94.38
377.899	87.38
378.125	74.38
378.35	89.38
378.576	83.38
378.802	103.38
379.027	97.38
379.253	90.38
379.478	95.38
379.704	83.38
379.929	105.38
380.155	86.38
380.38	85.38
380.606	89.38
380.831	90.38
381.057	98.38
381.282	98.38
381.507	93.38
381.733	104.38
381.958	109.38
382.184	98.38
382.409	96.38
382.634	90.38
382.86	87.38
383.085	95.38
383.31	98.38
383.535	82.38
383.761	90.38
383.986	114.38
384.211	75.38
384.436	89.38
384.662	100.38
384.887	96.38
385.112	90.38
385.337	80.38
385.562	108.38
385.787	84.38
386.013	97.38
386.238	94.38
386.463	86.38
386.688	94.38
386.913	91.38
387.138	92.38
387.363	96.38
387.588	107.38
387.813	95.38
388.038	95.38
388.263	81.38
388.488	111.38
388.713	99.38
388.938	96.38
389.163	96.38
389.387	89.38
389.612	85.38
389.837	96.38
390.062	88.38
390.287	92.38
390.512	110.38
390.736	98.38
390.961	88.38
391.186	90.38
391.411	92.38
391.636	98.38
391.86	101.38
392.085	105.38
392.31	91.38
392.534	102.38
392.759	111.38
392.984	103.38
393.208	107.38
393.433	107.38
393.658	98.38
393.882	115.38
394.107	95.38
394.331	94.38
394.556	110.38
394.78	114.38
395.005	113.38
395.229	108.38
395.454	108.38
395.678	103.38
395.903	102.38
396.127	102.38
396.352	114.38
396.576	101.38
396.801	101.38
397.025	82.38
397.249	103.38
397.474	113.38
397.698	101.38
397.922	89.38
398.147	103.38
398.371	105.38
398.595	107.38
398.82	104.38
399.044	98.38
399.268	104.38
399.492	113.38
399.717	106.38
399.941	113.38
400.165	115.38
400.389	104.38
400.613	115.38
400.837	101.38
401.062	121.38
401.286	114.38
401.51	105.38
401.734	109.38
401.958	115.38
402.182	106.38
402.406	109.38
402.63	107.38
402.854	118.38
403.078	119.38
403.302	113.38
403.526	125.38
403.75	103.38
403.974	117.38
404.198	103.38
404.422	115.38
404.645	95.38
404.869	97.38
405.093	116.38
405.317	117.38
405.541	99.38
405.765	111.38
405.988	104.38
406.212	125.38
406.436	118.38
406.66	121.38
406.883	116.38
407.107	104.38
407.331	115.38
407.555	107.38
407.778	123.38
408.002	112.38
408.226	106.38
408.449	110.38
408.673	116.38
408.896	125.38
409.12	115.38
409.344	115.38
409.567	116.38
409.791	131.38
410.014	109.38
410.238	114.38
410.461	115.38
410.685	124.38
410.908	110.38
411.132	140.38
411.355	117.38
411.578	96.38
411.802	109.38
412.025	116.38
412.249	126.38
412.472	128.38
412.695	113.38
412.919	107.38
413.142	113.38
413.365	129.38
413.589	118.38
413.812	122.38
414.035	121.38
414.258	111.38
414.482	117.38
414.705	105.38
414.928	115.38
415.151	97.38
415.374	117.38
415.597	110.38
415.821	92.38
416.044	113.38
416.267	121.38
416.49	119.38
416.713	113.38
416.936	107.38
417.159	122.38
417.382	102.38
417.605	126.38
417.828	128.38
418.051	130.38
418.274	126.38
418.497	110.38
418.72	139.38
418.943	113.38
419.166	128.38
419.389	114.38
419.611	105.38
419.834	111.38
420.057	119.38
420.28	120.38
420.503	111.38
420.726	113.38
420.948	118.38
421.171	125.38
421.394	115.38
421.617	116.38
421.839	113.38
422.062	120.38
422.285	108.38
422.507	122.38
422.73	119.38
422.953	117.38
423.175	119.38
423.398	117.38
423.621	122.38
423.843	106.38
424.066	121.38
424.288	129.38
424.511	124.38
424.733	131.38
424.956	131.38
425.178	128.38
425.401	133.38
425.623	123.38
425.846	128.38
426.068	115.38
426.291	123.38
426.513	129.38
426.735	110.38
426.958	119.38
427.18	115.38
427.402	133.38
427.625	107.38
427.847	121.38
428.069	111.38
428.292	123.38
428.514	123.38
428.736	124.38
428.958	126.38
429.181	118.38
429.403	116.38
429.625	118.38
429.847	129.38
430.069	102.38
430.292	121.38
430.514	117.38
430.736	115.38
430.958	109.38
431.18	119.38
431.402	119.38
431.624	127.38
431.846	113.38
432.068	119.38
432.29	110.38
432.512	94.38
432.734	102.38
432.956	125.38
433.178	109.38
433.4	127.38
433.622	130.38
433.844	120.38
434.066	122.38
434.287	135.38
434.509	113.38
434.731	102.38
434.953	109.38
435.175	111.38
435.397	110.38
435.618	126.38
435.84	114.38
436.062	120.38
436.284	113.38
436.505	115.38
436.727	103.38
436.949	113.38
437.17	117.38
437.392	119.38
437.614	111.38
437.835	115.38
438.057	123.38
438.278	122.38
438.5	118.38
438.721	113.38
438.943	121.38
439.165	111.38
439.386	135.38
439.608	129.38
439.829	121.38
440.05	114.38
440.272	102.38
440.493	115.38
440.715	124.38
440.936	128.38
441.158	133.38
441.379	123.38
441.6	129.38
441.822	107.38
442.043	137.38
442.264	131.38
442.486	130.38
442.707	106.38
442.928	116.38
443.149	114.38
443.371	130.38
443.592	129.38
443.813	119.38
444.034	119.38
444.255	131.38
444.476	133.38
444.698	131.38
444.919	119.38
445.14	270.38
445.361	183.38
445.582	129.38
445.803	123.38
446.024	122.38
446.245	128.38
446.466	128.38
446.687	129.38
446.908	133.38
447.129	130.38
447.35	117.38
447.571	125.38
447.792	134.38
448.013	125.38
448.234	103.38
448.455	133.38
448.675	120.38
448.896	124.38
449.117	124.38
449.338	108.38
449.559	107.38
449.779	113.38
450	125.38
450.221	122.38
450.442	119.38
450.662	124.38
450.883	111.38
451.104	129.38
451.324	110.38
451.545	106.38
451.766	114.38
451.986	124.38
452.207	117.38
452.428	109.38
452.648	118.38
452.869	103.38
453.089	108.38
453.31	105.38
453.53	116.38
453.751	108.38
453.971	121.38
454.192	119.38
454.412	110.38
454.633	113.38
454.853	106.38
455.073	95.38
455.294	104.38
455.514	107.38
455.734	100.38
455.955	119.38
456.175	115.38
456.395	94.38
456.616	111.38
456.836	107.38
457.056	102.38
457.276	108.38
457.497	109.38
457.717	107.38
457.937	123.38
458.157	104.38
458.377	111.38
458.598	102.38
458.818	95.38
459.038	92.38
459.258	93.38
459.478	96.38
459.698	125.38
459.918	123.38
460.138	124.38
460.358	134.38
460.578	124.38
460.798	123.38
461.018	126.38
461.238	126.38
461.458	118.38
461.678	116.38
461.898	117.38
462.118	129.38
462.338	127.38
462.558	121.38
462.777	117.38
462.997	136.38
463.217	124.38
463.437	136.38
463.657	120.38
463.876	125.38
464.096	129.38
464.316	124.38
464.536	138.38
464.755	137.38
464.975	127.38
465.195	114.38
465.414	127.38
465.634	137.38
465.854	127.38
466.073	106.38
466.293	139.38
466.512	118.38
466.732	118.38
466.951	114.38
467.171	123.38
467.391	124.38
467.61	117.38
467.829	129.38
468.049	129.38
468.268	116.38
468.488	121.38
468.707	125.38
468.927	127.38
469.146	119.38
469.365	110.38
469.585	128.38
469.804	135.38
470.023	131.38
470.243	122.38
470.462	123.38
470.681	127.38
470.901	140.38
471.12	126.38
471.339	125.38
471.558	107.38
471.777	109.38
471.997	104.38
472.216	120.38
472.435	111.38
472.654	112.38
472.873	103.38
473.092	112.38
473.311	121.38
473.53	112.38
473.749	121.38
473.968	125.38
474.187	117.38
474.406	117.38
474.625	111.38
474.844	125.38
475.063	127.38
475.282	122.38
475.501	123.38
475.72	125.38
475.939	122.38
476.158	106.38
476.377	133.38
476.596	118.38
476.814	109.38
477.033	107.38
477.252	118.38
477.471	113.38
477.69	134.38
477.908	129.38
478.127	117.38
478.346	135.38
478.564	118.38
478.783	137.38
479.002	131.38
479.22	132.38
479.439	147.38
479.658	109.38
479.876	121.38
480.095	125.38
480.313	129.38
480.532	123.38
480.751	127.38
480.969	113.38
481.188	117.38
481.406	136.38
481.624	118.38
481.843	115.38
482.061	118.38
482.28	129.38
482.498	129.38
482.717	126.38
482.935	131.38
483.153	135.38
483.372	140.38
483.59	124.38
483.808	133.38
484.027	132.38
484.245	119.38
484.463	111.38
484.681	135.38
484.9	127.38
485.118	125.38
485.336	111.38
485.554	131.38
485.772	113.38
485.99	111.38
486.209	123.38
486.427	124.38
486.645	138.38
486.863	127.38
487.081	138.38
487.299	130.38
487.517	134.38
487.735	129.38
487.953	142.38
488.171	149.38
488.389	145.38
488.607	150.38
488.825	138.38
489.043	146.38
489.261	136.38
489.479	144.38
489.696	131.38
489.914	133.38
490.132	122.38
490.35	149.38
490.568	134.38
490.786	149.38
491.003	150.38
491.221	155.38
491.439	160.38
491.657	147.38
491.874	167.38
492.092	164.38
492.31	163.38
492.527	151.38
492.745	167.38
492.963	154.38
493.18	150.38
493.398	164.38
493.615	164.38
493.833	154.38
494.05	149.38
494.268	154.38
494.485	164.38
494.703	151.38
494.92	166.38
495.138	158.38
495.355	159.38
495.573	154.38
495.79	147.38
496.008	155.38
496.225	150.38
496.442	155.38
496.66	153.38
496.877	147.38
497.094	152.38
497.312	155.38
497.529	155.38
497.746	156.38
497.963	154.38
498.181	161.38
498.398	152.38
498.615	137.38
498.832	143.38
499.049	162.38
499.267	158.38
499.484	163.38
499.701	189.38
499.918	201.38
500.135	216.38
500.352	220.38
500.569	233.38
500.786	242.38
501.003	229.38
501.22	188.38
501.437	188.38
501.654	203.38
501.871	179.38
502.088	147.38
502.305	169.38
502.522	161.38
502.739	145.38
502.956	143.38
503.172	131.38
503.389	134.38
503.606	148.38
503.823	139.38
504.04	133.38
504.256	139.38
504.473	147.38
504.69	145.38
504.907	149.38
505.123	142.38
505.34	142.38
505.557	124.38
505.773	143.38
505.99	120.38
506.207	139.38
506.423	127.38
506.64	127.38
506.856	141.38
507.073	141.38
507.289	127.38
507.506	125.38
507.722	125.38
507.939	122.38
508.155	129.38
508.372	133.38
508.588	119.38
508.805	122.38
509.021	126.38
509.238	137.38
509.454	119.38
509.67	129.38
509.887	118.38
510.103	124.38
510.319	125.38
510.536	120.38
510.752	116.38
510.968	115.38
511.184	117.38
511.401	114.38
511.617	120.38
511.833	104.38
512.049	115.38
512.265	125.38
512.481	125.38
512.698	104.38
512.914	115.38
513.13	114.38
513.346	119.38
513.562	129.38
513.778	111.38
513.994	103.38
514.21	116.38
514.426	113.38
514.642	104.38
514.858	143.38
515.074	115.38
515.29	117.38
515.506	109.38
515.721	99.38
515.937	123.38
516.153	130.38
516.369	116.38
516.585	120.38
516.801	126.38
517.016	138.38
517.232	131.38
517.448	135.38
517.664	128.38
517.879	155.38
518.095	145.38
518.311	131.38
518.527	116.38
518.742	129.38
518.958	118.38
519.173	125.38
519.389	132.38
519.605	129.38
519.82	119.38
520.036	124.38
520.251	105.38
520.467	117.38
520.682	117.38
520.898	114.38
521.113	122.38
521.329	125.38
521.544	125.38
521.76	114.38
521.975	125.38
522.19	129.38
522.406	120.38
522.621	128.38
522.836	109.38
523.052	121.38
523.267	113.38
523.482	119.38
523.698	125.38
523.913	123.38
524.128	129.38
524.343	131.38
524.559	124.38
524.774	121.38
524.989	116.38
525.204	112.38
525.419	124.38
525.634	117.38
525.849	124.38
526.064	132.38
526.28	128.38
526.495	113.38
526.71	86.38
526.925	107.38
527.14	115.38
527.355	118.38
527.57	116.38
527.785	111.38
527.999	110.38
528.214	119.38
528.429	105.38
528.644	120.38
528.859	119.38
529.074	137.38
529.289	119.38
529.503	130.38
529.718	139.38
529.933	109.38
530.148	105.38
530.363	121.38
530.577	130.38
530.792	125.38
531.007	102.38
531.221	117.38
531.436	102.38
531.651	127.38
531.865	108.38
532.08	122.38
532.295	113.38
532.509	100.38
532.724	102.38
532.938	111.38
533.153	119.38
533.367	120.38
533.582	123.38
533.796	109.38
534.011	102.38
534.225	117.38
534.44	125.38
534.654	116.38
534.868	110.38
535.083	119.38
535.297	125.38
535.511	125.38
535.726	125.38
535.94	108.38
536.154	97.38
536.369	104.38
536.583	111.38
536.797	113.38
537.011	117.38
537.225	118.38
537.44	113.38
537.654	105.38
537.868	110.38
538.082	114.38
538.296	129.38
538.51	124.38
538.724	106.38
538.938	123.38
539.153	127.38
539.367	124.38
539.581	104.38
539.795	114.38
540.009	127.38
540.222	109.38
540.436	119.38
540.65	126.38
540.864	117.38
541.078	126.38
541.292	149.38
541.506	141.38
541.72	126.38
541.934	138.38
542.147	160.38
542.361	139.38
542.575	149.38
542.789	129.38
543.002	124.38
543.216	115.38
543.43	119.38
543.644	124.38
543.857	129.38
544.071	142.38
544.285	124.38
544.498	130.38
544.712	137.38
544.925	145.38
545.139	145.38
545.352	128.38
545.566	128.38
545.779	140.38
545.993	149.38
546.206	149.38
546.42	138.38
546.633	148.38
546.847	138.38
547.06	125.38
547.274	139.38
547.487	156.38
547.7	140.38
547.914	137.38
548.127	133.38
548.34	124.38
548.554	130.38
548.767	137.38
548.98	142.38
549.193	128.38
549.407	141.38
549.62	133.38
549.833	150.38
550.046	128.38
550.259	126.38
550.473	139.38
550.686	130.38
550.899	134.38
551.112	136.38
551.325	130.38
551.538	120.38
551.751	119.38
551.964	107.38
552.177	126.38
552.39	127.38
552.603	133.38
552.816	124.38
553.029	134.38
553.242	140.38
553.455	146.38
553.667	129.38
553.88	135.38
554.093	131.38
554.306	144.38
554.519	139.38
554.732	135.38
554.944	133.38
555.157	129.38
555.37	126.38
555.583	124.38
555.795	124.38
556.008	126.38
556.221	136.38
556.433	118.38
556.646	116.38
556.859	129.38
557.071	122.38
557.284	136.38
557.496	135.38
557.709	123.38
557.921	130.38
558.134	119.38
558.346	141.38
558.559	122.38
558.771	117.38
558.984	125.38
559.196	124.38
559.409	118.38
559.621	122.38
559.833	115.38
560.046	119.38
560.258	122.38
560.47	113.38
560.683	125.38
560.895	125.38
561.107	101.38
561.32	119.38
561.532	92.38
561.744	102.38
561.956	124.38
562.168	121.38
562.381	120.38
562.593	116.38
562.805	121.38
563.017	121.38
563.229	118.38
563.441	122.38
563.653	116.38
563.865	101.38
564.077	117.38
564.289	128.38
564.501	117.38
564.713	106.38
564.925	124.38
565.137	99.38
565.349	115.38
565.561	107.38
565.773	125.38
565.985	124.38
566.197	122.38
566.408	127.38
566.62	120.38
566.832	134.38
567.044	128.38
567.255	123.38
567.467	108.38
567.679	125.38
567.891	125.38
568.102	140.38
568.314	131.38
568.526	123.38
568.737	129.38
568.949	122.38
569.161	99.38
569.372	112.38
569.584	106.38
569.795	127.38
570.007	101.38
570.218	96.38
570.43	119.38
570.641	105.38
570.853	93.38
571.064	109.38
571.276	114.38
571.487	99.38
571.698	100.38
571.91	108.38
572.121	108.38
572.333	107.38
572.544	114.38
572.755	85.38
572.966	105.38
573.178	102.38
573.389	91.38
573.6	99.38
573.811	107.38
574.023	95.38
574.234	86.38
574.445	98.38
574.656	95.38
574.867	101.38
575.078	103.38
575.289	85.38
575.501	93.38
575.712	105.38
575.923	106.38
576.134	90.38
576.345	88.38
576.556	112.38
576.767	105.38
576.978	106.38
577.188	107.38
577.399	109.38
577.61	88.38
577.821	90.38
578.032	91.38
578.243	103.38
578.454	97.38
578.665	92.38
578.875	104.38
579.086	91.38
579.297	97.38
579.508	93.38
579.718	95.38
579.929	87.38
580.14	118.38
580.35	84.38
580.561	102.38
580.772	85.38
580.982	100.38
581.193	102.38
581.403	108.38
581.614	107.38
581.825	89.38
582.035	90.38
582.246	113.38
582.456	95.38
582.667	103.38
582.877	111.38
583.087	111.38
583.298	88.38
583.508	98.38
583.719	97.38
583.929	101.38
584.139	115.38
584.35	102.38
584.56	100.38
584.77	86.38
584.981	96.38
585.191	107.38
585.401	107.38
585.611	109.38
585.821	90.38
586.032	107.38
586.242	76.38
586.452	113.38
586.662	96.38
586.872	89.38
587.082	90.38
587.292	103.38
587.502	110.38
587.713	92.38
587.923	100.38
588.133	89.38
588.343	85.38
588.553	92.38
588.762	96.38
588.972	85.38
589.182	92.38
589.392	103.38
589.602	87.38
589.812	93.38
590.022	98.38
590.232	98.38
590.441	91.38
590.651	92.38
590.861	100.38
591.071	86.38
591.281	104.38
591.49	94.38
591.7	76.38
591.91	101.38
592.119	99.38
592.329	89.38
592.539	84.38
592.748	103.38
592.958	84.38
593.167	100.38
593.377	106.38
593.587	100.38
593.796	108.38
594.006	100.38
594.215	87.38
594.424	91.38
594.634	106.38
594.843	97.38
595.053	108.38
595.262	90.38
595.472	98.38
595.681	97.38
595.89	102.38
596.1	98.38
596.309	86.38
596.518	90.38
596.727	92.38
596.937	105.38
597.146	87.38
597.355	89.38
597.564	98.38
597.774	100.38
597.983	92.38
598.192	87.38
598.401	95.38
598.61	106.38
598.819	82.38
599.028	100.38
599.237	100.38
599.446	86.38
599.655	97.38
599.864	90.38
600.073	95.38
600.282	98.38
600.491	99.38
600.7	92.38
600.909	114.38
601.118	94.38
601.327	106.38
601.536	94.38
601.745	94.38
601.953	90.38
602.162	90.38
602.371	99.38
602.58	97.38
602.789	88.38
602.997	96.38
603.206	99.38
603.415	95.38
603.623	95.38
603.832	90.38
604.041	99.38
604.249	94.38
604.458	102.38
604.666	99.38
604.875	85.38
605.084	85.38
605.292	91.38
605.501	100.38
605.709	96.38
605.918	103.38
606.126	112.38
606.334	99.38
606.543	103.38
606.751	95.38
606.96	98.38
607.168	95.38
607.376	105.38
607.585	98.38
607.793	89.38
608.001	89.38
608.21	99.38
608.418	104.38
608.626	101.38
608.834	113.38
609.043	88.38
609.251	94.38
609.459	85.38
609.667	92.38
609.875	95.38
610.083	102.38
610.291	96.38
610.499	99.38
610.707	94.38
610.916	84.38
611.124	100.38
611.332	97.38
611.54	98.38
611.748	106.38
611.955	95.38
612.163	92.38
612.371	95.38
612.579	82.38
612.787	109.38
612.995	98.38
613.203	101.38
613.411	89.38
613.618	99.38
613.826	93.38
614.034	92.38
614.242	89.38
614.449	110.38
614.657	96.38
614.865	97.38
615.072	102.38
615.28	86.38
615.488	104.38
615.695	79.38
615.903	104.38
616.111	86.38
616.318	109.38
616.526	100.38
616.733	92.38
616.941	99.38
617.148	117.38
617.356	108.38
617.563	109.38
617.771	87.38
617.978	98.38
618.185	109.38
618.393	102.38
618.6	85.38
618.807	108.38
619.015	102.38
619.222	94.38
619.429	103.38
619.637	111.38
619.844	98.38
620.051	89.38
620.258	97.38
620.466	82.38
620.673	99.38
620.88	81.38
621.087	101.38
621.294	86.38
621.501	107.38
621.708	102.38
621.915	93.38
622.122	107.38
622.329	94.38
622.536	97.38
622.743	86.38
622.95	93.38
623.157	82.38
623.364	94.38
623.571	96.38
623.778	95.38
623.985	85.38
624.192	100.38
624.399	86.38
624.606	102.38
624.812	77.38
625.019	97.38
625.226	95.38
625.433	97.38
625.639	89.38
625.846	100.38
626.053	72.38
626.259	91.38
626.466	96.38
626.673	97.38
626.879	86.38
627.086	98.38
627.293	79.38
627.499	98.38
627.706	102.38
627.912	93.38
628.119	86.38
628.325	103.38
628.532	90.38
628.738	95.38
628.945	92.38
629.151	98.38
629.357	85.38
629.564	88.38
629.77	97.38
629.976	86.38
630.183	96.38
630.389	99.38
630.595	83.38
630.802	100.38
631.008	95.38
631.214	77.38
631.42	97.38
631.627	85.38
631.833	72.38
632.039	104.38
632.245	93.38
632.451	95.38
632.657	88.38
632.863	88.38
633.069	99.38
633.275	95.38
633.481	99.38
633.688	84.38
633.893	81.38
634.099	98.38
634.305	98.38
634.511	84.38
634.717	103.38
634.923	98.38
635.129	101.38
635.335	90.38
635.541	88.38
635.747	81.38
635.952	95.38
636.158	98.38
636.364	99.38
636.57	102.38
636.775	91.38
636.981	95.38
637.187	84.38
637.392	95.38
637.598	101.38
637.804	97.38
638.009	88.38
638.215	97.38
638.421	94.38
638.626	85.38
638.832	91.38
639.037	110.38
639.243	113.38
639.448	87.38
639.654	101.38
639.859	98.38
640.065	87.38
640.27	99.38
640.475	84.38
640.681	77.38
640.886	89.38
641.091	78.38
641.297	92.38
641.502	93.38
641.707	92.38
641.913	101.38
642.118	88.38
642.323	89.38
642.528	77.38
642.733	81.38
642.939	98.38
643.144	73.38
643.349	95.38
643.554	81.38
643.759	96.38
643.964	93.38
644.169	103.38
644.374	83.38
644.579	93.38
644.784	97.38
644.989	93.38
645.194	91.38
645.399	98.38
645.604	87.38
645.809	98.38
646.014	88.38
646.219	98.38
646.423	93.38
646.628	101.38
646.833	92.38
647.038	100.38
647.243	105.38
647.447	97.38
647.652	92.38
647.857	85.38
648.062	90.38
648.266	105.38
648.471	97.38
648.676	92.38
648.88	97.38
649.085	99.38
649.289	83.38
649.494	80.38
649.698	99.38
649.903	86.38
650.107	95.38
650.312	77.38
650.516	90.38
650.721	92.38
650.925	92.38
651.13	94.38
651.334	100.38
651.539	79.38
651.743	98.38
651.947	88.38
652.152	88.38
652.356	91.38
652.56	90.38
652.764	92.38
652.969	85.38
653.173	79.38
653.377	84.38
653.581	89.38
653.785	84.38
653.99	80.38
654.194	93.38
654.398	76.38
654.602	86.38
654.806	85.38
655.01	75.38
655.214	95.38
655.418	97.38
655.622	92.38
655.826	94.38
656.03	77.38
656.234	95.38
656.438	86.38
656.642	90.38
656.846	91.38
657.049	86.38
657.253	87.38
657.457	89.38
657.661	73.38
657.865	80.38
658.068	84.38
658.272	81.38
658.476	68.38
658.68	76.38
658.883	90.38
659.087	73.38
659.291	75.38
659.494	86.38
659.698	84.38
659.901	87.38
660.105	95.38
660.309	87.38
660.512	84.38
660.716	106.38
660.919	88.38
661.123	70.38
661.326	83.38
661.53	79.38
661.733	87.38
661.936	89.38
662.14	81.38
662.343	81.38
662.546	90.38
662.75	95.38
662.953	77.38
663.156	75.38
663.36	69.38
663.563	83.38
663.766	81.38
663.969	81.38
664.173	89.38
664.376	91.38
664.579	81.38
664.782	73.38
664.985	75.38
665.188	90.38
665.391	77.38
665.594	75.38
665.797	87.38
666	93.38
666.203	83.38
666.406	78.38
666.609	95.38
666.812	86.38
667.015	70.38
667.218	78.38
667.421	88.38
667.624	87.38
667.827	89.38
668.03	65.38
668.232	71.38
668.435	85.38
668.638	67.38
668.841	91.38
669.043	71.38
669.246	84.38
669.449	79.38
669.651	79.38
669.854	84.38
670.057	85.38
670.259	78.38
670.462	92.38
670.665	76.38
670.867	98.38
671.07	102.38
671.272	83.38
671.475	88.38
671.677	82.38
671.88	74.38
672.082	85.38
672.284	93.38
672.487	85.38
672.689	82.38
672.892	76.38
