Data from StandardFe(NO3)3.TAE.3%Agarose.FlatLispGreen.Lamp.Energy10.07252019_HRD10591_11-55-29-441.txt Node
Date: Thu Jul 25 11:55:29 EDT 2019
User: cochatt
Spectrometer: HR+D1059
Trigger mode: 1
Integration Time (sec): 1.000000E-1
Scans to average: 1
Electric dark correction enabled: true
Nonlinearity correction enabled: false
Boxcar width: 0
XAxis mode: Wavelengths
Number of Pixels in Spectrum: 2048
>>>>>Begin Spectral Data<<<<<
223.165	-23.31
223.4	-23.31
223.635	-23.31
223.869	-30.31
224.104	-16.31
224.338	-14.31
224.573	-17.31
224.808	-5.31
225.042	-16.31
225.277	3.69
225.511	-5.31
225.746	8.69
225.98	12.69
226.215	13.69
226.449	21.69
226.683	25.69
226.918	19.69
227.152	22.69
227.387	39.69
227.621	30.69
227.856	48.69
228.09	38.69
228.324	54.69
228.559	45.69
228.793	60.69
229.027	65.69
229.262	70.69
229.496	63.69
229.73	77.69
229.964	63.69
230.199	70.69
230.433	67.69
230.667	69.69
230.901	81.69
231.136	80.69
231.37	67.69
231.604	70.69
231.838	83.69
232.072	74.69
232.306	64.69
232.541	79.69
232.775	83.69
233.009	72.69
233.243	79.69
233.477	77.69
233.711	81.69
233.945	66.69
234.179	77.69
234.413	79.69
234.647	70.69
234.881	79.69
235.115	85.69
235.349	72.69
235.583	87.69
235.817	77.69
236.051	82.69
236.285	68.69
236.519	73.69
236.753	84.69
236.987	69.69
237.221	85.69
237.455	69.69
237.689	75.69
237.922	77.69
238.156	61.69
238.39	84.69
238.624	72.69
238.858	66.69
239.091	79.69
239.325	82.69
239.559	79.69
239.793	77.69
240.027	84.69
240.26	83.69
240.494	78.69
240.728	67.69
240.961	71.69
241.195	63.69
241.429	81.69
241.662	74.69
241.896	66.69
242.13	58.69
242.363	82.69
242.597	78.69
242.83	66.69
243.064	68.69
243.298	67.69
243.531	73.69
243.765	81.69
243.998	72.69
244.232	72.69
244.465	78.69
244.699	65.69
244.932	82.69
245.166	74.69
245.399	71.69
245.633	68.69
245.866	63.69
246.099	58.69
246.333	76.69
246.566	82.69
246.8	72.69
247.033	89.69
247.266	84.69
247.5	68.69
247.733	75.69
247.966	86.69
248.2	77.69
248.433	59.69
248.666	70.69
248.899	82.69
249.133	82.69
249.366	91.69
249.599	75.69
249.832	75.69
250.066	87.69
250.299	84.69
250.532	65.69
250.765	71.69
250.998	76.69
251.231	63.69
251.465	86.69
251.698	74.69
251.931	68.69
252.164	84.69
252.397	78.69
252.63	91.69
252.863	79.69
253.096	65.69
253.329	71.69
253.562	80.69
253.795	74.69
254.028	79.69
254.261	73.69
254.494	75.69
254.727	80.69
254.96	72.69
255.193	81.69
255.426	81.69
255.659	87.69
255.892	85.69
256.124	73.69
256.357	63.69
256.59	81.69
256.823	85.69
257.056	77.69
257.289	72.69
257.521	86.69
257.754	77.69
257.987	80.69
258.22	84.69
258.452	67.69
258.685	63.69
258.918	71.69
259.151	67.69
259.383	80.69
259.616	79.69
259.849	80.69
260.081	89.69
260.314	94.69
260.547	80.69
260.779	87.69
261.012	81.69
261.244	78.69
261.477	81.69
261.71	67.69
261.942	73.69
262.175	89.69
262.407	62.69
262.64	72.69
262.872	84.69
263.105	87.69
263.337	89.69
263.57	83.69
263.802	85.69
264.035	75.69
264.267	73.69
264.499	67.69
264.732	82.69
264.964	87.69
265.197	77.69
265.429	72.69
265.661	67.69
265.894	88.69
266.126	84.69
266.358	77.69
266.591	81.69
266.823	81.69
267.055	79.69
267.287	81.69
267.52	86.69
267.752	86.69
267.984	79.69
268.216	98.69
268.448	84.69
268.681	80.69
268.913	92.69
269.145	87.69
269.377	72.69
269.609	78.69
269.841	79.69
270.073	83.69
270.306	79.69
270.538	80.69
270.77	92.69
271.002	85.69
271.234	74.69
271.466	69.69
271.698	73.69
271.93	89.69
272.162	83.69
272.394	76.69
272.626	73.69
272.858	85.69
273.09	76.69
273.322	82.69
273.553	75.69
273.785	76.69
274.017	81.69
274.249	83.69
274.481	76.69
274.713	78.69
274.945	79.69
275.176	84.69
275.408	78.69
275.64	73.69
275.872	76.69
276.104	93.69
276.335	97.69
276.567	78.69
276.799	74.69
277.031	74.69
277.262	91.69
277.494	89.69
277.726	69.69
277.957	69.69
278.189	84.69
278.421	77.69
278.652	83.69
278.884	70.69
279.115	85.69
279.347	89.69
279.579	65.69
279.81	74.69
280.042	77.69
280.273	74.69
280.505	86.69
280.736	81.69
280.968	83.69
281.199	70.69
281.431	88.69
281.662	77.69
281.894	72.69
282.125	70.69
282.356	86.69
282.588	94.69
282.819	89.69
283.051	92.69
283.282	82.69
283.513	85.69
283.745	89.69
283.976	77.69
284.207	73.69
284.439	86.69
284.67	92.69
284.901	82.69
285.132	74.69
285.364	89.69
285.595	68.69
285.826	83.69
286.057	88.69
286.288	73.69
286.52	90.69
286.751	90.69
286.982	77.69
287.213	77.69
287.444	72.69
287.675	82.69
287.906	85.69
288.138	83.69
288.369	85.69
288.6	81.69
288.831	71.69
289.062	86.69
289.293	73.69
289.524	74.69
289.755	85.69
289.986	83.69
290.217	90.69
290.448	72.69
290.679	81.69
290.91	80.69
291.141	84.69
291.371	88.69
291.602	77.69
291.833	82.69
292.064	90.69
292.295	75.69
292.526	77.69
292.757	94.69
292.987	94.69
293.218	68.69
293.449	94.69
293.68	89.69
293.91	74.69
294.141	72.69
294.372	76.69
294.603	68.69
294.833	95.69
295.064	81.69
295.295	75.69
295.525	80.69
295.756	87.69
295.987	77.69
296.217	85.69
296.448	81.69
296.679	86.69
296.909	77.69
297.14	81.69
297.37	75.69
297.601	77.69
297.831	86.69
298.062	77.69
298.292	74.69
298.523	75.69
298.753	79.69
298.984	93.69
299.214	75.69
299.445	89.69
299.675	74.69
299.905	91.69
300.136	85.69
300.366	86.69
300.597	89.69
300.827	67.69
301.057	80.69
301.288	78.69
301.518	73.69
301.748	75.69
301.979	83.69
302.209	74.69
302.439	67.69
302.669	78.69
302.9	83.69
303.13	87.69
303.36	83.69
303.59	79.69
303.82	72.69
304.051	85.69
304.281	87.69
304.511	72.69
304.741	79.69
304.971	95.69
305.201	79.69
305.431	83.69
305.661	62.69
305.891	97.69
306.121	82.69
306.352	67.69
306.582	87.69
306.812	79.69
307.042	91.69
307.272	89.69
307.502	84.69
307.731	90.69
307.961	89.69
308.191	75.69
308.421	72.69
308.651	89.69
308.881	87.69
309.111	85.69
309.341	84.69
309.571	85.69
309.8	66.69
310.03	78.69
310.26	86.69
310.49	90.69
310.72	89.69
310.949	91.69
311.179	87.69
311.409	89.69
311.639	81.69
311.868	90.69
312.098	79.69
312.328	85.69
312.557	75.69
312.787	79.69
313.017	85.69
313.246	84.69
313.476	75.69
313.706	76.69
313.935	72.69
314.165	75.69
314.394	88.69
314.624	88.69
314.853	80.69
315.083	93.69
315.312	90.69
315.542	80.69
315.771	75.69
316.001	82.69
316.23	98.69
316.46	99.69
316.689	91.69
316.919	91.69
317.148	75.69
317.377	85.69
317.607	81.69
317.836	81.69
318.065	81.69
318.295	88.69
318.524	91.69
318.753	90.69
318.983	62.69
319.212	94.69
319.441	80.69
319.67	85.69
319.9	89.69
320.129	80.69
320.358	82.69
320.587	85.69
320.816	95.69
321.046	87.69
321.275	90.69
321.504	71.69
321.733	67.69
321.962	91.69
322.191	78.69
322.42	75.69
322.649	78.69
322.878	96.69
323.108	81.69
323.337	93.69
323.566	83.69
323.795	87.69
324.024	72.69
324.253	85.69
324.482	86.69
324.71	74.69
324.939	95.69
325.168	67.69
325.397	89.69
325.626	84.69
325.855	79.69
326.084	83.69
326.313	88.69
326.542	88.69
326.77	74.69
326.999	81.69
327.228	89.69
327.457	78.69
327.686	89.69
327.914	83.69
328.143	78.69
328.372	85.69
328.6	80.69
328.829	95.69
329.058	82.69
329.287	75.69
329.515	76.69
329.744	97.69
329.972	82.69
330.201	85.69
330.43	80.69
330.658	101.69
330.887	86.69
331.115	86.69
331.344	80.69
331.572	84.69
331.801	89.69
332.03	80.69
332.258	86.69
332.486	85.69
332.715	83.69
332.943	99.69
333.172	88.69
333.4	90.69
333.629	75.69
333.857	98.69
334.085	73.69
334.314	88.69
334.542	97.69
334.771	82.69
334.999	87.69
335.227	85.69
335.455	83.69
335.684	98.69
335.912	87.69
336.14	90.69
336.369	68.69
336.597	90.69
336.825	81.69
337.053	90.69
337.281	95.69
337.51	76.69
337.738	94.69
337.966	94.69
338.194	74.69
338.422	77.69
338.65	81.69
338.878	89.69
339.106	97.69
339.334	82.69
339.562	78.69
339.79	72.69
340.018	83.69
340.246	75.69
340.474	89.69
340.702	80.69
340.93	79.69
341.158	70.69
341.386	83.69
341.614	85.69
341.842	84.69
342.07	89.69
342.298	78.69
342.526	71.69
342.754	88.69
342.981	85.69
343.209	82.69
343.437	86.69
343.665	86.69
343.893	74.69
344.12	82.69
344.348	74.69
344.576	86.69
344.804	76.69
345.031	90.69
345.259	85.69
345.487	81.69
345.714	75.69
345.942	82.69
346.17	89.69
346.397	95.69
346.625	81.69
346.853	70.69
347.08	85.69
347.308	81.69
347.535	101.69
347.763	82.69
347.99	87.69
348.218	75.69
348.445	74.69
348.673	90.69
348.9	82.69
349.128	85.69
349.355	78.69
349.583	79.69
349.81	88.69
350.037	94.69
350.265	72.69
350.492	91.69
350.72	75.69
350.947	73.69
351.174	88.69
351.402	81.69
351.629	89.69
351.856	87.69
352.083	90.69
352.311	86.69
352.538	75.69
352.765	100.69
352.992	82.69
353.22	80.69
353.447	88.69
353.674	90.69
353.901	87.69
354.128	80.69
354.355	83.69
354.583	89.69
354.81	90.69
355.037	71.69
355.264	79.69
355.491	96.69
355.718	80.69
355.945	92.69
356.172	82.69
356.399	93.69
356.626	88.69
356.853	83.69
357.08	91.69
357.307	98.69
357.534	61.69
357.761	82.69
357.988	102.69
358.215	83.69
358.441	90.69
358.668	86.69
358.895	80.69
359.122	94.69
359.349	86.69
359.576	92.69
359.802	77.69
360.029	79.69
360.256	94.69
360.483	94.69
360.709	93.69
360.936	93.69
361.163	90.69
361.39	88.69
361.616	72.69
361.843	82.69
362.07	90.69
362.296	69.69
362.523	84.69
362.749	102.69
362.976	88.69
363.203	97.69
363.429	82.69
363.656	83.69
363.882	81.69
364.109	84.69
364.335	81.69
364.562	73.69
364.788	95.69
365.015	84.69
365.241	88.69
365.468	99.69
365.694	81.69
365.92	82.69
366.147	70.69
366.373	67.69
366.599	81.69
366.826	89.69
367.052	83.69
367.278	85.69
367.505	87.69
367.731	87.69
367.957	101.69
368.184	97.69
368.41	94.69
368.636	95.69
368.862	81.69
369.089	94.69
369.315	84.69
369.541	82.69
369.767	80.69
369.993	90.69
370.219	73.69
370.445	86.69
370.672	91.69
370.898	98.69
371.124	82.69
371.35	81.69
371.576	81.69
371.802	61.69
372.028	87.69
372.254	95.69
372.48	83.69
372.706	83.69
372.932	68.69
373.158	95.69
373.384	93.69
373.61	76.69
373.835	87.69
374.061	83.69
374.287	82.69
374.513	78.69
374.739	81.69
374.965	80.69
375.191	95.69
375.416	95.69
375.642	83.69
375.868	100.69
376.094	99.69
376.319	84.69
376.545	87.69
376.771	98.69
376.997	80.69
377.222	89.69
377.448	81.69
377.674	83.69
377.899	88.69
378.125	87.69
378.35	82.69
378.576	85.69
378.802	84.69
379.027	90.69
379.253	93.69
379.478	89.69
379.704	86.69
379.929	89.69
380.155	85.69
380.38	85.69
380.606	100.69
380.831	93.69
381.057	84.69
381.282	89.69
381.507	91.69
381.733	82.69
381.958	94.69
382.184	82.69
382.409	90.69
382.634	93.69
382.86	93.69
383.085	94.69
383.31	97.69
383.535	94.69
383.761	85.69
383.986	110.69
384.211	93.69
384.436	89.69
384.662	81.69
384.887	110.69
385.112	91.69
385.337	77.69
385.562	98.69
385.787	96.69
386.013	104.69
386.238	89.69
386.463	87.69
386.688	103.69
386.913	91.69
387.138	98.69
387.363	102.69
387.588	87.69
387.813	91.69
388.038	91.69
388.263	90.69
388.488	100.69
388.713	85.69
388.938	99.69
389.163	83.69
389.387	90.69
389.612	102.69
389.837	92.69
390.062	107.69
390.287	111.69
390.512	97.69
390.736	90.69
390.961	98.69
391.186	99.69
391.411	84.69
391.636	83.69
391.86	84.69
392.085	102.69
392.31	89.69
392.534	90.69
392.759	84.69
392.984	89.69
393.208	102.69
393.433	95.69
393.658	99.69
393.882	103.69
394.107	99.69
394.331	97.69
394.556	97.69
394.78	110.69
395.005	96.69
395.229	104.69
395.454	102.69
395.678	104.69
395.903	94.69
396.127	98.69
396.352	84.69
396.576	99.69
396.801	105.69
397.025	103.69
397.249	96.69
397.474	95.69
397.698	113.69
397.922	99.69
398.147	103.69
398.371	94.69
398.595	113.69
398.82	105.69
399.044	106.69
399.268	99.69
399.492	114.69
399.717	117.69
399.941	125.69
400.165	115.69
400.389	117.69
400.613	117.69
400.837	96.69
401.062	103.69
401.286	100.69
401.51	89.69
401.734	103.69
401.958	102.69
402.182	93.69
402.406	95.69
402.63	109.69
402.854	111.69
403.078	105.69
403.302	102.69
403.526	103.69
403.75	115.69
403.974	106.69
404.198	95.69
404.422	118.69
404.645	115.69
404.869	106.69
405.093	102.69
405.317	91.69
405.541	121.69
405.765	120.69
405.988	118.69
406.212	111.69
406.436	114.69
406.66	122.69
406.883	99.69
407.107	125.69
407.331	113.69
407.555	115.69
407.778	94.69
408.002	106.69
408.226	104.69
408.449	113.69
408.673	113.69
408.896	114.69
409.12	104.69
409.344	114.69
409.567	105.69
409.791	92.69
410.014	104.69
410.238	109.69
410.461	117.69
410.685	93.69
410.908	117.69
411.132	133.69
411.355	102.69
411.578	115.69
411.802	109.69
412.025	97.69
412.249	106.69
412.472	95.69
412.695	111.69
412.919	117.69
413.142	114.69
413.365	108.69
413.589	85.69
413.812	109.69
414.035	98.69
414.258	110.69
414.482	93.69
414.705	98.69
414.928	100.69
415.151	95.69
415.374	106.69
415.597	103.69
415.821	120.69
416.044	115.69
416.267	102.69
416.49	113.69
416.713	106.69
416.936	117.69
417.159	120.69
417.382	121.69
417.605	99.69
417.828	118.69
418.051	106.69
418.274	103.69
418.497	101.69
418.72	106.69
418.943	108.69
419.166	111.69
419.389	115.69
419.611	113.69
419.834	114.69
420.057	108.69
420.28	121.69
420.503	121.69
420.726	107.69
420.948	104.69
421.171	109.69
421.394	110.69
421.617	118.69
421.839	122.69
422.062	114.69
422.285	111.69
422.507	106.69
422.73	104.69
422.953	101.69
423.175	113.69
423.398	121.69
423.621	111.69
423.843	120.69
424.066	123.69
424.288	107.69
424.511	140.69
424.733	121.69
424.956	111.69
425.178	113.69
425.401	105.69
425.623	101.69
425.846	115.69
426.068	121.69
426.291	116.69
426.513	115.69
426.735	110.69
426.958	110.69
427.18	105.69
427.402	113.69
427.625	112.69
427.847	104.69
428.069	117.69
428.292	116.69
428.514	115.69
428.736	129.69
428.958	117.69
429.181	117.69
429.403	107.69
429.625	112.69
429.847	103.69
430.069	127.69
430.292	125.69
430.514	98.69
430.736	105.69
430.958	115.69
431.18	115.69
431.402	107.69
431.624	98.69
431.846	112.69
432.068	115.69
432.29	107.69
432.512	83.69
432.734	116.69
432.956	97.69
433.178	123.69
433.4	117.69
433.622	125.69
433.844	127.69
434.066	99.69
434.287	116.69
434.509	100.69
434.731	101.69
434.953	110.69
435.175	107.69
435.397	123.69
435.618	112.69
435.84	116.69
436.062	111.69
436.284	113.69
436.505	105.69
436.727	127.69
436.949	115.69
437.17	118.69
437.392	118.69
437.614	107.69
437.835	108.69
438.057	109.69
438.278	102.69
438.5	117.69
438.721	107.69
438.943	95.69
439.165	105.69
439.386	115.69
439.608	118.69
439.829	108.69
440.05	111.69
440.272	120.69
440.493	114.69
440.715	115.69
440.936	116.69
441.158	120.69
441.379	119.69
441.6	114.69
441.822	123.69
442.043	119.69
442.264	130.69
442.486	119.69
442.707	114.69
442.928	110.69
443.149	115.69
443.371	123.69
443.592	121.69
443.813	100.69
444.034	131.69
444.255	123.69
444.476	111.69
444.698	121.69
444.919	129.69
445.14	260.69
445.361	184.69
445.582	129.69
445.803	113.69
446.024	119.69
446.245	121.69
446.466	106.69
446.687	115.69
446.908	113.69
447.129	122.69
447.35	127.69
447.571	106.69
447.792	119.69
448.013	113.69
448.234	105.69
448.455	129.69
448.675	101.69
448.896	101.69
449.117	111.69
449.338	118.69
449.559	102.69
449.779	120.69
450	108.69
450.221	124.69
450.442	111.69
450.662	118.69
450.883	132.69
451.104	103.69
451.324	99.69
451.545	105.69
451.766	126.69
451.986	120.69
452.207	106.69
452.428	113.69
452.648	105.69
452.869	106.69
453.089	87.69
453.31	112.69
453.53	106.69
453.751	109.69
453.971	111.69
454.192	111.69
454.412	102.69
454.633	111.69
454.853	114.69
455.073	99.69
455.294	102.69
455.514	111.69
455.734	106.69
455.955	105.69
456.175	104.69
456.395	93.69
456.616	83.69
456.836	94.69
457.056	99.69
457.276	120.69
457.497	107.69
457.717	102.69
457.937	107.69
458.157	109.69
458.377	102.69
458.598	102.69
458.818	106.69
459.038	109.69
459.258	96.69
459.478	103.69
459.698	114.69
459.918	113.69
460.138	117.69
460.358	109.69
460.578	110.69
460.798	117.69
461.018	116.69
461.238	115.69
461.458	115.69
461.678	126.69
461.898	112.69
462.118	120.69
462.338	119.69
462.558	131.69
462.777	114.69
462.997	111.69
463.217	116.69
463.437	114.69
463.657	132.69
463.876	109.69
464.096	113.69
464.316	101.69
464.536	104.69
464.755	129.69
464.975	103.69
465.195	122.69
465.414	113.69
465.634	122.69
465.854	104.69
466.073	111.69
466.293	102.69
466.512	113.69
466.732	114.69
466.951	130.69
467.171	114.69
467.391	103.69
467.61	124.69
467.829	120.69
468.049	122.69
468.268	98.69
468.488	105.69
468.707	110.69
468.927	111.69
469.146	120.69
469.365	123.69
469.585	120.69
469.804	120.69
470.023	112.69
470.243	120.69
470.462	129.69
470.681	114.69
470.901	112.69
471.12	117.69
471.339	118.69
471.558	118.69
471.777	133.69
471.997	114.69
472.216	114.69
472.435	99.69
472.654	116.69
472.873	125.69
473.092	98.69
473.311	119.69
473.53	102.69
473.749	104.69
473.968	122.69
474.187	103.69
474.406	106.69
474.625	116.69
474.844	111.69
475.063	108.69
475.282	115.69
475.501	111.69
475.72	111.69
475.939	107.69
476.158	120.69
476.377	118.69
476.596	122.69
476.814	113.69
477.033	124.69
477.252	102.69
477.471	115.69
477.69	113.69
477.908	110.69
478.127	136.69
478.346	133.69
478.564	126.69
478.783	122.69
479.002	138.69
479.22	134.69
479.439	122.69
479.658	123.69
479.876	122.69
480.095	129.69
480.313	112.69
480.532	113.69
480.751	115.69
480.969	110.69
481.188	111.69
481.406	106.69
481.624	113.69
481.843	107.69
482.061	109.69
482.28	104.69
482.498	109.69
482.717	115.69
482.935	114.69
483.153	133.69
483.372	123.69
483.59	130.69
483.808	115.69
484.027	127.69
484.245	134.69
484.463	135.69
484.681	128.69
484.9	133.69
485.118	120.69
485.336	127.69
485.554	136.69
485.772	123.69
485.99	113.69
486.209	104.69
486.427	121.69
486.645	124.69
486.863	131.69
487.081	122.69
487.299	122.69
487.517	121.69
487.735	140.69
487.953	134.69
488.171	148.69
488.389	131.69
488.607	119.69
488.825	121.69
489.043	118.69
489.261	122.69
489.479	135.69
489.696	138.69
489.914	143.69
490.132	146.69
490.35	137.69
490.568	143.69
490.786	139.69
491.003	147.69
491.221	149.69
491.439	157.69
491.657	148.69
491.874	157.69
492.092	158.69
492.31	167.69
492.527	157.69
492.745	159.69
492.963	144.69
493.18	154.69
493.398	157.69
493.615	140.69
493.833	149.69
494.05	150.69
494.268	153.69
494.485	130.69
494.703	149.69
494.92	145.69
495.138	156.69
495.355	145.69
495.573	145.69
495.79	140.69
496.008	141.69
496.225	144.69
496.442	137.69
496.66	141.69
496.877	145.69
497.094	148.69
497.312	142.69
497.529	150.69
497.746	138.69
497.963	146.69
498.181	145.69
498.398	132.69
498.615	131.69
498.832	147.69
499.049	132.69
499.267	157.69
499.484	146.69
499.701	177.69
499.918	200.69
500.135	218.69
500.352	215.69
500.569	234.69
500.786	225.69
501.003	201.69
501.22	180.69
501.437	170.69
501.654	172.69
501.871	153.69
502.088	141.69
502.305	161.69
502.522	162.69
502.739	146.69
502.956	134.69
503.172	130.69
503.389	146.69
503.606	138.69
503.823	143.69
504.04	138.69
504.256	139.69
504.473	136.69
504.69	146.69
504.907	128.69
505.123	127.69
505.34	121.69
505.557	128.69
505.773	131.69
505.99	132.69
506.207	123.69
506.423	122.69
506.64	109.69
506.856	118.69
507.073	119.69
507.289	135.69
507.506	136.69
507.722	121.69
507.939	111.69
508.155	129.69
508.372	111.69
508.588	122.69
508.805	128.69
509.021	105.69
509.238	121.69
509.454	117.69
509.67	105.69
509.887	117.69
510.103	113.69
510.319	123.69
510.536	122.69
510.752	109.69
510.968	100.69
511.184	118.69
511.401	120.69
511.617	116.69
511.833	125.69
512.049	100.69
512.265	116.69
512.481	118.69
512.698	109.69
512.914	123.69
513.13	111.69
513.346	111.69
513.562	121.69
513.778	123.69
513.994	94.69
514.21	95.69
514.426	126.69
514.642	119.69
514.858	105.69
515.074	109.69
515.29	117.69
515.506	104.69
515.721	106.69
515.937	115.69
516.153	113.69
516.369	121.69
516.585	110.69
516.801	117.69
517.016	114.69
517.232	119.69
517.448	131.69
517.664	133.69
517.879	125.69
518.095	125.69
518.311	127.69
518.527	128.69
518.742	123.69
518.958	130.69
519.173	129.69
519.389	118.69
519.605	119.69
519.82	119.69
520.036	96.69
520.251	125.69
520.467	123.69
520.682	105.69
520.898	103.69
521.113	123.69
521.329	107.69
521.544	115.69
521.76	113.69
521.975	113.69
522.19	116.69
522.406	122.69
522.621	102.69
522.836	118.69
523.052	113.69
523.267	95.69
523.482	119.69
523.698	130.69
523.913	96.69
524.128	101.69
524.343	115.69
524.559	129.69
524.774	133.69
524.989	120.69
525.204	127.69
525.419	124.69
525.634	114.69
525.849	110.69
526.064	127.69
526.28	116.69
526.495	101.69
526.71	105.69
526.925	101.69
527.14	99.69
527.355	117.69
527.57	111.69
527.785	119.69
527.999	98.69
528.214	112.69
528.429	141.69
528.644	111.69
528.859	133.69
529.074	129.69
529.289	114.69
529.503	123.69
529.718	123.69
529.933	113.69
530.148	115.69
530.363	105.69
530.577	107.69
530.792	114.69
531.007	99.69
531.221	114.69
531.436	109.69
531.651	111.69
531.865	106.69
532.08	115.69
532.295	125.69
532.509	111.69
532.724	123.69
532.938	109.69
533.153	120.69
533.367	135.69
533.582	125.69
533.796	124.69
534.011	117.69
534.225	109.69
534.44	94.69
534.654	126.69
534.868	117.69
535.083	115.69
535.297	118.69
535.511	112.69
535.726	114.69
535.94	101.69
536.154	106.69
536.369	112.69
536.583	111.69
536.797	102.69
537.011	119.69
537.225	104.69
537.44	109.69
537.654	105.69
537.868	118.69
538.082	112.69
538.296	111.69
538.51	122.69
538.724	113.69
538.938	121.69
539.153	116.69
539.367	101.69
539.581	111.69
539.795	113.69
540.009	115.69
540.222	106.69
540.436	117.69
540.65	104.69
540.864	121.69
541.078	127.69
541.292	136.69
541.506	120.69
541.72	139.69
541.934	144.69
542.147	139.69
542.361	139.69
542.575	132.69
542.789	129.69
543.002	125.69
543.216	118.69
543.43	113.69
543.644	125.69
543.857	117.69
544.071	120.69
544.285	125.69
544.498	127.69
544.712	128.69
544.925	132.69
545.139	126.69
545.352	130.69
545.566	122.69
545.779	136.69
545.993	139.69
546.206	135.69
546.42	119.69
546.633	128.69
546.847	141.69
547.06	129.69
547.274	134.69
547.487	125.69
547.7	145.69
547.914	119.69
548.127	136.69
548.34	137.69
548.554	123.69
548.767	132.69
548.98	126.69
549.193	140.69
549.407	131.69
549.62	139.69
549.833	111.69
550.046	129.69
550.259	129.69
550.473	125.69
550.686	129.69
550.899	129.69
551.112	125.69
551.325	112.69
551.538	113.69
551.751	118.69
551.964	116.69
552.177	113.69
552.39	116.69
552.603	123.69
552.816	129.69
553.029	134.69
553.242	121.69
553.455	139.69
553.667	133.69
553.88	130.69
554.093	121.69
554.306	126.69
554.519	123.69
554.732	120.69
554.944	117.69
555.157	125.69
555.37	127.69
555.583	126.69
555.795	131.69
556.008	125.69
556.221	113.69
556.433	109.69
556.646	117.69
556.859	113.69
557.071	125.69
557.284	120.69
557.496	123.69
557.709	115.69
557.921	110.69
558.134	103.69
558.346	106.69
558.559	113.69
558.771	122.69
558.984	114.69
559.196	112.69
559.409	106.69
559.621	97.69
559.833	118.69
560.046	115.69
560.258	105.69
560.47	110.69
560.683	100.69
560.895	111.69
561.107	109.69
561.32	120.69
561.532	98.69
561.744	117.69
561.956	112.69
562.168	100.69
562.381	114.69
562.593	119.69
562.805	111.69
563.017	121.69
563.229	106.69
563.441	96.69
563.653	110.69
563.865	113.69
564.077	110.69
564.289	117.69
564.501	120.69
564.713	121.69
564.925	119.69
565.137	115.69
565.349	115.69
565.561	105.69
565.773	107.69
565.985	114.69
566.197	121.69
566.408	121.69
566.62	120.69
566.832	110.69
567.044	119.69
567.255	115.69
567.467	128.69
567.679	122.69
567.891	127.69
568.102	127.69
568.314	117.69
568.526	117.69
568.737	110.69
568.949	106.69
569.161	103.69
569.372	99.69
569.584	97.69
569.795	102.69
570.007	101.69
570.218	119.69
570.43	95.69
570.641	107.69
570.853	105.69
571.064	111.69
571.276	95.69
571.487	106.69
571.698	105.69
571.91	110.69
572.121	89.69
572.333	107.69
572.544	95.69
572.755	98.69
572.966	88.69
573.178	101.69
573.389	95.69
573.6	89.69
573.811	85.69
574.023	100.69
574.234	99.69
574.445	87.69
574.656	89.69
574.867	101.69
575.078	98.69
575.289	109.69
575.501	95.69
575.712	106.69
575.923	111.69
576.134	96.69
576.345	94.69
576.556	97.69
576.767	105.69
576.978	110.69
577.188	101.69
577.399	93.69
577.61	94.69
577.821	94.69
578.032	91.69
578.243	99.69
578.454	86.69
578.665	92.69
578.875	96.69
579.086	102.69
579.297	117.69
579.508	110.69
579.718	94.69
579.929	94.69
580.14	100.69
580.35	113.69
580.561	95.69
580.772	97.69
580.982	77.69
581.193	90.69
581.403	97.69
581.614	103.69
581.825	92.69
582.035	103.69
582.246	87.69
582.456	78.69
582.667	104.69
582.877	101.69
583.087	98.69
583.298	86.69
583.508	100.69
583.719	95.69
583.929	95.69
584.139	100.69
584.35	84.69
584.56	94.69
584.77	97.69
584.981	103.69
585.191	109.69
585.401	97.69
585.611	111.69
585.821	98.69
586.032	91.69
586.242	93.69
586.452	110.69
586.662	87.69
586.872	91.69
587.082	96.69
587.292	85.69
587.502	103.69
587.713	98.69
587.923	115.69
588.133	102.69
588.343	84.69
588.553	107.69
588.762	101.69
588.972	89.69
589.182	99.69
589.392	105.69
589.602	88.69
589.812	81.69
590.022	92.69
590.232	98.69
590.441	92.69
590.651	97.69
590.861	94.69
591.071	111.69
591.281	90.69
591.49	90.69
591.7	90.69
591.91	104.69
592.119	104.69
592.329	87.69
592.539	84.69
592.748	112.69
592.958	95.69
593.167	95.69
593.377	95.69
593.587	94.69
593.796	101.69
594.006	104.69
594.215	106.69
594.424	100.69
594.634	91.69
594.843	93.69
595.053	109.69
595.262	100.69
595.472	87.69
595.681	98.69
595.89	105.69
596.1	84.69
596.309	96.69
596.518	91.69
596.727	90.69
596.937	94.69
597.146	95.69
597.355	90.69
597.564	85.69
597.774	86.69
597.983	95.69
598.192	94.69
598.401	79.69
598.61	93.69
598.819	110.69
599.028	91.69
599.237	78.69
599.446	79.69
599.655	90.69
599.864	96.69
600.073	89.69
600.282	97.69
600.491	93.69
600.7	88.69
600.909	97.69
601.118	94.69
601.327	91.69
601.536	99.69
601.745	95.69
601.953	94.69
602.162	105.69
602.371	93.69
602.58	89.69
602.789	92.69
602.997	93.69
603.206	94.69
603.415	95.69
603.623	92.69
603.832	91.69
604.041	98.69
604.249	98.69
604.458	80.69
604.666	90.69
604.875	94.69
605.084	107.69
605.292	74.69
605.501	89.69
605.709	103.69
605.918	101.69
606.126	105.69
606.334	105.69
606.543	87.69
606.751	113.69
606.96	89.69
607.168	95.69
607.376	69.69
607.585	86.69
607.793	93.69
608.001	109.69
608.21	92.69
608.418	94.69
608.626	105.69
608.834	105.69
609.043	90.69
609.251	88.69
609.459	88.69
609.667	110.69
609.875	73.69
610.083	95.69
610.291	81.69
610.499	106.69
610.707	111.69
610.916	96.69
611.124	91.69
611.332	105.69
611.54	88.69
611.748	99.69
611.955	93.69
612.163	90.69
612.371	79.69
612.579	81.69
612.787	100.69
612.995	102.69
613.203	88.69
613.411	94.69
613.618	77.69
613.826	95.69
614.034	95.69
614.242	97.69
614.449	79.69
614.657	94.69
614.865	88.69
615.072	90.69
615.28	75.69
615.488	102.69
615.695	101.69
615.903	106.69
616.111	88.69
616.318	87.69
616.526	104.69
616.733	110.69
616.941	105.69
617.148	87.69
617.356	79.69
617.563	84.69
617.771	88.69
617.978	91.69
618.185	86.69
618.393	98.69
618.6	100.69
618.807	100.69
619.015	102.69
619.222	101.69
619.429	94.69
619.637	92.69
619.844	98.69
620.051	98.69
620.258	103.69
620.466	105.69
620.673	96.69
620.88	101.69
621.087	102.69
621.294	105.69
621.501	89.69
621.708	99.69
621.915	95.69
622.122	97.69
622.329	84.69
622.536	81.69
622.743	83.69
622.95	90.69
623.157	97.69
623.364	92.69
623.571	90.69
623.778	81.69
623.985	98.69
624.192	83.69
624.399	83.69
624.606	93.69
624.812	89.69
625.019	95.69
625.226	96.69
625.433	88.69
625.639	81.69
625.846	86.69
626.053	88.69
626.259	76.69
626.466	90.69
626.673	95.69
626.879	90.69
627.086	102.69
627.293	88.69
627.499	86.69
627.706	93.69
627.912	93.69
628.119	97.69
628.325	77.69
628.532	72.69
628.738	89.69
628.945	78.69
629.151	91.69
629.357	86.69
629.564	93.69
629.77	95.69
629.976	84.69
630.183	91.69
630.389	88.69
630.595	101.69
630.802	88.69
631.008	71.69
631.214	89.69
631.42	93.69
631.627	97.69
631.833	86.69
632.039	89.69
632.245	101.69
632.451	93.69
632.657	104.69
632.863	88.69
633.069	76.69
633.275	89.69
633.481	99.69
633.688	89.69
633.893	77.69
634.099	88.69
634.305	78.69
634.511	92.69
634.717	97.69
634.923	73.69
635.129	85.69
635.335	86.69
635.541	81.69
635.747	86.69
635.952	95.69
636.158	74.69
636.364	74.69
636.57	82.69
636.775	86.69
636.981	86.69
637.187	100.69
637.392	75.69
637.598	84.69
637.804	88.69
638.009	97.69
638.215	88.69
638.421	90.69
638.626	89.69
638.832	81.69
639.037	104.69
639.243	92.69
639.448	91.69
639.654	79.69
639.859	90.69
640.065	79.69
640.27	84.69
640.475	88.69
640.681	90.69
640.886	94.69
641.091	90.69
641.297	98.69
641.502	88.69
641.707	87.69
641.913	87.69
642.118	98.69
642.323	96.69
642.528	89.69
642.733	91.69
642.939	85.69
643.144	89.69
643.349	89.69
643.554	81.69
643.759	82.69
643.964	91.69
644.169	88.69
644.374	78.69
644.579	78.69
644.784	89.69
644.989	84.69
645.194	94.69
645.399	89.69
645.604	89.69
645.809	90.69
646.014	97.69
646.219	73.69
646.423	90.69
646.628	65.69
646.833	97.69
647.038	88.69
647.243	86.69
647.447	87.69
647.652	97.69
647.857	83.69
648.062	83.69
648.266	101.69
648.471	87.69
648.676	86.69
648.88	86.69
649.085	79.69
649.289	75.69
649.494	81.69
649.698	84.69
649.903	81.69
650.107	93.69
650.312	98.69
650.516	96.69
650.721	86.69
650.925	83.69
651.13	102.69
651.334	88.69
651.539	96.69
651.743	91.69
651.947	87.69
652.152	89.69
652.356	87.69
652.56	73.69
652.764	90.69
652.969	86.69
653.173	80.69
653.377	95.69
653.581	83.69
653.785	98.69
653.99	80.69
654.194	83.69
654.398	92.69
654.602	82.69
654.806	82.69
655.01	81.69
655.214	94.69
655.418	75.69
655.622	86.69
655.826	89.69
656.03	90.69
656.234	95.69
656.438	84.69
656.642	85.69
656.846	86.69
657.049	81.69
657.253	86.69
657.457	91.69
657.661	79.69
657.865	75.69
658.068	80.69
658.272	85.69
658.476	66.69
658.68	76.69
658.883	83.69
659.087	86.69
659.291	77.69
659.494	93.69
659.698	87.69
659.901	74.69
660.105	80.69
660.309	77.69
660.512	86.69
660.716	98.69
660.919	86.69
661.123	93.69
661.326	95.69
661.53	80.69
661.733	82.69
661.936	83.69
662.14	90.69
662.343	90.69
662.546	77.69
662.75	60.69
662.953	86.69
663.156	87.69
663.36	93.69
663.563	75.69
663.766	74.69
663.969	86.69
664.173	79.69
664.376	76.69
664.579	71.69
664.782	82.69
664.985	90.69
665.188	81.69
665.391	81.69
665.594	85.69
665.797	73.69
666	88.69
666.203	68.69
666.406	75.69
666.609	87.69
666.812	77.69
667.015	75.69
667.218	78.69
667.421	81.69
667.624	72.69
667.827	85.69
668.03	96.69
668.232	59.69
668.435	64.69
668.638	98.69
668.841	80.69
669.043	77.69
669.246	80.69
669.449	90.69
669.651	73.69
669.854	70.69
670.057	63.69
670.259	79.69
670.462	83.69
670.665	94.69
670.867	71.69
671.07	90.69
671.272	85.69
671.475	81.69
671.677	82.69
671.88	81.69
672.082	72.69
672.284	72.69
672.487	81.69
672.689	80.69
672.892	83.69
