Data from StandardFe(NO3)3.TAE.3%Agarose.FlatLispGreen.Lamp.Energy10.07252019_HRD10591_11-53-17-439.txt Node
Date: Thu Jul 25 11:53:17 EDT 2019
User: cochatt
Spectrometer: HR+D1059
Trigger mode: 1
Integration Time (sec): 1.000000E-1
Scans to average: 1
Electric dark correction enabled: true
Nonlinearity correction enabled: false
Boxcar width: 0
XAxis mode: Wavelengths
Number of Pixels in Spectrum: 2048
>>>>>Begin Spectral Data<<<<<
223.165	-12.31
223.4	-12.31
223.635	-12.31
223.869	-15.31
224.104	-22.31
224.338	-12.31
224.573	-16.31
224.808	-10.31
225.042	-18.31
225.277	-11.31
225.511	3.69
225.746	5.69
225.98	12.69
226.215	16.69
226.449	13.69
226.683	10.69
226.918	16.69
227.152	38.69
227.387	21.69
227.621	29.69
227.856	51.69
228.09	45.69
228.324	45.69
228.559	53.69
228.793	58.69
229.027	61.69
229.262	63.69
229.496	67.69
229.73	68.69
229.964	60.69
230.199	71.69
230.433	66.69
230.667	82.69
230.901	76.69
231.136	77.69
231.37	79.69
231.604	72.69
231.838	78.69
232.072	70.69
232.306	80.69
232.541	84.69
232.775	76.69
233.009	72.69
233.243	76.69
233.477	80.69
233.711	77.69
233.945	64.69
234.179	85.69
234.413	84.69
234.647	87.69
234.881	65.69
235.115	82.69
235.349	77.69
235.583	71.69
235.817	70.69
236.051	65.69
236.285	77.69
236.519	83.69
236.753	79.69
236.987	66.69
237.221	65.69
237.455	67.69
237.689	65.69
237.922	81.69
238.156	75.69
238.39	74.69
238.624	72.69
238.858	72.69
239.091	74.69
239.325	71.69
239.559	86.69
239.793	72.69
240.027	79.69
240.26	80.69
240.494	90.69
240.728	66.69
240.961	79.69
241.195	74.69
241.429	82.69
241.662	63.69
241.896	81.69
242.13	82.69
242.363	70.69
242.597	72.69
242.83	69.69
243.064	71.69
243.298	68.69
243.531	73.69
243.765	77.69
243.998	69.69
244.232	88.69
244.465	69.69
244.699	69.69
244.932	71.69
245.166	59.69
245.399	80.69
245.633	69.69
245.866	64.69
246.099	68.69
246.333	73.69
246.566	81.69
246.8	79.69
247.033	69.69
247.266	78.69
247.5	90.69
247.733	70.69
247.966	78.69
248.2	73.69
248.433	74.69
248.666	73.69
248.899	68.69
249.133	75.69
249.366	79.69
249.599	77.69
249.832	73.69
250.066	84.69
250.299	85.69
250.532	69.69
250.765	66.69
250.998	63.69
251.231	86.69
251.465	83.69
251.698	86.69
251.931	77.69
252.164	89.69
252.397	70.69
252.63	70.69
252.863	69.69
253.096	82.69
253.329	79.69
253.562	75.69
253.795	82.69
254.028	85.69
254.261	82.69
254.494	63.69
254.727	73.69
254.96	82.69
255.193	72.69
255.426	69.69
255.659	80.69
255.892	69.69
256.124	64.69
256.357	63.69
256.59	68.69
256.823	85.69
257.056	81.69
257.289	79.69
257.521	75.69
257.754	82.69
257.987	81.69
258.22	66.69
258.452	73.69
258.685	70.69
258.918	67.69
259.151	65.69
259.383	89.69
259.616	79.69
259.849	80.69
260.081	68.69
260.314	63.69
260.547	83.69
260.779	73.69
261.012	78.69
261.244	81.69
261.477	87.69
261.71	77.69
261.942	86.69
262.175	82.69
262.407	76.69
262.64	79.69
262.872	77.69
263.105	79.69
263.337	78.69
263.57	71.69
263.802	84.69
264.035	90.69
264.267	81.69
264.499	76.69
264.732	65.69
264.964	74.69
265.197	80.69
265.429	81.69
265.661	75.69
265.894	80.69
266.126	97.69
266.358	85.69
266.591	73.69
266.823	78.69
267.055	91.69
267.287	79.69
267.52	74.69
267.752	80.69
267.984	92.69
268.216	78.69
268.448	77.69
268.681	78.69
268.913	99.69
269.145	78.69
269.377	80.69
269.609	65.69
269.841	89.69
270.073	83.69
270.306	84.69
270.538	88.69
270.77	91.69
271.002	81.69
271.234	70.69
271.466	77.69
271.698	75.69
271.93	78.69
272.162	79.69
272.394	94.69
272.626	80.69
272.858	86.69
273.09	91.69
273.322	75.69
273.553	67.69
273.785	71.69
274.017	73.69
274.249	64.69
274.481	74.69
274.713	70.69
274.945	83.69
275.176	62.69
275.408	91.69
275.64	85.69
275.872	77.69
276.104	87.69
276.335	70.69
276.567	66.69
276.799	95.69
277.031	85.69
277.262	85.69
277.494	88.69
277.726	79.69
277.957	56.69
278.189	85.69
278.421	87.69
278.652	76.69
278.884	79.69
279.115	83.69
279.347	86.69
279.579	87.69
279.81	83.69
280.042	78.69
280.273	84.69
280.505	77.69
280.736	85.69
280.968	91.69
281.199	76.69
281.431	80.69
281.662	94.69
281.894	71.69
282.125	82.69
282.356	84.69
282.588	89.69
282.819	81.69
283.051	88.69
283.282	74.69
283.513	81.69
283.745	75.69
283.976	78.69
284.207	69.69
284.439	81.69
284.67	77.69
284.901	90.69
285.132	87.69
285.364	87.69
285.595	77.69
285.826	77.69
286.057	67.69
286.288	82.69
286.52	86.69
286.751	86.69
286.982	75.69
287.213	78.69
287.444	87.69
287.675	89.69
287.906	76.69
288.138	83.69
288.369	88.69
288.6	77.69
288.831	98.69
289.062	89.69
289.293	86.69
289.524	79.69
289.755	72.69
289.986	90.69
290.217	81.69
290.448	79.69
290.679	88.69
290.91	80.69
291.141	81.69
291.371	90.69
291.602	99.69
291.833	94.69
292.064	94.69
292.295	75.69
292.526	86.69
292.757	78.69
292.987	82.69
293.218	76.69
293.449	76.69
293.68	82.69
293.91	86.69
294.141	78.69
294.372	84.69
294.603	81.69
294.833	78.69
295.064	86.69
295.295	85.69
295.525	81.69
295.756	76.69
295.987	93.69
296.217	83.69
296.448	83.69
296.679	73.69
296.909	78.69
297.14	83.69
297.37	82.69
297.601	71.69
297.831	79.69
298.062	91.69
298.292	82.69
298.523	90.69
298.753	93.69
298.984	87.69
299.214	78.69
299.445	74.69
299.675	93.69
299.905	83.69
300.136	78.69
300.366	84.69
300.597	79.69
300.827	79.69
301.057	82.69
301.288	87.69
301.518	88.69
301.748	72.69
301.979	82.69
302.209	86.69
302.439	76.69
302.669	88.69
302.9	94.69
303.13	76.69
303.36	87.69
303.59	73.69
303.82	78.69
304.051	82.69
304.281	79.69
304.511	86.69
304.741	90.69
304.971	78.69
305.201	66.69
305.431	86.69
305.661	93.69
305.891	85.69
306.121	93.69
306.352	90.69
306.582	72.69
306.812	81.69
307.042	88.69
307.272	81.69
307.502	66.69
307.731	94.69
307.961	83.69
308.191	91.69
308.421	79.69
308.651	95.69
308.881	82.69
309.111	70.69
309.341	91.69
309.571	78.69
309.8	85.69
310.03	97.69
310.26	85.69
310.49	89.69
310.72	87.69
310.949	90.69
311.179	69.69
311.409	74.69
311.639	84.69
311.868	69.69
312.098	85.69
312.328	90.69
312.557	75.69
312.787	75.69
313.017	86.69
313.246	73.69
313.476	83.69
313.706	83.69
313.935	79.69
314.165	73.69
314.394	66.69
314.624	62.69
314.853	85.69
315.083	79.69
315.312	75.69
315.542	87.69
315.771	96.69
316.001	77.69
316.23	80.69
316.46	83.69
316.689	90.69
316.919	85.69
317.148	81.69
317.377	78.69
317.607	86.69
317.836	73.69
318.065	83.69
318.295	74.69
318.524	86.69
318.753	83.69
318.983	68.69
319.212	72.69
319.441	77.69
319.67	79.69
319.9	77.69
320.129	79.69
320.358	82.69
320.587	82.69
320.816	90.69
321.046	80.69
321.275	88.69
321.504	71.69
321.733	98.69
321.962	82.69
322.191	83.69
322.42	83.69
322.649	78.69
322.878	84.69
323.108	87.69
323.337	83.69
323.566	86.69
323.795	73.69
324.024	88.69
324.253	87.69
324.482	79.69
324.71	87.69
324.939	79.69
325.168	83.69
325.397	94.69
325.626	87.69
325.855	82.69
326.084	95.69
326.313	87.69
326.542	72.69
326.77	78.69
326.999	71.69
327.228	82.69
327.457	82.69
327.686	87.69
327.914	86.69
328.143	92.69
328.372	83.69
328.6	73.69
328.829	85.69
329.058	77.69
329.287	81.69
329.515	98.69
329.744	81.69
329.972	69.69
330.201	97.69
330.43	82.69
330.658	80.69
330.887	83.69
331.115	94.69
331.344	77.69
331.572	74.69
331.801	86.69
332.03	78.69
332.258	87.69
332.486	85.69
332.715	80.69
332.943	81.69
333.172	88.69
333.4	79.69
333.629	79.69
333.857	71.69
334.085	82.69
334.314	86.69
334.542	88.69
334.771	79.69
334.999	87.69
335.227	82.69
335.455	74.69
335.684	79.69
335.912	88.69
336.14	81.69
336.369	84.69
336.597	88.69
336.825	79.69
337.053	85.69
337.281	81.69
337.51	71.69
337.738	83.69
337.966	79.69
338.194	76.69
338.422	89.69
338.65	90.69
338.878	86.69
339.106	80.69
339.334	103.69
339.562	78.69
339.79	89.69
340.018	88.69
340.246	94.69
340.474	81.69
340.702	68.69
340.93	80.69
341.158	88.69
341.386	75.69
341.614	81.69
341.842	85.69
342.07	94.69
342.298	77.69
342.526	69.69
342.754	83.69
342.981	80.69
343.209	96.69
343.437	78.69
343.665	82.69
343.893	95.69
344.12	79.69
344.348	94.69
344.576	83.69
344.804	94.69
345.031	73.69
345.259	71.69
345.487	83.69
345.714	82.69
345.942	82.69
346.17	93.69
346.397	79.69
346.625	79.69
346.853	93.69
347.08	82.69
347.308	96.69
347.535	85.69
347.763	77.69
347.99	75.69
348.218	92.69
348.445	75.69
348.673	79.69
348.9	89.69
349.128	97.69
349.355	83.69
349.583	86.69
349.81	81.69
350.037	94.69
350.265	94.69
350.492	84.69
350.72	87.69
350.947	80.69
351.174	78.69
351.402	67.69
351.629	87.69
351.856	85.69
352.083	85.69
352.311	87.69
352.538	74.69
352.765	84.69
352.992	89.69
353.22	90.69
353.447	68.69
353.674	89.69
353.901	99.69
354.128	93.69
354.355	84.69
354.583	88.69
354.81	87.69
355.037	89.69
355.264	85.69
355.491	89.69
355.718	84.69
355.945	83.69
356.172	69.69
356.399	73.69
356.626	87.69
356.853	71.69
357.08	85.69
357.307	88.69
357.534	89.69
357.761	91.69
357.988	85.69
358.215	72.69
358.441	87.69
358.668	89.69
358.895	70.69
359.122	70.69
359.349	90.69
359.576	81.69
359.802	85.69
360.029	86.69
360.256	77.69
360.483	99.69
360.709	99.69
360.936	89.69
361.163	95.69
361.39	79.69
361.616	81.69
361.843	88.69
362.07	81.69
362.296	84.69
362.523	85.69
362.749	85.69
362.976	77.69
363.203	79.69
363.429	85.69
363.656	84.69
363.882	75.69
364.109	78.69
364.335	92.69
364.562	74.69
364.788	83.69
365.015	106.69
365.241	85.69
365.468	83.69
365.694	79.69
365.92	79.69
366.147	80.69
366.373	83.69
366.599	88.69
366.826	80.69
367.052	82.69
367.278	67.69
367.505	77.69
367.731	83.69
367.957	79.69
368.184	65.69
368.41	87.69
368.636	80.69
368.862	84.69
369.089	87.69
369.315	82.69
369.541	95.69
369.767	86.69
369.993	83.69
370.219	89.69
370.445	85.69
370.672	88.69
370.898	84.69
371.124	93.69
371.35	88.69
371.576	90.69
371.802	91.69
372.028	75.69
372.254	88.69
372.48	86.69
372.706	89.69
372.932	91.69
373.158	88.69
373.384	81.69
373.61	89.69
373.835	80.69
374.061	95.69
374.287	94.69
374.513	73.69
374.739	92.69
374.965	101.69
375.191	90.69
375.416	86.69
375.642	86.69
375.868	88.69
376.094	91.69
376.319	78.69
376.545	79.69
376.771	87.69
376.997	97.69
377.222	88.69
377.448	88.69
377.674	96.69
377.899	86.69
378.125	75.69
378.35	81.69
378.576	93.69
378.802	95.69
379.027	86.69
379.253	98.69
379.478	87.69
379.704	90.69
379.929	80.69
380.155	94.69
380.38	90.69
380.606	93.69
380.831	90.69
381.057	109.69
381.282	79.69
381.507	93.69
381.733	81.69
381.958	74.69
382.184	81.69
382.409	97.69
382.634	99.69
382.86	78.69
383.085	89.69
383.31	85.69
383.535	91.69
383.761	94.69
383.986	81.69
384.211	93.69
384.436	86.69
384.662	95.69
384.887	89.69
385.112	86.69
385.337	82.69
385.562	73.69
385.787	93.69
386.013	96.69
386.238	85.69
386.463	88.69
386.688	92.69
386.913	80.69
387.138	85.69
387.363	109.69
387.588	103.69
387.813	96.69
388.038	94.69
388.263	89.69
388.488	94.69
388.713	99.69
388.938	94.69
389.163	84.69
389.387	112.69
389.612	85.69
389.837	97.69
390.062	87.69
390.287	79.69
390.512	101.69
390.736	98.69
390.961	86.69
391.186	91.69
391.411	105.69
391.636	85.69
391.86	82.69
392.085	100.69
392.31	107.69
392.534	100.69
392.759	86.69
392.984	99.69
393.208	91.69
393.433	87.69
393.658	105.69
393.882	98.69
394.107	95.69
394.331	98.69
394.556	96.69
394.78	92.69
395.005	95.69
395.229	95.69
395.454	98.69
395.678	84.69
395.903	88.69
396.127	96.69
396.352	102.69
396.576	104.69
396.801	93.69
397.025	100.69
397.249	97.69
397.474	95.69
397.698	93.69
397.922	105.69
398.147	94.69
398.371	102.69
398.595	87.69
398.82	90.69
399.044	102.69
399.268	102.69
399.492	114.69
399.717	98.69
399.941	113.69
400.165	104.69
400.389	95.69
400.613	107.69
400.837	110.69
401.062	95.69
401.286	117.69
401.51	109.69
401.734	116.69
401.958	107.69
402.182	91.69
402.406	109.69
402.63	103.69
402.854	109.69
403.078	109.69
403.302	100.69
403.526	117.69
403.75	112.69
403.974	117.69
404.198	117.69
404.422	108.69
404.645	126.69
404.869	110.69
405.093	98.69
405.317	110.69
405.541	109.69
405.765	103.69
405.988	105.69
406.212	102.69
406.436	106.69
406.66	104.69
406.883	106.69
407.107	113.69
407.331	115.69
407.555	114.69
407.778	116.69
408.002	104.69
408.226	111.69
408.449	102.69
408.673	114.69
408.896	111.69
409.12	110.69
409.344	109.69
409.567	113.69
409.791	111.69
410.014	113.69
410.238	111.69
410.461	112.69
410.685	105.69
410.908	105.69
411.132	98.69
411.355	119.69
411.578	107.69
411.802	115.69
412.025	114.69
412.249	104.69
412.472	107.69
412.695	105.69
412.919	113.69
413.142	100.69
413.365	101.69
413.589	98.69
413.812	83.69
414.035	116.69
414.258	110.69
414.482	108.69
414.705	106.69
414.928	111.69
415.151	89.69
415.374	123.69
415.597	111.69
415.821	114.69
416.044	102.69
416.267	113.69
416.49	115.69
416.713	117.69
416.936	125.69
417.159	129.69
417.382	116.69
417.605	99.69
417.828	106.69
418.051	97.69
418.274	112.69
418.497	113.69
418.72	116.69
418.943	113.69
419.166	113.69
419.389	116.69
419.611	123.69
419.834	119.69
420.057	102.69
420.28	119.69
420.503	125.69
420.726	111.69
420.948	100.69
421.171	109.69
421.394	107.69
421.617	117.69
421.839	115.69
422.062	116.69
422.285	95.69
422.507	102.69
422.73	113.69
422.953	106.69
423.175	104.69
423.398	117.69
423.621	120.69
423.843	106.69
424.066	113.69
424.288	115.69
424.511	127.69
424.733	122.69
424.956	111.69
425.178	121.69
425.401	108.69
425.623	122.69
425.846	105.69
426.068	117.69
426.291	110.69
426.513	111.69
426.735	111.69
426.958	110.69
427.18	129.69
427.402	101.69
427.625	103.69
427.847	111.69
428.069	104.69
428.292	91.69
428.514	127.69
428.736	113.69
428.958	115.69
429.181	117.69
429.403	105.69
429.625	117.69
429.847	111.69
430.069	108.69
430.292	118.69
430.514	128.69
430.736	104.69
430.958	119.69
431.18	117.69
431.402	107.69
431.624	105.69
431.846	99.69
432.068	113.69
432.29	111.69
432.512	114.69
432.734	107.69
432.956	98.69
433.178	105.69
433.4	110.69
433.622	115.69
433.844	115.69
434.066	116.69
434.287	103.69
434.509	106.69
434.731	98.69
434.953	111.69
435.175	122.69
435.397	123.69
435.618	110.69
435.84	111.69
436.062	102.69
436.284	119.69
436.505	117.69
436.727	107.69
436.949	111.69
437.17	115.69
437.392	107.69
437.614	104.69
437.835	87.69
438.057	112.69
438.278	114.69
438.5	122.69
438.721	112.69
438.943	109.69
439.165	104.69
439.386	115.69
439.608	116.69
439.829	115.69
440.05	122.69
440.272	118.69
440.493	119.69
440.715	129.69
440.936	120.69
441.158	123.69
441.379	109.69
441.6	111.69
441.822	121.69
442.043	107.69
442.264	125.69
442.486	125.69
442.707	105.69
442.928	126.69
443.149	123.69
443.371	115.69
443.592	126.69
443.813	121.69
444.034	118.69
444.255	120.69
444.476	130.69
444.698	138.69
444.919	122.69
445.14	253.69
445.361	189.69
445.582	119.69
445.803	127.69
446.024	117.69
446.245	126.69
446.466	118.69
446.687	126.69
446.908	115.69
447.129	114.69
447.35	118.69
447.571	118.69
447.792	126.69
448.013	114.69
448.234	115.69
448.455	106.69
448.675	117.69
448.896	106.69
449.117	125.69
449.338	113.69
449.559	94.69
449.779	118.69
450	121.69
450.221	115.69
450.442	113.69
450.662	107.69
450.883	113.69
451.104	110.69
451.324	97.69
451.545	105.69
451.766	117.69
451.986	123.69
452.207	117.69
452.428	99.69
452.648	95.69
452.869	114.69
453.089	103.69
453.31	100.69
453.53	94.69
453.751	89.69
453.971	102.69
454.192	103.69
454.412	113.69
454.633	115.69
454.853	94.69
455.073	106.69
455.294	119.69
455.514	109.69
455.734	124.69
455.955	102.69
456.175	111.69
456.395	87.69
456.616	96.69
456.836	88.69
457.056	100.69
457.276	97.69
457.497	96.69
457.717	107.69
457.937	107.69
458.157	96.69
458.377	93.69
458.598	82.69
458.818	96.69
459.038	93.69
459.258	97.69
459.478	106.69
459.698	110.69
459.918	98.69
460.138	113.69
460.358	121.69
460.578	115.69
460.798	110.69
461.018	106.69
461.238	115.69
461.458	101.69
461.678	101.69
461.898	112.69
462.118	99.69
462.338	107.69
462.558	116.69
462.777	101.69
462.997	118.69
463.217	111.69
463.437	127.69
463.657	112.69
463.876	121.69
464.096	104.69
464.316	114.69
464.536	114.69
464.755	106.69
464.975	129.69
465.195	117.69
465.414	122.69
465.634	108.69
465.854	117.69
466.073	119.69
466.293	100.69
466.512	113.69
466.732	112.69
466.951	117.69
467.171	109.69
467.391	106.69
467.61	119.69
467.829	124.69
468.049	111.69
468.268	109.69
468.488	116.69
468.707	101.69
468.927	121.69
469.146	112.69
469.365	113.69
469.585	120.69
469.804	122.69
470.023	125.69
470.243	119.69
470.462	119.69
470.681	131.69
470.901	119.69
471.12	106.69
471.339	125.69
471.558	125.69
471.777	119.69
471.997	103.69
472.216	116.69
472.435	104.69
472.654	93.69
472.873	127.69
473.092	107.69
473.311	116.69
473.53	121.69
473.749	122.69
473.968	118.69
474.187	97.69
474.406	102.69
474.625	121.69
474.844	113.69
475.063	112.69
475.282	111.69
475.501	118.69
475.72	113.69
475.939	109.69
476.158	134.69
476.377	118.69
476.596	126.69
476.814	118.69
477.033	103.69
477.252	129.69
477.471	111.69
477.69	120.69
477.908	106.69
478.127	99.69
478.346	129.69
478.564	123.69
478.783	114.69
479.002	129.69
479.22	123.69
479.439	115.69
479.658	137.69
479.876	117.69
480.095	104.69
480.313	113.69
480.532	133.69
480.751	129.69
480.969	103.69
481.188	112.69
481.406	101.69
481.624	102.69
481.843	108.69
482.061	109.69
482.28	121.69
482.498	94.69
482.717	112.69
482.935	136.69
483.153	129.69
483.372	140.69
483.59	123.69
483.808	119.69
484.027	126.69
484.245	116.69
484.463	111.69
484.681	121.69
484.9	118.69
485.118	129.69
485.336	99.69
485.554	112.69
485.772	111.69
485.99	122.69
486.209	118.69
486.427	125.69
486.645	126.69
486.863	121.69
487.081	121.69
487.299	125.69
487.517	125.69
487.735	137.69
487.953	136.69
488.171	151.69
488.389	138.69
488.607	132.69
488.825	119.69
489.043	113.69
489.261	125.69
489.479	136.69
489.696	125.69
489.914	120.69
490.132	132.69
490.35	121.69
490.568	125.69
490.786	130.69
491.003	151.69
491.221	151.69
491.439	150.69
491.657	154.69
491.874	146.69
492.092	176.69
492.31	166.69
492.527	193.69
492.745	157.69
492.963	154.69
493.18	145.69
493.398	130.69
493.615	138.69
493.833	151.69
494.05	147.69
494.268	151.69
494.485	148.69
494.703	151.69
494.92	153.69
495.138	149.69
495.355	151.69
495.573	137.69
495.79	139.69
496.008	153.69
496.225	161.69
496.442	155.69
496.66	158.69
496.877	150.69
497.094	145.69
497.312	161.69
497.529	146.69
497.746	145.69
497.963	138.69
498.181	137.69
498.398	135.69
498.615	130.69
498.832	138.69
499.049	158.69
499.267	151.69
499.484	163.69
499.701	183.69
499.918	193.69
500.135	212.69
500.352	212.69
500.569	229.69
500.786	207.69
501.003	207.69
501.22	194.69
501.437	180.69
501.654	173.69
501.871	167.69
502.088	155.69
502.305	153.69
502.522	135.69
502.739	146.69
502.956	136.69
503.172	147.69
503.389	133.69
503.606	119.69
503.823	119.69
504.04	155.69
504.256	137.69
504.473	138.69
504.69	145.69
504.907	137.69
505.123	118.69
505.34	112.69
505.557	121.69
505.773	134.69
505.99	115.69
506.207	127.69
506.423	118.69
506.64	116.69
506.856	117.69
507.073	122.69
507.289	113.69
507.506	118.69
507.722	120.69
507.939	141.69
508.155	120.69
508.372	125.69
508.588	113.69
508.805	114.69
509.021	121.69
509.238	123.69
509.454	111.69
509.67	115.69
509.887	101.69
510.103	116.69
510.319	115.69
510.536	109.69
510.752	108.69
510.968	103.69
511.184	96.69
511.401	106.69
511.617	109.69
511.833	115.69
512.049	110.69
512.265	119.69
512.481	110.69
512.698	117.69
512.914	109.69
513.13	116.69
513.346	109.69
513.562	106.69
513.778	122.69
513.994	115.69
514.21	122.69
514.426	107.69
514.642	106.69
514.858	100.69
515.074	107.69
515.29	112.69
515.506	98.69
515.721	114.69
515.937	125.69
516.153	118.69
516.369	115.69
516.585	113.69
516.801	116.69
517.016	127.69
517.232	119.69
517.448	122.69
517.664	123.69
517.879	119.69
518.095	131.69
518.311	102.69
518.527	111.69
518.742	119.69
518.958	116.69
519.173	130.69
519.389	99.69
519.605	135.69
519.82	117.69
520.036	124.69
520.251	112.69
520.467	107.69
520.682	109.69
520.898	107.69
521.113	117.69
521.329	117.69
521.544	92.69
521.76	117.69
521.975	95.69
522.19	117.69
522.406	111.69
522.621	97.69
522.836	99.69
523.052	101.69
523.267	110.69
523.482	103.69
523.698	119.69
523.913	125.69
524.128	106.69
524.343	119.69
524.559	113.69
524.774	101.69
524.989	122.69
525.204	113.69
525.419	118.69
525.634	105.69
525.849	110.69
526.064	117.69
526.28	115.69
526.495	113.69
526.71	111.69
526.925	102.69
527.14	95.69
527.355	93.69
527.57	113.69
527.785	100.69
527.999	111.69
528.214	92.69
528.429	109.69
528.644	101.69
528.859	130.69
529.074	115.69
529.289	115.69
529.503	123.69
529.718	116.69
529.933	113.69
530.148	101.69
530.363	120.69
530.577	107.69
530.792	111.69
531.007	109.69
531.221	111.69
531.436	108.69
531.651	93.69
531.865	105.69
532.08	102.69
532.295	103.69
532.509	111.69
532.724	113.69
532.938	98.69
533.153	98.69
533.367	123.69
533.582	121.69
533.796	112.69
534.011	114.69
534.225	99.69
534.44	96.69
534.654	97.69
534.868	104.69
535.083	104.69
535.297	96.69
535.511	121.69
535.726	115.69
535.94	122.69
536.154	116.69
536.369	92.69
536.583	98.69
536.797	114.69
537.011	107.69
537.225	98.69
537.44	103.69
537.654	104.69
537.868	106.69
538.082	95.69
538.296	93.69
538.51	106.69
538.724	108.69
538.938	121.69
539.153	106.69
539.367	109.69
539.581	107.69
539.795	113.69
540.009	104.69
540.222	104.69
540.436	114.69
540.65	117.69
540.864	111.69
541.078	140.69
541.292	129.69
541.506	125.69
541.72	125.69
541.934	120.69
542.147	149.69
542.361	131.69
542.575	127.69
542.789	106.69
543.002	121.69
543.216	107.69
543.43	106.69
543.644	106.69
543.857	118.69
544.071	123.69
544.285	145.69
544.498	128.69
544.712	131.69
544.925	123.69
545.139	115.69
545.352	128.69
545.566	132.69
545.779	129.69
545.993	142.69
546.206	118.69
546.42	123.69
546.633	134.69
546.847	150.69
547.06	127.69
547.274	131.69
547.487	140.69
547.7	130.69
547.914	131.69
548.127	131.69
548.34	134.69
548.554	125.69
548.767	131.69
548.98	130.69
549.193	130.69
549.407	133.69
549.62	135.69
549.833	144.69
550.046	123.69
550.259	143.69
550.473	128.69
550.686	130.69
550.899	123.69
551.112	115.69
551.325	123.69
551.538	122.69
551.751	105.69
551.964	113.69
552.177	124.69
552.39	132.69
552.603	122.69
552.816	125.69
553.029	131.69
553.242	135.69
553.455	123.69
553.667	143.69
553.88	130.69
554.093	130.69
554.306	133.69
554.519	127.69
554.732	129.69
554.944	122.69
555.157	113.69
555.37	107.69
555.583	118.69
555.795	121.69
556.008	121.69
556.221	114.69
556.433	107.69
556.646	124.69
556.859	112.69
557.071	107.69
557.284	119.69
557.496	110.69
557.709	117.69
557.921	115.69
558.134	119.69
558.346	115.69
558.559	119.69
558.771	112.69
558.984	114.69
559.196	110.69
559.409	118.69
559.621	114.69
559.833	109.69
560.046	112.69
560.258	122.69
560.47	111.69
560.683	115.69
560.895	115.69
561.107	126.69
561.32	110.69
561.532	112.69
561.744	111.69
561.956	118.69
562.168	108.69
562.381	112.69
562.593	112.69
562.805	111.69
563.017	111.69
563.229	111.69
563.441	107.69
563.653	114.69
563.865	111.69
564.077	116.69
564.289	122.69
564.501	107.69
564.713	122.69
564.925	109.69
565.137	113.69
565.349	107.69
565.561	123.69
565.773	110.69
565.985	100.69
566.197	95.69
566.408	113.69
566.62	120.69
566.832	114.69
567.044	113.69
567.255	116.69
567.467	125.69
567.679	121.69
567.891	121.69
568.102	116.69
568.314	124.69
568.526	110.69
568.737	106.69
568.949	111.69
569.161	109.69
569.372	105.69
569.584	98.69
569.795	85.69
570.007	104.69
570.218	89.69
570.43	103.69
570.641	94.69
570.853	111.69
571.064	99.69
571.276	99.69
571.487	117.69
571.698	97.69
571.91	104.69
572.121	92.69
572.333	105.69
572.544	96.69
572.755	91.69
572.966	82.69
573.178	99.69
573.389	101.69
573.6	90.69
573.811	96.69
574.023	96.69
574.234	86.69
574.445	91.69
574.656	97.69
574.867	112.69
575.078	99.69
575.289	93.69
575.501	77.69
575.712	100.69
575.923	97.69
576.134	81.69
576.345	92.69
576.556	101.69
576.767	84.69
576.978	100.69
577.188	92.69
577.399	113.69
577.61	93.69
577.821	90.69
578.032	97.69
578.243	92.69
578.454	104.69
578.665	96.69
578.875	103.69
579.086	97.69
579.297	89.69
579.508	94.69
579.718	86.69
579.929	85.69
580.14	102.69
580.35	78.69
580.561	102.69
580.772	104.69
580.982	85.69
581.193	77.69
581.403	96.69
581.614	85.69
581.825	98.69
582.035	86.69
582.246	103.69
582.456	99.69
582.667	88.69
582.877	89.69
583.087	96.69
583.298	93.69
583.508	96.69
583.719	95.69
583.929	98.69
584.139	93.69
584.35	93.69
584.56	86.69
584.77	87.69
584.981	94.69
585.191	102.69
585.401	96.69
585.611	82.69
585.821	88.69
586.032	80.69
586.242	80.69
586.452	94.69
586.662	84.69
586.872	67.69
587.082	83.69
587.292	111.69
587.502	79.69
587.713	89.69
587.923	91.69
588.133	97.69
588.343	93.69
588.553	97.69
588.762	98.69
588.972	87.69
589.182	86.69
589.392	90.69
589.602	96.69
589.812	99.69
590.022	102.69
590.232	95.69
590.441	95.69
590.651	81.69
590.861	88.69
591.071	77.69
591.281	89.69
591.49	88.69
591.7	91.69
591.91	93.69
592.119	69.69
592.329	84.69
592.539	69.69
592.748	96.69
592.958	94.69
593.167	87.69
593.377	83.69
593.587	96.69
593.796	101.69
594.006	90.69
594.215	87.69
594.424	90.69
594.634	96.69
594.843	90.69
595.053	87.69
595.262	92.69
595.472	87.69
595.681	80.69
595.89	96.69
596.1	88.69
596.309	97.69
596.518	88.69
596.727	93.69
596.937	97.69
597.146	95.69
597.355	84.69
597.564	90.69
597.774	94.69
597.983	96.69
598.192	74.69
598.401	84.69
598.61	99.69
598.819	90.69
599.028	84.69
599.237	97.69
599.446	88.69
599.655	100.69
599.864	87.69
600.073	90.69
600.282	92.69
600.491	87.69
600.7	105.69
600.909	87.69
601.118	85.69
601.327	82.69
601.536	80.69
601.745	73.69
601.953	92.69
602.162	89.69
602.371	90.69
602.58	93.69
602.789	87.69
602.997	93.69
603.206	99.69
603.415	90.69
603.623	103.69
603.832	93.69
604.041	95.69
604.249	87.69
604.458	76.69
604.666	99.69
604.875	91.69
605.084	87.69
605.292	71.69
605.501	88.69
605.709	90.69
605.918	103.69
606.126	101.69
606.334	86.69
606.543	89.69
606.751	106.69
606.96	97.69
607.168	91.69
607.376	93.69
607.585	84.69
607.793	97.69
608.001	90.69
608.21	101.69
608.418	81.69
608.626	90.69
608.834	83.69
609.043	91.69
609.251	82.69
609.459	88.69
609.667	89.69
609.875	94.69
610.083	104.69
610.291	86.69
610.499	84.69
610.707	106.69
610.916	97.69
611.124	86.69
611.332	94.69
611.54	103.69
611.748	90.69
611.955	95.69
612.163	96.69
612.371	96.69
612.579	97.69
612.787	84.69
612.995	96.69
613.203	104.69
613.411	93.69
613.618	91.69
613.826	90.69
614.034	94.69
614.242	99.69
614.449	87.69
614.657	88.69
614.865	85.69
615.072	100.69
615.28	88.69
615.488	93.69
615.695	79.69
615.903	96.69
616.111	99.69
616.318	91.69
616.526	101.69
616.733	88.69
616.941	89.69
617.148	102.69
617.356	95.69
617.563	75.69
617.771	94.69
617.978	77.69
618.185	95.69
618.393	89.69
618.6	111.69
618.807	102.69
619.015	97.69
619.222	96.69
619.429	89.69
619.637	90.69
619.844	103.69
620.051	91.69
620.258	79.69
620.466	92.69
620.673	95.69
620.88	103.69
621.087	96.69
621.294	93.69
621.501	90.69
621.708	84.69
621.915	91.69
622.122	81.69
622.329	79.69
622.536	89.69
622.743	106.69
622.95	84.69
623.157	96.69
623.364	90.69
623.571	78.69
623.778	86.69
623.985	84.69
624.192	94.69
624.399	76.69
624.606	72.69
624.812	89.69
625.019	94.69
625.226	74.69
625.433	81.69
625.639	90.69
625.846	90.69
626.053	80.69
626.259	101.69
626.466	90.69
626.673	78.69
626.879	80.69
627.086	79.69
627.293	94.69
627.499	101.69
627.706	90.69
627.912	95.69
628.119	96.69
628.325	90.69
628.532	96.69
628.738	79.69
628.945	99.69
629.151	78.69
629.357	98.69
629.564	75.69
629.77	87.69
629.976	92.69
630.183	81.69
630.389	75.69
630.595	77.69
630.802	93.69
631.008	89.69
631.214	88.69
631.42	93.69
631.627	87.69
631.833	81.69
632.039	77.69
632.245	91.69
632.451	91.69
632.657	78.69
632.863	92.69
633.069	84.69
633.275	86.69
633.481	86.69
633.688	74.69
633.893	93.69
634.099	91.69
634.305	77.69
634.511	87.69
634.717	91.69
634.923	75.69
635.129	86.69
635.335	85.69
635.541	71.69
635.747	90.69
635.952	96.69
636.158	96.69
636.364	86.69
636.57	88.69
636.775	82.69
636.981	89.69
637.187	87.69
637.392	100.69
637.598	97.69
637.804	83.69
638.009	95.69
638.215	93.69
638.421	90.69
638.626	88.69
638.832	89.69
639.037	77.69
639.243	79.69
639.448	92.69
639.654	94.69
639.859	82.69
640.065	88.69
640.27	83.69
640.475	78.69
640.681	98.69
640.886	99.69
641.091	76.69
641.297	102.69
641.502	81.69
641.707	92.69
641.913	104.69
642.118	100.69
642.323	73.69
642.528	98.69
642.733	88.69
642.939	90.69
643.144	80.69
643.349	84.69
643.554	83.69
643.759	82.69
643.964	97.69
644.169	69.69
644.374	72.69
644.579	82.69
644.784	70.69
644.989	78.69
645.194	83.69
645.399	85.69
645.604	86.69
645.809	84.69
646.014	94.69
646.219	85.69
646.423	88.69
646.628	79.69
646.833	88.69
647.038	95.69
647.243	89.69
647.447	90.69
647.652	90.69
647.857	82.69
648.062	92.69
648.266	99.69
648.471	87.69
648.676	95.69
648.88	83.69
649.085	83.69
649.289	88.69
649.494	85.69
649.698	81.69
649.903	101.69
650.107	86.69
650.312	85.69
650.516	75.69
650.721	88.69
650.925	88.69
651.13	86.69
651.334	89.69
651.539	84.69
651.743	97.69
651.947	90.69
652.152	100.69
652.356	77.69
652.56	74.69
652.764	81.69
652.969	77.69
653.173	94.69
653.377	79.69
653.581	96.69
653.785	80.69
653.99	80.69
654.194	85.69
654.398	88.69
654.602	85.69
654.806	71.69
655.01	89.69
655.214	82.69
655.418	89.69
655.622	83.69
655.826	81.69
656.03	93.69
656.234	87.69
656.438	74.69
656.642	83.69
656.846	90.69
657.049	78.69
657.253	97.69
657.457	73.69
657.661	93.69
657.865	83.69
658.068	83.69
658.272	74.69
658.476	83.69
658.68	82.69
658.883	88.69
659.087	85.69
659.291	78.69
659.494	71.69
659.698	76.69
659.901	88.69
660.105	76.69
660.309	76.69
660.512	79.69
660.716	77.69
660.919	90.69
661.123	96.69
661.326	83.69
661.53	93.69
661.733	67.69
661.936	81.69
662.14	83.69
662.343	98.69
662.546	83.69
662.75	89.69
662.953	87.69
663.156	86.69
663.36	83.69
663.563	84.69
663.766	70.69
663.969	81.69
664.173	82.69
664.376	80.69
664.579	72.69
664.782	74.69
664.985	75.69
665.188	87.69
665.391	85.69
665.594	79.69
665.797	82.69
666	74.69
666.203	88.69
666.406	68.69
666.609	83.69
666.812	73.69
667.015	61.69
667.218	85.69
667.421	80.69
667.624	56.69
667.827	83.69
668.03	77.69
668.232	75.69
668.435	86.69
668.638	85.69
668.841	88.69
669.043	71.69
669.246	64.69
669.449	79.69
669.651	80.69
669.854	81.69
670.057	92.69
670.259	81.69
670.462	83.69
670.665	78.69
670.867	83.69
671.07	78.69
671.272	82.69
671.475	78.69
671.677	85.69
671.88	83.69
672.082	93.69
672.284	78.69
672.487	95.69
672.689	77.69
672.892	81.69
