Data from StandardFe(NO3)3.TAE.3%Agarose.FlatLispGreen.Lamp.Energy10.07252019_HRD10591_11-56-18-442.txt Node
Date: Thu Jul 25 11:56:18 EDT 2019
User: cochatt
Spectrometer: HR+D1059
Trigger mode: 1
Integration Time (sec): 1.000000E-1
Scans to average: 1
Electric dark correction enabled: true
Nonlinearity correction enabled: false
Boxcar width: 0
XAxis mode: Wavelengths
Number of Pixels in Spectrum: 2048
>>>>>Begin Spectral Data<<<<<
223.165	-29.94
223.4	-29.94
223.635	-29.94
223.869	-8.94
224.104	-9.94
224.338	0.06
224.573	-11.94
224.808	-18.94
225.042	-8.94
225.277	-1.94
225.511	-5.94
225.746	4.06
225.98	11.06
226.215	6.06
226.449	8.06
226.683	13.06
226.918	22.06
227.152	32.06
227.387	35.06
227.621	43.06
227.856	44.06
228.09	35.06
228.324	36.06
228.559	63.06
228.793	65.06
229.027	70.06
229.262	72.06
229.496	61.06
229.73	68.06
229.964	61.06
230.199	67.06
230.433	76.06
230.667	69.06
230.901	92.06
231.136	83.06
231.37	78.06
231.604	81.06
231.838	77.06
232.072	68.06
232.306	76.06
232.541	82.06
232.775	97.06
233.009	89.06
233.243	91.06
233.477	68.06
233.711	88.06
233.945	80.06
234.179	79.06
234.413	75.06
234.647	83.06
234.881	96.06
235.115	85.06
235.349	85.06
235.583	93.06
235.817	81.06
236.051	75.06
236.285	60.06
236.519	87.06
236.753	82.06
236.987	69.06
237.221	81.06
237.455	80.06
237.689	77.06
237.922	79.06
238.156	78.06
238.39	85.06
238.624	70.06
238.858	76.06
239.091	72.06
239.325	79.06
239.559	81.06
239.793	70.06
240.027	82.06
240.26	78.06
240.494	77.06
240.728	86.06
240.961	82.06
241.195	76.06
241.429	85.06
241.662	73.06
241.896	71.06
242.13	70.06
242.363	87.06
242.597	74.06
242.83	63.06
243.064	85.06
243.298	94.06
243.531	78.06
243.765	70.06
243.998	72.06
244.232	88.06
244.465	70.06
244.699	65.06
244.932	82.06
245.166	77.06
245.399	86.06
245.633	74.06
245.866	83.06
246.099	76.06
246.333	77.06
246.566	81.06
246.8	74.06
247.033	71.06
247.266	75.06
247.5	91.06
247.733	62.06
247.966	85.06
248.2	69.06
248.433	89.06
248.666	86.06
248.899	83.06
249.133	77.06
249.366	91.06
249.599	73.06
249.832	70.06
250.066	86.06
250.299	73.06
250.532	89.06
250.765	78.06
250.998	80.06
251.231	82.06
251.465	83.06
251.698	82.06
251.931	81.06
252.164	86.06
252.397	78.06
252.63	84.06
252.863	72.06
253.096	75.06
253.329	93.06
253.562	91.06
253.795	79.06
254.028	90.06
254.261	82.06
254.494	82.06
254.727	74.06
254.96	85.06
255.193	78.06
255.426	88.06
255.659	76.06
255.892	72.06
256.124	72.06
256.357	81.06
256.59	80.06
256.823	75.06
257.056	72.06
257.289	65.06
257.521	56.06
257.754	72.06
257.987	84.06
258.22	73.06
258.452	72.06
258.685	87.06
258.918	72.06
259.151	76.06
259.383	74.06
259.616	80.06
259.849	87.06
260.081	70.06
260.314	73.06
260.547	78.06
260.779	94.06
261.012	84.06
261.244	87.06
261.477	89.06
261.71	83.06
261.942	83.06
262.175	97.06
262.407	87.06
262.64	81.06
262.872	95.06
263.105	87.06
263.337	86.06
263.57	81.06
263.802	83.06
264.035	73.06
264.267	71.06
264.499	81.06
264.732	74.06
264.964	95.06
265.197	85.06
265.429	94.06
265.661	78.06
265.894	80.06
266.126	86.06
266.358	99.06
266.591	81.06
266.823	81.06
267.055	68.06
267.287	68.06
267.52	82.06
267.752	87.06
267.984	68.06
268.216	90.06
268.448	87.06
268.681	81.06
268.913	86.06
269.145	80.06
269.377	82.06
269.609	80.06
269.841	86.06
270.073	77.06
270.306	78.06
270.538	78.06
270.77	73.06
271.002	82.06
271.234	104.06
271.466	68.06
271.698	77.06
271.93	69.06
272.162	84.06
272.394	88.06
272.626	91.06
272.858	78.06
273.09	91.06
273.322	87.06
273.553	96.06
273.785	86.06
274.017	90.06
274.249	90.06
274.481	77.06
274.713	87.06
274.945	90.06
275.176	89.06
275.408	99.06
275.64	88.06
275.872	82.06
276.104	91.06
276.335	78.06
276.567	77.06
276.799	98.06
277.031	86.06
277.262	77.06
277.494	89.06
277.726	96.06
277.957	93.06
278.189	95.06
278.421	89.06
278.652	93.06
278.884	72.06
279.115	96.06
279.347	84.06
279.579	86.06
279.81	86.06
280.042	91.06
280.273	78.06
280.505	82.06
280.736	86.06
280.968	89.06
281.199	82.06
281.431	76.06
281.662	87.06
281.894	85.06
282.125	81.06
282.356	96.06
282.588	87.06
282.819	78.06
283.051	87.06
283.282	79.06
283.513	100.06
283.745	91.06
283.976	85.06
284.207	77.06
284.439	78.06
284.67	76.06
284.901	78.06
285.132	99.06
285.364	81.06
285.595	72.06
285.826	89.06
286.057	92.06
286.288	76.06
286.52	83.06
286.751	86.06
286.982	82.06
287.213	98.06
287.444	88.06
287.675	79.06
287.906	97.06
288.138	82.06
288.369	71.06
288.6	85.06
288.831	80.06
289.062	100.06
289.293	98.06
289.524	81.06
289.755	83.06
289.986	86.06
290.217	97.06
290.448	87.06
290.679	81.06
290.91	85.06
291.141	76.06
291.371	88.06
291.602	85.06
291.833	77.06
292.064	80.06
292.295	80.06
292.526	81.06
292.757	69.06
292.987	77.06
293.218	66.06
293.449	70.06
293.68	81.06
293.91	63.06
294.141	88.06
294.372	76.06
294.603	78.06
294.833	74.06
295.064	105.06
295.295	82.06
295.525	84.06
295.756	84.06
295.987	92.06
296.217	91.06
296.448	83.06
296.679	76.06
296.909	91.06
297.14	89.06
297.37	92.06
297.601	93.06
297.831	69.06
298.062	88.06
298.292	85.06
298.523	84.06
298.753	83.06
298.984	83.06
299.214	86.06
299.445	82.06
299.675	99.06
299.905	71.06
300.136	75.06
300.366	86.06
300.597	83.06
300.827	85.06
301.057	85.06
301.288	88.06
301.518	86.06
301.748	85.06
301.979	81.06
302.209	84.06
302.439	77.06
302.669	90.06
302.9	85.06
303.13	76.06
303.36	86.06
303.59	89.06
303.82	90.06
304.051	96.06
304.281	84.06
304.511	83.06
304.741	68.06
304.971	91.06
305.201	85.06
305.431	72.06
305.661	94.06
305.891	77.06
306.121	98.06
306.352	85.06
306.582	73.06
306.812	87.06
307.042	87.06
307.272	94.06
307.502	81.06
307.731	88.06
307.961	74.06
308.191	101.06
308.421	84.06
308.651	90.06
308.881	90.06
309.111	90.06
309.341	82.06
309.571	89.06
309.8	93.06
310.03	84.06
310.26	95.06
310.49	84.06
310.72	75.06
310.949	72.06
311.179	84.06
311.409	92.06
311.639	80.06
311.868	94.06
312.098	73.06
312.328	85.06
312.557	78.06
312.787	83.06
313.017	78.06
313.246	95.06
313.476	82.06
313.706	96.06
313.935	80.06
314.165	81.06
314.394	91.06
314.624	90.06
314.853	81.06
315.083	90.06
315.312	77.06
315.542	92.06
315.771	77.06
316.001	82.06
316.23	67.06
316.46	73.06
316.689	82.06
316.919	83.06
317.148	87.06
317.377	94.06
317.607	82.06
317.836	75.06
318.065	82.06
318.295	82.06
318.524	85.06
318.753	85.06
318.983	90.06
319.212	82.06
319.441	70.06
319.67	90.06
319.9	92.06
320.129	77.06
320.358	81.06
320.587	94.06
320.816	98.06
321.046	75.06
321.275	96.06
321.504	78.06
321.733	78.06
321.962	90.06
322.191	82.06
322.42	74.06
322.649	100.06
322.878	76.06
323.108	80.06
323.337	75.06
323.566	91.06
323.795	90.06
324.024	88.06
324.253	76.06
324.482	100.06
324.71	94.06
324.939	96.06
325.168	79.06
325.397	91.06
325.626	76.06
325.855	92.06
326.084	89.06
326.313	91.06
326.542	84.06
326.77	84.06
326.999	79.06
327.228	76.06
327.457	93.06
327.686	72.06
327.914	82.06
328.143	82.06
328.372	93.06
328.6	85.06
328.829	77.06
329.058	74.06
329.287	87.06
329.515	99.06
329.744	77.06
329.972	91.06
330.201	90.06
330.43	99.06
330.658	82.06
330.887	88.06
331.115	83.06
331.344	64.06
331.572	98.06
331.801	77.06
332.03	87.06
332.258	85.06
332.486	84.06
332.715	87.06
332.943	66.06
333.172	88.06
333.4	90.06
333.629	84.06
333.857	78.06
334.085	93.06
334.314	81.06
334.542	90.06
334.771	95.06
334.999	86.06
335.227	82.06
335.455	90.06
335.684	72.06
335.912	85.06
336.14	98.06
336.369	90.06
336.597	85.06
336.825	85.06
337.053	77.06
337.281	89.06
337.51	86.06
337.738	97.06
337.966	81.06
338.194	78.06
338.422	81.06
338.65	84.06
338.878	96.06
339.106	75.06
339.334	99.06
339.562	74.06
339.79	87.06
340.018	79.06
340.246	93.06
340.474	77.06
340.702	83.06
340.93	73.06
341.158	77.06
341.386	89.06
341.614	84.06
341.842	94.06
342.07	84.06
342.298	86.06
342.526	71.06
342.754	77.06
342.981	83.06
343.209	80.06
343.437	91.06
343.665	76.06
343.893	83.06
344.12	93.06
344.348	81.06
344.576	85.06
344.804	94.06
345.031	73.06
345.259	84.06
345.487	83.06
345.714	73.06
345.942	78.06
346.17	85.06
346.397	81.06
346.625	76.06
346.853	100.06
347.08	81.06
347.308	78.06
347.535	83.06
347.763	74.06
347.99	86.06
348.218	79.06
348.445	79.06
348.673	74.06
348.9	80.06
349.128	83.06
349.355	88.06
349.583	91.06
349.81	90.06
350.037	82.06
350.265	81.06
350.492	94.06
350.72	80.06
350.947	92.06
351.174	76.06
351.402	76.06
351.629	81.06
351.856	85.06
352.083	84.06
352.311	90.06
352.538	81.06
352.765	84.06
352.992	72.06
353.22	91.06
353.447	95.06
353.674	91.06
353.901	81.06
354.128	73.06
354.355	94.06
354.583	84.06
354.81	90.06
355.037	97.06
355.264	78.06
355.491	84.06
355.718	90.06
355.945	82.06
356.172	93.06
356.399	92.06
356.626	85.06
356.853	98.06
357.08	88.06
357.307	89.06
357.534	91.06
357.761	104.06
357.988	81.06
358.215	74.06
358.441	92.06
358.668	93.06
358.895	82.06
359.122	80.06
359.349	92.06
359.576	79.06
359.802	87.06
360.029	81.06
360.256	86.06
360.483	96.06
360.709	87.06
360.936	94.06
361.163	103.06
361.39	83.06
361.616	77.06
361.843	75.06
362.07	103.06
362.296	88.06
362.523	93.06
362.749	81.06
362.976	92.06
363.203	89.06
363.429	88.06
363.656	95.06
363.882	91.06
364.109	97.06
364.335	77.06
364.562	86.06
364.788	103.06
365.015	90.06
365.241	84.06
365.468	89.06
365.694	78.06
365.92	80.06
366.147	74.06
366.373	98.06
366.599	86.06
366.826	77.06
367.052	89.06
367.278	97.06
367.505	83.06
367.731	89.06
367.957	80.06
368.184	90.06
368.41	88.06
368.636	99.06
368.862	82.06
369.089	84.06
369.315	88.06
369.541	92.06
369.767	75.06
369.993	90.06
370.219	89.06
370.445	78.06
370.672	86.06
370.898	83.06
371.124	88.06
371.35	87.06
371.576	102.06
371.802	92.06
372.028	83.06
372.254	85.06
372.48	100.06
372.706	82.06
372.932	73.06
373.158	91.06
373.384	74.06
373.61	87.06
373.835	96.06
374.061	93.06
374.287	82.06
374.513	92.06
374.739	92.06
374.965	83.06
375.191	81.06
375.416	68.06
375.642	100.06
375.868	108.06
376.094	92.06
376.319	83.06
376.545	93.06
376.771	92.06
376.997	77.06
377.222	85.06
377.448	101.06
377.674	82.06
377.899	93.06
378.125	87.06
378.35	90.06
378.576	87.06
378.802	85.06
379.027	84.06
379.253	87.06
379.478	84.06
379.704	74.06
379.929	93.06
380.155	91.06
380.38	101.06
380.606	102.06
380.831	84.06
381.057	97.06
381.282	80.06
381.507	93.06
381.733	89.06
381.958	83.06
382.184	77.06
382.409	77.06
382.634	110.06
382.86	98.06
383.085	100.06
383.31	96.06
383.535	101.06
383.761	89.06
383.986	96.06
384.211	96.06
384.436	84.06
384.662	106.06
384.887	92.06
385.112	100.06
385.337	101.06
385.562	94.06
385.787	94.06
386.013	104.06
386.238	103.06
386.463	85.06
386.688	101.06
386.913	92.06
387.138	88.06
387.363	89.06
387.588	71.06
387.813	103.06
388.038	90.06
388.263	93.06
388.488	94.06
388.713	95.06
388.938	93.06
389.163	80.06
389.387	97.06
389.612	79.06
389.837	92.06
390.062	101.06
390.287	101.06
390.512	101.06
390.736	93.06
390.961	85.06
391.186	100.06
391.411	87.06
391.636	84.06
391.86	102.06
392.085	101.06
392.31	102.06
392.534	98.06
392.759	97.06
392.984	98.06
393.208	106.06
393.433	96.06
393.658	114.06
393.882	87.06
394.107	101.06
394.331	94.06
394.556	96.06
394.78	89.06
395.005	99.06
395.229	102.06
395.454	99.06
395.678	94.06
395.903	102.06
396.127	108.06
396.352	105.06
396.576	96.06
396.801	101.06
397.025	95.06
397.249	99.06
397.474	99.06
397.698	101.06
397.922	106.06
398.147	112.06
398.371	88.06
398.595	105.06
398.82	95.06
399.044	99.06
399.268	99.06
399.492	103.06
399.717	100.06
399.941	107.06
400.165	118.06
400.389	101.06
400.613	99.06
400.837	110.06
401.062	105.06
401.286	116.06
401.51	99.06
401.734	89.06
401.958	114.06
402.182	107.06
402.406	112.06
402.63	106.06
402.854	102.06
403.078	102.06
403.302	104.06
403.526	110.06
403.75	112.06
403.974	109.06
404.198	118.06
404.422	103.06
404.645	98.06
404.869	117.06
405.093	108.06
405.317	110.06
405.541	116.06
405.765	108.06
405.988	107.06
406.212	113.06
406.436	93.06
406.66	108.06
406.883	130.06
407.107	112.06
407.331	118.06
407.555	105.06
407.778	99.06
408.002	112.06
408.226	98.06
408.449	110.06
408.673	104.06
408.896	109.06
409.12	103.06
409.344	108.06
409.567	106.06
409.791	130.06
410.014	108.06
410.238	123.06
410.461	123.06
410.685	102.06
410.908	105.06
411.132	107.06
411.355	91.06
411.578	98.06
411.802	109.06
412.025	94.06
412.249	107.06
412.472	101.06
412.695	98.06
412.919	99.06
413.142	93.06
413.365	117.06
413.589	109.06
413.812	115.06
414.035	120.06
414.258	113.06
414.482	109.06
414.705	112.06
414.928	112.06
415.151	100.06
415.374	123.06
415.597	106.06
415.821	108.06
416.044	101.06
416.267	113.06
416.49	116.06
416.713	113.06
416.936	116.06
417.159	97.06
417.382	94.06
417.605	112.06
417.828	117.06
418.051	106.06
418.274	132.06
418.497	122.06
418.72	124.06
418.943	114.06
419.166	109.06
419.389	105.06
419.611	119.06
419.834	108.06
420.057	115.06
420.28	116.06
420.503	128.06
420.726	108.06
420.948	112.06
421.171	100.06
421.394	116.06
421.617	111.06
421.839	104.06
422.062	122.06
422.285	118.06
422.507	125.06
422.73	118.06
422.953	104.06
423.175	119.06
423.398	126.06
423.621	119.06
423.843	115.06
424.066	118.06
424.288	118.06
424.511	131.06
424.733	118.06
424.956	101.06
425.178	114.06
425.401	120.06
425.623	107.06
425.846	117.06
426.068	130.06
426.291	107.06
426.513	112.06
426.735	108.06
426.958	117.06
427.18	108.06
427.402	113.06
427.625	107.06
427.847	112.06
428.069	108.06
428.292	103.06
428.514	116.06
428.736	105.06
428.958	106.06
429.181	110.06
429.403	100.06
429.625	97.06
429.847	121.06
430.069	124.06
430.292	115.06
430.514	114.06
430.736	116.06
430.958	125.06
431.18	106.06
431.402	110.06
431.624	106.06
431.846	106.06
432.068	91.06
432.29	106.06
432.512	108.06
432.734	107.06
432.956	121.06
433.178	117.06
433.4	88.06
433.622	116.06
433.844	107.06
434.066	107.06
434.287	121.06
434.509	98.06
434.731	96.06
434.953	115.06
435.175	120.06
435.397	118.06
435.618	116.06
435.84	119.06
436.062	122.06
436.284	107.06
436.505	100.06
436.727	116.06
436.949	122.06
437.17	110.06
437.392	90.06
437.614	113.06
437.835	104.06
438.057	113.06
438.278	107.06
438.5	108.06
438.721	114.06
438.943	119.06
439.165	110.06
439.386	117.06
439.608	110.06
439.829	104.06
440.05	110.06
440.272	103.06
440.493	121.06
440.715	114.06
440.936	112.06
441.158	113.06
441.379	121.06
441.6	122.06
441.822	118.06
442.043	101.06
442.264	131.06
442.486	124.06
442.707	116.06
442.928	117.06
443.149	110.06
443.371	104.06
443.592	106.06
443.813	119.06
444.034	116.06
444.255	117.06
444.476	110.06
444.698	117.06
444.919	132.06
445.14	270.06
445.361	183.06
445.582	126.06
445.803	115.06
446.024	118.06
446.245	113.06
446.466	120.06
446.687	107.06
446.908	128.06
447.129	122.06
447.35	113.06
447.571	118.06
447.792	111.06
448.013	110.06
448.234	112.06
448.455	110.06
448.675	115.06
448.896	100.06
449.117	108.06
449.338	96.06
449.559	113.06
449.779	106.06
450	120.06
450.221	113.06
450.442	116.06
450.662	114.06
450.883	106.06
451.104	120.06
451.324	116.06
451.545	108.06
451.766	116.06
451.986	104.06
452.207	107.06
452.428	116.06
452.648	102.06
452.869	113.06
453.089	96.06
453.31	108.06
453.53	97.06
453.751	98.06
453.971	89.06
454.192	102.06
454.412	104.06
454.633	116.06
454.853	107.06
455.073	119.06
455.294	112.06
455.514	114.06
455.734	101.06
455.955	104.06
456.175	89.06
456.395	89.06
456.616	109.06
456.836	99.06
457.056	101.06
457.276	112.06
457.497	97.06
457.717	110.06
457.937	126.06
458.157	108.06
458.377	108.06
458.598	106.06
458.818	104.06
459.038	94.06
459.258	105.06
459.478	102.06
459.698	100.06
459.918	117.06
460.138	101.06
460.358	109.06
460.578	120.06
460.798	116.06
461.018	116.06
461.238	118.06
461.458	108.06
461.678	119.06
461.898	120.06
462.118	112.06
462.338	123.06
462.558	139.06
462.777	112.06
462.997	116.06
463.217	120.06
463.437	116.06
463.657	124.06
463.876	129.06
464.096	115.06
464.316	123.06
464.536	112.06
464.755	116.06
464.975	118.06
465.195	122.06
465.414	99.06
465.634	127.06
465.854	124.06
466.073	126.06
466.293	124.06
466.512	125.06
466.732	96.06
466.951	112.06
467.171	118.06
467.391	119.06
467.61	117.06
467.829	118.06
468.049	117.06
468.268	119.06
468.488	113.06
468.707	116.06
468.927	130.06
469.146	104.06
469.365	127.06
469.585	116.06
469.804	125.06
470.023	104.06
470.243	102.06
470.462	131.06
470.681	122.06
470.901	130.06
471.12	141.06
471.339	121.06
471.558	120.06
471.777	123.06
471.997	128.06
472.216	107.06
472.435	112.06
472.654	107.06
472.873	116.06
473.092	130.06
473.311	128.06
473.53	106.06
473.749	108.06
473.968	128.06
474.187	112.06
474.406	112.06
474.625	121.06
474.844	115.06
475.063	116.06
475.282	122.06
475.501	119.06
475.72	115.06
475.939	114.06
476.158	113.06
476.377	119.06
476.596	109.06
476.814	106.06
477.033	102.06
477.252	116.06
477.471	116.06
477.69	124.06
477.908	126.06
478.127	133.06
478.346	136.06
478.564	132.06
478.783	115.06
479.002	120.06
479.22	128.06
479.439	129.06
479.658	128.06
479.876	123.06
480.095	104.06
480.313	115.06
480.532	128.06
480.751	130.06
480.969	109.06
481.188	112.06
481.406	120.06
481.624	117.06
481.843	112.06
482.061	107.06
482.28	126.06
482.498	119.06
482.717	105.06
482.935	119.06
483.153	128.06
483.372	127.06
483.59	134.06
483.808	130.06
484.027	107.06
484.245	127.06
484.463	136.06
484.681	120.06
484.9	134.06
485.118	150.06
485.336	124.06
485.554	124.06
485.772	114.06
485.99	121.06
486.209	114.06
486.427	114.06
486.645	112.06
486.863	136.06
487.081	120.06
487.299	108.06
487.517	126.06
487.735	146.06
487.953	134.06
488.171	140.06
488.389	124.06
488.607	120.06
488.825	124.06
489.043	122.06
489.261	111.06
489.479	142.06
489.696	138.06
489.914	126.06
490.132	126.06
490.35	122.06
490.568	133.06
490.786	148.06
491.003	154.06
491.221	137.06
491.439	152.06
491.657	154.06
491.874	148.06
492.092	150.06
492.31	144.06
492.527	152.06
492.745	160.06
492.963	136.06
493.18	141.06
493.398	144.06
493.615	144.06
493.833	137.06
494.05	152.06
494.268	146.06
494.485	163.06
494.703	158.06
494.92	150.06
495.138	142.06
495.355	140.06
495.573	149.06
495.79	147.06
496.008	139.06
496.225	154.06
496.442	132.06
496.66	151.06
496.877	141.06
497.094	155.06
497.312	158.06
497.529	140.06
497.746	144.06
497.963	125.06
498.181	146.06
498.398	134.06
498.615	146.06
498.832	143.06
499.049	143.06
499.267	167.06
499.484	173.06
499.701	170.06
499.918	179.06
500.135	200.06
500.352	205.06
500.569	206.06
500.786	225.06
501.003	202.06
501.22	184.06
501.437	190.06
501.654	180.06
501.871	143.06
502.088	148.06
502.305	141.06
502.522	151.06
502.739	154.06
502.956	143.06
503.172	137.06
503.389	126.06
503.606	141.06
503.823	144.06
504.04	136.06
504.256	144.06
504.473	139.06
504.69	124.06
504.907	152.06
505.123	122.06
505.34	136.06
505.557	141.06
505.773	122.06
505.99	138.06
506.207	124.06
506.423	129.06
506.64	132.06
506.856	125.06
507.073	106.06
507.289	140.06
507.506	121.06
507.722	133.06
507.939	119.06
508.155	123.06
508.372	123.06
508.588	122.06
508.805	122.06
509.021	106.06
509.238	132.06
509.454	114.06
509.67	118.06
509.887	120.06
510.103	112.06
510.319	105.06
510.536	126.06
510.752	130.06
510.968	117.06
511.184	121.06
511.401	124.06
511.617	114.06
511.833	112.06
512.049	122.06
512.265	118.06
512.481	112.06
512.698	118.06
512.914	114.06
513.13	122.06
513.346	116.06
513.562	115.06
513.778	116.06
513.994	92.06
514.21	124.06
514.426	113.06
514.642	122.06
514.858	95.06
515.074	106.06
515.29	116.06
515.506	118.06
515.721	112.06
515.937	124.06
516.153	104.06
516.369	105.06
516.585	115.06
516.801	114.06
517.016	118.06
517.232	116.06
517.448	130.06
517.664	127.06
517.879	140.06
518.095	132.06
518.311	126.06
518.527	114.06
518.742	117.06
518.958	125.06
519.173	123.06
519.389	118.06
519.605	120.06
519.82	121.06
520.036	108.06
520.251	110.06
520.467	113.06
520.682	108.06
520.898	117.06
521.113	113.06
521.329	101.06
521.544	118.06
521.76	112.06
521.975	102.06
522.19	118.06
522.406	119.06
522.621	111.06
522.836	135.06
523.052	128.06
523.267	139.06
523.482	106.06
523.698	112.06
523.913	126.06
524.128	128.06
524.343	116.06
524.559	120.06
524.774	115.06
524.989	122.06
525.204	122.06
525.419	110.06
525.634	116.06
525.849	122.06
526.064	118.06
526.28	116.06
526.495	117.06
526.71	114.06
526.925	100.06
527.14	107.06
527.355	113.06
527.57	120.06
527.785	93.06
527.999	104.06
528.214	121.06
528.429	110.06
528.644	109.06
528.859	128.06
529.074	121.06
529.289	138.06
529.503	117.06
529.718	101.06
529.933	103.06
530.148	108.06
530.363	121.06
530.577	107.06
530.792	106.06
531.007	113.06
531.221	108.06
531.436	112.06
531.651	121.06
531.865	106.06
532.08	101.06
532.295	107.06
532.509	112.06
532.724	107.06
532.938	105.06
533.153	110.06
533.367	104.06
533.582	125.06
533.796	123.06
534.011	104.06
534.225	120.06
534.44	113.06
534.654	108.06
534.868	101.06
535.083	117.06
535.297	122.06
535.511	107.06
535.726	112.06
535.94	105.06
536.154	102.06
536.369	108.06
536.583	114.06
536.797	114.06
537.011	103.06
537.225	99.06
537.44	101.06
537.654	114.06
537.868	101.06
538.082	113.06
538.296	107.06
538.51	122.06
538.724	115.06
538.938	116.06
539.153	117.06
539.367	122.06
539.581	120.06
539.795	126.06
540.009	98.06
540.222	109.06
540.436	114.06
540.65	108.06
540.864	128.06
541.078	118.06
541.292	126.06
541.506	126.06
541.72	139.06
541.934	143.06
542.147	140.06
542.361	138.06
542.575	132.06
542.789	119.06
543.002	120.06
543.216	134.06
543.43	111.06
543.644	116.06
543.857	131.06
544.071	120.06
544.285	135.06
544.498	135.06
544.712	132.06
544.925	122.06
545.139	132.06
545.352	134.06
545.566	136.06
545.779	138.06
545.993	135.06
546.206	135.06
546.42	118.06
546.633	137.06
546.847	141.06
547.06	141.06
547.274	139.06
547.487	134.06
547.7	133.06
547.914	131.06
548.127	133.06
548.34	132.06
548.554	124.06
548.767	137.06
548.98	118.06
549.193	123.06
549.407	122.06
549.62	136.06
549.833	132.06
550.046	117.06
550.259	121.06
550.473	121.06
550.686	128.06
550.899	124.06
551.112	126.06
551.325	125.06
551.538	108.06
551.751	109.06
551.964	114.06
552.177	124.06
552.39	135.06
552.603	137.06
552.816	131.06
553.029	123.06
553.242	129.06
553.455	132.06
553.667	138.06
553.88	146.06
554.093	138.06
554.306	120.06
554.519	116.06
554.732	141.06
554.944	124.06
555.157	128.06
555.37	109.06
555.583	124.06
555.795	125.06
556.008	109.06
556.221	116.06
556.433	131.06
556.646	131.06
556.859	128.06
557.071	115.06
557.284	124.06
557.496	144.06
557.709	114.06
557.921	130.06
558.134	129.06
558.346	101.06
558.559	108.06
558.771	124.06
558.984	108.06
559.196	128.06
559.409	109.06
559.621	132.06
559.833	112.06
560.046	112.06
560.258	122.06
560.47	104.06
560.683	104.06
560.895	121.06
561.107	120.06
561.32	112.06
561.532	121.06
561.744	114.06
561.956	105.06
562.168	107.06
562.381	118.06
562.593	116.06
562.805	116.06
563.017	115.06
563.229	113.06
563.441	117.06
563.653	114.06
563.865	117.06
564.077	112.06
564.289	112.06
564.501	101.06
564.713	100.06
564.925	104.06
565.137	106.06
565.349	117.06
565.561	124.06
565.773	109.06
565.985	114.06
566.197	124.06
566.408	107.06
566.62	128.06
566.832	128.06
567.044	123.06
567.255	121.06
567.467	107.06
567.679	124.06
567.891	125.06
568.102	122.06
568.314	122.06
568.526	109.06
568.737	112.06
568.949	105.06
569.161	120.06
569.372	92.06
569.584	111.06
569.795	97.06
570.007	110.06
570.218	99.06
570.43	109.06
570.641	94.06
570.853	90.06
571.064	100.06
571.276	113.06
571.487	102.06
571.698	96.06
571.91	97.06
572.121	103.06
572.333	108.06
572.544	94.06
572.755	101.06
572.966	97.06
573.178	98.06
573.389	95.06
573.6	89.06
573.811	101.06
574.023	81.06
574.234	107.06
574.445	91.06
574.656	92.06
574.867	99.06
575.078	98.06
575.289	104.06
575.501	109.06
575.712	98.06
575.923	83.06
576.134	97.06
576.345	93.06
576.556	93.06
576.767	98.06
576.978	112.06
577.188	101.06
577.399	101.06
577.61	86.06
577.821	92.06
578.032	101.06
578.243	104.06
578.454	108.06
578.665	92.06
578.875	86.06
579.086	85.06
579.297	84.06
579.508	92.06
579.718	106.06
579.929	93.06
580.14	102.06
580.35	90.06
580.561	101.06
580.772	94.06
580.982	101.06
581.193	91.06
581.403	93.06
581.614	89.06
581.825	91.06
582.035	85.06
582.246	112.06
582.456	82.06
582.667	115.06
582.877	90.06
583.087	92.06
583.298	105.06
583.508	86.06
583.719	92.06
583.929	112.06
584.139	92.06
584.35	86.06
584.56	100.06
584.77	98.06
584.981	85.06
585.191	105.06
585.401	97.06
585.611	98.06
585.821	93.06
586.032	87.06
586.242	101.06
586.452	84.06
586.662	90.06
586.872	96.06
587.082	96.06
587.292	76.06
587.502	98.06
587.713	102.06
587.923	99.06
588.133	88.06
588.343	96.06
588.553	82.06
588.762	93.06
588.972	90.06
589.182	85.06
589.392	105.06
589.602	94.06
589.812	90.06
590.022	97.06
590.232	90.06
590.441	98.06
590.651	99.06
590.861	72.06
591.071	100.06
591.281	103.06
591.49	110.06
591.7	97.06
591.91	93.06
592.119	85.06
592.329	77.06
592.539	87.06
592.748	87.06
592.958	89.06
593.167	95.06
593.377	97.06
593.587	94.06
593.796	105.06
594.006	103.06
594.215	98.06
594.424	97.06
594.634	93.06
594.843	88.06
595.053	78.06
595.262	88.06
595.472	106.06
595.681	103.06
595.89	82.06
596.1	90.06
596.309	89.06
596.518	83.06
596.727	102.06
596.937	97.06
597.146	111.06
597.355	93.06
597.564	95.06
597.774	89.06
597.983	91.06
598.192	86.06
598.401	77.06
598.61	102.06
598.819	91.06
599.028	93.06
599.237	97.06
599.446	100.06
599.655	96.06
599.864	86.06
600.073	80.06
600.282	94.06
600.491	100.06
600.7	91.06
600.909	92.06
601.118	97.06
601.327	76.06
601.536	93.06
601.745	95.06
601.953	86.06
602.162	100.06
602.371	105.06
602.58	94.06
602.789	96.06
602.997	82.06
603.206	96.06
603.415	101.06
603.623	106.06
603.832	89.06
604.041	96.06
604.249	103.06
604.458	90.06
604.666	95.06
604.875	95.06
605.084	86.06
605.292	87.06
605.501	93.06
605.709	92.06
605.918	85.06
606.126	85.06
606.334	100.06
606.543	95.06
606.751	88.06
606.96	101.06
607.168	77.06
607.376	90.06
607.585	110.06
607.793	89.06
608.001	89.06
608.21	99.06
608.418	100.06
608.626	111.06
608.834	95.06
609.043	93.06
609.251	97.06
609.459	82.06
609.667	87.06
609.875	100.06
610.083	104.06
610.291	98.06
610.499	102.06
610.707	103.06
610.916	97.06
611.124	99.06
611.332	92.06
611.54	99.06
611.748	91.06
611.955	95.06
612.163	92.06
612.371	111.06
612.579	99.06
612.787	85.06
612.995	100.06
613.203	98.06
613.411	101.06
613.618	100.06
613.826	97.06
614.034	86.06
614.242	86.06
614.449	97.06
614.657	87.06
614.865	93.06
615.072	96.06
615.28	90.06
615.488	104.06
615.695	105.06
615.903	101.06
616.111	106.06
616.318	94.06
616.526	92.06
616.733	99.06
616.941	97.06
617.148	100.06
617.356	96.06
617.563	94.06
617.771	86.06
617.978	96.06
618.185	89.06
618.393	101.06
618.6	94.06
618.807	97.06
619.015	100.06
619.222	100.06
619.429	96.06
619.637	102.06
619.844	85.06
620.051	100.06
620.258	95.06
620.466	92.06
620.673	90.06
620.88	102.06
621.087	95.06
621.294	106.06
621.501	94.06
621.708	87.06
621.915	92.06
622.122	91.06
622.329	93.06
622.536	77.06
622.743	84.06
622.95	100.06
623.157	89.06
623.364	82.06
623.571	89.06
623.778	87.06
623.985	89.06
624.192	88.06
624.399	88.06
624.606	94.06
624.812	93.06
625.019	86.06
625.226	98.06
625.433	93.06
625.639	87.06
625.846	78.06
626.053	87.06
626.259	88.06
626.466	102.06
626.673	75.06
626.879	79.06
627.086	94.06
627.293	87.06
627.499	84.06
627.706	96.06
627.912	94.06
628.119	102.06
628.325	93.06
628.532	98.06
628.738	96.06
628.945	82.06
629.151	90.06
629.357	81.06
629.564	87.06
629.77	96.06
629.976	89.06
630.183	100.06
630.389	96.06
630.595	92.06
630.802	78.06
631.008	92.06
631.214	90.06
631.42	87.06
631.627	89.06
631.833	83.06
632.039	96.06
632.245	99.06
632.451	91.06
632.657	93.06
632.863	90.06
633.069	111.06
633.275	90.06
633.481	96.06
633.688	75.06
633.893	92.06
634.099	90.06
634.305	77.06
634.511	92.06
634.717	93.06
634.923	86.06
635.129	90.06
635.335	94.06
635.541	92.06
635.747	77.06
635.952	77.06
636.158	99.06
636.364	98.06
636.57	79.06
636.775	92.06
636.981	93.06
637.187	93.06
637.392	90.06
637.598	90.06
637.804	84.06
638.009	81.06
638.215	83.06
638.421	98.06
638.626	89.06
638.832	90.06
639.037	82.06
639.243	72.06
639.448	86.06
639.654	93.06
639.859	89.06
640.065	85.06
640.27	104.06
640.475	86.06
640.681	83.06
640.886	85.06
641.091	82.06
641.297	103.06
641.502	84.06
641.707	96.06
641.913	95.06
642.118	81.06
642.323	87.06
642.528	97.06
642.733	93.06
642.939	99.06
643.144	84.06
643.349	99.06
643.554	105.06
643.759	77.06
643.964	78.06
644.169	95.06
644.374	78.06
644.579	78.06
644.784	89.06
644.989	102.06
645.194	83.06
645.399	95.06
645.604	69.06
645.809	83.06
646.014	89.06
646.219	81.06
646.423	106.06
646.628	85.06
646.833	89.06
647.038	74.06
647.243	95.06
647.447	106.06
647.652	78.06
647.857	74.06
648.062	90.06
648.266	93.06
648.471	98.06
648.676	87.06
648.88	78.06
649.085	82.06
649.289	76.06
649.494	84.06
649.698	80.06
649.903	87.06
650.107	81.06
650.312	93.06
650.516	90.06
650.721	92.06
650.925	79.06
651.13	89.06
651.334	89.06
651.539	79.06
651.743	98.06
651.947	88.06
652.152	98.06
652.356	101.06
652.56	82.06
652.764	91.06
652.969	89.06
653.173	84.06
653.377	84.06
653.581	85.06
653.785	72.06
653.99	84.06
654.194	90.06
654.398	88.06
654.602	71.06
654.806	77.06
655.01	85.06
655.214	101.06
655.418	103.06
655.622	87.06
655.826	85.06
656.03	96.06
656.234	84.06
656.438	93.06
656.642	93.06
656.846	90.06
657.049	84.06
657.253	86.06
657.457	92.06
657.661	88.06
657.865	74.06
658.068	79.06
658.272	86.06
658.476	84.06
658.68	87.06
658.883	75.06
659.087	81.06
659.291	85.06
659.494	78.06
659.698	79.06
659.901	93.06
660.105	78.06
660.309	81.06
660.512	70.06
660.716	78.06
660.919	84.06
661.123	85.06
661.326	87.06
661.53	79.06
661.733	90.06
661.936	78.06
662.14	74.06
662.343	78.06
662.546	85.06
662.75	79.06
662.953	78.06
663.156	88.06
663.36	92.06
663.563	78.06
663.766	84.06
663.969	76.06
664.173	77.06
664.376	84.06
664.579	83.06
664.782	82.06
664.985	85.06
665.188	95.06
665.391	74.06
665.594	81.06
665.797	92.06
666	79.06
666.203	73.06
666.406	76.06
666.609	83.06
666.812	76.06
667.015	86.06
667.218	78.06
667.421	87.06
667.624	88.06
667.827	74.06
668.03	75.06
668.232	84.06
668.435	80.06
668.638	85.06
668.841	85.06
669.043	81.06
669.246	78.06
669.449	73.06
669.651	61.06
669.854	82.06
670.057	78.06
670.259	83.06
670.462	68.06
670.665	89.06
670.867	85.06
671.07	73.06
671.272	78.06
671.475	79.06
671.677	80.06
671.88	76.06
672.082	91.06
672.284	87.06
672.487	82.06
672.689	84.06
672.892	81.06
