Data from StandardFe(NO3)3.TAE.3%Agarose.FlatLispGreen.Lamp.Energy10.07252019_HRD10591_11-53-18-439.txt Node
Date: Thu Jul 25 11:53:18 EDT 2019
User: cochatt
Spectrometer: HR+D1059
Trigger mode: 1
Integration Time (sec): 1.000000E-1
Scans to average: 1
Electric dark correction enabled: true
Nonlinearity correction enabled: false
Boxcar width: 0
XAxis mode: Wavelengths
Number of Pixels in Spectrum: 2048
>>>>>Begin Spectral Data<<<<<
223.165	1.69
223.4	1.69
223.635	1.69
223.869	-32.31
224.104	-14.31
224.338	-14.31
224.573	-9.31
224.808	-4.31
225.042	-12.31
225.277	-0.31
225.511	5.69
225.746	-8.31
225.98	12.69
226.215	9.69
226.449	12.69
226.683	12.69
226.918	13.69
227.152	26.69
227.387	41.69
227.621	45.69
227.856	36.69
228.09	43.69
228.324	53.69
228.559	54.69
228.793	57.69
229.027	68.69
229.262	56.69
229.496	78.69
229.73	84.69
229.964	63.69
230.199	73.69
230.433	84.69
230.667	88.69
230.901	81.69
231.136	79.69
231.37	78.69
231.604	83.69
231.838	80.69
232.072	77.69
232.306	93.69
232.541	78.69
232.775	94.69
233.009	90.69
233.243	79.69
233.477	72.69
233.711	94.69
233.945	81.69
234.179	83.69
234.413	89.69
234.647	82.69
234.881	82.69
235.115	76.69
235.349	72.69
235.583	95.69
235.817	85.69
236.051	70.69
236.285	71.69
236.519	78.69
236.753	72.69
236.987	86.69
237.221	86.69
237.455	74.69
237.689	91.69
237.922	73.69
238.156	71.69
238.39	69.69
238.624	74.69
238.858	76.69
239.091	76.69
239.325	60.69
239.559	69.69
239.793	65.69
240.027	74.69
240.26	71.69
240.494	79.69
240.728	77.69
240.961	74.69
241.195	61.69
241.429	74.69
241.662	82.69
241.896	86.69
242.13	68.69
242.363	75.69
242.597	90.69
242.83	86.69
243.064	93.69
243.298	69.69
243.531	75.69
243.765	75.69
243.998	73.69
244.232	72.69
244.465	81.69
244.699	78.69
244.932	78.69
245.166	84.69
245.399	81.69
245.633	79.69
245.866	86.69
246.099	83.69
246.333	78.69
246.566	85.69
246.8	66.69
247.033	65.69
247.266	95.69
247.5	82.69
247.733	79.69
247.966	72.69
248.2	75.69
248.433	94.69
248.666	73.69
248.899	89.69
249.133	93.69
249.366	77.69
249.599	72.69
249.832	83.69
250.066	80.69
250.299	93.69
250.532	75.69
250.765	83.69
250.998	88.69
251.231	80.69
251.465	68.69
251.698	83.69
251.931	83.69
252.164	85.69
252.397	72.69
252.63	84.69
252.863	93.69
253.096	83.69
253.329	84.69
253.562	89.69
253.795	90.69
254.028	80.69
254.261	98.69
254.494	76.69
254.727	73.69
254.96	84.69
255.193	74.69
255.426	88.69
255.659	75.69
255.892	84.69
256.124	90.69
256.357	89.69
256.59	81.69
256.823	85.69
257.056	92.69
257.289	76.69
257.521	88.69
257.754	89.69
257.987	83.69
258.22	88.69
258.452	75.69
258.685	82.69
258.918	72.69
259.151	92.69
259.383	98.69
259.616	87.69
259.849	85.69
260.081	68.69
260.314	75.69
260.547	89.69
260.779	77.69
261.012	82.69
261.244	92.69
261.477	92.69
261.71	88.69
261.942	80.69
262.175	83.69
262.407	72.69
262.64	68.69
262.872	82.69
263.105	74.69
263.337	75.69
263.57	77.69
263.802	84.69
264.035	83.69
264.267	72.69
264.499	75.69
264.732	82.69
264.964	85.69
265.197	89.69
265.429	90.69
265.661	99.69
265.894	87.69
266.126	83.69
266.358	77.69
266.591	87.69
266.823	86.69
267.055	74.69
267.287	71.69
267.52	82.69
267.752	68.69
267.984	88.69
268.216	80.69
268.448	80.69
268.681	77.69
268.913	83.69
269.145	90.69
269.377	87.69
269.609	94.69
269.841	76.69
270.073	88.69
270.306	89.69
270.538	92.69
270.77	65.69
271.002	76.69
271.234	73.69
271.466	76.69
271.698	72.69
271.93	87.69
272.162	76.69
272.394	85.69
272.626	91.69
272.858	84.69
273.09	86.69
273.322	94.69
273.553	94.69
273.785	96.69
274.017	83.69
274.249	81.69
274.481	80.69
274.713	74.69
274.945	81.69
275.176	72.69
275.408	92.69
275.64	94.69
275.872	85.69
276.104	89.69
276.335	81.69
276.567	72.69
276.799	77.69
277.031	85.69
277.262	80.69
277.494	92.69
277.726	84.69
277.957	89.69
278.189	76.69
278.421	93.69
278.652	75.69
278.884	96.69
279.115	76.69
279.347	82.69
279.579	92.69
279.81	94.69
280.042	86.69
280.273	92.69
280.505	78.69
280.736	86.69
280.968	88.69
281.199	70.69
281.431	83.69
281.662	82.69
281.894	93.69
282.125	83.69
282.356	92.69
282.588	89.69
282.819	83.69
283.051	80.69
283.282	95.69
283.513	82.69
283.745	86.69
283.976	88.69
284.207	98.69
284.439	86.69
284.67	86.69
284.901	94.69
285.132	89.69
285.364	94.69
285.595	73.69
285.826	72.69
286.057	103.69
286.288	94.69
286.52	85.69
286.751	93.69
286.982	78.69
287.213	89.69
287.444	78.69
287.675	86.69
287.906	73.69
288.138	96.69
288.369	97.69
288.6	77.69
288.831	88.69
289.062	80.69
289.293	90.69
289.524	81.69
289.755	86.69
289.986	82.69
290.217	74.69
290.448	78.69
290.679	81.69
290.91	91.69
291.141	84.69
291.371	85.69
291.602	92.69
291.833	86.69
292.064	87.69
292.295	79.69
292.526	91.69
292.757	91.69
292.987	92.69
293.218	78.69
293.449	75.69
293.68	87.69
293.91	92.69
294.141	82.69
294.372	95.69
294.603	93.69
294.833	104.69
295.064	89.69
295.295	75.69
295.525	91.69
295.756	98.69
295.987	90.69
296.217	89.69
296.448	93.69
296.679	77.69
296.909	99.69
297.14	81.69
297.37	75.69
297.601	75.69
297.831	95.69
298.062	86.69
298.292	74.69
298.523	100.69
298.753	83.69
298.984	86.69
299.214	85.69
299.445	93.69
299.675	89.69
299.905	77.69
300.136	91.69
300.366	77.69
300.597	88.69
300.827	83.69
301.057	97.69
301.288	84.69
301.518	83.69
301.748	96.69
301.979	93.69
302.209	87.69
302.439	92.69
302.669	93.69
302.9	87.69
303.13	91.69
303.36	89.69
303.59	76.69
303.82	75.69
304.051	75.69
304.281	82.69
304.511	89.69
304.741	85.69
304.971	86.69
305.201	96.69
305.431	96.69
305.661	100.69
305.891	84.69
306.121	92.69
306.352	87.69
306.582	94.69
306.812	83.69
307.042	78.69
307.272	94.69
307.502	96.69
307.731	104.69
307.961	80.69
308.191	84.69
308.421	83.69
308.651	88.69
308.881	86.69
309.111	80.69
309.341	74.69
309.571	93.69
309.8	78.69
310.03	81.69
310.26	93.69
310.49	89.69
310.72	98.69
310.949	89.69
311.179	90.69
311.409	93.69
311.639	75.69
311.868	73.69
312.098	74.69
312.328	85.69
312.557	86.69
312.787	90.69
313.017	94.69
313.246	96.69
313.476	80.69
313.706	82.69
313.935	90.69
314.165	94.69
314.394	84.69
314.624	88.69
314.853	92.69
315.083	73.69
315.312	97.69
315.542	90.69
315.771	77.69
316.001	94.69
316.23	86.69
316.46	75.69
316.689	70.69
316.919	72.69
317.148	77.69
317.377	84.69
317.607	90.69
317.836	95.69
318.065	88.69
318.295	78.69
318.524	86.69
318.753	92.69
318.983	93.69
319.212	81.69
319.441	99.69
319.67	89.69
319.9	93.69
320.129	78.69
320.358	97.69
320.587	88.69
320.816	81.69
321.046	109.69
321.275	99.69
321.504	86.69
321.733	80.69
321.962	71.69
322.191	78.69
322.42	82.69
322.649	70.69
322.878	84.69
323.108	84.69
323.337	76.69
323.566	81.69
323.795	78.69
324.024	78.69
324.253	92.69
324.482	76.69
324.71	74.69
324.939	87.69
325.168	83.69
325.397	84.69
325.626	87.69
325.855	94.69
326.084	85.69
326.313	85.69
326.542	81.69
326.77	86.69
326.999	72.69
327.228	85.69
327.457	69.69
327.686	87.69
327.914	83.69
328.143	95.69
328.372	86.69
328.6	88.69
328.829	74.69
329.058	89.69
329.287	87.69
329.515	86.69
329.744	100.69
329.972	85.69
330.201	70.69
330.43	76.69
330.658	67.69
330.887	81.69
331.115	96.69
331.344	85.69
331.572	84.69
331.801	82.69
332.03	90.69
332.258	85.69
332.486	94.69
332.715	84.69
332.943	94.69
333.172	88.69
333.4	85.69
333.629	93.69
333.857	77.69
334.085	95.69
334.314	83.69
334.542	83.69
334.771	85.69
334.999	90.69
335.227	80.69
335.455	95.69
335.684	86.69
335.912	81.69
336.14	80.69
336.369	101.69
336.597	86.69
336.825	81.69
337.053	73.69
337.281	84.69
337.51	87.69
337.738	96.69
337.966	94.69
338.194	79.69
338.422	99.69
338.65	82.69
338.878	92.69
339.106	95.69
339.334	71.69
339.562	83.69
339.79	91.69
340.018	81.69
340.246	78.69
340.474	76.69
340.702	82.69
340.93	92.69
341.158	86.69
341.386	89.69
341.614	84.69
341.842	86.69
342.07	83.69
342.298	82.69
342.526	77.69
342.754	88.69
342.981	98.69
343.209	94.69
343.437	87.69
343.665	90.69
343.893	83.69
344.12	73.69
344.348	89.69
344.576	92.69
344.804	84.69
345.031	96.69
345.259	93.69
345.487	85.69
345.714	97.69
345.942	80.69
346.17	91.69
346.397	89.69
346.625	78.69
346.853	80.69
347.08	91.69
347.308	84.69
347.535	84.69
347.763	86.69
347.99	86.69
348.218	93.69
348.445	89.69
348.673	76.69
348.9	81.69
349.128	84.69
349.355	92.69
349.583	94.69
349.81	89.69
350.037	90.69
350.265	77.69
350.492	79.69
350.72	96.69
350.947	94.69
351.174	88.69
351.402	88.69
351.629	85.69
351.856	100.69
352.083	101.69
352.311	90.69
352.538	104.69
352.765	90.69
352.992	90.69
353.22	92.69
353.447	90.69
353.674	90.69
353.901	90.69
354.128	77.69
354.355	89.69
354.583	83.69
354.81	89.69
355.037	89.69
355.264	101.69
355.491	87.69
355.718	87.69
355.945	86.69
356.172	74.69
356.399	62.69
356.626	85.69
356.853	81.69
357.08	92.69
357.307	101.69
357.534	94.69
357.761	90.69
357.988	88.69
358.215	100.69
358.441	91.69
358.668	90.69
358.895	90.69
359.122	86.69
359.349	78.69
359.576	91.69
359.802	94.69
360.029	89.69
360.256	98.69
360.483	71.69
360.709	86.69
360.936	100.69
361.163	92.69
361.39	96.69
361.616	95.69
361.843	88.69
362.07	87.69
362.296	92.69
362.523	84.69
362.749	89.69
362.976	86.69
363.203	97.69
363.429	84.69
363.656	97.69
363.882	82.69
364.109	90.69
364.335	97.69
364.562	89.69
364.788	97.69
365.015	109.69
365.241	95.69
365.468	90.69
365.694	83.69
365.92	85.69
366.147	87.69
366.373	92.69
366.599	98.69
366.826	100.69
367.052	101.69
367.278	84.69
367.505	87.69
367.731	84.69
367.957	92.69
368.184	81.69
368.41	85.69
368.636	95.69
368.862	82.69
369.089	73.69
369.315	89.69
369.541	77.69
369.767	92.69
369.993	98.69
370.219	88.69
370.445	92.69
370.672	91.69
370.898	100.69
371.124	94.69
371.35	87.69
371.576	83.69
371.802	90.69
372.028	81.69
372.254	82.69
372.48	97.69
372.706	92.69
372.932	87.69
373.158	83.69
373.384	95.69
373.61	103.69
373.835	104.69
374.061	96.69
374.287	103.69
374.513	86.69
374.739	100.69
374.965	90.69
375.191	101.69
375.416	105.69
375.642	93.69
375.868	93.69
376.094	92.69
376.319	97.69
376.545	104.69
376.771	82.69
376.997	86.69
377.222	99.69
377.448	90.69
377.674	100.69
377.899	90.69
378.125	87.69
378.35	78.69
378.576	91.69
378.802	85.69
379.027	85.69
379.253	99.69
379.478	91.69
379.704	84.69
379.929	92.69
380.155	88.69
380.38	96.69
380.606	85.69
380.831	90.69
381.057	98.69
381.282	88.69
381.507	84.69
381.733	87.69
381.958	74.69
382.184	93.69
382.409	90.69
382.634	94.69
382.86	100.69
383.085	111.69
383.31	102.69
383.535	94.69
383.761	98.69
383.986	89.69
384.211	88.69
384.436	100.69
384.662	94.69
384.887	102.69
385.112	102.69
385.337	112.69
385.562	102.69
385.787	86.69
386.013	114.69
386.238	112.69
386.463	105.69
386.688	91.69
386.913	100.69
387.138	100.69
387.363	98.69
387.588	94.69
387.813	77.69
388.038	95.69
388.263	94.69
388.488	92.69
388.713	86.69
388.938	94.69
389.163	115.69
389.387	94.69
389.612	86.69
389.837	98.69
390.062	88.69
390.287	91.69
390.512	99.69
390.736	92.69
390.961	105.69
391.186	93.69
391.411	97.69
391.636	99.69
391.86	93.69
392.085	105.69
392.31	117.69
392.534	100.69
392.759	96.69
392.984	95.69
393.208	94.69
393.433	93.69
393.658	107.69
393.882	101.69
394.107	99.69
394.331	99.69
394.556	100.69
394.78	90.69
395.005	94.69
395.229	102.69
395.454	112.69
395.678	97.69
395.903	101.69
396.127	91.69
396.352	92.69
396.576	89.69
396.801	113.69
397.025	91.69
397.249	116.69
397.474	106.69
397.698	98.69
397.922	97.69
398.147	97.69
398.371	110.69
398.595	98.69
398.82	108.69
399.044	101.69
399.268	116.69
399.492	112.69
399.717	123.69
399.941	115.69
400.165	108.69
400.389	96.69
400.613	94.69
400.837	99.69
401.062	101.69
401.286	109.69
401.51	106.69
401.734	101.69
401.958	111.69
402.182	101.69
402.406	130.69
402.63	114.69
402.854	113.69
403.078	108.69
403.302	122.69
403.526	103.69
403.75	112.69
403.974	120.69
404.198	99.69
404.422	120.69
404.645	115.69
404.869	112.69
405.093	116.69
405.317	121.69
405.541	107.69
405.765	109.69
405.988	114.69
406.212	123.69
406.436	112.69
406.66	132.69
406.883	109.69
407.107	129.69
407.331	116.69
407.555	128.69
407.778	110.69
408.002	129.69
408.226	115.69
408.449	124.69
408.673	97.69
408.896	119.69
409.12	108.69
409.344	108.69
409.567	120.69
409.791	116.69
410.014	115.69
410.238	108.69
410.461	116.69
410.685	120.69
410.908	101.69
411.132	118.69
411.355	117.69
411.578	121.69
411.802	114.69
412.025	100.69
412.249	112.69
412.472	118.69
412.695	109.69
412.919	114.69
413.142	108.69
413.365	109.69
413.589	133.69
413.812	119.69
414.035	116.69
414.258	106.69
414.482	101.69
414.705	120.69
414.928	117.69
415.151	103.69
415.374	111.69
415.597	114.69
415.821	115.69
416.044	106.69
416.267	108.69
416.49	123.69
416.713	112.69
416.936	118.69
417.159	113.69
417.382	111.69
417.605	103.69
417.828	109.69
418.051	113.69
418.274	116.69
418.497	119.69
418.72	116.69
418.943	116.69
419.166	134.69
419.389	132.69
419.611	114.69
419.834	126.69
420.057	136.69
420.28	120.69
420.503	137.69
420.726	117.69
420.948	128.69
421.171	124.69
421.394	107.69
421.617	118.69
421.839	128.69
422.062	109.69
422.285	118.69
422.507	109.69
422.73	123.69
422.953	113.69
423.175	105.69
423.398	130.69
423.621	123.69
423.843	126.69
424.066	131.69
424.288	112.69
424.511	129.69
424.733	129.69
424.956	135.69
425.178	122.69
425.401	116.69
425.623	124.69
425.846	91.69
426.068	128.69
426.291	123.69
426.513	121.69
426.735	120.69
426.958	116.69
427.18	105.69
427.402	108.69
427.625	125.69
427.847	118.69
428.069	120.69
428.292	127.69
428.514	117.69
428.736	125.69
428.958	106.69
429.181	128.69
429.403	95.69
429.625	117.69
429.847	124.69
430.069	109.69
430.292	112.69
430.514	112.69
430.736	118.69
430.958	112.69
431.18	119.69
431.402	120.69
431.624	108.69
431.846	103.69
432.068	100.69
432.29	112.69
432.512	114.69
432.734	124.69
432.956	112.69
433.178	111.69
433.4	109.69
433.622	117.69
433.844	133.69
434.066	105.69
434.287	107.69
434.509	111.69
434.731	116.69
434.953	124.69
435.175	124.69
435.397	130.69
435.618	98.69
435.84	110.69
436.062	109.69
436.284	116.69
436.505	121.69
436.727	131.69
436.949	135.69
437.17	128.69
437.392	107.69
437.614	124.69
437.835	114.69
438.057	101.69
438.278	116.69
438.5	121.69
438.721	126.69
438.943	120.69
439.165	117.69
439.386	132.69
439.608	127.69
439.829	108.69
440.05	119.69
440.272	133.69
440.493	124.69
440.715	117.69
440.936	126.69
441.158	124.69
441.379	117.69
441.6	120.69
441.822	128.69
442.043	119.69
442.264	116.69
442.486	135.69
442.707	120.69
442.928	125.69
443.149	132.69
443.371	108.69
443.592	116.69
443.813	141.69
444.034	103.69
444.255	130.69
444.476	122.69
444.698	119.69
444.919	136.69
445.14	256.69
445.361	198.69
445.582	130.69
445.803	122.69
446.024	114.69
446.245	134.69
446.466	110.69
446.687	124.69
446.908	154.69
447.129	113.69
447.35	113.69
447.571	118.69
447.792	134.69
448.013	111.69
448.234	125.69
448.455	125.69
448.675	118.69
448.896	109.69
449.117	98.69
449.338	113.69
449.559	116.69
449.779	111.69
450	123.69
450.221	121.69
450.442	122.69
450.662	115.69
450.883	120.69
451.104	125.69
451.324	115.69
451.545	102.69
451.766	120.69
451.986	120.69
452.207	106.69
452.428	107.69
452.648	116.69
452.869	120.69
453.089	94.69
453.31	98.69
453.53	106.69
453.751	105.69
453.971	98.69
454.192	98.69
454.412	104.69
454.633	117.69
454.853	116.69
455.073	116.69
455.294	117.69
455.514	109.69
455.734	112.69
455.955	112.69
456.175	102.69
456.395	117.69
456.616	104.69
456.836	106.69
457.056	109.69
457.276	106.69
457.497	102.69
457.717	101.69
457.937	93.69
458.157	95.69
458.377	106.69
458.598	115.69
458.818	106.69
459.038	110.69
459.258	94.69
459.478	115.69
459.698	103.69
459.918	124.69
460.138	116.69
460.358	116.69
460.578	126.69
460.798	125.69
461.018	116.69
461.238	116.69
461.458	106.69
461.678	122.69
461.898	122.69
462.118	127.69
462.338	123.69
462.558	107.69
462.777	132.69
462.997	128.69
463.217	123.69
463.437	127.69
463.657	128.69
463.876	120.69
464.096	134.69
464.316	125.69
464.536	136.69
464.755	111.69
464.975	121.69
465.195	109.69
465.414	124.69
465.634	115.69
465.854	112.69
466.073	110.69
466.293	119.69
466.512	120.69
466.732	121.69
466.951	115.69
467.171	120.69
467.391	128.69
467.61	133.69
467.829	114.69
468.049	113.69
468.268	122.69
468.488	121.69
468.707	102.69
468.927	128.69
469.146	113.69
469.365	117.69
469.585	125.69
469.804	118.69
470.023	130.69
470.243	126.69
470.462	126.69
470.681	140.69
470.901	110.69
471.12	132.69
471.339	128.69
471.558	126.69
471.777	122.69
471.997	112.69
472.216	123.69
472.435	120.69
472.654	98.69
472.873	114.69
473.092	100.69
473.311	112.69
473.53	134.69
473.749	119.69
473.968	114.69
474.187	127.69
474.406	107.69
474.625	136.69
474.844	120.69
475.063	118.69
475.282	120.69
475.501	118.69
475.72	124.69
475.939	104.69
476.158	124.69
476.377	120.69
476.596	123.69
476.814	115.69
477.033	107.69
477.252	120.69
477.471	119.69
477.69	121.69
477.908	129.69
478.127	133.69
478.346	118.69
478.564	117.69
478.783	131.69
479.002	137.69
479.22	123.69
479.439	139.69
479.658	126.69
479.876	107.69
480.095	114.69
480.313	126.69
480.532	141.69
480.751	119.69
480.969	120.69
481.188	112.69
481.406	121.69
481.624	125.69
481.843	110.69
482.061	115.69
482.28	104.69
482.498	112.69
482.717	117.69
482.935	123.69
483.153	122.69
483.372	146.69
483.59	135.69
483.808	120.69
484.027	115.69
484.245	126.69
484.463	125.69
484.681	143.69
484.9	138.69
485.118	133.69
485.336	129.69
485.554	129.69
485.772	115.69
485.99	110.69
486.209	124.69
486.427	116.69
486.645	122.69
486.863	136.69
487.081	129.69
487.299	130.69
487.517	145.69
487.735	140.69
487.953	150.69
488.171	135.69
488.389	147.69
488.607	136.69
488.825	130.69
489.043	135.69
489.261	132.69
489.479	137.69
489.696	129.69
489.914	121.69
490.132	135.69
490.35	146.69
490.568	136.69
490.786	145.69
491.003	154.69
491.221	134.69
491.439	160.69
491.657	168.69
491.874	163.69
492.092	169.69
492.31	188.69
492.527	159.69
492.745	154.69
492.963	152.69
493.18	155.69
493.398	141.69
493.615	164.69
493.833	152.69
494.05	146.69
494.268	140.69
494.485	156.69
494.703	158.69
494.92	155.69
495.138	176.69
495.355	152.69
495.573	150.69
495.79	140.69
496.008	157.69
496.225	150.69
496.442	133.69
496.66	154.69
496.877	152.69
497.094	150.69
497.312	151.69
497.529	153.69
497.746	139.69
497.963	129.69
498.181	137.69
498.398	154.69
498.615	156.69
498.832	157.69
499.049	140.69
499.267	163.69
499.484	174.69
499.701	163.69
499.918	201.69
500.135	226.69
500.352	220.69
500.569	223.69
500.786	228.69
501.003	220.69
501.22	198.69
501.437	195.69
501.654	185.69
501.871	164.69
502.088	153.69
502.305	170.69
502.522	148.69
502.739	155.69
502.956	149.69
503.172	136.69
503.389	134.69
503.606	113.69
503.823	125.69
504.04	130.69
504.256	154.69
504.473	132.69
504.69	140.69
504.907	143.69
505.123	134.69
505.34	147.69
505.557	128.69
505.773	141.69
505.99	142.69
506.207	121.69
506.423	130.69
506.64	131.69
506.856	133.69
507.073	128.69
507.289	124.69
507.506	129.69
507.722	124.69
507.939	120.69
508.155	125.69
508.372	124.69
508.588	129.69
508.805	117.69
509.021	115.69
509.238	113.69
509.454	124.69
509.67	114.69
509.887	126.69
510.103	117.69
510.319	124.69
510.536	126.69
510.752	113.69
510.968	112.69
511.184	118.69
511.401	122.69
511.617	103.69
511.833	124.69
512.049	122.69
512.265	116.69
512.481	111.69
512.698	125.69
512.914	107.69
513.13	131.69
513.346	118.69
513.562	128.69
513.778	127.69
513.994	115.69
514.21	103.69
514.426	118.69
514.642	103.69
514.858	109.69
515.074	108.69
515.29	117.69
515.506	115.69
515.721	107.69
515.937	114.69
516.153	117.69
516.369	122.69
516.585	119.69
516.801	130.69
517.016	129.69
517.232	134.69
517.448	127.69
517.664	124.69
517.879	142.69
518.095	139.69
518.311	123.69
518.527	123.69
518.742	123.69
518.958	118.69
519.173	124.69
519.389	122.69
519.605	108.69
519.82	127.69
520.036	113.69
520.251	127.69
520.467	130.69
520.682	109.69
520.898	107.69
521.113	105.69
521.329	114.69
521.544	105.69
521.76	108.69
521.975	116.69
522.19	119.69
522.406	103.69
522.621	104.69
522.836	108.69
523.052	137.69
523.267	116.69
523.482	112.69
523.698	123.69
523.913	126.69
524.128	127.69
524.343	127.69
524.559	124.69
524.774	136.69
524.989	112.69
525.204	120.69
525.419	110.69
525.634	128.69
525.849	120.69
526.064	114.69
526.28	115.69
526.495	115.69
526.71	114.69
526.925	112.69
527.14	112.69
527.355	120.69
527.57	124.69
527.785	109.69
527.999	114.69
528.214	112.69
528.429	106.69
528.644	133.69
528.859	112.69
529.074	129.69
529.289	140.69
529.503	124.69
529.718	133.69
529.933	114.69
530.148	113.69
530.363	107.69
530.577	113.69
530.792	108.69
531.007	110.69
531.221	107.69
531.436	112.69
531.651	93.69
531.865	102.69
532.08	110.69
532.295	116.69
532.509	113.69
532.724	99.69
532.938	98.69
533.153	99.69
533.367	110.69
533.582	136.69
533.796	116.69
534.011	101.69
534.225	116.69
534.44	102.69
534.654	109.69
534.868	106.69
535.083	125.69
535.297	118.69
535.511	98.69
535.726	116.69
535.94	109.69
536.154	125.69
536.369	126.69
536.583	101.69
536.797	117.69
537.011	112.69
537.225	109.69
537.44	107.69
537.654	113.69
537.868	107.69
538.082	123.69
538.296	111.69
538.51	116.69
538.724	122.69
538.938	128.69
539.153	113.69
539.367	112.69
539.581	120.69
539.795	106.69
540.009	100.69
540.222	130.69
540.436	123.69
540.65	118.69
540.864	129.69
541.078	130.69
541.292	135.69
541.506	125.69
541.72	136.69
541.934	141.69
542.147	137.69
542.361	129.69
542.575	117.69
542.789	118.69
543.002	119.69
543.216	125.69
543.43	118.69
543.644	122.69
543.857	124.69
544.071	129.69
544.285	128.69
544.498	142.69
544.712	130.69
544.925	121.69
545.139	133.69
545.352	134.69
545.566	134.69
545.779	131.69
545.993	135.69
546.206	147.69
546.42	144.69
546.633	126.69
546.847	145.69
547.06	125.69
547.274	140.69
547.487	148.69
547.7	138.69
547.914	156.69
548.127	146.69
548.34	143.69
548.554	135.69
548.767	125.69
548.98	128.69
549.193	139.69
549.407	148.69
549.62	132.69
549.833	138.69
550.046	132.69
550.259	132.69
550.473	138.69
550.686	139.69
550.899	136.69
551.112	127.69
551.325	126.69
551.538	122.69
551.751	114.69
551.964	125.69
552.177	121.69
552.39	128.69
552.603	127.69
552.816	143.69
553.029	122.69
553.242	124.69
553.455	137.69
553.667	137.69
553.88	138.69
554.093	136.69
554.306	143.69
554.519	135.69
554.732	120.69
554.944	155.69
555.157	135.69
555.37	110.69
555.583	117.69
555.795	112.69
556.008	115.69
556.221	119.69
556.433	120.69
556.646	109.69
556.859	118.69
557.071	130.69
557.284	132.69
557.496	121.69
557.709	133.69
557.921	118.69
558.134	115.69
558.346	105.69
558.559	118.69
558.771	128.69
558.984	126.69
559.196	116.69
559.409	122.69
559.621	122.69
559.833	124.69
560.046	110.69
560.258	106.69
560.47	105.69
560.683	120.69
560.895	115.69
561.107	110.69
561.32	130.69
561.532	122.69
561.744	122.69
561.956	118.69
562.168	107.69
562.381	130.69
562.593	109.69
562.805	111.69
563.017	116.69
563.229	98.69
563.441	122.69
563.653	118.69
563.865	120.69
564.077	106.69
564.289	102.69
564.501	103.69
564.713	102.69
564.925	101.69
565.137	127.69
565.349	121.69
565.561	117.69
565.773	119.69
565.985	122.69
566.197	120.69
566.408	124.69
566.62	123.69
566.832	132.69
567.044	116.69
567.255	130.69
567.467	116.69
567.679	120.69
567.891	132.69
568.102	121.69
568.314	124.69
568.526	109.69
568.737	128.69
568.949	112.69
569.161	117.69
569.372	122.69
569.584	109.69
569.795	93.69
570.007	91.69
570.218	112.69
570.43	104.69
570.641	100.69
570.853	99.69
571.064	105.69
571.276	109.69
571.487	109.69
571.698	116.69
571.91	112.69
572.121	104.69
572.333	99.69
572.544	116.69
572.755	109.69
572.966	101.69
573.178	96.69
573.389	95.69
573.6	98.69
573.811	103.69
574.023	93.69
574.234	95.69
574.445	96.69
574.656	95.69
574.867	108.69
575.078	81.69
575.289	95.69
575.501	93.69
575.712	104.69
575.923	103.69
576.134	104.69
576.345	96.69
576.556	101.69
576.767	98.69
576.978	75.69
577.188	93.69
577.399	109.69
577.61	88.69
577.821	98.69
578.032	92.69
578.243	108.69
578.454	90.69
578.665	108.69
578.875	89.69
579.086	84.69
579.297	97.69
579.508	91.69
579.718	86.69
579.929	108.69
580.14	105.69
580.35	106.69
580.561	96.69
580.772	98.69
580.982	102.69
581.193	103.69
581.403	102.69
581.614	103.69
581.825	95.69
582.035	88.69
582.246	101.69
582.456	88.69
582.667	87.69
582.877	89.69
583.087	98.69
583.298	87.69
583.508	78.69
583.719	102.69
583.929	84.69
584.139	90.69
584.35	103.69
584.56	98.69
584.77	96.69
584.981	101.69
585.191	89.69
585.401	107.69
585.611	102.69
585.821	100.69
586.032	96.69
586.242	85.69
586.452	86.69
586.662	96.69
586.872	88.69
587.082	90.69
587.292	83.69
587.502	103.69
587.713	106.69
587.923	94.69
588.133	100.69
588.343	84.69
588.553	96.69
588.762	99.69
588.972	96.69
589.182	92.69
589.392	88.69
589.602	93.69
589.812	84.69
590.022	108.69
590.232	81.69
590.441	88.69
590.651	88.69
590.861	88.69
591.071	102.69
591.281	101.69
591.49	98.69
591.7	100.69
591.91	100.69
592.119	102.69
592.329	97.69
592.539	94.69
592.748	102.69
592.958	92.69
593.167	107.69
593.377	101.69
593.587	100.69
593.796	99.69
594.006	98.69
594.215	98.69
594.424	131.69
594.634	109.69
594.843	92.69
595.053	97.69
595.262	97.69
595.472	96.69
595.681	102.69
595.89	96.69
596.1	86.69
596.309	106.69
596.518	95.69
596.727	100.69
596.937	113.69
597.146	107.69
597.355	99.69
597.564	104.69
597.774	83.69
597.983	80.69
598.192	101.69
598.401	102.69
598.61	98.69
598.819	94.69
599.028	87.69
599.237	98.69
599.446	96.69
599.655	103.69
599.864	83.69
600.073	103.69
600.282	82.69
600.491	84.69
600.7	106.69
600.909	92.69
601.118	106.69
601.327	95.69
601.536	97.69
601.745	101.69
601.953	93.69
602.162	89.69
602.371	75.69
602.58	86.69
602.789	93.69
602.997	101.69
603.206	88.69
603.415	88.69
603.623	96.69
603.832	95.69
604.041	94.69
604.249	89.69
604.458	96.69
604.666	91.69
604.875	89.69
605.084	89.69
605.292	91.69
605.501	82.69
605.709	84.69
605.918	85.69
606.126	91.69
606.334	101.69
606.543	100.69
606.751	114.69
606.96	96.69
607.168	103.69
607.376	87.69
607.585	105.69
607.793	101.69
608.001	99.69
608.21	94.69
608.418	94.69
608.626	109.69
608.834	91.69
609.043	87.69
609.251	96.69
609.459	87.69
609.667	103.69
609.875	88.69
610.083	109.69
610.291	101.69
610.499	96.69
610.707	109.69
610.916	113.69
611.124	98.69
611.332	94.69
611.54	103.69
611.748	121.69
611.955	94.69
612.163	93.69
612.371	94.69
612.579	100.69
612.787	96.69
612.995	102.69
613.203	114.69
613.411	94.69
613.618	92.69
613.826	96.69
614.034	90.69
614.242	95.69
614.449	92.69
614.657	88.69
614.865	107.69
615.072	107.69
615.28	114.69
615.488	98.69
615.695	111.69
615.903	92.69
616.111	91.69
616.318	107.69
616.526	99.69
616.733	102.69
616.941	97.69
617.148	121.69
617.356	101.69
617.563	115.69
617.771	104.69
617.978	101.69
618.185	92.69
618.393	87.69
618.6	92.69
618.807	101.69
619.015	97.69
619.222	98.69
619.429	99.69
619.637	105.69
619.844	97.69
620.051	92.69
620.258	88.69
620.466	95.69
620.673	92.69
620.88	96.69
621.087	93.69
621.294	74.69
621.501	104.69
621.708	107.69
621.915	96.69
622.122	95.69
622.329	86.69
622.536	84.69
622.743	90.69
622.95	102.69
623.157	90.69
623.364	85.69
623.571	87.69
623.778	84.69
623.985	85.69
624.192	105.69
624.399	96.69
624.606	102.69
624.812	99.69
625.019	87.69
625.226	98.69
625.433	76.69
625.639	87.69
625.846	91.69
626.053	90.69
626.259	94.69
626.466	112.69
626.673	88.69
626.879	89.69
627.086	101.69
627.293	107.69
627.499	98.69
627.706	85.69
627.912	93.69
628.119	105.69
628.325	101.69
628.532	89.69
628.738	93.69
628.945	84.69
629.151	78.69
629.357	96.69
629.564	97.69
629.77	101.69
629.976	97.69
630.183	82.69
630.389	96.69
630.595	101.69
630.802	87.69
631.008	91.69
631.214	98.69
631.42	98.69
631.627	93.69
631.833	86.69
632.039	93.69
632.245	96.69
632.451	96.69
632.657	98.69
632.863	92.69
633.069	75.69
633.275	74.69
633.481	100.69
633.688	77.69
633.893	90.69
634.099	97.69
634.305	79.69
634.511	104.69
634.717	89.69
634.923	74.69
635.129	84.69
635.335	84.69
635.541	84.69
635.747	91.69
635.952	94.69
636.158	98.69
636.364	93.69
636.57	90.69
636.775	91.69
636.981	98.69
637.187	88.69
637.392	91.69
637.598	97.69
637.804	89.69
638.009	99.69
638.215	80.69
638.421	87.69
638.626	99.69
638.832	104.69
639.037	89.69
639.243	101.69
639.448	83.69
639.654	96.69
639.859	72.69
640.065	102.69
640.27	92.69
640.475	96.69
640.681	100.69
640.886	77.69
641.091	87.69
641.297	91.69
641.502	87.69
641.707	92.69
641.913	78.69
642.118	97.69
642.323	89.69
642.528	101.69
642.733	80.69
642.939	94.69
643.144	85.69
643.349	95.69
643.554	80.69
643.759	83.69
643.964	92.69
644.169	100.69
644.374	91.69
644.579	84.69
644.784	90.69
644.989	94.69
645.194	88.69
645.399	101.69
645.604	95.69
645.809	91.69
646.014	77.69
646.219	84.69
646.423	91.69
646.628	85.69
646.833	109.69
647.038	80.69
647.243	99.69
647.447	95.69
647.652	86.69
647.857	93.69
648.062	93.69
648.266	96.69
648.471	97.69
648.676	85.69
648.88	82.69
649.085	94.69
649.289	97.69
649.494	91.69
649.698	90.69
649.903	97.69
650.107	88.69
650.312	86.69
650.516	83.69
650.721	84.69
650.925	87.69
651.13	84.69
651.334	81.69
651.539	85.69
651.743	96.69
651.947	104.69
652.152	86.69
652.356	71.69
652.56	94.69
652.764	98.69
652.969	86.69
653.173	72.69
653.377	108.69
653.581	97.69
653.785	94.69
653.99	86.69
654.194	85.69
654.398	84.69
654.602	102.69
654.806	96.69
655.01	78.69
655.214	93.69
655.418	97.69
655.622	87.69
655.826	87.69
656.03	91.69
656.234	97.69
656.438	97.69
656.642	87.69
656.846	96.69
657.049	104.69
657.253	93.69
657.457	84.69
657.661	81.69
657.865	77.69
658.068	78.69
658.272	96.69
658.476	96.69
658.68	82.69
658.883	92.69
659.087	75.69
659.291	79.69
659.494	82.69
659.698	84.69
659.901	78.69
660.105	81.69
660.309	94.69
660.512	90.69
660.716	70.69
660.919	82.69
661.123	78.69
661.326	81.69
661.53	84.69
661.733	82.69
661.936	88.69
662.14	77.69
662.343	83.69
662.546	95.69
662.75	88.69
662.953	81.69
663.156	77.69
663.36	86.69
663.563	85.69
663.766	85.69
663.969	94.69
664.173	80.69
664.376	101.69
664.579	92.69
664.782	81.69
664.985	104.69
665.188	70.69
665.391	92.69
665.594	74.69
665.797	94.69
666	70.69
666.203	85.69
666.406	87.69
666.609	78.69
666.812	78.69
667.015	88.69
667.218	83.69
667.421	89.69
667.624	80.69
667.827	82.69
668.03	94.69
668.232	83.69
668.435	75.69
668.638	95.69
668.841	86.69
669.043	89.69
669.246	78.69
669.449	95.69
669.651	93.69
669.854	70.69
670.057	82.69
670.259	72.69
670.462	84.69
670.665	93.69
670.867	88.69
671.07	85.69
671.272	77.69
671.475	84.69
671.677	83.69
671.88	85.69
672.082	78.69
672.284	81.69
672.487	88.69
672.689	93.69
672.892	100.69
