Data from StandardFe(NO3)3.TAE.3%Agarose.FlatLispGreen.Lamp.Energy10.07252019_HRD10591_11-55-32-441.txt Node
Date: Thu Jul 25 11:55:32 EDT 2019
User: cochatt
Spectrometer: HR+D1059
Trigger mode: 1
Integration Time (sec): 1.000000E-1
Scans to average: 1
Electric dark correction enabled: true
Nonlinearity correction enabled: false
Boxcar width: 0
XAxis mode: Wavelengths
Number of Pixels in Spectrum: 2048
>>>>>Begin Spectral Data<<<<<
223.165	-6.62
223.4	-6.62
223.635	-6.62
223.869	-11.62
224.104	-16.62
224.338	-2.62
224.573	-8.62
224.808	-26.62
225.042	-5.62
225.277	-10.62
225.511	1.38
225.746	-2.62
225.98	7.38
226.215	13.38
226.449	23.38
226.683	7.38
226.918	2.38
227.152	36.38
227.387	39.38
227.621	49.38
227.856	59.38
228.09	57.38
228.324	48.38
228.559	57.38
228.793	59.38
229.027	58.38
229.262	55.38
229.496	71.38
229.73	46.38
229.964	55.38
230.199	81.38
230.433	69.38
230.667	66.38
230.901	71.38
231.136	64.38
231.37	78.38
231.604	86.38
231.838	89.38
232.072	85.38
232.306	85.38
232.541	63.38
232.775	75.38
233.009	87.38
233.243	83.38
233.477	78.38
233.711	79.38
233.945	78.38
234.179	90.38
234.413	91.38
234.647	73.38
234.881	87.38
235.115	91.38
235.349	82.38
235.583	74.38
235.817	88.38
236.051	76.38
236.285	90.38
236.519	84.38
236.753	79.38
236.987	82.38
237.221	74.38
237.455	74.38
237.689	78.38
237.922	73.38
238.156	80.38
238.39	61.38
238.624	72.38
238.858	72.38
239.091	67.38
239.325	73.38
239.559	67.38
239.793	75.38
240.027	71.38
240.26	69.38
240.494	79.38
240.728	67.38
240.961	74.38
241.195	69.38
241.429	79.38
241.662	72.38
241.896	85.38
242.13	77.38
242.363	84.38
242.597	73.38
242.83	80.38
243.064	73.38
243.298	65.38
243.531	79.38
243.765	70.38
243.998	78.38
244.232	85.38
244.465	83.38
244.699	82.38
244.932	79.38
245.166	85.38
245.399	71.38
245.633	70.38
245.866	71.38
246.099	83.38
246.333	78.38
246.566	78.38
246.8	74.38
247.033	82.38
247.266	80.38
247.5	58.38
247.733	59.38
247.966	71.38
248.2	75.38
248.433	66.38
248.666	75.38
248.899	82.38
249.133	88.38
249.366	74.38
249.599	90.38
249.832	64.38
250.066	68.38
250.299	84.38
250.532	89.38
250.765	88.38
250.998	67.38
251.231	73.38
251.465	61.38
251.698	66.38
251.931	90.38
252.164	84.38
252.397	73.38
252.63	71.38
252.863	89.38
253.096	71.38
253.329	90.38
253.562	81.38
253.795	78.38
254.028	78.38
254.261	71.38
254.494	77.38
254.727	68.38
254.96	87.38
255.193	71.38
255.426	73.38
255.659	66.38
255.892	75.38
256.124	69.38
256.357	82.38
256.59	87.38
256.823	75.38
257.056	77.38
257.289	92.38
257.521	94.38
257.754	82.38
257.987	70.38
258.22	76.38
258.452	85.38
258.685	70.38
258.918	82.38
259.151	75.38
259.383	81.38
259.616	79.38
259.849	81.38
260.081	82.38
260.314	78.38
260.547	77.38
260.779	89.38
261.012	94.38
261.244	75.38
261.477	79.38
261.71	77.38
261.942	73.38
262.175	75.38
262.407	79.38
262.64	73.38
262.872	82.38
263.105	93.38
263.337	72.38
263.57	69.38
263.802	72.38
264.035	68.38
264.267	70.38
264.499	68.38
264.732	91.38
264.964	71.38
265.197	71.38
265.429	76.38
265.661	69.38
265.894	82.38
266.126	75.38
266.358	70.38
266.591	81.38
266.823	76.38
267.055	91.38
267.287	70.38
267.52	69.38
267.752	85.38
267.984	80.38
268.216	68.38
268.448	75.38
268.681	78.38
268.913	79.38
269.145	77.38
269.377	76.38
269.609	68.38
269.841	82.38
270.073	90.38
270.306	84.38
270.538	86.38
270.77	83.38
271.002	73.38
271.234	98.38
271.466	74.38
271.698	79.38
271.93	80.38
272.162	71.38
272.394	80.38
272.626	90.38
272.858	65.38
273.09	79.38
273.322	82.38
273.553	83.38
273.785	80.38
274.017	74.38
274.249	72.38
274.481	83.38
274.713	81.38
274.945	78.38
275.176	86.38
275.408	86.38
275.64	82.38
275.872	77.38
276.104	90.38
276.335	68.38
276.567	83.38
276.799	72.38
277.031	99.38
277.262	73.38
277.494	83.38
277.726	72.38
277.957	87.38
278.189	79.38
278.421	80.38
278.652	76.38
278.884	83.38
279.115	74.38
279.347	75.38
279.579	86.38
279.81	74.38
280.042	79.38
280.273	68.38
280.505	77.38
280.736	77.38
280.968	75.38
281.199	66.38
281.431	84.38
281.662	77.38
281.894	86.38
282.125	85.38
282.356	82.38
282.588	93.38
282.819	89.38
283.051	85.38
283.282	71.38
283.513	73.38
283.745	81.38
283.976	78.38
284.207	91.38
284.439	85.38
284.67	82.38
284.901	83.38
285.132	94.38
285.364	79.38
285.595	77.38
285.826	81.38
286.057	89.38
286.288	87.38
286.52	87.38
286.751	76.38
286.982	74.38
287.213	65.38
287.444	89.38
287.675	72.38
287.906	82.38
288.138	80.38
288.369	81.38
288.6	75.38
288.831	85.38
289.062	80.38
289.293	74.38
289.524	79.38
289.755	102.38
289.986	78.38
290.217	82.38
290.448	67.38
290.679	80.38
290.91	89.38
291.141	83.38
291.371	84.38
291.602	72.38
291.833	86.38
292.064	81.38
292.295	83.38
292.526	80.38
292.757	89.38
292.987	70.38
293.218	85.38
293.449	92.38
293.68	95.38
293.91	94.38
294.141	82.38
294.372	81.38
294.603	88.38
294.833	90.38
295.064	73.38
295.295	76.38
295.525	90.38
295.756	77.38
295.987	72.38
296.217	94.38
296.448	93.38
296.679	75.38
296.909	80.38
297.14	77.38
297.37	84.38
297.601	90.38
297.831	91.38
298.062	84.38
298.292	89.38
298.523	89.38
298.753	73.38
298.984	78.38
299.214	73.38
299.445	74.38
299.675	82.38
299.905	93.38
300.136	86.38
300.366	85.38
300.597	88.38
300.827	89.38
301.057	84.38
301.288	70.38
301.518	68.38
301.748	82.38
301.979	73.38
302.209	66.38
302.439	79.38
302.669	89.38
302.9	79.38
303.13	77.38
303.36	82.38
303.59	87.38
303.82	83.38
304.051	88.38
304.281	82.38
304.511	90.38
304.741	86.38
304.971	87.38
305.201	77.38
305.431	89.38
305.661	70.38
305.891	73.38
306.121	83.38
306.352	87.38
306.582	68.38
306.812	84.38
307.042	74.38
307.272	85.38
307.502	78.38
307.731	85.38
307.961	85.38
308.191	91.38
308.421	74.38
308.651	80.38
308.881	90.38
309.111	80.38
309.341	68.38
309.571	75.38
309.8	88.38
310.03	80.38
310.26	85.38
310.49	85.38
310.72	85.38
310.949	70.38
311.179	84.38
311.409	78.38
311.639	72.38
311.868	83.38
312.098	79.38
312.328	88.38
312.557	92.38
312.787	85.38
313.017	94.38
313.246	81.38
313.476	89.38
313.706	85.38
313.935	84.38
314.165	89.38
314.394	72.38
314.624	96.38
314.853	97.38
315.083	88.38
315.312	67.38
315.542	85.38
315.771	98.38
316.001	81.38
316.23	79.38
316.46	89.38
316.689	89.38
316.919	91.38
317.148	71.38
317.377	82.38
317.607	81.38
317.836	83.38
318.065	82.38
318.295	67.38
318.524	78.38
318.753	90.38
318.983	81.38
319.212	71.38
319.441	83.38
319.67	74.38
319.9	81.38
320.129	84.38
320.358	82.38
320.587	83.38
320.816	74.38
321.046	79.38
321.275	86.38
321.504	72.38
321.733	96.38
321.962	88.38
322.191	81.38
322.42	80.38
322.649	97.38
322.878	87.38
323.108	81.38
323.337	88.38
323.566	90.38
323.795	90.38
324.024	83.38
324.253	83.38
324.482	82.38
324.71	68.38
324.939	78.38
325.168	86.38
325.397	80.38
325.626	79.38
325.855	84.38
326.084	78.38
326.313	89.38
326.542	80.38
326.77	57.38
326.999	91.38
327.228	96.38
327.457	78.38
327.686	67.38
327.914	96.38
328.143	89.38
328.372	74.38
328.6	88.38
328.829	84.38
329.058	85.38
329.287	90.38
329.515	97.38
329.744	81.38
329.972	72.38
330.201	70.38
330.43	82.38
330.658	104.38
330.887	83.38
331.115	83.38
331.344	76.38
331.572	86.38
331.801	72.38
332.03	74.38
332.258	87.38
332.486	85.38
332.715	83.38
332.943	90.38
333.172	72.38
333.4	81.38
333.629	90.38
333.857	90.38
334.085	92.38
334.314	90.38
334.542	78.38
334.771	87.38
334.999	81.38
335.227	89.38
335.455	81.38
335.684	74.38
335.912	68.38
336.14	84.38
336.369	84.38
336.597	81.38
336.825	93.38
337.053	83.38
337.281	81.38
337.51	82.38
337.738	81.38
337.966	72.38
338.194	77.38
338.422	85.38
338.65	89.38
338.878	76.38
339.106	74.38
339.334	86.38
339.562	75.38
339.79	91.38
340.018	85.38
340.246	90.38
340.474	96.38
340.702	86.38
340.93	87.38
341.158	83.38
341.386	79.38
341.614	80.38
341.842	75.38
342.07	85.38
342.298	78.38
342.526	72.38
342.754	72.38
342.981	71.38
343.209	90.38
343.437	93.38
343.665	77.38
343.893	70.38
344.12	85.38
344.348	79.38
344.576	86.38
344.804	90.38
345.031	88.38
345.259	88.38
345.487	85.38
345.714	84.38
345.942	73.38
346.17	79.38
346.397	95.38
346.625	86.38
346.853	79.38
347.08	82.38
347.308	83.38
347.535	79.38
347.763	82.38
347.99	87.38
348.218	90.38
348.445	86.38
348.673	73.38
348.9	98.38
349.128	98.38
349.355	86.38
349.583	85.38
349.81	91.38
350.037	73.38
350.265	87.38
350.492	89.38
350.72	85.38
350.947	81.38
351.174	74.38
351.402	93.38
351.629	75.38
351.856	81.38
352.083	87.38
352.311	78.38
352.538	83.38
352.765	86.38
352.992	85.38
353.22	102.38
353.447	93.38
353.674	85.38
353.901	74.38
354.128	78.38
354.355	73.38
354.583	90.38
354.81	83.38
355.037	81.38
355.264	85.38
355.491	99.38
355.718	97.38
355.945	83.38
356.172	76.38
356.399	90.38
356.626	86.38
356.853	64.38
357.08	94.38
357.307	83.38
357.534	81.38
357.761	84.38
357.988	81.38
358.215	81.38
358.441	71.38
358.668	89.38
358.895	85.38
359.122	83.38
359.349	76.38
359.576	88.38
359.802	75.38
360.029	87.38
360.256	73.38
360.483	84.38
360.709	90.38
360.936	106.38
361.163	86.38
361.39	97.38
361.616	96.38
361.843	83.38
362.07	67.38
362.296	79.38
362.523	81.38
362.749	81.38
362.976	81.38
363.203	87.38
363.429	83.38
363.656	83.38
363.882	81.38
364.109	67.38
364.335	84.38
364.562	89.38
364.788	89.38
365.015	88.38
365.241	93.38
365.468	88.38
365.694	81.38
365.92	95.38
366.147	74.38
366.373	79.38
366.599	79.38
366.826	79.38
367.052	81.38
367.278	78.38
367.505	72.38
367.731	79.38
367.957	93.38
368.184	85.38
368.41	88.38
368.636	79.38
368.862	74.38
369.089	81.38
369.315	88.38
369.541	89.38
369.767	86.38
369.993	82.38
370.219	85.38
370.445	90.38
370.672	83.38
370.898	82.38
371.124	81.38
371.35	91.38
371.576	85.38
371.802	90.38
372.028	81.38
372.254	84.38
372.48	91.38
372.706	94.38
372.932	92.38
373.158	74.38
373.384	89.38
373.61	94.38
373.835	98.38
374.061	88.38
374.287	88.38
374.513	91.38
374.739	71.38
374.965	88.38
375.191	110.38
375.416	94.38
375.642	84.38
375.868	99.38
376.094	90.38
376.319	72.38
376.545	83.38
376.771	75.38
376.997	90.38
377.222	82.38
377.448	95.38
377.674	87.38
377.899	88.38
378.125	81.38
378.35	90.38
378.576	90.38
378.802	82.38
379.027	89.38
379.253	81.38
379.478	97.38
379.704	74.38
379.929	89.38
380.155	78.38
380.38	84.38
380.606	83.38
380.831	102.38
381.057	99.38
381.282	101.38
381.507	81.38
381.733	99.38
381.958	91.38
382.184	82.38
382.409	101.38
382.634	84.38
382.86	88.38
383.085	98.38
383.31	86.38
383.535	87.38
383.761	103.38
383.986	83.38
384.211	94.38
384.436	87.38
384.662	97.38
384.887	89.38
385.112	85.38
385.337	84.38
385.562	89.38
385.787	87.38
386.013	85.38
386.238	95.38
386.463	83.38
386.688	92.38
386.913	79.38
387.138	93.38
387.363	87.38
387.588	84.38
387.813	94.38
388.038	87.38
388.263	82.38
388.488	85.38
388.713	111.38
388.938	94.38
389.163	96.38
389.387	91.38
389.612	91.38
389.837	104.38
390.062	103.38
390.287	116.38
390.512	88.38
390.736	86.38
390.961	93.38
391.186	101.38
391.411	93.38
391.636	90.38
391.86	81.38
392.085	88.38
392.31	94.38
392.534	95.38
392.759	103.38
392.984	107.38
393.208	115.38
393.433	88.38
393.658	87.38
393.882	87.38
394.107	91.38
394.331	91.38
394.556	83.38
394.78	92.38
395.005	100.38
395.229	101.38
395.454	99.38
395.678	87.38
395.903	109.38
396.127	105.38
396.352	94.38
396.576	99.38
396.801	104.38
397.025	85.38
397.249	102.38
397.474	97.38
397.698	98.38
397.922	103.38
398.147	105.38
398.371	95.38
398.595	93.38
398.82	102.38
399.044	95.38
399.268	110.38
399.492	111.38
399.717	102.38
399.941	109.38
400.165	103.38
400.389	103.38
400.613	95.38
400.837	103.38
401.062	96.38
401.286	102.38
401.51	93.38
401.734	93.38
401.958	114.38
402.182	101.38
402.406	95.38
402.63	100.38
402.854	99.38
403.078	103.38
403.302	92.38
403.526	101.38
403.75	107.38
403.974	105.38
404.198	95.38
404.422	93.38
404.645	103.38
404.869	99.38
405.093	105.38
405.317	97.38
405.541	98.38
405.765	92.38
405.988	105.38
406.212	107.38
406.436	97.38
406.66	108.38
406.883	94.38
407.107	94.38
407.331	125.38
407.555	114.38
407.778	112.38
408.002	103.38
408.226	105.38
408.449	108.38
408.673	96.38
408.896	101.38
409.12	115.38
409.344	88.38
409.567	101.38
409.791	108.38
410.014	107.38
410.238	100.38
410.461	119.38
410.685	109.38
410.908	105.38
411.132	87.38
411.355	96.38
411.578	105.38
411.802	102.38
412.025	105.38
412.249	102.38
412.472	100.38
412.695	104.38
412.919	100.38
413.142	116.38
413.365	106.38
413.589	109.38
413.812	99.38
414.035	109.38
414.258	90.38
414.482	98.38
414.705	98.38
414.928	94.38
415.151	98.38
415.374	106.38
415.597	112.38
415.821	109.38
416.044	106.38
416.267	112.38
416.49	111.38
416.713	96.38
416.936	103.38
417.159	121.38
417.382	109.38
417.605	101.38
417.828	104.38
418.051	109.38
418.274	111.38
418.497	118.38
418.72	115.38
418.943	108.38
419.166	106.38
419.389	119.38
419.611	131.38
419.834	119.38
420.057	111.38
420.28	116.38
420.503	118.38
420.726	133.38
420.948	91.38
421.171	103.38
421.394	119.38
421.617	119.38
421.839	112.38
422.062	122.38
422.285	107.38
422.507	109.38
422.73	105.38
422.953	125.38
423.175	118.38
423.398	93.38
423.621	93.38
423.843	104.38
424.066	116.38
424.288	121.38
424.511	136.38
424.733	118.38
424.956	122.38
425.178	121.38
425.401	105.38
425.623	120.38
425.846	106.38
426.068	93.38
426.291	115.38
426.513	101.38
426.735	111.38
426.958	112.38
427.18	113.38
427.402	106.38
427.625	109.38
427.847	104.38
428.069	102.38
428.292	94.38
428.514	112.38
428.736	105.38
428.958	106.38
429.181	119.38
429.403	105.38
429.625	101.38
429.847	103.38
430.069	111.38
430.292	116.38
430.514	125.38
430.736	114.38
430.958	112.38
431.18	106.38
431.402	115.38
431.624	96.38
431.846	106.38
432.068	76.38
432.29	101.38
432.512	105.38
432.734	120.38
432.956	110.38
433.178	105.38
433.4	121.38
433.622	107.38
433.844	113.38
434.066	110.38
434.287	97.38
434.509	112.38
434.731	111.38
434.953	109.38
435.175	109.38
435.397	103.38
435.618	110.38
435.84	98.38
436.062	98.38
436.284	104.38
436.505	119.38
436.727	112.38
436.949	103.38
437.17	97.38
437.392	100.38
437.614	96.38
437.835	104.38
438.057	89.38
438.278	103.38
438.5	116.38
438.721	107.38
438.943	107.38
439.165	109.38
439.386	99.38
439.608	123.38
439.829	116.38
440.05	111.38
440.272	114.38
440.493	114.38
440.715	110.38
440.936	121.38
441.158	127.38
441.379	119.38
441.6	117.38
441.822	120.38
442.043	129.38
442.264	85.38
442.486	121.38
442.707	112.38
442.928	123.38
443.149	109.38
443.371	118.38
443.592	117.38
443.813	122.38
444.034	97.38
444.255	97.38
444.476	115.38
444.698	122.38
444.919	120.38
445.14	255.38
445.361	191.38
445.582	120.38
445.803	118.38
446.024	120.38
446.245	114.38
446.466	120.38
446.687	114.38
446.908	122.38
447.129	127.38
447.35	105.38
447.571	99.38
447.792	93.38
448.013	115.38
448.234	100.38
448.455	111.38
448.675	118.38
448.896	121.38
449.117	93.38
449.338	112.38
449.559	111.38
449.779	94.38
450	99.38
450.221	108.38
450.442	127.38
450.662	107.38
450.883	110.38
451.104	120.38
451.324	102.38
451.545	123.38
451.766	112.38
451.986	107.38
452.207	109.38
452.428	102.38
452.648	107.38
452.869	113.38
453.089	104.38
453.31	100.38
453.53	95.38
453.751	101.38
453.971	103.38
454.192	92.38
454.412	117.38
454.633	118.38
454.853	104.38
455.073	99.38
455.294	89.38
455.514	97.38
455.734	105.38
455.955	105.38
456.175	103.38
456.395	115.38
456.616	93.38
456.836	117.38
457.056	111.38
457.276	99.38
457.497	100.38
457.717	96.38
457.937	93.38
458.157	110.38
458.377	109.38
458.598	101.38
458.818	109.38
459.038	89.38
459.258	102.38
459.478	99.38
459.698	99.38
459.918	106.38
460.138	112.38
460.358	104.38
460.578	111.38
460.798	113.38
461.018	94.38
461.238	111.38
461.458	102.38
461.678	102.38
461.898	114.38
462.118	115.38
462.338	123.38
462.558	114.38
462.777	118.38
462.997	118.38
463.217	118.38
463.437	128.38
463.657	117.38
463.876	123.38
464.096	107.38
464.316	122.38
464.536	126.38
464.755	100.38
464.975	123.38
465.195	109.38
465.414	110.38
465.634	106.38
465.854	90.38
466.073	109.38
466.293	109.38
466.512	103.38
466.732	113.38
466.951	118.38
467.171	99.38
467.391	105.38
467.61	115.38
467.829	104.38
468.049	121.38
468.268	121.38
468.488	113.38
468.707	111.38
468.927	113.38
469.146	110.38
469.365	109.38
469.585	104.38
469.804	119.38
470.023	115.38
470.243	122.38
470.462	111.38
470.681	119.38
470.901	127.38
471.12	115.38
471.339	126.38
471.558	120.38
471.777	103.38
471.997	111.38
472.216	112.38
472.435	113.38
472.654	113.38
472.873	93.38
473.092	114.38
473.311	109.38
473.53	117.38
473.749	118.38
473.968	115.38
474.187	114.38
474.406	109.38
474.625	117.38
474.844	116.38
475.063	95.38
475.282	120.38
475.501	121.38
475.72	115.38
475.939	101.38
476.158	115.38
476.377	105.38
476.596	111.38
476.814	122.38
477.033	102.38
477.252	119.38
477.471	103.38
477.69	105.38
477.908	118.38
478.127	111.38
478.346	121.38
478.564	101.38
478.783	119.38
479.002	113.38
479.22	109.38
479.439	121.38
479.658	119.38
479.876	121.38
480.095	112.38
480.313	125.38
480.532	109.38
480.751	112.38
480.969	118.38
481.188	108.38
481.406	114.38
481.624	117.38
481.843	111.38
482.061	102.38
482.28	103.38
482.498	98.38
482.717	110.38
482.935	106.38
483.153	118.38
483.372	128.38
483.59	123.38
483.808	113.38
484.027	127.38
484.245	130.38
484.463	118.38
484.681	129.38
484.9	127.38
485.118	116.38
485.336	109.38
485.554	110.38
485.772	101.38
485.99	101.38
486.209	112.38
486.427	121.38
486.645	118.38
486.863	130.38
487.081	126.38
487.299	126.38
487.517	131.38
487.735	126.38
487.953	129.38
488.171	137.38
488.389	116.38
488.607	123.38
488.825	133.38
489.043	124.38
489.261	129.38
489.479	132.38
489.696	130.38
489.914	110.38
490.132	130.38
490.35	135.38
490.568	125.38
490.786	134.38
491.003	146.38
491.221	133.38
491.439	139.38
491.657	140.38
491.874	159.38
492.092	149.38
492.31	143.38
492.527	147.38
492.745	152.38
492.963	153.38
493.18	137.38
493.398	163.38
493.615	140.38
493.833	139.38
494.05	163.38
494.268	144.38
494.485	141.38
494.703	131.38
494.92	146.38
495.138	146.38
495.355	134.38
495.573	144.38
495.79	148.38
496.008	153.38
496.225	140.38
496.442	131.38
496.66	144.38
496.877	128.38
497.094	155.38
497.312	148.38
497.529	131.38
497.746	122.38
497.963	157.38
498.181	132.38
498.398	128.38
498.615	143.38
498.832	149.38
499.049	139.38
499.267	154.38
499.484	158.38
499.701	169.38
499.918	176.38
500.135	182.38
500.352	198.38
500.569	208.38
500.786	198.38
501.003	193.38
501.22	174.38
501.437	162.38
501.654	139.38
501.871	148.38
502.088	157.38
502.305	158.38
502.522	142.38
502.739	150.38
502.956	139.38
503.172	154.38
503.389	145.38
503.606	126.38
503.823	115.38
504.04	127.38
504.256	129.38
504.473	121.38
504.69	129.38
504.907	130.38
505.123	125.38
505.34	125.38
505.557	125.38
505.773	121.38
505.99	110.38
506.207	133.38
506.423	121.38
506.64	116.38
506.856	119.38
507.073	132.38
507.289	121.38
507.506	130.38
507.722	111.38
507.939	115.38
508.155	130.38
508.372	113.38
508.588	118.38
508.805	108.38
509.021	101.38
509.238	99.38
509.454	103.38
509.67	117.38
509.887	127.38
510.103	106.38
510.319	112.38
510.536	117.38
510.752	103.38
510.968	111.38
511.184	117.38
511.401	102.38
511.617	111.38
511.833	103.38
512.049	104.38
512.265	122.38
512.481	103.38
512.698	109.38
512.914	115.38
513.13	116.38
513.346	108.38
513.562	106.38
513.778	124.38
513.994	113.38
514.21	95.38
514.426	119.38
514.642	101.38
514.858	105.38
515.074	102.38
515.29	111.38
515.506	104.38
515.721	115.38
515.937	116.38
516.153	119.38
516.369	119.38
516.585	122.38
516.801	119.38
517.016	111.38
517.232	111.38
517.448	118.38
517.664	129.38
517.879	115.38
518.095	121.38
518.311	125.38
518.527	113.38
518.742	115.38
518.958	118.38
519.173	119.38
519.389	119.38
519.605	103.38
519.82	116.38
520.036	112.38
520.251	122.38
520.467	114.38
520.682	121.38
520.898	109.38
521.113	106.38
521.329	104.38
521.544	93.38
521.76	108.38
521.975	101.38
522.19	109.38
522.406	106.38
522.621	103.38
522.836	109.38
523.052	119.38
523.267	106.38
523.482	103.38
523.698	117.38
523.913	122.38
524.128	124.38
524.343	118.38
524.559	113.38
524.774	121.38
524.989	103.38
525.204	92.38
525.419	123.38
525.634	119.38
525.849	122.38
526.064	102.38
526.28	102.38
526.495	111.38
526.71	82.38
526.925	107.38
527.14	105.38
527.355	105.38
527.57	88.38
527.785	94.38
527.999	109.38
528.214	99.38
528.429	121.38
528.644	118.38
528.859	120.38
529.074	121.38
529.289	119.38
529.503	125.38
529.718	116.38
529.933	118.38
530.148	102.38
530.363	118.38
530.577	81.38
530.792	103.38
531.007	103.38
531.221	99.38
531.436	112.38
531.651	112.38
531.865	101.38
532.08	102.38
532.295	104.38
532.509	112.38
532.724	106.38
532.938	101.38
533.153	102.38
533.367	127.38
533.582	131.38
533.796	129.38
534.011	106.38
534.225	125.38
534.44	100.38
534.654	98.38
534.868	102.38
535.083	98.38
535.297	96.38
535.511	120.38
535.726	105.38
535.94	108.38
536.154	104.38
536.369	95.38
536.583	87.38
536.797	99.38
537.011	103.38
537.225	110.38
537.44	91.38
537.654	104.38
537.868	111.38
538.082	94.38
538.296	91.38
538.51	116.38
538.724	117.38
538.938	124.38
539.153	121.38
539.367	123.38
539.581	110.38
539.795	105.38
540.009	115.38
540.222	109.38
540.436	107.38
540.65	113.38
540.864	115.38
541.078	110.38
541.292	121.38
541.506	121.38
541.72	140.38
541.934	140.38
542.147	138.38
542.361	138.38
542.575	134.38
542.789	122.38
543.002	102.38
543.216	109.38
543.43	112.38
543.644	123.38
543.857	124.38
544.071	129.38
544.285	130.38
544.498	127.38
544.712	135.38
544.925	126.38
545.139	118.38
545.352	129.38
545.566	141.38
545.779	117.38
545.993	132.38
546.206	127.38
546.42	144.38
546.633	121.38
546.847	141.38
547.06	113.38
547.274	124.38
547.487	141.38
547.7	130.38
547.914	135.38
548.127	133.38
548.34	130.38
548.554	136.38
548.767	127.38
548.98	138.38
549.193	137.38
549.407	132.38
549.62	124.38
549.833	126.38
550.046	123.38
550.259	122.38
550.473	117.38
550.686	128.38
550.899	127.38
551.112	123.38
551.325	131.38
551.538	120.38
551.751	117.38
551.964	116.38
552.177	119.38
552.39	116.38
552.603	117.38
552.816	123.38
553.029	134.38
553.242	138.38
553.455	127.38
553.667	122.38
553.88	131.38
554.093	135.38
554.306	135.38
554.519	119.38
554.732	115.38
554.944	117.38
555.157	120.38
555.37	121.38
555.583	122.38
555.795	121.38
556.008	121.38
556.221	99.38
556.433	119.38
556.646	121.38
556.859	129.38
557.071	125.38
557.284	115.38
557.496	125.38
557.709	106.38
557.921	125.38
558.134	121.38
558.346	112.38
558.559	117.38
558.771	109.38
558.984	107.38
559.196	110.38
559.409	117.38
559.621	117.38
559.833	103.38
560.046	98.38
560.258	122.38
560.47	106.38
560.683	105.38
560.895	121.38
561.107	113.38
561.32	116.38
561.532	119.38
561.744	103.38
561.956	116.38
562.168	98.38
562.381	109.38
562.593	114.38
562.805	113.38
563.017	115.38
563.229	105.38
563.441	103.38
563.653	113.38
563.865	113.38
564.077	118.38
564.289	105.38
564.501	106.38
564.713	129.38
564.925	113.38
565.137	104.38
565.349	111.38
565.561	106.38
565.773	96.38
565.985	100.38
566.197	99.38
566.408	96.38
566.62	118.38
566.832	121.38
567.044	115.38
567.255	125.38
567.467	111.38
567.679	115.38
567.891	127.38
568.102	112.38
568.314	105.38
568.526	118.38
568.737	101.38
568.949	90.38
569.161	93.38
569.372	103.38
569.584	104.38
569.795	109.38
570.007	107.38
570.218	88.38
570.43	100.38
570.641	94.38
570.853	106.38
571.064	99.38
571.276	109.38
571.487	93.38
571.698	104.38
571.91	112.38
572.121	99.38
572.333	90.38
572.544	112.38
572.755	96.38
572.966	95.38
573.178	99.38
573.389	92.38
573.6	95.38
573.811	98.38
574.023	87.38
574.234	100.38
574.445	100.38
574.656	94.38
574.867	98.38
575.078	96.38
575.289	87.38
575.501	99.38
575.712	94.38
575.923	103.38
576.134	91.38
576.345	83.38
576.556	97.38
576.767	89.38
576.978	100.38
577.188	94.38
577.399	93.38
577.61	88.38
577.821	99.38
578.032	101.38
578.243	90.38
578.454	93.38
578.665	91.38
578.875	91.38
579.086	98.38
579.297	93.38
579.508	86.38
579.718	80.38
579.929	93.38
580.14	94.38
580.35	95.38
580.561	100.38
580.772	101.38
580.982	104.38
581.193	110.38
581.403	78.38
581.614	71.38
581.825	86.38
582.035	86.38
582.246	88.38
582.456	94.38
582.667	102.38
582.877	97.38
583.087	94.38
583.298	103.38
583.508	97.38
583.719	98.38
583.929	104.38
584.139	87.38
584.35	88.38
584.56	94.38
584.77	85.38
584.981	96.38
585.191	99.38
585.401	91.38
585.611	105.38
585.821	86.38
586.032	78.38
586.242	89.38
586.452	99.38
586.662	78.38
586.872	77.38
587.082	85.38
587.292	93.38
587.502	77.38
587.713	88.38
587.923	103.38
588.133	84.38
588.343	90.38
588.553	84.38
588.762	98.38
588.972	94.38
589.182	88.38
589.392	106.38
589.602	99.38
589.812	93.38
590.022	95.38
590.232	101.38
590.441	110.38
590.651	94.38
590.861	85.38
591.071	98.38
591.281	104.38
591.49	99.38
591.7	98.38
591.91	91.38
592.119	90.38
592.329	103.38
592.539	94.38
592.748	104.38
592.958	92.38
593.167	86.38
593.377	90.38
593.587	98.38
593.796	103.38
594.006	104.38
594.215	91.38
594.424	89.38
594.634	88.38
594.843	96.38
595.053	91.38
595.262	115.38
595.472	106.38
595.681	83.38
595.89	91.38
596.1	78.38
596.309	91.38
596.518	85.38
596.727	90.38
596.937	89.38
597.146	82.38
597.355	78.38
597.564	79.38
597.774	92.38
597.983	94.38
598.192	106.38
598.401	86.38
598.61	69.38
598.819	77.38
599.028	97.38
599.237	85.38
599.446	88.38
599.655	91.38
599.864	87.38
600.073	83.38
600.282	99.38
600.491	89.38
600.7	95.38
600.909	81.38
601.118	85.38
601.327	101.38
601.536	88.38
601.745	97.38
601.953	99.38
602.162	101.38
602.371	96.38
602.58	96.38
602.789	103.38
602.997	96.38
603.206	78.38
603.415	91.38
603.623	90.38
603.832	95.38
604.041	85.38
604.249	87.38
604.458	104.38
604.666	85.38
604.875	88.38
605.084	89.38
605.292	98.38
605.501	80.38
605.709	106.38
605.918	89.38
606.126	102.38
606.334	101.38
606.543	94.38
606.751	98.38
606.96	86.38
607.168	90.38
607.376	90.38
607.585	95.38
607.793	87.38
608.001	89.38
608.21	81.38
608.418	95.38
608.626	100.38
608.834	91.38
609.043	99.38
609.251	89.38
609.459	85.38
609.667	103.38
609.875	86.38
610.083	102.38
610.291	87.38
610.499	94.38
610.707	106.38
610.916	89.38
611.124	101.38
611.332	76.38
611.54	110.38
611.748	101.38
611.955	98.38
612.163	98.38
612.371	93.38
612.579	98.38
612.787	108.38
612.995	90.38
613.203	96.38
613.411	91.38
613.618	87.38
613.826	88.38
614.034	99.38
614.242	99.38
614.449	87.38
614.657	102.38
614.865	92.38
615.072	80.38
615.28	85.38
615.488	102.38
615.695	85.38
615.903	100.38
616.111	102.38
616.318	106.38
616.526	96.38
616.733	83.38
616.941	90.38
617.148	89.38
617.356	103.38
617.563	94.38
617.771	102.38
617.978	98.38
618.185	93.38
618.393	89.38
618.6	75.38
618.807	101.38
619.015	101.38
619.222	94.38
619.429	111.38
619.637	87.38
619.844	97.38
620.051	96.38
620.258	79.38
620.466	81.38
620.673	85.38
620.88	119.38
621.087	103.38
621.294	82.38
621.501	82.38
621.708	79.38
621.915	83.38
622.122	91.38
622.329	89.38
622.536	100.38
622.743	90.38
622.95	93.38
623.157	78.38
623.364	84.38
623.571	93.38
623.778	95.38
623.985	94.38
624.192	95.38
624.399	99.38
624.606	86.38
624.812	98.38
625.019	89.38
625.226	80.38
625.433	99.38
625.639	98.38
625.846	81.38
626.053	81.38
626.259	85.38
626.466	72.38
626.673	79.38
626.879	96.38
627.086	99.38
627.293	87.38
627.499	90.38
627.706	81.38
627.912	93.38
628.119	91.38
628.325	87.38
628.532	96.38
628.738	104.38
628.945	86.38
629.151	105.38
629.357	86.38
629.564	81.38
629.77	90.38
629.976	90.38
630.183	86.38
630.389	99.38
630.595	98.38
630.802	97.38
631.008	82.38
631.214	99.38
631.42	91.38
631.627	103.38
631.833	91.38
632.039	95.38
632.245	90.38
632.451	75.38
632.657	100.38
632.863	86.38
633.069	93.38
633.275	75.38
633.481	86.38
633.688	84.38
633.893	90.38
634.099	81.38
634.305	96.38
634.511	98.38
634.717	94.38
634.923	89.38
635.129	77.38
635.335	81.38
635.541	89.38
635.747	90.38
635.952	88.38
636.158	88.38
636.364	95.38
636.57	91.38
636.775	85.38
636.981	95.38
637.187	101.38
637.392	98.38
637.598	88.38
637.804	80.38
638.009	87.38
638.215	95.38
638.421	96.38
638.626	82.38
638.832	84.38
639.037	79.38
639.243	95.38
639.448	88.38
639.654	98.38
639.859	91.38
640.065	88.38
640.27	100.38
640.475	82.38
640.681	75.38
640.886	77.38
641.091	98.38
641.297	95.38
641.502	95.38
641.707	95.38
641.913	102.38
642.118	102.38
642.323	85.38
642.528	93.38
642.733	94.38
642.939	100.38
643.144	87.38
643.349	90.38
643.554	85.38
643.759	69.38
643.964	90.38
644.169	100.38
644.374	90.38
644.579	102.38
644.784	82.38
644.989	92.38
645.194	101.38
645.399	97.38
645.604	78.38
645.809	79.38
646.014	92.38
646.219	91.38
646.423	85.38
646.628	88.38
646.833	93.38
647.038	87.38
647.243	91.38
647.447	90.38
647.652	91.38
647.857	102.38
648.062	81.38
648.266	95.38
648.471	97.38
648.676	85.38
648.88	88.38
649.085	85.38
649.289	85.38
649.494	83.38
649.698	91.38
649.903	81.38
650.107	93.38
650.312	92.38
650.516	72.38
650.721	83.38
650.925	87.38
651.13	77.38
651.334	88.38
651.539	86.38
651.743	65.38
651.947	82.38
652.152	84.38
652.356	90.38
652.56	88.38
652.764	90.38
652.969	83.38
653.173	86.38
653.377	88.38
653.581	85.38
653.785	85.38
653.99	90.38
654.194	88.38
654.398	61.38
654.602	95.38
654.806	90.38
655.01	77.38
655.214	84.38
655.418	97.38
655.622	93.38
655.826	78.38
656.03	91.38
656.234	87.38
656.438	85.38
656.642	73.38
656.846	77.38
657.049	77.38
657.253	78.38
657.457	85.38
657.661	86.38
657.865	73.38
658.068	68.38
658.272	84.38
658.476	87.38
658.68	77.38
658.883	77.38
659.087	77.38
659.291	93.38
659.494	86.38
659.698	93.38
659.901	82.38
660.105	90.38
660.309	85.38
660.512	78.38
660.716	83.38
660.919	82.38
661.123	87.38
661.326	75.38
661.53	67.38
661.733	68.38
661.936	87.38
662.14	65.38
662.343	84.38
662.546	86.38
662.75	76.38
662.953	75.38
663.156	95.38
663.36	81.38
663.563	93.38
663.766	87.38
663.969	64.38
664.173	90.38
664.376	75.38
664.579	87.38
664.782	73.38
664.985	75.38
665.188	96.38
665.391	85.38
665.594	76.38
665.797	79.38
666	85.38
666.203	71.38
666.406	79.38
666.609	75.38
666.812	77.38
667.015	85.38
667.218	84.38
667.421	92.38
667.624	77.38
667.827	75.38
668.03	73.38
668.232	74.38
668.435	94.38
668.638	74.38
668.841	72.38
669.043	67.38
669.246	75.38
669.449	89.38
669.651	75.38
669.854	72.38
670.057	76.38
670.259	63.38
670.462	82.38
670.665	74.38
670.867	81.38
671.07	74.38
671.272	70.38
671.475	66.38
671.677	77.38
671.88	89.38
672.082	82.38
672.284	96.38
672.487	83.38
672.689	79.38
672.892	87.38
