Data from StandardFe(NO3)3.TAE.3%Agarose.FlatLispGreen.Lamp.Energy10.07252019_HRD10591_11-54-36-440.txt Node
Date: Thu Jul 25 11:54:36 EDT 2019
User: cochatt
Spectrometer: HR+D1059
Trigger mode: 1
Integration Time (sec): 1.000000E-1
Scans to average: 1
Electric dark correction enabled: true
Nonlinearity correction enabled: false
Boxcar width: 0
XAxis mode: Wavelengths
Number of Pixels in Spectrum: 2048
>>>>>Begin Spectral Data<<<<<
223.165	-19.31
223.4	-19.31
223.635	-19.31
223.869	-21.31
224.104	-15.31
224.338	-11.31
224.573	-5.31
224.808	-14.31
225.042	3.69
225.277	-1.31
225.511	-1.31
225.746	8.69
225.98	4.69
226.215	8.69
226.449	-2.31
226.683	14.69
226.918	21.69
227.152	29.69
227.387	18.69
227.621	26.69
227.856	40.69
228.09	55.69
228.324	38.69
228.559	44.69
228.793	56.69
229.027	59.69
229.262	70.69
229.496	58.69
229.73	63.69
229.964	69.69
230.199	59.69
230.433	55.69
230.667	77.69
230.901	71.69
231.136	72.69
231.37	80.69
231.604	73.69
231.838	84.69
232.072	81.69
232.306	88.69
232.541	74.69
232.775	89.69
233.009	76.69
233.243	83.69
233.477	73.69
233.711	86.69
233.945	90.69
234.179	85.69
234.413	77.69
234.647	83.69
234.881	81.69
235.115	67.69
235.349	66.69
235.583	81.69
235.817	66.69
236.051	79.69
236.285	83.69
236.519	86.69
236.753	82.69
236.987	81.69
237.221	85.69
237.455	88.69
237.689	75.69
237.922	69.69
238.156	73.69
238.39	72.69
238.624	79.69
238.858	62.69
239.091	75.69
239.325	83.69
239.559	86.69
239.793	101.69
240.027	84.69
240.26	67.69
240.494	79.69
240.728	72.69
240.961	75.69
241.195	71.69
241.429	56.69
241.662	71.69
241.896	75.69
242.13	86.69
242.363	83.69
242.597	67.69
242.83	84.69
243.064	82.69
243.298	73.69
243.531	75.69
243.765	82.69
243.998	75.69
244.232	71.69
244.465	68.69
244.699	74.69
244.932	93.69
245.166	70.69
245.399	70.69
245.633	73.69
245.866	80.69
246.099	70.69
246.333	72.69
246.566	73.69
246.8	75.69
247.033	70.69
247.266	76.69
247.5	65.69
247.733	73.69
247.966	79.69
248.2	78.69
248.433	89.69
248.666	94.69
248.899	84.69
249.133	96.69
249.366	87.69
249.599	66.69
249.832	76.69
250.066	86.69
250.299	75.69
250.532	96.69
250.765	90.69
250.998	78.69
251.231	74.69
251.465	74.69
251.698	74.69
251.931	77.69
252.164	77.69
252.397	86.69
252.63	82.69
252.863	85.69
253.096	73.69
253.329	76.69
253.562	70.69
253.795	82.69
254.028	77.69
254.261	96.69
254.494	76.69
254.727	83.69
254.96	72.69
255.193	74.69
255.426	86.69
255.659	77.69
255.892	88.69
256.124	83.69
256.357	81.69
256.59	82.69
256.823	73.69
257.056	84.69
257.289	83.69
257.521	89.69
257.754	84.69
257.987	82.69
258.22	80.69
258.452	88.69
258.685	79.69
258.918	86.69
259.151	68.69
259.383	89.69
259.616	79.69
259.849	81.69
260.081	89.69
260.314	84.69
260.547	68.69
260.779	65.69
261.012	84.69
261.244	79.69
261.477	97.69
261.71	90.69
261.942	82.69
262.175	83.69
262.407	98.69
262.64	75.69
262.872	84.69
263.105	78.69
263.337	80.69
263.57	83.69
263.802	79.69
264.035	86.69
264.267	68.69
264.499	83.69
264.732	85.69
264.964	94.69
265.197	90.69
265.429	83.69
265.661	79.69
265.894	80.69
266.126	82.69
266.358	79.69
266.591	80.69
266.823	80.69
267.055	81.69
267.287	77.69
267.52	74.69
267.752	74.69
267.984	80.69
268.216	83.69
268.448	71.69
268.681	72.69
268.913	73.69
269.145	86.69
269.377	84.69
269.609	74.69
269.841	82.69
270.073	71.69
270.306	74.69
270.538	77.69
270.77	73.69
271.002	82.69
271.234	83.69
271.466	71.69
271.698	79.69
271.93	83.69
272.162	75.69
272.394	87.69
272.626	101.69
272.858	89.69
273.09	68.69
273.322	76.69
273.553	87.69
273.785	80.69
274.017	75.69
274.249	82.69
274.481	91.69
274.713	82.69
274.945	75.69
275.176	73.69
275.408	85.69
275.64	90.69
275.872	78.69
276.104	70.69
276.335	74.69
276.567	75.69
276.799	67.69
277.031	87.69
277.262	80.69
277.494	81.69
277.726	82.69
277.957	75.69
278.189	86.69
278.421	88.69
278.652	94.69
278.884	79.69
279.115	86.69
279.347	75.69
279.579	87.69
279.81	68.69
280.042	86.69
280.273	69.69
280.505	70.69
280.736	82.69
280.968	74.69
281.199	97.69
281.431	77.69
281.662	82.69
281.894	90.69
282.125	81.69
282.356	86.69
282.588	66.69
282.819	80.69
283.051	76.69
283.282	81.69
283.513	102.69
283.745	97.69
283.976	92.69
284.207	94.69
284.439	88.69
284.67	90.69
284.901	83.69
285.132	87.69
285.364	91.69
285.595	83.69
285.826	82.69
286.057	89.69
286.288	83.69
286.52	88.69
286.751	86.69
286.982	82.69
287.213	67.69
287.444	89.69
287.675	96.69
287.906	85.69
288.138	93.69
288.369	82.69
288.6	86.69
288.831	85.69
289.062	82.69
289.293	82.69
289.524	84.69
289.755	93.69
289.986	70.69
290.217	73.69
290.448	76.69
290.679	67.69
290.91	71.69
291.141	73.69
291.371	82.69
291.602	86.69
291.833	86.69
292.064	87.69
292.295	97.69
292.526	73.69
292.757	75.69
292.987	88.69
293.218	75.69
293.449	93.69
293.68	75.69
293.91	74.69
294.141	86.69
294.372	92.69
294.603	90.69
294.833	87.69
295.064	83.69
295.295	69.69
295.525	84.69
295.756	80.69
295.987	92.69
296.217	88.69
296.448	114.69
296.679	89.69
296.909	74.69
297.14	94.69
297.37	87.69
297.601	88.69
297.831	81.69
298.062	78.69
298.292	87.69
298.523	83.69
298.753	86.69
298.984	81.69
299.214	75.69
299.445	86.69
299.675	73.69
299.905	66.69
300.136	82.69
300.366	83.69
300.597	80.69
300.827	88.69
301.057	75.69
301.288	74.69
301.518	74.69
301.748	88.69
301.979	75.69
302.209	89.69
302.439	82.69
302.669	85.69
302.9	81.69
303.13	73.69
303.36	98.69
303.59	84.69
303.82	89.69
304.051	77.69
304.281	86.69
304.511	80.69
304.741	86.69
304.971	83.69
305.201	90.69
305.431	79.69
305.661	79.69
305.891	79.69
306.121	82.69
306.352	89.69
306.582	84.69
306.812	90.69
307.042	83.69
307.272	86.69
307.502	90.69
307.731	106.69
307.961	84.69
308.191	90.69
308.421	78.69
308.651	83.69
308.881	85.69
309.111	81.69
309.341	80.69
309.571	89.69
309.8	88.69
310.03	76.69
310.26	79.69
310.49	94.69
310.72	82.69
310.949	90.69
311.179	85.69
311.409	81.69
311.639	91.69
311.868	80.69
312.098	90.69
312.328	75.69
312.557	74.69
312.787	83.69
313.017	76.69
313.246	80.69
313.476	86.69
313.706	80.69
313.935	82.69
314.165	86.69
314.394	97.69
314.624	94.69
314.853	83.69
315.083	76.69
315.312	75.69
315.542	92.69
315.771	94.69
316.001	90.69
316.23	88.69
316.46	91.69
316.689	92.69
316.919	76.69
317.148	92.69
317.377	91.69
317.607	82.69
317.836	74.69
318.065	87.69
318.295	80.69
318.524	82.69
318.753	76.69
318.983	82.69
319.212	91.69
319.441	84.69
319.67	98.69
319.9	83.69
320.129	95.69
320.358	77.69
320.587	72.69
320.816	80.69
321.046	77.69
321.275	92.69
321.504	82.69
321.733	80.69
321.962	83.69
322.191	75.69
322.42	87.69
322.649	94.69
322.878	78.69
323.108	86.69
323.337	91.69
323.566	82.69
323.795	76.69
324.024	86.69
324.253	96.69
324.482	91.69
324.71	82.69
324.939	69.69
325.168	84.69
325.397	91.69
325.626	105.69
325.855	84.69
326.084	83.69
326.313	89.69
326.542	97.69
326.77	85.69
326.999	79.69
327.228	92.69
327.457	82.69
327.686	92.69
327.914	79.69
328.143	76.69
328.372	81.69
328.6	84.69
328.829	62.69
329.058	95.69
329.287	93.69
329.515	76.69
329.744	81.69
329.972	82.69
330.201	81.69
330.43	90.69
330.658	72.69
330.887	86.69
331.115	84.69
331.344	81.69
331.572	78.69
331.801	88.69
332.03	74.69
332.258	90.69
332.486	83.69
332.715	86.69
332.943	100.69
333.172	77.69
333.4	86.69
333.629	91.69
333.857	83.69
334.085	86.69
334.314	87.69
334.542	65.69
334.771	77.69
334.999	92.69
335.227	91.69
335.455	92.69
335.684	94.69
335.912	91.69
336.14	86.69
336.369	91.69
336.597	70.69
336.825	88.69
337.053	87.69
337.281	76.69
337.51	85.69
337.738	89.69
337.966	81.69
338.194	96.69
338.422	92.69
338.65	89.69
338.878	79.69
339.106	71.69
339.334	97.69
339.562	81.69
339.79	89.69
340.018	88.69
340.246	91.69
340.474	83.69
340.702	85.69
340.93	80.69
341.158	85.69
341.386	90.69
341.614	85.69
341.842	85.69
342.07	81.69
342.298	85.69
342.526	73.69
342.754	96.69
342.981	86.69
343.209	83.69
343.437	91.69
343.665	85.69
343.893	91.69
344.12	82.69
344.348	80.69
344.576	94.69
344.804	86.69
345.031	104.69
345.259	80.69
345.487	76.69
345.714	88.69
345.942	82.69
346.17	88.69
346.397	104.69
346.625	80.69
346.853	82.69
347.08	96.69
347.308	75.69
347.535	99.69
347.763	92.69
347.99	85.69
348.218	92.69
348.445	91.69
348.673	71.69
348.9	83.69
349.128	92.69
349.355	84.69
349.583	109.69
349.81	95.69
350.037	96.69
350.265	88.69
350.492	66.69
350.72	73.69
350.947	81.69
351.174	80.69
351.402	76.69
351.629	94.69
351.856	88.69
352.083	89.69
352.311	86.69
352.538	92.69
352.765	85.69
352.992	88.69
353.22	86.69
353.447	81.69
353.674	86.69
353.901	100.69
354.128	80.69
354.355	82.69
354.583	75.69
354.81	80.69
355.037	76.69
355.264	69.69
355.491	82.69
355.718	84.69
355.945	100.69
356.172	83.69
356.399	82.69
356.626	95.69
356.853	70.69
357.08	79.69
357.307	91.69
357.534	89.69
357.761	82.69
357.988	91.69
358.215	74.69
358.441	89.69
358.668	89.69
358.895	80.69
359.122	66.69
359.349	73.69
359.576	98.69
359.802	83.69
360.029	81.69
360.256	102.69
360.483	83.69
360.709	80.69
360.936	75.69
361.163	90.69
361.39	85.69
361.616	87.69
361.843	85.69
362.07	85.69
362.296	85.69
362.523	73.69
362.749	81.69
362.976	83.69
363.203	80.69
363.429	86.69
363.656	93.69
363.882	84.69
364.109	98.69
364.335	83.69
364.562	89.69
364.788	91.69
365.015	94.69
365.241	87.69
365.468	81.69
365.694	84.69
365.92	88.69
366.147	102.69
366.373	83.69
366.599	91.69
366.826	93.69
367.052	85.69
367.278	88.69
367.505	86.69
367.731	89.69
367.957	99.69
368.184	86.69
368.41	88.69
368.636	98.69
368.862	86.69
369.089	95.69
369.315	75.69
369.541	87.69
369.767	85.69
369.993	88.69
370.219	78.69
370.445	99.69
370.672	98.69
370.898	101.69
371.124	74.69
371.35	82.69
371.576	76.69
371.802	86.69
372.028	89.69
372.254	99.69
372.48	96.69
372.706	79.69
372.932	78.69
373.158	84.69
373.384	86.69
373.61	84.69
373.835	89.69
374.061	100.69
374.287	93.69
374.513	98.69
374.739	89.69
374.965	93.69
375.191	84.69
375.416	79.69
375.642	97.69
375.868	103.69
376.094	89.69
376.319	75.69
376.545	91.69
376.771	80.69
376.997	76.69
377.222	87.69
377.448	89.69
377.674	86.69
377.899	99.69
378.125	90.69
378.35	86.69
378.576	101.69
378.802	87.69
379.027	87.69
379.253	95.69
379.478	91.69
379.704	87.69
379.929	81.69
380.155	92.69
380.38	88.69
380.606	96.69
380.831	98.69
381.057	92.69
381.282	91.69
381.507	103.69
381.733	80.69
381.958	86.69
382.184	98.69
382.409	89.69
382.634	89.69
382.86	86.69
383.085	73.69
383.31	92.69
383.535	104.69
383.761	100.69
383.986	112.69
384.211	105.69
384.436	87.69
384.662	91.69
384.887	97.69
385.112	94.69
385.337	97.69
385.562	76.69
385.787	91.69
386.013	109.69
386.238	96.69
386.463	109.69
386.688	102.69
386.913	98.69
387.138	90.69
387.363	102.69
387.588	88.69
387.813	93.69
388.038	113.69
388.263	103.69
388.488	92.69
388.713	89.69
388.938	91.69
389.163	88.69
389.387	80.69
389.612	98.69
389.837	106.69
390.062	102.69
390.287	103.69
390.512	89.69
390.736	94.69
390.961	100.69
391.186	106.69
391.411	100.69
391.636	103.69
391.86	96.69
392.085	97.69
392.31	103.69
392.534	104.69
392.759	111.69
392.984	80.69
393.208	93.69
393.433	93.69
393.658	97.69
393.882	111.69
394.107	95.69
394.331	113.69
394.556	97.69
394.78	95.69
395.005	97.69
395.229	97.69
395.454	103.69
395.678	90.69
395.903	90.69
396.127	103.69
396.352	105.69
396.576	116.69
396.801	89.69
397.025	114.69
397.249	92.69
397.474	106.69
397.698	118.69
397.922	114.69
398.147	102.69
398.371	96.69
398.595	103.69
398.82	103.69
399.044	97.69
399.268	119.69
399.492	100.69
399.717	121.69
399.941	106.69
400.165	122.69
400.389	98.69
400.613	104.69
400.837	105.69
401.062	93.69
401.286	95.69
401.51	99.69
401.734	103.69
401.958	84.69
402.182	113.69
402.406	107.69
402.63	103.69
402.854	106.69
403.078	107.69
403.302	106.69
403.526	109.69
403.75	109.69
403.974	100.69
404.198	105.69
404.422	118.69
404.645	118.69
404.869	94.69
405.093	113.69
405.317	101.69
405.541	108.69
405.765	120.69
405.988	112.69
406.212	118.69
406.436	115.69
406.66	111.69
406.883	102.69
407.107	110.69
407.331	115.69
407.555	116.69
407.778	119.69
408.002	105.69
408.226	113.69
408.449	125.69
408.673	134.69
408.896	112.69
409.12	114.69
409.344	111.69
409.567	118.69
409.791	102.69
410.014	102.69
410.238	121.69
410.461	102.69
410.685	108.69
410.908	112.69
411.132	112.69
411.355	115.69
411.578	114.69
411.802	102.69
412.025	117.69
412.249	106.69
412.472	109.69
412.695	108.69
412.919	110.69
413.142	129.69
413.365	104.69
413.589	116.69
413.812	112.69
414.035	117.69
414.258	113.69
414.482	112.69
414.705	115.69
414.928	118.69
415.151	127.69
415.374	114.69
415.597	105.69
415.821	110.69
416.044	114.69
416.267	124.69
416.49	113.69
416.713	118.69
416.936	116.69
417.159	114.69
417.382	121.69
417.605	110.69
417.828	114.69
418.051	111.69
418.274	117.69
418.497	127.69
418.72	113.69
418.943	111.69
419.166	107.69
419.389	100.69
419.611	112.69
419.834	114.69
420.057	118.69
420.28	116.69
420.503	118.69
420.726	120.69
420.948	110.69
421.171	118.69
421.394	111.69
421.617	121.69
421.839	139.69
422.062	132.69
422.285	110.69
422.507	134.69
422.73	123.69
422.953	128.69
423.175	116.69
423.398	114.69
423.621	118.69
423.843	119.69
424.066	119.69
424.288	118.69
424.511	119.69
424.733	119.69
424.956	123.69
425.178	123.69
425.401	117.69
425.623	119.69
425.846	124.69
426.068	124.69
426.291	112.69
426.513	115.69
426.735	122.69
426.958	111.69
427.18	117.69
427.402	112.69
427.625	118.69
427.847	109.69
428.069	114.69
428.292	113.69
428.514	114.69
428.736	121.69
428.958	110.69
429.181	115.69
429.403	112.69
429.625	113.69
429.847	130.69
430.069	127.69
430.292	107.69
430.514	116.69
430.736	114.69
430.958	105.69
431.18	114.69
431.402	117.69
431.624	106.69
431.846	117.69
432.068	107.69
432.29	102.69
432.512	119.69
432.734	107.69
432.956	123.69
433.178	107.69
433.4	110.69
433.622	118.69
433.844	112.69
434.066	123.69
434.287	115.69
434.509	108.69
434.731	101.69
434.953	118.69
435.175	107.69
435.397	112.69
435.618	122.69
435.84	111.69
436.062	119.69
436.284	112.69
436.505	102.69
436.727	115.69
436.949	122.69
437.17	124.69
437.392	115.69
437.614	105.69
437.835	102.69
438.057	100.69
438.278	99.69
438.5	113.69
438.721	119.69
438.943	119.69
439.165	103.69
439.386	115.69
439.608	130.69
439.829	123.69
440.05	104.69
440.272	114.69
440.493	116.69
440.715	121.69
440.936	122.69
441.158	103.69
441.379	121.69
441.6	122.69
441.822	129.69
442.043	116.69
442.264	116.69
442.486	118.69
442.707	113.69
442.928	129.69
443.149	137.69
443.371	120.69
443.592	122.69
443.813	126.69
444.034	122.69
444.255	108.69
444.476	122.69
444.698	133.69
444.919	131.69
445.14	254.69
445.361	198.69
445.582	131.69
445.803	127.69
446.024	129.69
446.245	117.69
446.466	133.69
446.687	118.69
446.908	128.69
447.129	126.69
447.35	115.69
447.571	112.69
447.792	123.69
448.013	117.69
448.234	109.69
448.455	117.69
448.675	115.69
448.896	114.69
449.117	119.69
449.338	115.69
449.559	128.69
449.779	116.69
450	110.69
450.221	117.69
450.442	107.69
450.662	115.69
450.883	124.69
451.104	120.69
451.324	111.69
451.545	118.69
451.766	98.69
451.986	107.69
452.207	113.69
452.428	113.69
452.648	115.69
452.869	95.69
453.089	103.69
453.31	97.69
453.53	121.69
453.751	84.69
453.971	105.69
454.192	110.69
454.412	103.69
454.633	112.69
454.853	116.69
455.073	105.69
455.294	117.69
455.514	114.69
455.734	115.69
455.955	97.69
456.175	101.69
456.395	110.69
456.616	113.69
456.836	109.69
457.056	99.69
457.276	103.69
457.497	105.69
457.717	112.69
457.937	119.69
458.157	105.69
458.377	103.69
458.598	118.69
458.818	103.69
459.038	94.69
459.258	97.69
459.478	105.69
459.698	102.69
459.918	94.69
460.138	114.69
460.358	115.69
460.578	112.69
460.798	110.69
461.018	123.69
461.238	117.69
461.458	117.69
461.678	115.69
461.898	118.69
462.118	122.69
462.338	130.69
462.558	133.69
462.777	134.69
462.997	123.69
463.217	136.69
463.437	128.69
463.657	126.69
463.876	127.69
464.096	120.69
464.316	116.69
464.536	135.69
464.755	112.69
464.975	113.69
465.195	126.69
465.414	104.69
465.634	110.69
465.854	114.69
466.073	118.69
466.293	121.69
466.512	124.69
466.732	108.69
466.951	122.69
467.171	124.69
467.391	111.69
467.61	120.69
467.829	121.69
468.049	107.69
468.268	110.69
468.488	113.69
468.707	119.69
468.927	126.69
469.146	113.69
469.365	118.69
469.585	111.69
469.804	127.69
470.023	111.69
470.243	117.69
470.462	120.69
470.681	120.69
470.901	111.69
471.12	103.69
471.339	127.69
471.558	122.69
471.777	131.69
471.997	107.69
472.216	122.69
472.435	113.69
472.654	105.69
472.873	105.69
473.092	116.69
473.311	122.69
473.53	117.69
473.749	120.69
473.968	129.69
474.187	116.69
474.406	116.69
474.625	98.69
474.844	105.69
475.063	134.69
475.282	126.69
475.501	120.69
475.72	112.69
475.939	130.69
476.158	120.69
476.377	112.69
476.596	127.69
476.814	127.69
477.033	104.69
477.252	109.69
477.471	116.69
477.69	115.69
477.908	128.69
478.127	135.69
478.346	126.69
478.564	128.69
478.783	119.69
479.002	132.69
479.22	120.69
479.439	121.69
479.658	130.69
479.876	123.69
480.095	135.69
480.313	142.69
480.532	120.69
480.751	128.69
480.969	116.69
481.188	111.69
481.406	104.69
481.624	91.69
481.843	104.69
482.061	105.69
482.28	107.69
482.498	112.69
482.717	126.69
482.935	123.69
483.153	124.69
483.372	135.69
483.59	131.69
483.808	123.69
484.027	120.69
484.245	131.69
484.463	133.69
484.681	140.69
484.9	128.69
485.118	120.69
485.336	126.69
485.554	115.69
485.772	118.69
485.99	124.69
486.209	119.69
486.427	119.69
486.645	122.69
486.863	116.69
487.081	135.69
487.299	129.69
487.517	130.69
487.735	137.69
487.953	140.69
488.171	152.69
488.389	150.69
488.607	126.69
488.825	131.69
489.043	136.69
489.261	127.69
489.479	124.69
489.696	130.69
489.914	129.69
490.132	135.69
490.35	134.69
490.568	141.69
490.786	134.69
491.003	150.69
491.221	150.69
491.439	152.69
491.657	150.69
491.874	161.69
492.092	150.69
492.31	163.69
492.527	158.69
492.745	156.69
492.963	161.69
493.18	155.69
493.398	144.69
493.615	151.69
493.833	156.69
494.05	148.69
494.268	142.69
494.485	152.69
494.703	148.69
494.92	152.69
495.138	150.69
495.355	143.69
495.573	149.69
495.79	137.69
496.008	160.69
496.225	159.69
496.442	150.69
496.66	144.69
496.877	150.69
497.094	151.69
497.312	144.69
497.529	148.69
497.746	161.69
497.963	148.69
498.181	160.69
498.398	163.69
498.615	146.69
498.832	146.69
499.049	145.69
499.267	165.69
499.484	169.69
499.701	166.69
499.918	198.69
500.135	216.69
500.352	227.69
500.569	231.69
500.786	221.69
501.003	213.69
501.22	185.69
501.437	181.69
501.654	178.69
501.871	175.69
502.088	165.69
502.305	157.69
502.522	154.69
502.739	152.69
502.956	134.69
503.172	139.69
503.389	136.69
503.606	124.69
503.823	137.69
504.04	125.69
504.256	133.69
504.473	137.69
504.69	148.69
504.907	139.69
505.123	131.69
505.34	135.69
505.557	119.69
505.773	136.69
505.99	131.69
506.207	120.69
506.423	128.69
506.64	135.69
506.856	132.69
507.073	118.69
507.289	107.69
507.506	130.69
507.722	131.69
507.939	129.69
508.155	121.69
508.372	133.69
508.588	105.69
508.805	110.69
509.021	122.69
509.238	120.69
509.454	117.69
509.67	105.69
509.887	108.69
510.103	128.69
510.319	122.69
510.536	116.69
510.752	97.69
510.968	116.69
511.184	114.69
511.401	104.69
511.617	126.69
511.833	104.69
512.049	115.69
512.265	114.69
512.481	116.69
512.698	118.69
512.914	115.69
513.13	112.69
513.346	113.69
513.562	111.69
513.778	106.69
513.994	108.69
514.21	115.69
514.426	106.69
514.642	135.69
514.858	116.69
515.074	116.69
515.29	119.69
515.506	133.69
515.721	125.69
515.937	111.69
516.153	114.69
516.369	130.69
516.585	127.69
516.801	107.69
517.016	123.69
517.232	132.69
517.448	123.69
517.664	133.69
517.879	128.69
518.095	134.69
518.311	112.69
518.527	138.69
518.742	126.69
518.958	127.69
519.173	115.69
519.389	121.69
519.605	113.69
519.82	121.69
520.036	129.69
520.251	126.69
520.467	127.69
520.682	117.69
520.898	104.69
521.113	130.69
521.329	106.69
521.544	120.69
521.76	118.69
521.975	107.69
522.19	130.69
522.406	114.69
522.621	121.69
522.836	110.69
523.052	120.69
523.267	116.69
523.482	112.69
523.698	117.69
523.913	116.69
524.128	112.69
524.343	121.69
524.559	135.69
524.774	113.69
524.989	118.69
525.204	132.69
525.419	126.69
525.634	118.69
525.849	114.69
526.064	113.69
526.28	108.69
526.495	119.69
526.71	103.69
526.925	105.69
527.14	121.69
527.355	110.69
527.57	112.69
527.785	115.69
527.999	102.69
528.214	120.69
528.429	102.69
528.644	126.69
528.859	127.69
529.074	122.69
529.289	129.69
529.503	123.69
529.718	132.69
529.933	126.69
530.148	116.69
530.363	127.69
530.577	109.69
530.792	109.69
531.007	127.69
531.221	117.69
531.436	113.69
531.651	120.69
531.865	108.69
532.08	123.69
532.295	105.69
532.509	99.69
532.724	100.69
532.938	113.69
533.153	118.69
533.367	107.69
533.582	134.69
533.796	107.69
534.011	117.69
534.225	102.69
534.44	102.69
534.654	112.69
534.868	118.69
535.083	119.69
535.297	111.69
535.511	130.69
535.726	126.69
535.94	99.69
536.154	103.69
536.369	119.69
536.583	102.69
536.797	99.69
537.011	98.69
537.225	99.69
537.44	127.69
537.654	120.69
537.868	99.69
538.082	106.69
538.296	116.69
538.51	114.69
538.724	106.69
538.938	122.69
539.153	119.69
539.367	107.69
539.581	93.69
539.795	100.69
540.009	110.69
540.222	116.69
540.436	122.69
540.65	124.69
540.864	118.69
541.078	120.69
541.292	124.69
541.506	139.69
541.72	147.69
541.934	130.69
542.147	146.69
542.361	132.69
542.575	146.69
542.789	131.69
543.002	126.69
543.216	126.69
543.43	123.69
543.644	106.69
543.857	121.69
544.071	123.69
544.285	137.69
544.498	140.69
544.712	144.69
544.925	141.69
545.139	139.69
545.352	126.69
545.566	122.69
545.779	139.69
545.993	118.69
546.206	135.69
546.42	143.69
546.633	140.69
546.847	132.69
547.06	127.69
547.274	130.69
547.487	116.69
547.7	131.69
547.914	120.69
548.127	140.69
548.34	136.69
548.554	132.69
548.767	144.69
548.98	132.69
549.193	129.69
549.407	135.69
549.62	142.69
549.833	134.69
550.046	131.69
550.259	141.69
550.473	130.69
550.686	127.69
550.899	125.69
551.112	131.69
551.325	129.69
551.538	126.69
551.751	120.69
551.964	120.69
552.177	123.69
552.39	121.69
552.603	124.69
552.816	130.69
553.029	144.69
553.242	147.69
553.455	150.69
553.667	144.69
553.88	127.69
554.093	140.69
554.306	155.69
554.519	141.69
554.732	130.69
554.944	134.69
555.157	124.69
555.37	133.69
555.583	134.69
555.795	118.69
556.008	135.69
556.221	125.69
556.433	123.69
556.646	123.69
556.859	115.69
557.071	122.69
557.284	122.69
557.496	102.69
557.709	112.69
557.921	126.69
558.134	122.69
558.346	118.69
558.559	101.69
558.771	121.69
558.984	125.69
559.196	135.69
559.409	125.69
559.621	111.69
559.833	116.69
560.046	116.69
560.258	112.69
560.47	118.69
560.683	116.69
560.895	120.69
561.107	114.69
561.32	116.69
561.532	101.69
561.744	103.69
561.956	109.69
562.168	106.69
562.381	112.69
562.593	122.69
562.805	117.69
563.017	116.69
563.229	112.69
563.441	113.69
563.653	129.69
563.865	103.69
564.077	100.69
564.289	120.69
564.501	115.69
564.713	113.69
564.925	122.69
565.137	125.69
565.349	114.69
565.561	121.69
565.773	115.69
565.985	108.69
566.197	121.69
566.408	125.69
566.62	120.69
566.832	145.69
567.044	118.69
567.255	135.69
567.467	123.69
567.679	120.69
567.891	142.69
568.102	127.69
568.314	129.69
568.526	109.69
568.737	113.69
568.949	107.69
569.161	119.69
569.372	98.69
569.584	107.69
569.795	104.69
570.007	106.69
570.218	109.69
570.43	104.69
570.641	100.69
570.853	107.69
571.064	94.69
571.276	106.69
571.487	103.69
571.698	100.69
571.91	91.69
572.121	118.69
572.333	99.69
572.544	106.69
572.755	99.69
572.966	103.69
573.178	112.69
573.389	96.69
573.6	103.69
573.811	91.69
574.023	100.69
574.234	96.69
574.445	94.69
574.656	98.69
574.867	100.69
575.078	93.69
575.289	108.69
575.501	96.69
575.712	99.69
575.923	100.69
576.134	94.69
576.345	94.69
576.556	106.69
576.767	98.69
576.978	100.69
577.188	114.69
577.399	100.69
577.61	94.69
577.821	104.69
578.032	99.69
578.243	97.69
578.454	92.69
578.665	99.69
578.875	84.69
579.086	94.69
579.297	81.69
579.508	88.69
579.718	99.69
579.929	98.69
580.14	92.69
580.35	93.69
580.561	79.69
580.772	91.69
580.982	101.69
581.193	87.69
581.403	96.69
581.614	83.69
581.825	97.69
582.035	84.69
582.246	102.69
582.456	79.69
582.667	89.69
582.877	112.69
583.087	94.69
583.298	98.69
583.508	102.69
583.719	89.69
583.929	96.69
584.139	89.69
584.35	87.69
584.56	101.69
584.77	95.69
584.981	96.69
585.191	94.69
585.401	96.69
585.611	89.69
585.821	101.69
586.032	92.69
586.242	97.69
586.452	97.69
586.662	93.69
586.872	94.69
587.082	85.69
587.292	90.69
587.502	100.69
587.713	108.69
587.923	93.69
588.133	102.69
588.343	88.69
588.553	84.69
588.762	106.69
588.972	101.69
589.182	85.69
589.392	105.69
589.602	86.69
589.812	86.69
590.022	101.69
590.232	99.69
590.441	75.69
590.651	92.69
590.861	82.69
591.071	99.69
591.281	97.69
591.49	98.69
591.7	99.69
591.91	107.69
592.119	81.69
592.329	102.69
592.539	103.69
592.748	96.69
592.958	110.69
593.167	104.69
593.377	103.69
593.587	102.69
593.796	105.69
594.006	102.69
594.215	90.69
594.424	97.69
594.634	95.69
594.843	90.69
595.053	96.69
595.262	86.69
595.472	97.69
595.681	87.69
595.89	78.69
596.1	87.69
596.309	93.69
596.518	92.69
596.727	91.69
596.937	93.69
597.146	91.69
597.355	101.69
597.564	84.69
597.774	99.69
597.983	106.69
598.192	87.69
598.401	94.69
598.61	83.69
598.819	86.69
599.028	84.69
599.237	103.69
599.446	106.69
599.655	100.69
599.864	91.69
600.073	97.69
600.282	102.69
600.491	92.69
600.7	82.69
600.909	88.69
601.118	87.69
601.327	99.69
601.536	105.69
601.745	98.69
601.953	81.69
602.162	105.69
602.371	101.69
602.58	89.69
602.789	91.69
602.997	77.69
603.206	96.69
603.415	88.69
603.623	92.69
603.832	103.69
604.041	95.69
604.249	92.69
604.458	96.69
604.666	95.69
604.875	91.69
605.084	90.69
605.292	87.69
605.501	85.69
605.709	104.69
605.918	98.69
606.126	111.69
606.334	87.69
606.543	103.69
606.751	85.69
606.96	106.69
607.168	98.69
607.376	97.69
607.585	90.69
607.793	92.69
608.001	91.69
608.21	102.69
608.418	92.69
608.626	104.69
608.834	93.69
609.043	103.69
609.251	91.69
609.459	79.69
609.667	79.69
609.875	98.69
610.083	92.69
610.291	105.69
610.499	82.69
610.707	102.69
610.916	85.69
611.124	111.69
611.332	102.69
611.54	102.69
611.748	84.69
611.955	80.69
612.163	84.69
612.371	103.69
612.579	99.69
612.787	87.69
612.995	86.69
613.203	84.69
613.411	92.69
613.618	94.69
613.826	95.69
614.034	97.69
614.242	107.69
614.449	100.69
614.657	96.69
614.865	104.69
615.072	89.69
615.28	95.69
615.488	87.69
615.695	106.69
615.903	99.69
616.111	84.69
616.318	101.69
616.526	94.69
616.733	98.69
616.941	122.69
617.148	107.69
617.356	95.69
617.563	104.69
617.771	91.69
617.978	92.69
618.185	88.69
618.393	96.69
618.6	104.69
618.807	91.69
619.015	100.69
619.222	91.69
619.429	98.69
619.637	105.69
619.844	108.69
620.051	97.69
620.258	94.69
620.466	95.69
620.673	82.69
620.88	91.69
621.087	81.69
621.294	102.69
621.501	97.69
621.708	85.69
621.915	95.69
622.122	89.69
622.329	103.69
622.536	88.69
622.743	86.69
622.95	100.69
623.157	97.69
623.364	83.69
623.571	99.69
623.778	92.69
623.985	106.69
624.192	91.69
624.399	84.69
624.606	103.69
624.812	84.69
625.019	95.69
625.226	94.69
625.433	97.69
625.639	95.69
625.846	85.69
626.053	81.69
626.259	81.69
626.466	73.69
626.673	86.69
626.879	67.69
627.086	88.69
627.293	87.69
627.499	81.69
627.706	97.69
627.912	98.69
628.119	76.69
628.325	88.69
628.532	95.69
628.738	80.69
628.945	96.69
629.151	90.69
629.357	83.69
629.564	94.69
629.77	91.69
629.976	91.69
630.183	85.69
630.389	94.69
630.595	71.69
630.802	89.69
631.008	91.69
631.214	108.69
631.42	96.69
631.627	80.69
631.833	86.69
632.039	97.69
632.245	73.69
632.451	90.69
632.657	88.69
632.863	82.69
633.069	97.69
633.275	102.69
633.481	82.69
633.688	86.69
633.893	84.69
634.099	93.69
634.305	73.69
634.511	85.69
634.717	92.69
634.923	85.69
635.129	89.69
635.335	91.69
635.541	87.69
635.747	95.69
635.952	86.69
636.158	87.69
636.364	85.69
636.57	84.69
636.775	100.69
636.981	99.69
637.187	98.69
637.392	85.69
637.598	94.69
637.804	86.69
638.009	66.69
638.215	77.69
638.421	96.69
638.626	94.69
638.832	91.69
639.037	86.69
639.243	83.69
639.448	85.69
639.654	98.69
639.859	86.69
640.065	76.69
640.27	90.69
640.475	83.69
640.681	96.69
640.886	86.69
641.091	86.69
641.297	86.69
641.502	87.69
641.707	97.69
641.913	95.69
642.118	82.69
642.323	73.69
642.528	98.69
642.733	104.69
642.939	102.69
643.144	100.69
643.349	88.69
643.554	96.69
643.759	86.69
643.964	95.69
644.169	96.69
644.374	84.69
644.579	96.69
644.784	104.69
644.989	86.69
645.194	81.69
645.399	94.69
645.604	86.69
645.809	84.69
646.014	88.69
646.219	102.69
646.423	97.69
646.628	89.69
646.833	94.69
647.038	83.69
647.243	84.69
647.447	88.69
647.652	102.69
647.857	81.69
648.062	81.69
648.266	79.69
648.471	89.69
648.676	95.69
648.88	94.69
649.085	92.69
649.289	79.69
649.494	73.69
649.698	103.69
649.903	98.69
650.107	102.69
650.312	78.69
650.516	99.69
650.721	90.69
650.925	93.69
651.13	101.69
651.334	91.69
651.539	86.69
651.743	76.69
651.947	78.69
652.152	83.69
652.356	85.69
652.56	86.69
652.764	76.69
652.969	93.69
653.173	86.69
653.377	87.69
653.581	93.69
653.785	90.69
653.99	80.69
654.194	83.69
654.398	93.69
654.602	92.69
654.806	79.69
655.01	84.69
655.214	95.69
655.418	91.69
655.622	82.69
655.826	80.69
656.03	88.69
656.234	87.69
656.438	81.69
656.642	80.69
656.846	87.69
657.049	96.69
657.253	75.69
657.457	80.69
657.661	75.69
657.865	87.69
658.068	86.69
658.272	99.69
658.476	75.69
658.68	82.69
658.883	75.69
659.087	76.69
659.291	73.69
659.494	84.69
659.698	92.69
659.901	85.69
660.105	69.69
660.309	92.69
660.512	83.69
660.716	90.69
660.919	79.69
661.123	88.69
661.326	76.69
661.53	82.69
661.733	84.69
661.936	90.69
662.14	83.69
662.343	83.69
662.546	90.69
662.75	87.69
662.953	76.69
663.156	75.69
663.36	93.69
663.563	82.69
663.766	94.69
663.969	71.69
664.173	87.69
664.376	85.69
664.579	74.69
664.782	70.69
664.985	74.69
665.188	64.69
665.391	71.69
665.594	90.69
665.797	74.69
666	84.69
666.203	88.69
666.406	88.69
666.609	73.69
666.812	68.69
667.015	78.69
667.218	86.69
667.421	92.69
667.624	80.69
667.827	85.69
668.03	90.69
668.232	91.69
668.435	77.69
668.638	75.69
668.841	81.69
669.043	90.69
669.246	80.69
669.449	67.69
669.651	92.69
669.854	72.69
670.057	82.69
670.259	75.69
670.462	91.69
670.665	70.69
670.867	72.69
671.07	75.69
671.272	69.69
671.475	73.69
671.677	70.69
671.88	84.69
672.082	86.69
672.284	76.69
672.487	78.69
672.689	83.69
672.892	67.69
