Data from StandardFe(NO3)3.TAE.3%Agarose.FlatLispGreen.Lamp.Energy10.07252019_HRD10591_11-53-23-440.txt Node
Date: Thu Jul 25 11:53:23 EDT 2019
User: cochatt
Spectrometer: HR+D1059
Trigger mode: 1
Integration Time (sec): 1.000000E-1
Scans to average: 1
Electric dark correction enabled: true
Nonlinearity correction enabled: false
Boxcar width: 0
XAxis mode: Wavelengths
Number of Pixels in Spectrum: 2048
>>>>>Begin Spectral Data<<<<<
223.165	-21.12
223.4	-21.12
223.635	-21.12
223.869	-18.12
224.104	-24.12
224.338	-23.12
224.573	-23.12
224.808	-16.12
225.042	-4.12
225.277	-14.12
225.511	-1.12
225.746	17.88
225.98	5.88
226.215	21.88
226.449	25.88
226.683	10.88
226.918	42.88
227.152	19.88
227.387	28.88
227.621	25.88
227.856	38.88
228.09	46.88
228.324	57.88
228.559	46.88
228.793	50.88
229.027	57.88
229.262	62.88
229.496	66.88
229.73	72.88
229.964	79.88
230.199	69.88
230.433	68.88
230.667	80.88
230.901	66.88
231.136	92.88
231.37	81.88
231.604	66.88
231.838	66.88
232.072	71.88
232.306	88.88
232.541	81.88
232.775	79.88
233.009	84.88
233.243	73.88
233.477	82.88
233.711	98.88
233.945	91.88
234.179	77.88
234.413	70.88
234.647	70.88
234.881	77.88
235.115	86.88
235.349	80.88
235.583	80.88
235.817	79.88
236.051	79.88
236.285	79.88
236.519	71.88
236.753	69.88
236.987	76.88
237.221	74.88
237.455	69.88
237.689	80.88
237.922	72.88
238.156	77.88
238.39	71.88
238.624	82.88
238.858	57.88
239.091	62.88
239.325	72.88
239.559	82.88
239.793	79.88
240.027	75.88
240.26	72.88
240.494	77.88
240.728	68.88
240.961	91.88
241.195	86.88
241.429	88.88
241.662	77.88
241.896	74.88
242.13	71.88
242.363	76.88
242.597	75.88
242.83	78.88
243.064	64.88
243.298	75.88
243.531	77.88
243.765	73.88
243.998	78.88
244.232	85.88
244.465	77.88
244.699	70.88
244.932	76.88
245.166	78.88
245.399	86.88
245.633	86.88
245.866	95.88
246.099	69.88
246.333	73.88
246.566	78.88
246.8	70.88
247.033	79.88
247.266	78.88
247.5	77.88
247.733	84.88
247.966	69.88
248.2	78.88
248.433	78.88
248.666	73.88
248.899	85.88
249.133	70.88
249.366	90.88
249.599	70.88
249.832	76.88
250.066	70.88
250.299	74.88
250.532	87.88
250.765	72.88
250.998	71.88
251.231	74.88
251.465	68.88
251.698	68.88
251.931	75.88
252.164	74.88
252.397	86.88
252.63	72.88
252.863	83.88
253.096	83.88
253.329	95.88
253.562	73.88
253.795	87.88
254.028	84.88
254.261	65.88
254.494	72.88
254.727	74.88
254.96	85.88
255.193	85.88
255.426	80.88
255.659	49.88
255.892	89.88
256.124	73.88
256.357	86.88
256.59	76.88
256.823	88.88
257.056	88.88
257.289	85.88
257.521	79.88
257.754	74.88
257.987	88.88
258.22	97.88
258.452	69.88
258.685	72.88
258.918	82.88
259.151	72.88
259.383	75.88
259.616	72.88
259.849	81.88
260.081	81.88
260.314	84.88
260.547	76.88
260.779	78.88
261.012	87.88
261.244	84.88
261.477	86.88
261.71	77.88
261.942	80.88
262.175	81.88
262.407	90.88
262.64	82.88
262.872	78.88
263.105	87.88
263.337	76.88
263.57	92.88
263.802	90.88
264.035	86.88
264.267	81.88
264.499	81.88
264.732	79.88
264.964	85.88
265.197	96.88
265.429	84.88
265.661	86.88
265.894	85.88
266.126	86.88
266.358	71.88
266.591	76.88
266.823	80.88
267.055	83.88
267.287	78.88
267.52	75.88
267.752	79.88
267.984	84.88
268.216	77.88
268.448	78.88
268.681	79.88
268.913	77.88
269.145	82.88
269.377	84.88
269.609	86.88
269.841	80.88
270.073	95.88
270.306	74.88
270.538	85.88
270.77	85.88
271.002	80.88
271.234	73.88
271.466	81.88
271.698	71.88
271.93	79.88
272.162	75.88
272.394	75.88
272.626	77.88
272.858	63.88
273.09	80.88
273.322	79.88
273.553	77.88
273.785	73.88
274.017	65.88
274.249	87.88
274.481	80.88
274.713	87.88
274.945	81.88
275.176	78.88
275.408	97.88
275.64	85.88
275.872	82.88
276.104	93.88
276.335	82.88
276.567	85.88
276.799	90.88
277.031	72.88
277.262	85.88
277.494	84.88
277.726	94.88
277.957	82.88
278.189	84.88
278.421	81.88
278.652	82.88
278.884	85.88
279.115	94.88
279.347	76.88
279.579	71.88
279.81	75.88
280.042	79.88
280.273	80.88
280.505	95.88
280.736	82.88
280.968	88.88
281.199	79.88
281.431	88.88
281.662	83.88
281.894	86.88
282.125	79.88
282.356	92.88
282.588	72.88
282.819	77.88
283.051	73.88
283.282	79.88
283.513	88.88
283.745	94.88
283.976	64.88
284.207	74.88
284.439	79.88
284.67	80.88
284.901	79.88
285.132	81.88
285.364	81.88
285.595	101.88
285.826	90.88
286.057	85.88
286.288	69.88
286.52	82.88
286.751	77.88
286.982	58.88
287.213	84.88
287.444	77.88
287.675	92.88
287.906	94.88
288.138	80.88
288.369	81.88
288.6	78.88
288.831	85.88
289.062	88.88
289.293	86.88
289.524	95.88
289.755	88.88
289.986	88.88
290.217	96.88
290.448	85.88
290.679	80.88
290.91	93.88
291.141	84.88
291.371	82.88
291.602	79.88
291.833	93.88
292.064	94.88
292.295	88.88
292.526	77.88
292.757	83.88
292.987	85.88
293.218	80.88
293.449	74.88
293.68	79.88
293.91	89.88
294.141	78.88
294.372	81.88
294.603	80.88
294.833	74.88
295.064	80.88
295.295	74.88
295.525	92.88
295.756	88.88
295.987	93.88
296.217	94.88
296.448	91.88
296.679	82.88
296.909	87.88
297.14	66.88
297.37	74.88
297.601	95.88
297.831	78.88
298.062	80.88
298.292	84.88
298.523	73.88
298.753	88.88
298.984	77.88
299.214	80.88
299.445	84.88
299.675	112.88
299.905	90.88
300.136	82.88
300.366	73.88
300.597	80.88
300.827	78.88
301.057	81.88
301.288	94.88
301.518	95.88
301.748	89.88
301.979	75.88
302.209	86.88
302.439	80.88
302.669	81.88
302.9	86.88
303.13	85.88
303.36	80.88
303.59	90.88
303.82	94.88
304.051	89.88
304.281	97.88
304.511	96.88
304.741	104.88
304.971	91.88
305.201	92.88
305.431	97.88
305.661	85.88
305.891	77.88
306.121	83.88
306.352	82.88
306.582	90.88
306.812	84.88
307.042	67.88
307.272	72.88
307.502	81.88
307.731	74.88
307.961	83.88
308.191	82.88
308.421	90.88
308.651	83.88
308.881	94.88
309.111	82.88
309.341	85.88
309.571	84.88
309.8	94.88
310.03	88.88
310.26	80.88
310.49	100.88
310.72	70.88
310.949	84.88
311.179	93.88
311.409	83.88
311.639	88.88
311.868	84.88
312.098	94.88
312.328	72.88
312.557	91.88
312.787	75.88
313.017	74.88
313.246	93.88
313.476	88.88
313.706	90.88
313.935	81.88
314.165	88.88
314.394	77.88
314.624	93.88
314.853	78.88
315.083	73.88
315.312	77.88
315.542	87.88
315.771	75.88
316.001	70.88
316.23	89.88
316.46	89.88
316.689	85.88
316.919	85.88
317.148	73.88
317.377	86.88
317.607	88.88
317.836	72.88
318.065	84.88
318.295	98.88
318.524	93.88
318.753	77.88
318.983	75.88
319.212	91.88
319.441	89.88
319.67	84.88
319.9	76.88
320.129	86.88
320.358	75.88
320.587	82.88
320.816	81.88
321.046	74.88
321.275	109.88
321.504	89.88
321.733	73.88
321.962	72.88
322.191	82.88
322.42	82.88
322.649	87.88
322.878	85.88
323.108	93.88
323.337	87.88
323.566	89.88
323.795	79.88
324.024	90.88
324.253	91.88
324.482	70.88
324.71	90.88
324.939	82.88
325.168	90.88
325.397	84.88
325.626	88.88
325.855	79.88
326.084	97.88
326.313	87.88
326.542	77.88
326.77	77.88
326.999	88.88
327.228	80.88
327.457	82.88
327.686	88.88
327.914	79.88
328.143	88.88
328.372	89.88
328.6	86.88
328.829	92.88
329.058	87.88
329.287	75.88
329.515	62.88
329.744	76.88
329.972	78.88
330.201	87.88
330.43	77.88
330.658	84.88
330.887	75.88
331.115	95.88
331.344	85.88
331.572	83.88
331.801	80.88
332.03	82.88
332.258	80.88
332.486	81.88
332.715	81.88
332.943	90.88
333.172	79.88
333.4	81.88
333.629	85.88
333.857	86.88
334.085	82.88
334.314	62.88
334.542	70.88
334.771	89.88
334.999	76.88
335.227	86.88
335.455	81.88
335.684	80.88
335.912	87.88
336.14	83.88
336.369	87.88
336.597	81.88
336.825	81.88
337.053	81.88
337.281	74.88
337.51	89.88
337.738	88.88
337.966	73.88
338.194	93.88
338.422	86.88
338.65	96.88
338.878	93.88
339.106	75.88
339.334	78.88
339.562	70.88
339.79	61.88
340.018	77.88
340.246	92.88
340.474	70.88
340.702	81.88
340.93	90.88
341.158	68.88
341.386	62.88
341.614	78.88
341.842	77.88
342.07	89.88
342.298	81.88
342.526	73.88
342.754	82.88
342.981	101.88
343.209	73.88
343.437	83.88
343.665	74.88
343.893	78.88
344.12	72.88
344.348	78.88
344.576	85.88
344.804	86.88
345.031	86.88
345.259	77.88
345.487	74.88
345.714	92.88
345.942	89.88
346.17	70.88
346.397	78.88
346.625	86.88
346.853	91.88
347.08	83.88
347.308	73.88
347.535	81.88
347.763	88.88
347.99	72.88
348.218	89.88
348.445	79.88
348.673	80.88
348.9	80.88
349.128	91.88
349.355	94.88
349.583	88.88
349.81	72.88
350.037	86.88
350.265	88.88
350.492	74.88
350.72	87.88
350.947	94.88
351.174	74.88
351.402	82.88
351.629	81.88
351.856	74.88
352.083	71.88
352.311	96.88
352.538	85.88
352.765	78.88
352.992	79.88
353.22	82.88
353.447	74.88
353.674	81.88
353.901	87.88
354.128	70.88
354.355	84.88
354.583	93.88
354.81	77.88
355.037	87.88
355.264	85.88
355.491	74.88
355.718	71.88
355.945	82.88
356.172	77.88
356.399	84.88
356.626	93.88
356.853	87.88
357.08	79.88
357.307	90.88
357.534	85.88
357.761	85.88
357.988	76.88
358.215	73.88
358.441	91.88
358.668	87.88
358.895	72.88
359.122	85.88
359.349	85.88
359.576	68.88
359.802	82.88
360.029	77.88
360.256	84.88
360.483	64.88
360.709	92.88
360.936	81.88
361.163	88.88
361.39	92.88
361.616	82.88
361.843	76.88
362.07	83.88
362.296	81.88
362.523	97.88
362.749	86.88
362.976	80.88
363.203	96.88
363.429	91.88
363.656	78.88
363.882	67.88
364.109	93.88
364.335	96.88
364.562	83.88
364.788	70.88
365.015	95.88
365.241	100.88
365.468	97.88
365.694	76.88
365.92	83.88
366.147	96.88
366.373	84.88
366.599	81.88
366.826	87.88
367.052	91.88
367.278	91.88
367.505	80.88
367.731	93.88
367.957	83.88
368.184	90.88
368.41	79.88
368.636	91.88
368.862	93.88
369.089	87.88
369.315	91.88
369.541	83.88
369.767	98.88
369.993	80.88
370.219	86.88
370.445	87.88
370.672	97.88
370.898	83.88
371.124	78.88
371.35	80.88
371.576	73.88
371.802	87.88
372.028	94.88
372.254	94.88
372.48	101.88
372.706	95.88
372.932	88.88
373.158	93.88
373.384	91.88
373.61	98.88
373.835	103.88
374.061	94.88
374.287	81.88
374.513	77.88
374.739	68.88
374.965	80.88
375.191	88.88
375.416	79.88
375.642	86.88
375.868	92.88
376.094	87.88
376.319	92.88
376.545	90.88
376.771	93.88
376.997	98.88
377.222	81.88
377.448	96.88
377.674	87.88
377.899	96.88
378.125	81.88
378.35	75.88
378.576	72.88
378.802	87.88
379.027	96.88
379.253	92.88
379.478	92.88
379.704	98.88
379.929	93.88
380.155	84.88
380.38	84.88
380.606	91.88
380.831	93.88
381.057	93.88
381.282	94.88
381.507	86.88
381.733	95.88
381.958	91.88
382.184	87.88
382.409	91.88
382.634	81.88
382.86	89.88
383.085	93.88
383.31	87.88
383.535	82.88
383.761	78.88
383.986	95.88
384.211	86.88
384.436	96.88
384.662	101.88
384.887	99.88
385.112	80.88
385.337	84.88
385.562	85.88
385.787	102.88
386.013	90.88
386.238	92.88
386.463	93.88
386.688	93.88
386.913	79.88
387.138	95.88
387.363	91.88
387.588	87.88
387.813	95.88
388.038	88.88
388.263	82.88
388.488	95.88
388.713	112.88
388.938	97.88
389.163	84.88
389.387	79.88
389.612	93.88
389.837	83.88
390.062	93.88
390.287	91.88
390.512	87.88
390.736	96.88
390.961	80.88
391.186	94.88
391.411	102.88
391.636	105.88
391.86	99.88
392.085	92.88
392.31	104.88
392.534	102.88
392.759	106.88
392.984	73.88
393.208	90.88
393.433	102.88
393.658	100.88
393.882	77.88
394.107	99.88
394.331	109.88
394.556	94.88
394.78	97.88
395.005	96.88
395.229	93.88
395.454	105.88
395.678	97.88
395.903	94.88
396.127	100.88
396.352	88.88
396.576	95.88
396.801	92.88
397.025	99.88
397.249	101.88
397.474	94.88
397.698	109.88
397.922	105.88
398.147	115.88
398.371	105.88
398.595	97.88
398.82	99.88
399.044	96.88
399.268	115.88
399.492	120.88
399.717	119.88
399.941	115.88
400.165	111.88
400.389	106.88
400.613	108.88
400.837	95.88
401.062	101.88
401.286	104.88
401.51	98.88
401.734	109.88
401.958	112.88
402.182	109.88
402.406	105.88
402.63	114.88
402.854	103.88
403.078	116.88
403.302	112.88
403.526	109.88
403.75	112.88
403.974	98.88
404.198	98.88
404.422	102.88
404.645	119.88
404.869	100.88
405.093	111.88
405.317	114.88
405.541	96.88
405.765	110.88
405.988	127.88
406.212	114.88
406.436	101.88
406.66	103.88
406.883	96.88
407.107	101.88
407.331	113.88
407.555	110.88
407.778	117.88
408.002	121.88
408.226	101.88
408.449	100.88
408.673	108.88
408.896	110.88
409.12	116.88
409.344	118.88
409.567	108.88
409.791	114.88
410.014	109.88
410.238	114.88
410.461	94.88
410.685	116.88
410.908	105.88
411.132	124.88
411.355	98.88
411.578	112.88
411.802	105.88
412.025	124.88
412.249	124.88
412.472	119.88
412.695	114.88
412.919	104.88
413.142	80.88
413.365	120.88
413.589	105.88
413.812	116.88
414.035	126.88
414.258	104.88
414.482	115.88
414.705	114.88
414.928	118.88
415.151	114.88
415.374	110.88
415.597	107.88
415.821	110.88
416.044	100.88
416.267	111.88
416.49	116.88
416.713	112.88
416.936	120.88
417.159	111.88
417.382	113.88
417.605	127.88
417.828	119.88
418.051	130.88
418.274	126.88
418.497	114.88
418.72	116.88
418.943	109.88
419.166	101.88
419.389	117.88
419.611	118.88
419.834	120.88
420.057	113.88
420.28	113.88
420.503	119.88
420.726	109.88
420.948	125.88
421.171	109.88
421.394	105.88
421.617	101.88
421.839	113.88
422.062	118.88
422.285	118.88
422.507	108.88
422.73	127.88
422.953	105.88
423.175	108.88
423.398	118.88
423.621	114.88
423.843	121.88
424.066	109.88
424.288	128.88
424.511	127.88
424.733	112.88
424.956	120.88
425.178	128.88
425.401	118.88
425.623	119.88
425.846	109.88
426.068	116.88
426.291	122.88
426.513	100.88
426.735	124.88
426.958	109.88
427.18	132.88
427.402	120.88
427.625	103.88
427.847	112.88
428.069	110.88
428.292	116.88
428.514	113.88
428.736	113.88
428.958	117.88
429.181	112.88
429.403	104.88
429.625	97.88
429.847	103.88
430.069	108.88
430.292	115.88
430.514	115.88
430.736	129.88
430.958	114.88
431.18	123.88
431.402	106.88
431.624	86.88
431.846	94.88
432.068	103.88
432.29	105.88
432.512	102.88
432.734	112.88
432.956	120.88
433.178	110.88
433.4	117.88
433.622	118.88
433.844	114.88
434.066	107.88
434.287	104.88
434.509	98.88
434.731	117.88
434.953	109.88
435.175	106.88
435.397	114.88
435.618	103.88
435.84	107.88
436.062	102.88
436.284	105.88
436.505	115.88
436.727	111.88
436.949	116.88
437.17	126.88
437.392	104.88
437.614	128.88
437.835	108.88
438.057	105.88
438.278	98.88
438.5	98.88
438.721	118.88
438.943	126.88
439.165	112.88
439.386	125.88
439.608	116.88
439.829	128.88
440.05	117.88
440.272	119.88
440.493	117.88
440.715	122.88
440.936	124.88
441.158	115.88
441.379	111.88
441.6	113.88
441.822	129.88
442.043	121.88
442.264	110.88
442.486	130.88
442.707	124.88
442.928	129.88
443.149	129.88
443.371	132.88
443.592	112.88
443.813	114.88
444.034	126.88
444.255	132.88
444.476	123.88
444.698	127.88
444.919	127.88
445.14	256.88
445.361	175.88
445.582	130.88
445.803	131.88
446.024	112.88
446.245	126.88
446.466	120.88
446.687	119.88
446.908	118.88
447.129	103.88
447.35	116.88
447.571	132.88
447.792	110.88
448.013	118.88
448.234	123.88
448.455	116.88
448.675	103.88
448.896	116.88
449.117	112.88
449.338	118.88
449.559	118.88
449.779	122.88
450	117.88
450.221	100.88
450.442	112.88
450.662	110.88
450.883	118.88
451.104	115.88
451.324	111.88
451.545	115.88
451.766	103.88
451.986	120.88
452.207	115.88
452.428	110.88
452.648	114.88
452.869	110.88
453.089	101.88
453.31	106.88
453.53	97.88
453.751	92.88
453.971	115.88
454.192	105.88
454.412	99.88
454.633	115.88
454.853	103.88
455.073	110.88
455.294	111.88
455.514	105.88
455.734	98.88
455.955	104.88
456.175	93.88
456.395	101.88
456.616	109.88
456.836	104.88
457.056	102.88
457.276	91.88
457.497	100.88
457.717	105.88
457.937	102.88
458.157	101.88
458.377	97.88
458.598	106.88
458.818	103.88
459.038	100.88
459.258	101.88
459.478	101.88
459.698	92.88
459.918	98.88
460.138	97.88
460.358	106.88
460.578	117.88
460.798	115.88
461.018	117.88
461.238	117.88
461.458	107.88
461.678	117.88
461.898	120.88
462.118	114.88
462.338	119.88
462.558	131.88
462.777	120.88
462.997	121.88
463.217	128.88
463.437	120.88
463.657	126.88
463.876	119.88
464.096	110.88
464.316	122.88
464.536	118.88
464.755	118.88
464.975	106.88
465.195	115.88
465.414	118.88
465.634	115.88
465.854	111.88
466.073	103.88
466.293	99.88
466.512	118.88
466.732	116.88
466.951	109.88
467.171	121.88
467.391	124.88
467.61	108.88
467.829	111.88
468.049	111.88
468.268	120.88
468.488	114.88
468.707	112.88
468.927	106.88
469.146	118.88
469.365	129.88
469.585	126.88
469.804	127.88
470.023	118.88
470.243	117.88
470.462	118.88
470.681	118.88
470.901	122.88
471.12	119.88
471.339	137.88
471.558	119.88
471.777	138.88
471.997	100.88
472.216	110.88
472.435	94.88
472.654	128.88
472.873	94.88
473.092	124.88
473.311	106.88
473.53	118.88
473.749	110.88
473.968	115.88
474.187	110.88
474.406	115.88
474.625	125.88
474.844	116.88
475.063	128.88
475.282	122.88
475.501	124.88
475.72	112.88
475.939	118.88
476.158	110.88
476.377	114.88
476.596	108.88
476.814	116.88
477.033	129.88
477.252	122.88
477.471	105.88
477.69	133.88
477.908	120.88
478.127	139.88
478.346	126.88
478.564	130.88
478.783	132.88
479.002	121.88
479.22	124.88
479.439	127.88
479.658	119.88
479.876	123.88
480.095	116.88
480.313	123.88
480.532	128.88
480.751	130.88
480.969	116.88
481.188	116.88
481.406	116.88
481.624	129.88
481.843	114.88
482.061	119.88
482.28	114.88
482.498	114.88
482.717	104.88
482.935	129.88
483.153	124.88
483.372	149.88
483.59	118.88
483.808	125.88
484.027	129.88
484.245	122.88
484.463	112.88
484.681	143.88
484.9	132.88
485.118	122.88
485.336	118.88
485.554	123.88
485.772	115.88
485.99	105.88
486.209	112.88
486.427	116.88
486.645	127.88
486.863	140.88
487.081	131.88
487.299	133.88
487.517	135.88
487.735	140.88
487.953	136.88
488.171	142.88
488.389	147.88
488.607	123.88
488.825	138.88
489.043	120.88
489.261	129.88
489.479	146.88
489.696	120.88
489.914	117.88
490.132	112.88
490.35	146.88
490.568	143.88
490.786	142.88
491.003	148.88
491.221	136.88
491.439	148.88
491.657	149.88
491.874	156.88
492.092	154.88
492.31	166.88
492.527	174.88
492.745	162.88
492.963	154.88
493.18	153.88
493.398	154.88
493.615	136.88
493.833	157.88
494.05	139.88
494.268	148.88
494.485	152.88
494.703	153.88
494.92	147.88
495.138	143.88
495.355	165.88
495.573	153.88
495.79	144.88
496.008	161.88
496.225	152.88
496.442	152.88
496.66	149.88
496.877	140.88
497.094	136.88
497.312	139.88
497.529	148.88
497.746	133.88
497.963	128.88
498.181	132.88
498.398	144.88
498.615	128.88
498.832	154.88
499.049	163.88
499.267	139.88
499.484	165.88
499.701	185.88
499.918	191.88
500.135	185.88
500.352	228.88
500.569	227.88
500.786	241.88
501.003	218.88
501.22	203.88
501.437	175.88
501.654	189.88
501.871	157.88
502.088	154.88
502.305	156.88
502.522	140.88
502.739	148.88
502.956	142.88
503.172	148.88
503.389	142.88
503.606	131.88
503.823	140.88
504.04	126.88
504.256	140.88
504.473	132.88
504.69	142.88
504.907	129.88
505.123	140.88
505.34	128.88
505.557	132.88
505.773	119.88
505.99	120.88
506.207	133.88
506.423	141.88
506.64	122.88
506.856	121.88
507.073	121.88
507.289	124.88
507.506	123.88
507.722	110.88
507.939	128.88
508.155	139.88
508.372	118.88
508.588	112.88
508.805	120.88
509.021	105.88
509.238	112.88
509.454	103.88
509.67	119.88
509.887	113.88
510.103	110.88
510.319	109.88
510.536	114.88
510.752	122.88
510.968	110.88
511.184	115.88
511.401	97.88
511.617	121.88
511.833	114.88
512.049	117.88
512.265	108.88
512.481	110.88
512.698	113.88
512.914	119.88
513.13	114.88
513.346	115.88
513.562	109.88
513.778	114.88
513.994	122.88
514.21	122.88
514.426	114.88
514.642	127.88
514.858	94.88
515.074	110.88
515.29	105.88
515.506	111.88
515.721	107.88
515.937	111.88
516.153	124.88
516.369	118.88
516.585	123.88
516.801	106.88
517.016	120.88
517.232	120.88
517.448	137.88
517.664	136.88
517.879	145.88
518.095	121.88
518.311	134.88
518.527	138.88
518.742	117.88
518.958	117.88
519.173	139.88
519.389	117.88
519.605	121.88
519.82	120.88
520.036	108.88
520.251	119.88
520.467	110.88
520.682	110.88
520.898	105.88
521.113	100.88
521.329	125.88
521.544	108.88
521.76	96.88
521.975	113.88
522.19	110.88
522.406	110.88
522.621	113.88
522.836	103.88
523.052	103.88
523.267	120.88
523.482	123.88
523.698	124.88
523.913	117.88
524.128	116.88
524.343	118.88
524.559	139.88
524.774	117.88
524.989	122.88
525.204	112.88
525.419	114.88
525.634	111.88
525.849	113.88
526.064	119.88
526.28	118.88
526.495	112.88
526.71	102.88
526.925	89.88
527.14	98.88
527.355	97.88
527.57	113.88
527.785	116.88
527.999	104.88
528.214	120.88
528.429	120.88
528.644	118.88
528.859	106.88
529.074	115.88
529.289	110.88
529.503	128.88
529.718	125.88
529.933	120.88
530.148	105.88
530.363	101.88
530.577	102.88
530.792	108.88
531.007	104.88
531.221	112.88
531.436	114.88
531.651	114.88
531.865	110.88
532.08	110.88
532.295	103.88
532.509	115.88
532.724	105.88
532.938	97.88
533.153	111.88
533.367	122.88
533.582	115.88
533.796	110.88
534.011	114.88
534.225	108.88
534.44	95.88
534.654	98.88
534.868	106.88
535.083	127.88
535.297	112.88
535.511	116.88
535.726	115.88
535.94	119.88
536.154	111.88
536.369	103.88
536.583	98.88
536.797	99.88
537.011	94.88
537.225	100.88
537.44	113.88
537.654	122.88
537.868	108.88
538.082	113.88
538.296	114.88
538.51	108.88
538.724	113.88
538.938	116.88
539.153	112.88
539.367	114.88
539.581	115.88
539.795	102.88
540.009	105.88
540.222	116.88
540.436	119.88
540.65	98.88
540.864	104.88
541.078	117.88
541.292	136.88
541.506	120.88
541.72	139.88
541.934	146.88
542.147	124.88
542.361	117.88
542.575	135.88
542.789	120.88
543.002	129.88
543.216	120.88
543.43	107.88
543.644	122.88
543.857	113.88
544.071	129.88
544.285	129.88
544.498	136.88
544.712	127.88
544.925	127.88
545.139	141.88
545.352	135.88
545.566	128.88
545.779	119.88
545.993	130.88
546.206	121.88
546.42	134.88
546.633	125.88
546.847	131.88
547.06	131.88
547.274	140.88
547.487	126.88
547.7	149.88
547.914	137.88
548.127	125.88
548.34	118.88
548.554	130.88
548.767	132.88
548.98	136.88
549.193	125.88
549.407	123.88
549.62	126.88
549.833	129.88
550.046	121.88
550.259	133.88
550.473	159.88
550.686	132.88
550.899	127.88
551.112	119.88
551.325	109.88
551.538	125.88
551.751	127.88
551.964	114.88
552.177	116.88
552.39	127.88
552.603	123.88
552.816	128.88
553.029	139.88
553.242	118.88
553.455	133.88
553.667	144.88
553.88	124.88
554.093	114.88
554.306	127.88
554.519	132.88
554.732	112.88
554.944	148.88
555.157	111.88
555.37	106.88
555.583	136.88
555.795	123.88
556.008	116.88
556.221	107.88
556.433	115.88
556.646	113.88
556.859	114.88
557.071	116.88
557.284	108.88
557.496	105.88
557.709	124.88
557.921	117.88
558.134	129.88
558.346	125.88
558.559	118.88
558.771	120.88
558.984	114.88
559.196	113.88
559.409	118.88
559.621	111.88
559.833	126.88
560.046	100.88
560.258	96.88
560.47	109.88
560.683	118.88
560.895	114.88
561.107	116.88
561.32	112.88
561.532	111.88
561.744	102.88
561.956	106.88
562.168	99.88
562.381	105.88
562.593	110.88
562.805	126.88
563.017	110.88
563.229	112.88
563.441	105.88
563.653	112.88
563.865	110.88
564.077	111.88
564.289	101.88
564.501	114.88
564.713	105.88
564.925	111.88
565.137	98.88
565.349	101.88
565.561	121.88
565.773	114.88
565.985	112.88
566.197	113.88
566.408	114.88
566.62	130.88
566.832	131.88
567.044	134.88
567.255	123.88
567.467	111.88
567.679	102.88
567.891	119.88
568.102	128.88
568.314	117.88
568.526	112.88
568.737	118.88
568.949	123.88
569.161	103.88
569.372	89.88
569.584	91.88
569.795	104.88
570.007	103.88
570.218	114.88
570.43	100.88
570.641	106.88
570.853	106.88
571.064	105.88
571.276	102.88
571.487	102.88
571.698	94.88
571.91	108.88
572.121	100.88
572.333	104.88
572.544	102.88
572.755	100.88
572.966	93.88
573.178	85.88
573.389	114.88
573.6	93.88
573.811	97.88
574.023	89.88
574.234	100.88
574.445	101.88
574.656	94.88
574.867	106.88
575.078	107.88
575.289	92.88
575.501	101.88
575.712	85.88
575.923	94.88
576.134	85.88
576.345	89.88
576.556	103.88
576.767	88.88
576.978	107.88
577.188	83.88
577.399	97.88
577.61	85.88
577.821	92.88
578.032	82.88
578.243	94.88
578.454	101.88
578.665	102.88
578.875	100.88
579.086	96.88
579.297	99.88
579.508	98.88
579.718	91.88
579.929	86.88
580.14	88.88
580.35	97.88
580.561	98.88
580.772	69.88
580.982	86.88
581.193	96.88
581.403	82.88
581.614	80.88
581.825	102.88
582.035	90.88
582.246	95.88
582.456	83.88
582.667	96.88
582.877	89.88
583.087	98.88
583.298	95.88
583.508	94.88
583.719	94.88
583.929	100.88
584.139	88.88
584.35	85.88
584.56	100.88
584.77	90.88
584.981	99.88
585.191	110.88
585.401	80.88
585.611	96.88
585.821	100.88
586.032	97.88
586.242	87.88
586.452	93.88
586.662	88.88
586.872	85.88
587.082	81.88
587.292	72.88
587.502	103.88
587.713	82.88
587.923	92.88
588.133	100.88
588.343	100.88
588.553	96.88
588.762	108.88
588.972	94.88
589.182	89.88
589.392	91.88
589.602	101.88
589.812	91.88
590.022	106.88
590.232	89.88
590.441	93.88
590.651	82.88
590.861	102.88
591.071	100.88
591.281	82.88
591.49	108.88
591.7	96.88
591.91	96.88
592.119	89.88
592.329	103.88
592.539	98.88
592.748	80.88
592.958	104.88
593.167	98.88
593.377	95.88
593.587	92.88
593.796	90.88
594.006	98.88
594.215	97.88
594.424	106.88
594.634	90.88
594.843	104.88
595.053	87.88
595.262	86.88
595.472	91.88
595.681	100.88
595.89	99.88
596.1	100.88
596.309	97.88
596.518	78.88
596.727	101.88
596.937	86.88
597.146	84.88
597.355	93.88
597.564	92.88
597.774	100.88
597.983	102.88
598.192	82.88
598.401	94.88
598.61	80.88
598.819	98.88
599.028	83.88
599.237	82.88
599.446	97.88
599.655	94.88
599.864	86.88
600.073	93.88
600.282	74.88
600.491	89.88
600.7	85.88
600.909	86.88
601.118	101.88
601.327	92.88
601.536	89.88
601.745	107.88
601.953	86.88
602.162	92.88
602.371	103.88
602.58	93.88
602.789	111.88
602.997	96.88
603.206	105.88
603.415	90.88
603.623	93.88
603.832	105.88
604.041	87.88
604.249	83.88
604.458	95.88
604.666	85.88
604.875	94.88
605.084	93.88
605.292	81.88
605.501	96.88
605.709	95.88
605.918	93.88
606.126	109.88
606.334	102.88
606.543	104.88
606.751	94.88
606.96	86.88
607.168	92.88
607.376	86.88
607.585	94.88
607.793	84.88
608.001	88.88
608.21	99.88
608.418	105.88
608.626	92.88
608.834	108.88
609.043	83.88
609.251	86.88
609.459	90.88
609.667	108.88
609.875	100.88
610.083	101.88
610.291	81.88
610.499	89.88
610.707	105.88
610.916	88.88
611.124	82.88
611.332	97.88
611.54	90.88
611.748	89.88
611.955	95.88
612.163	101.88
612.371	94.88
612.579	104.88
612.787	90.88
612.995	98.88
613.203	95.88
613.411	93.88
613.618	88.88
613.826	99.88
614.034	107.88
614.242	101.88
614.449	98.88
614.657	97.88
614.865	88.88
615.072	92.88
615.28	97.88
615.488	81.88
615.695	93.88
615.903	99.88
616.111	89.88
616.318	112.88
616.526	102.88
616.733	101.88
616.941	93.88
617.148	89.88
617.356	91.88
617.563	100.88
617.771	102.88
617.978	90.88
618.185	97.88
618.393	88.88
618.6	89.88
618.807	96.88
619.015	86.88
619.222	94.88
619.429	94.88
619.637	86.88
619.844	76.88
620.051	82.88
620.258	91.88
620.466	80.88
620.673	91.88
620.88	92.88
621.087	86.88
621.294	92.88
621.501	97.88
621.708	88.88
621.915	88.88
622.122	97.88
622.329	88.88
622.536	96.88
622.743	82.88
622.95	83.88
623.157	102.88
623.364	92.88
623.571	94.88
623.778	95.88
623.985	115.88
624.192	81.88
624.399	93.88
624.606	102.88
624.812	99.88
625.019	93.88
625.226	107.88
625.433	114.88
625.639	93.88
625.846	90.88
626.053	83.88
626.259	77.88
626.466	93.88
626.673	93.88
626.879	92.88
627.086	86.88
627.293	96.88
627.499	83.88
627.706	87.88
627.912	89.88
628.119	91.88
628.325	96.88
628.532	78.88
628.738	97.88
628.945	97.88
629.151	93.88
629.357	89.88
629.564	99.88
629.77	82.88
629.976	81.88
630.183	91.88
630.389	94.88
630.595	91.88
630.802	73.88
631.008	97.88
631.214	99.88
631.42	94.88
631.627	108.88
631.833	93.88
632.039	81.88
632.245	86.88
632.451	81.88
632.657	86.88
632.863	103.88
633.069	78.88
633.275	94.88
633.481	89.88
633.688	91.88
633.893	89.88
634.099	100.88
634.305	84.88
634.511	93.88
634.717	81.88
634.923	70.88
635.129	87.88
635.335	97.88
635.541	89.88
635.747	89.88
635.952	92.88
636.158	92.88
636.364	94.88
636.57	98.88
636.775	92.88
636.981	97.88
637.187	91.88
637.392	89.88
637.598	87.88
637.804	103.88
638.009	93.88
638.215	80.88
638.421	84.88
638.626	83.88
638.832	91.88
639.037	98.88
639.243	97.88
639.448	87.88
639.654	86.88
639.859	89.88
640.065	83.88
640.27	105.88
640.475	104.88
640.681	97.88
640.886	86.88
641.091	80.88
641.297	103.88
641.502	90.88
641.707	101.88
641.913	80.88
642.118	65.88
642.323	90.88
642.528	94.88
642.733	84.88
642.939	98.88
643.144	93.88
643.349	71.88
643.554	93.88
643.759	87.88
643.964	89.88
644.169	87.88
644.374	95.88
644.579	84.88
644.784	95.88
644.989	98.88
645.194	89.88
645.399	86.88
645.604	87.88
645.809	77.88
646.014	85.88
646.219	90.88
646.423	97.88
646.628	77.88
646.833	89.88
647.038	85.88
647.243	86.88
647.447	93.88
647.652	92.88
647.857	95.88
648.062	99.88
648.266	81.88
648.471	82.88
648.676	85.88
648.88	101.88
649.085	91.88
649.289	67.88
649.494	80.88
649.698	80.88
649.903	96.88
650.107	87.88
650.312	85.88
650.516	90.88
650.721	83.88
650.925	83.88
651.13	84.88
651.334	89.88
651.539	86.88
651.743	86.88
651.947	94.88
652.152	90.88
652.356	94.88
652.56	91.88
652.764	87.88
652.969	81.88
653.173	78.88
653.377	77.88
653.581	90.88
653.785	90.88
653.99	74.88
654.194	81.88
654.398	94.88
654.602	70.88
654.806	87.88
655.01	98.88
655.214	80.88
655.418	90.88
655.622	81.88
655.826	91.88
656.03	79.88
656.234	90.88
656.438	78.88
656.642	85.88
656.846	88.88
657.049	87.88
657.253	76.88
657.457	90.88
657.661	86.88
657.865	84.88
658.068	93.88
658.272	71.88
658.476	91.88
658.68	91.88
658.883	76.88
659.087	73.88
659.291	92.88
659.494	86.88
659.698	87.88
659.901	88.88
660.105	74.88
660.309	65.88
660.512	74.88
660.716	95.88
660.919	80.88
661.123	89.88
661.326	90.88
661.53	92.88
661.733	86.88
661.936	82.88
662.14	74.88
662.343	84.88
662.546	86.88
662.75	85.88
662.953	73.88
663.156	96.88
663.36	72.88
663.563	76.88
663.766	80.88
663.969	85.88
664.173	63.88
664.376	80.88
664.579	76.88
664.782	78.88
664.985	66.88
665.188	77.88
665.391	81.88
665.594	78.88
665.797	95.88
666	93.88
666.203	80.88
666.406	78.88
666.609	81.88
666.812	84.88
667.015	78.88
667.218	80.88
667.421	81.88
667.624	72.88
667.827	77.88
668.03	77.88
668.232	85.88
668.435	90.88
668.638	88.88
668.841	81.88
669.043	84.88
669.246	86.88
669.449	68.88
669.651	76.88
669.854	75.88
670.057	80.88
670.259	87.88
670.462	87.88
670.665	83.88
670.867	80.88
671.07	82.88
671.272	84.88
671.475	67.88
671.677	77.88
671.88	87.88
672.082	83.88
672.284	74.88
672.487	75.88
672.689	82.88
672.892	69.88
