Data from StandardFe(NO3)3.TAE.3%Agarose.FlatLispGreen.Lamp.Energy10.07252019_HRD10591_11-53-37-439.txt Node
Date: Thu Jul 25 11:53:37 EDT 2019
User: cochatt
Spectrometer: HR+D1059
Trigger mode: 1
Integration Time (sec): 1.000000E-1
Scans to average: 1
Electric dark correction enabled: true
Nonlinearity correction enabled: false
Boxcar width: 0
XAxis mode: Wavelengths
Number of Pixels in Spectrum: 2048
>>>>>Begin Spectral Data<<<<<
223.165	-0.31
223.4	-0.31
223.635	-0.31
223.869	-24.31
224.104	-24.31
224.338	-17.31
224.573	-15.31
224.808	-2.31
225.042	-11.31
225.277	-8.31
225.511	1.69
225.746	0.69
225.98	-5.31
226.215	4.69
226.449	18.69
226.683	23.69
226.918	25.69
227.152	33.69
227.387	27.69
227.621	17.69
227.856	38.69
228.09	52.69
228.324	38.69
228.559	58.69
228.793	67.69
229.027	51.69
229.262	68.69
229.496	73.69
229.73	75.69
229.964	56.69
230.199	69.69
230.433	80.69
230.667	76.69
230.901	66.69
231.136	64.69
231.37	70.69
231.604	80.69
231.838	106.69
232.072	78.69
232.306	78.69
232.541	71.69
232.775	82.69
233.009	86.69
233.243	90.69
233.477	91.69
233.711	80.69
233.945	71.69
234.179	90.69
234.413	82.69
234.647	87.69
234.881	75.69
235.115	81.69
235.349	66.69
235.583	71.69
235.817	89.69
236.051	67.69
236.285	71.69
236.519	86.69
236.753	70.69
236.987	77.69
237.221	70.69
237.455	68.69
237.689	79.69
237.922	67.69
238.156	67.69
238.39	66.69
238.624	70.69
238.858	65.69
239.091	65.69
239.325	69.69
239.559	79.69
239.793	93.69
240.027	83.69
240.26	87.69
240.494	70.69
240.728	80.69
240.961	61.69
241.195	72.69
241.429	69.69
241.662	67.69
241.896	55.69
242.13	71.69
242.363	81.69
242.597	81.69
242.83	65.69
243.064	75.69
243.298	76.69
243.531	55.69
243.765	88.69
243.998	82.69
244.232	75.69
244.465	73.69
244.699	72.69
244.932	82.69
245.166	79.69
245.399	85.69
245.633	81.69
245.866	66.69
246.099	78.69
246.333	81.69
246.566	76.69
246.8	65.69
247.033	75.69
247.266	68.69
247.5	69.69
247.733	67.69
247.966	76.69
248.2	79.69
248.433	79.69
248.666	74.69
248.899	71.69
249.133	88.69
249.366	85.69
249.599	79.69
249.832	78.69
250.066	83.69
250.299	71.69
250.532	80.69
250.765	73.69
250.998	81.69
251.231	57.69
251.465	83.69
251.698	61.69
251.931	71.69
252.164	67.69
252.397	70.69
252.63	78.69
252.863	66.69
253.096	71.69
253.329	80.69
253.562	78.69
253.795	85.69
254.028	79.69
254.261	86.69
254.494	80.69
254.727	91.69
254.96	94.69
255.193	74.69
255.426	74.69
255.659	86.69
255.892	66.69
256.124	73.69
256.357	77.69
256.59	81.69
256.823	75.69
257.056	80.69
257.289	74.69
257.521	69.69
257.754	73.69
257.987	69.69
258.22	77.69
258.452	74.69
258.685	86.69
258.918	84.69
259.151	80.69
259.383	83.69
259.616	74.69
259.849	76.69
260.081	90.69
260.314	88.69
260.547	83.69
260.779	96.69
261.012	80.69
261.244	82.69
261.477	73.69
261.71	76.69
261.942	72.69
262.175	88.69
262.407	84.69
262.64	82.69
262.872	91.69
263.105	91.69
263.337	83.69
263.57	93.69
263.802	67.69
264.035	83.69
264.267	84.69
264.499	84.69
264.732	82.69
264.964	70.69
265.197	72.69
265.429	85.69
265.661	105.69
265.894	91.69
266.126	81.69
266.358	83.69
266.591	81.69
266.823	87.69
267.055	85.69
267.287	93.69
267.52	75.69
267.752	87.69
267.984	83.69
268.216	75.69
268.448	87.69
268.681	77.69
268.913	82.69
269.145	80.69
269.377	95.69
269.609	86.69
269.841	105.69
270.073	91.69
270.306	94.69
270.538	96.69
270.77	98.69
271.002	85.69
271.234	83.69
271.466	90.69
271.698	80.69
271.93	64.69
272.162	97.69
272.394	81.69
272.626	88.69
272.858	88.69
273.09	82.69
273.322	85.69
273.553	82.69
273.785	86.69
274.017	79.69
274.249	76.69
274.481	97.69
274.713	75.69
274.945	76.69
275.176	85.69
275.408	69.69
275.64	78.69
275.872	81.69
276.104	69.69
276.335	83.69
276.567	73.69
276.799	89.69
277.031	88.69
277.262	91.69
277.494	98.69
277.726	85.69
277.957	81.69
278.189	82.69
278.421	94.69
278.652	77.69
278.884	85.69
279.115	83.69
279.347	86.69
279.579	92.69
279.81	65.69
280.042	85.69
280.273	68.69
280.505	77.69
280.736	69.69
280.968	98.69
281.199	87.69
281.431	89.69
281.662	76.69
281.894	95.69
282.125	71.69
282.356	88.69
282.588	80.69
282.819	84.69
283.051	86.69
283.282	94.69
283.513	81.69
283.745	79.69
283.976	84.69
284.207	89.69
284.439	93.69
284.67	95.69
284.901	70.69
285.132	91.69
285.364	87.69
285.595	78.69
285.826	85.69
286.057	83.69
286.288	88.69
286.52	88.69
286.751	84.69
286.982	87.69
287.213	83.69
287.444	75.69
287.675	87.69
287.906	94.69
288.138	72.69
288.369	89.69
288.6	74.69
288.831	78.69
289.062	68.69
289.293	85.69
289.524	86.69
289.755	92.69
289.986	84.69
290.217	82.69
290.448	65.69
290.679	91.69
290.91	88.69
291.141	83.69
291.371	85.69
291.602	91.69
291.833	91.69
292.064	88.69
292.295	84.69
292.526	66.69
292.757	85.69
292.987	95.69
293.218	89.69
293.449	96.69
293.68	98.69
293.91	81.69
294.141	84.69
294.372	72.69
294.603	81.69
294.833	79.69
295.064	83.69
295.295	90.69
295.525	99.69
295.756	81.69
295.987	82.69
296.217	90.69
296.448	93.69
296.679	86.69
296.909	86.69
297.14	87.69
297.37	84.69
297.601	99.69
297.831	83.69
298.062	95.69
298.292	90.69
298.523	95.69
298.753	79.69
298.984	77.69
299.214	85.69
299.445	80.69
299.675	92.69
299.905	73.69
300.136	97.69
300.366	83.69
300.597	91.69
300.827	93.69
301.057	89.69
301.288	87.69
301.518	89.69
301.748	75.69
301.979	85.69
302.209	85.69
302.439	81.69
302.669	84.69
302.9	80.69
303.13	86.69
303.36	86.69
303.59	86.69
303.82	70.69
304.051	89.69
304.281	94.69
304.511	80.69
304.741	88.69
304.971	88.69
305.201	83.69
305.431	69.69
305.661	88.69
305.891	94.69
306.121	78.69
306.352	73.69
306.582	72.69
306.812	93.69
307.042	84.69
307.272	91.69
307.502	89.69
307.731	91.69
307.961	87.69
308.191	81.69
308.421	88.69
308.651	72.69
308.881	104.69
309.111	88.69
309.341	89.69
309.571	82.69
309.8	86.69
310.03	88.69
310.26	82.69
310.49	68.69
310.72	86.69
310.949	78.69
311.179	92.69
311.409	100.69
311.639	75.69
311.868	91.69
312.098	82.69
312.328	90.69
312.557	90.69
312.787	78.69
313.017	84.69
313.246	83.69
313.476	98.69
313.706	78.69
313.935	98.69
314.165	82.69
314.394	81.69
314.624	73.69
314.853	87.69
315.083	83.69
315.312	76.69
315.542	83.69
315.771	77.69
316.001	72.69
316.23	84.69
316.46	71.69
316.689	84.69
316.919	88.69
317.148	83.69
317.377	81.69
317.607	89.69
317.836	76.69
318.065	80.69
318.295	79.69
318.524	73.69
318.753	92.69
318.983	99.69
319.212	93.69
319.441	78.69
319.67	84.69
319.9	85.69
320.129	106.69
320.358	81.69
320.587	90.69
320.816	68.69
321.046	76.69
321.275	93.69
321.504	85.69
321.733	85.69
321.962	82.69
322.191	86.69
322.42	73.69
322.649	89.69
322.878	91.69
323.108	86.69
323.337	95.69
323.566	84.69
323.795	75.69
324.024	82.69
324.253	67.69
324.482	78.69
324.71	77.69
324.939	97.69
325.168	81.69
325.397	83.69
325.626	82.69
325.855	69.69
326.084	93.69
326.313	79.69
326.542	81.69
326.77	70.69
326.999	80.69
327.228	75.69
327.457	86.69
327.686	78.69
327.914	109.69
328.143	87.69
328.372	78.69
328.6	89.69
328.829	87.69
329.058	83.69
329.287	75.69
329.515	80.69
329.744	83.69
329.972	87.69
330.201	94.69
330.43	81.69
330.658	75.69
330.887	80.69
331.115	78.69
331.344	88.69
331.572	94.69
331.801	83.69
332.03	97.69
332.258	74.69
332.486	83.69
332.715	95.69
332.943	75.69
333.172	89.69
333.4	74.69
333.629	90.69
333.857	78.69
334.085	82.69
334.314	89.69
334.542	93.69
334.771	71.69
334.999	83.69
335.227	70.69
335.455	99.69
335.684	83.69
335.912	101.69
336.14	87.69
336.369	79.69
336.597	87.69
336.825	84.69
337.053	81.69
337.281	87.69
337.51	71.69
337.738	89.69
337.966	77.69
338.194	82.69
338.422	92.69
338.65	83.69
338.878	90.69
339.106	76.69
339.334	74.69
339.562	89.69
339.79	74.69
340.018	86.69
340.246	80.69
340.474	71.69
340.702	86.69
340.93	82.69
341.158	85.69
341.386	74.69
341.614	74.69
341.842	80.69
342.07	71.69
342.298	81.69
342.526	86.69
342.754	84.69
342.981	74.69
343.209	94.69
343.437	89.69
343.665	78.69
343.893	77.69
344.12	78.69
344.348	86.69
344.576	70.69
344.804	83.69
345.031	79.69
345.259	78.69
345.487	84.69
345.714	107.69
345.942	86.69
346.17	90.69
346.397	93.69
346.625	80.69
346.853	79.69
347.08	80.69
347.308	78.69
347.535	81.69
347.763	89.69
347.99	75.69
348.218	80.69
348.445	80.69
348.673	76.69
348.9	73.69
349.128	91.69
349.355	96.69
349.583	91.69
349.81	82.69
350.037	98.69
350.265	93.69
350.492	78.69
350.72	75.69
350.947	77.69
351.174	94.69
351.402	78.69
351.629	85.69
351.856	83.69
352.083	80.69
352.311	79.69
352.538	69.69
352.765	88.69
352.992	80.69
353.22	74.69
353.447	79.69
353.674	83.69
353.901	88.69
354.128	91.69
354.355	81.69
354.583	78.69
354.81	71.69
355.037	84.69
355.264	85.69
355.491	77.69
355.718	77.69
355.945	84.69
356.172	91.69
356.399	77.69
356.626	80.69
356.853	72.69
357.08	69.69
357.307	72.69
357.534	86.69
357.761	78.69
357.988	71.69
358.215	75.69
358.441	70.69
358.668	82.69
358.895	78.69
359.122	86.69
359.349	88.69
359.576	79.69
359.802	88.69
360.029	82.69
360.256	91.69
360.483	76.69
360.709	90.69
360.936	107.69
361.163	81.69
361.39	78.69
361.616	81.69
361.843	100.69
362.07	81.69
362.296	83.69
362.523	91.69
362.749	86.69
362.976	78.69
363.203	90.69
363.429	90.69
363.656	98.69
363.882	74.69
364.109	93.69
364.335	97.69
364.562	94.69
364.788	76.69
365.015	85.69
365.241	77.69
365.468	94.69
365.694	92.69
365.92	93.69
366.147	70.69
366.373	79.69
366.599	77.69
366.826	86.69
367.052	81.69
367.278	86.69
367.505	89.69
367.731	87.69
367.957	83.69
368.184	85.69
368.41	92.69
368.636	85.69
368.862	75.69
369.089	81.69
369.315	69.69
369.541	97.69
369.767	98.69
369.993	83.69
370.219	84.69
370.445	97.69
370.672	90.69
370.898	86.69
371.124	81.69
371.35	81.69
371.576	86.69
371.802	80.69
372.028	86.69
372.254	101.69
372.48	102.69
372.706	88.69
372.932	100.69
373.158	77.69
373.384	87.69
373.61	94.69
373.835	83.69
374.061	76.69
374.287	85.69
374.513	83.69
374.739	100.69
374.965	80.69
375.191	82.69
375.416	83.69
375.642	84.69
375.868	94.69
376.094	85.69
376.319	83.69
376.545	84.69
376.771	93.69
376.997	86.69
377.222	95.69
377.448	86.69
377.674	82.69
377.899	82.69
378.125	84.69
378.35	93.69
378.576	96.69
378.802	95.69
379.027	93.69
379.253	85.69
379.478	86.69
379.704	87.69
379.929	107.69
380.155	78.69
380.38	91.69
380.606	67.69
380.831	87.69
381.057	72.69
381.282	86.69
381.507	90.69
381.733	85.69
381.958	90.69
382.184	91.69
382.409	94.69
382.634	96.69
382.86	82.69
383.085	88.69
383.31	95.69
383.535	85.69
383.761	102.69
383.986	90.69
384.211	102.69
384.436	90.69
384.662	91.69
384.887	110.69
385.112	78.69
385.337	108.69
385.562	94.69
385.787	100.69
386.013	89.69
386.238	93.69
386.463	97.69
386.688	93.69
386.913	83.69
387.138	93.69
387.363	87.69
387.588	109.69
387.813	93.69
388.038	91.69
388.263	90.69
388.488	92.69
388.713	83.69
388.938	97.69
389.163	89.69
389.387	98.69
389.612	97.69
389.837	95.69
390.062	79.69
390.287	100.69
390.512	97.69
390.736	103.69
390.961	95.69
391.186	95.69
391.411	105.69
391.636	90.69
391.86	89.69
392.085	85.69
392.31	103.69
392.534	79.69
392.759	102.69
392.984	107.69
393.208	88.69
393.433	96.69
393.658	101.69
393.882	95.69
394.107	107.69
394.331	102.69
394.556	110.69
394.78	98.69
395.005	104.69
395.229	109.69
395.454	116.69
395.678	95.69
395.903	95.69
396.127	109.69
396.352	97.69
396.576	94.69
396.801	89.69
397.025	94.69
397.249	111.69
397.474	116.69
397.698	104.69
397.922	102.69
398.147	118.69
398.371	105.69
398.595	95.69
398.82	110.69
399.044	109.69
399.268	102.69
399.492	130.69
399.717	122.69
399.941	115.69
400.165	104.69
400.389	101.69
400.613	114.69
400.837	97.69
401.062	104.69
401.286	99.69
401.51	106.69
401.734	95.69
401.958	105.69
402.182	98.69
402.406	97.69
402.63	108.69
402.854	113.69
403.078	120.69
403.302	101.69
403.526	119.69
403.75	119.69
403.974	113.69
404.198	115.69
404.422	120.69
404.645	119.69
404.869	118.69
405.093	109.69
405.317	105.69
405.541	109.69
405.765	99.69
405.988	121.69
406.212	125.69
406.436	112.69
406.66	113.69
406.883	115.69
407.107	118.69
407.331	105.69
407.555	114.69
407.778	112.69
408.002	120.69
408.226	114.69
408.449	97.69
408.673	86.69
408.896	104.69
409.12	123.69
409.344	114.69
409.567	115.69
409.791	115.69
410.014	118.69
410.238	113.69
410.461	117.69
410.685	115.69
410.908	119.69
411.132	101.69
411.355	117.69
411.578	125.69
411.802	106.69
412.025	113.69
412.249	101.69
412.472	104.69
412.695	106.69
412.919	111.69
413.142	117.69
413.365	111.69
413.589	120.69
413.812	114.69
414.035	106.69
414.258	106.69
414.482	113.69
414.705	111.69
414.928	116.69
415.151	102.69
415.374	116.69
415.597	113.69
415.821	125.69
416.044	103.69
416.267	105.69
416.49	118.69
416.713	105.69
416.936	109.69
417.159	117.69
417.382	117.69
417.605	105.69
417.828	104.69
418.051	109.69
418.274	87.69
418.497	108.69
418.72	111.69
418.943	125.69
419.166	114.69
419.389	130.69
419.611	119.69
419.834	121.69
420.057	120.69
420.28	117.69
420.503	120.69
420.726	111.69
420.948	118.69
421.171	109.69
421.394	118.69
421.617	109.69
421.839	120.69
422.062	110.69
422.285	103.69
422.507	99.69
422.73	110.69
422.953	104.69
423.175	103.69
423.398	104.69
423.621	127.69
423.843	121.69
424.066	120.69
424.288	118.69
424.511	122.69
424.733	114.69
424.956	113.69
425.178	99.69
425.401	120.69
425.623	117.69
425.846	123.69
426.068	126.69
426.291	110.69
426.513	119.69
426.735	115.69
426.958	115.69
427.18	111.69
427.402	115.69
427.625	110.69
427.847	121.69
428.069	116.69
428.292	112.69
428.514	105.69
428.736	121.69
428.958	114.69
429.181	113.69
429.403	104.69
429.625	113.69
429.847	100.69
430.069	123.69
430.292	109.69
430.514	106.69
430.736	113.69
430.958	121.69
431.18	117.69
431.402	102.69
431.624	105.69
431.846	98.69
432.068	94.69
432.29	101.69
432.512	98.69
432.734	104.69
432.956	122.69
433.178	104.69
433.4	116.69
433.622	109.69
433.844	119.69
434.066	117.69
434.287	97.69
434.509	87.69
434.731	105.69
434.953	104.69
435.175	120.69
435.397	113.69
435.618	113.69
435.84	116.69
436.062	105.69
436.284	109.69
436.505	109.69
436.727	114.69
436.949	110.69
437.17	97.69
437.392	105.69
437.614	118.69
437.835	100.69
438.057	88.69
438.278	99.69
438.5	112.69
438.721	107.69
438.943	113.69
439.165	111.69
439.386	98.69
439.608	119.69
439.829	119.69
440.05	126.69
440.272	99.69
440.493	104.69
440.715	119.69
440.936	119.69
441.158	102.69
441.379	121.69
441.6	137.69
441.822	118.69
442.043	127.69
442.264	126.69
442.486	128.69
442.707	121.69
442.928	118.69
443.149	124.69
443.371	123.69
443.592	109.69
443.813	129.69
444.034	125.69
444.255	120.69
444.476	111.69
444.698	133.69
444.919	135.69
445.14	260.69
445.361	187.69
445.582	130.69
445.803	118.69
446.024	113.69
446.245	111.69
446.466	122.69
446.687	121.69
446.908	117.69
447.129	121.69
447.35	130.69
447.571	121.69
447.792	110.69
448.013	97.69
448.234	112.69
448.455	108.69
448.675	109.69
448.896	99.69
449.117	127.69
449.338	106.69
449.559	126.69
449.779	137.69
450	120.69
450.221	114.69
450.442	123.69
450.662	114.69
450.883	114.69
451.104	115.69
451.324	111.69
451.545	110.69
451.766	106.69
451.986	115.69
452.207	105.69
452.428	110.69
452.648	103.69
452.869	106.69
453.089	113.69
453.31	99.69
453.53	116.69
453.751	93.69
453.971	109.69
454.192	90.69
454.412	97.69
454.633	100.69
454.853	103.69
455.073	109.69
455.294	105.69
455.514	116.69
455.734	105.69
455.955	114.69
456.175	103.69
456.395	109.69
456.616	99.69
456.836	106.69
457.056	114.69
457.276	102.69
457.497	90.69
457.717	106.69
457.937	107.69
458.157	111.69
458.377	107.69
458.598	113.69
458.818	112.69
459.038	111.69
459.258	98.69
459.478	101.69
459.698	95.69
459.918	113.69
460.138	126.69
460.358	100.69
460.578	109.69
460.798	121.69
461.018	129.69
461.238	119.69
461.458	117.69
461.678	122.69
461.898	115.69
462.118	98.69
462.338	111.69
462.558	121.69
462.777	119.69
462.997	114.69
463.217	141.69
463.437	129.69
463.657	105.69
463.876	129.69
464.096	129.69
464.316	118.69
464.536	125.69
464.755	133.69
464.975	113.69
465.195	125.69
465.414	117.69
465.634	112.69
465.854	131.69
466.073	125.69
466.293	110.69
466.512	119.69
466.732	117.69
466.951	114.69
467.171	120.69
467.391	124.69
467.61	123.69
467.829	101.69
468.049	117.69
468.268	119.69
468.488	119.69
468.707	120.69
468.927	114.69
469.146	139.69
469.365	125.69
469.585	108.69
469.804	115.69
470.023	125.69
470.243	113.69
470.462	133.69
470.681	114.69
470.901	111.69
471.12	119.69
471.339	117.69
471.558	114.69
471.777	114.69
471.997	127.69
472.216	125.69
472.435	103.69
472.654	109.69
472.873	111.69
473.092	108.69
473.311	111.69
473.53	125.69
473.749	100.69
473.968	101.69
474.187	104.69
474.406	112.69
474.625	110.69
474.844	112.69
475.063	120.69
475.282	127.69
475.501	118.69
475.72	114.69
475.939	110.69
476.158	131.69
476.377	106.69
476.596	117.69
476.814	98.69
477.033	107.69
477.252	130.69
477.471	107.69
477.69	121.69
477.908	135.69
478.127	125.69
478.346	117.69
478.564	120.69
478.783	131.69
479.002	130.69
479.22	119.69
479.439	119.69
479.658	126.69
479.876	125.69
480.095	122.69
480.313	126.69
480.532	137.69
480.751	123.69
480.969	115.69
481.188	111.69
481.406	118.69
481.624	97.69
481.843	101.69
482.061	106.69
482.28	110.69
482.498	99.69
482.717	105.69
482.935	114.69
483.153	127.69
483.372	136.69
483.59	128.69
483.808	105.69
484.027	121.69
484.245	122.69
484.463	131.69
484.681	142.69
484.9	117.69
485.118	134.69
485.336	118.69
485.554	112.69
485.772	130.69
485.99	125.69
486.209	119.69
486.427	107.69
486.645	132.69
486.863	113.69
487.081	121.69
487.299	130.69
487.517	126.69
487.735	123.69
487.953	156.69
488.171	153.69
488.389	120.69
488.607	125.69
488.825	133.69
489.043	115.69
489.261	119.69
489.479	121.69
489.696	133.69
489.914	128.69
490.132	133.69
490.35	134.69
490.568	137.69
490.786	130.69
491.003	152.69
491.221	134.69
491.439	155.69
491.657	145.69
491.874	150.69
492.092	146.69
492.31	170.69
492.527	164.69
492.745	144.69
492.963	148.69
493.18	160.69
493.398	151.69
493.615	142.69
493.833	153.69
494.05	132.69
494.268	143.69
494.485	160.69
494.703	143.69
494.92	182.69
495.138	159.69
495.355	143.69
495.573	142.69
495.79	150.69
496.008	155.69
496.225	150.69
496.442	162.69
496.66	167.69
496.877	158.69
497.094	154.69
497.312	148.69
497.529	155.69
497.746	148.69
497.963	143.69
498.181	154.69
498.398	152.69
498.615	141.69
498.832	155.69
499.049	175.69
499.267	162.69
499.484	157.69
499.701	181.69
499.918	174.69
500.135	180.69
500.352	229.69
500.569	225.69
500.786	205.69
501.003	209.69
501.22	196.69
501.437	189.69
501.654	176.69
501.871	170.69
502.088	151.69
502.305	155.69
502.522	140.69
502.739	131.69
502.956	153.69
503.172	151.69
503.389	134.69
503.606	149.69
503.823	123.69
504.04	145.69
504.256	127.69
504.473	126.69
504.69	132.69
504.907	148.69
505.123	130.69
505.34	118.69
505.557	133.69
505.773	118.69
505.99	126.69
506.207	123.69
506.423	133.69
506.64	121.69
506.856	120.69
507.073	122.69
507.289	127.69
507.506	127.69
507.722	122.69
507.939	138.69
508.155	125.69
508.372	119.69
508.588	130.69
508.805	128.69
509.021	119.69
509.238	112.69
509.454	130.69
509.67	107.69
509.887	101.69
510.103	120.69
510.319	103.69
510.536	111.69
510.752	113.69
510.968	111.69
511.184	117.69
511.401	109.69
511.617	111.69
511.833	100.69
512.049	97.69
512.265	107.69
512.481	112.69
512.698	106.69
512.914	113.69
513.13	119.69
513.346	122.69
513.562	117.69
513.778	112.69
513.994	112.69
514.21	110.69
514.426	105.69
514.642	101.69
514.858	118.69
515.074	109.69
515.29	117.69
515.506	127.69
515.721	123.69
515.937	120.69
516.153	107.69
516.369	123.69
516.585	115.69
516.801	125.69
517.016	118.69
517.232	125.69
517.448	120.69
517.664	135.69
517.879	137.69
518.095	131.69
518.311	119.69
518.527	116.69
518.742	129.69
518.958	120.69
519.173	131.69
519.389	125.69
519.605	119.69
519.82	111.69
520.036	139.69
520.251	120.69
520.467	125.69
520.682	118.69
520.898	109.69
521.113	113.69
521.329	104.69
521.544	109.69
521.76	104.69
521.975	114.69
522.19	94.69
522.406	113.69
522.621	111.69
522.836	121.69
523.052	114.69
523.267	112.69
523.482	126.69
523.698	117.69
523.913	111.69
524.128	115.69
524.343	117.69
524.559	120.69
524.774	125.69
524.989	122.69
525.204	125.69
525.419	118.69
525.634	114.69
525.849	112.69
526.064	117.69
526.28	119.69
526.495	104.69
526.71	118.69
526.925	123.69
527.14	94.69
527.355	96.69
527.57	105.69
527.785	120.69
527.999	113.69
528.214	107.69
528.429	105.69
528.644	129.69
528.859	114.69
529.074	129.69
529.289	116.69
529.503	121.69
529.718	114.69
529.933	114.69
530.148	98.69
530.363	98.69
530.577	113.69
530.792	100.69
531.007	97.69
531.221	104.69
531.436	104.69
531.651	110.69
531.865	114.69
532.08	110.69
532.295	122.69
532.509	114.69
532.724	105.69
532.938	113.69
533.153	119.69
533.367	112.69
533.582	122.69
533.796	111.69
534.011	100.69
534.225	125.69
534.44	109.69
534.654	116.69
534.868	117.69
535.083	126.69
535.297	104.69
535.511	123.69
535.726	116.69
535.94	118.69
536.154	99.69
536.369	105.69
536.583	118.69
536.797	99.69
537.011	116.69
537.225	109.69
537.44	106.69
537.654	105.69
537.868	94.69
538.082	105.69
538.296	110.69
538.51	99.69
538.724	111.69
538.938	117.69
539.153	96.69
539.367	113.69
539.581	118.69
539.795	118.69
540.009	93.69
540.222	99.69
540.436	104.69
540.65	112.69
540.864	127.69
541.078	130.69
541.292	129.69
541.506	128.69
541.72	122.69
541.934	135.69
542.147	143.69
542.361	137.69
542.575	131.69
542.789	130.69
543.002	113.69
543.216	117.69
543.43	115.69
543.644	124.69
543.857	127.69
544.071	145.69
544.285	129.69
544.498	125.69
544.712	131.69
544.925	129.69
545.139	147.69
545.352	128.69
545.566	127.69
545.779	137.69
545.993	128.69
546.206	146.69
546.42	139.69
546.633	145.69
546.847	136.69
547.06	124.69
547.274	136.69
547.487	138.69
547.7	134.69
547.914	145.69
548.127	133.69
548.34	131.69
548.554	124.69
548.767	126.69
548.98	149.69
549.193	139.69
549.407	130.69
549.62	140.69
549.833	130.69
550.046	126.69
550.259	134.69
550.473	136.69
550.686	138.69
550.899	126.69
551.112	136.69
551.325	123.69
551.538	119.69
551.751	115.69
551.964	129.69
552.177	119.69
552.39	125.69
552.603	121.69
552.816	137.69
553.029	130.69
553.242	140.69
553.455	125.69
553.667	140.69
553.88	139.69
554.093	140.69
554.306	121.69
554.519	134.69
554.732	122.69
554.944	150.69
555.157	123.69
555.37	130.69
555.583	120.69
555.795	124.69
556.008	119.69
556.221	119.69
556.433	113.69
556.646	116.69
556.859	114.69
557.071	123.69
557.284	121.69
557.496	110.69
557.709	129.69
557.921	123.69
558.134	123.69
558.346	124.69
558.559	119.69
558.771	114.69
558.984	127.69
559.196	106.69
559.409	111.69
559.621	117.69
559.833	99.69
560.046	109.69
560.258	106.69
560.47	121.69
560.683	126.69
560.895	110.69
561.107	120.69
561.32	115.69
561.532	107.69
561.744	103.69
561.956	112.69
562.168	110.69
562.381	114.69
562.593	121.69
562.805	121.69
563.017	111.69
563.229	111.69
563.441	123.69
563.653	123.69
563.865	102.69
564.077	108.69
564.289	112.69
564.501	111.69
564.713	113.69
564.925	109.69
565.137	111.69
565.349	109.69
565.561	107.69
565.773	111.69
565.985	108.69
566.197	122.69
566.408	117.69
566.62	113.69
566.832	129.69
567.044	113.69
567.255	120.69
567.467	130.69
567.679	123.69
567.891	125.69
568.102	125.69
568.314	138.69
568.526	127.69
568.737	102.69
568.949	110.69
569.161	96.69
569.372	90.69
569.584	96.69
569.795	116.69
570.007	101.69
570.218	97.69
570.43	104.69
570.641	99.69
570.853	102.69
571.064	111.69
571.276	99.69
571.487	105.69
571.698	90.69
571.91	100.69
572.121	104.69
572.333	116.69
572.544	97.69
572.755	99.69
572.966	98.69
573.178	85.69
573.389	106.69
573.6	91.69
573.811	104.69
574.023	93.69
574.234	91.69
574.445	113.69
574.656	100.69
574.867	86.69
575.078	112.69
575.289	108.69
575.501	101.69
575.712	94.69
575.923	91.69
576.134	106.69
576.345	96.69
576.556	101.69
576.767	83.69
576.978	97.69
577.188	105.69
577.399	97.69
577.61	95.69
577.821	94.69
578.032	96.69
578.243	112.69
578.454	95.69
578.665	103.69
578.875	90.69
579.086	93.69
579.297	100.69
579.508	105.69
579.718	93.69
579.929	85.69
580.14	90.69
580.35	89.69
580.561	90.69
580.772	91.69
580.982	92.69
581.193	99.69
581.403	97.69
581.614	104.69
581.825	97.69
582.035	82.69
582.246	98.69
582.456	94.69
582.667	99.69
582.877	101.69
583.087	83.69
583.298	86.69
583.508	95.69
583.719	93.69
583.929	93.69
584.139	97.69
584.35	100.69
584.56	97.69
584.77	93.69
584.981	82.69
585.191	93.69
585.401	93.69
585.611	91.69
585.821	99.69
586.032	97.69
586.242	101.69
586.452	79.69
586.662	86.69
586.872	75.69
587.082	79.69
587.292	81.69
587.502	85.69
587.713	91.69
587.923	91.69
588.133	96.69
588.343	93.69
588.553	91.69
588.762	105.69
588.972	94.69
589.182	82.69
589.392	94.69
589.602	99.69
589.812	91.69
590.022	107.69
590.232	97.69
590.441	82.69
590.651	87.69
590.861	102.69
591.071	98.69
591.281	97.69
591.49	92.69
591.7	91.69
591.91	89.69
592.119	102.69
592.329	98.69
592.539	109.69
592.748	97.69
592.958	95.69
593.167	112.69
593.377	94.69
593.587	118.69
593.796	106.69
594.006	99.69
594.215	91.69
594.424	102.69
594.634	94.69
594.843	94.69
595.053	117.69
595.262	101.69
595.472	100.69
595.681	83.69
595.89	94.69
596.1	94.69
596.309	99.69
596.518	97.69
596.727	81.69
596.937	95.69
597.146	89.69
597.355	98.69
597.564	93.69
597.774	92.69
597.983	75.69
598.192	97.69
598.401	96.69
598.61	92.69
598.819	97.69
599.028	95.69
599.237	76.69
599.446	83.69
599.655	89.69
599.864	109.69
600.073	97.69
600.282	89.69
600.491	96.69
600.7	90.69
600.909	90.69
601.118	85.69
601.327	86.69
601.536	85.69
601.745	88.69
601.953	103.69
602.162	97.69
602.371	86.69
602.58	102.69
602.789	103.69
602.997	99.69
603.206	105.69
603.415	97.69
603.623	107.69
603.832	103.69
604.041	94.69
604.249	88.69
604.458	99.69
604.666	80.69
604.875	85.69
605.084	94.69
605.292	91.69
605.501	89.69
605.709	112.69
605.918	89.69
606.126	103.69
606.334	97.69
606.543	97.69
606.751	86.69
606.96	90.69
607.168	97.69
607.376	91.69
607.585	103.69
607.793	98.69
608.001	83.69
608.21	95.69
608.418	88.69
608.626	82.69
608.834	101.69
609.043	91.69
609.251	96.69
609.459	106.69
609.667	104.69
609.875	93.69
610.083	82.69
610.291	79.69
610.499	79.69
610.707	92.69
610.916	92.69
611.124	104.69
611.332	98.69
611.54	93.69
611.748	106.69
611.955	91.69
612.163	98.69
612.371	88.69
612.579	93.69
612.787	107.69
612.995	98.69
613.203	96.69
613.411	91.69
613.618	90.69
613.826	99.69
614.034	93.69
614.242	96.69
614.449	94.69
614.657	94.69
614.865	100.69
615.072	101.69
615.28	83.69
615.488	81.69
615.695	81.69
615.903	95.69
616.111	97.69
616.318	101.69
616.526	100.69
616.733	111.69
616.941	77.69
617.148	86.69
617.356	101.69
617.563	94.69
617.771	91.69
617.978	85.69
618.185	99.69
618.393	99.69
618.6	101.69
618.807	99.69
619.015	92.69
619.222	103.69
619.429	74.69
619.637	87.69
619.844	78.69
620.051	85.69
620.258	94.69
620.466	68.69
620.673	75.69
620.88	69.69
621.087	85.69
621.294	88.69
621.501	76.69
621.708	100.69
621.915	91.69
622.122	93.69
622.329	90.69
622.536	85.69
622.743	105.69
622.95	93.69
623.157	69.69
623.364	82.69
623.571	97.69
623.778	76.69
623.985	97.69
624.192	90.69
624.399	97.69
624.606	92.69
624.812	96.69
625.019	102.69
625.226	102.69
625.433	99.69
625.639	70.69
625.846	90.69
626.053	83.69
626.259	95.69
626.466	98.69
626.673	95.69
626.879	99.69
627.086	85.69
627.293	91.69
627.499	97.69
627.706	98.69
627.912	86.69
628.119	92.69
628.325	94.69
628.532	87.69
628.738	96.69
628.945	90.69
629.151	67.69
629.357	99.69
629.564	85.69
629.77	85.69
629.976	87.69
630.183	81.69
630.389	74.69
630.595	76.69
630.802	100.69
631.008	93.69
631.214	98.69
631.42	90.69
631.627	77.69
631.833	90.69
632.039	93.69
632.245	78.69
632.451	96.69
632.657	101.69
632.863	94.69
633.069	93.69
633.275	92.69
633.481	88.69
633.688	92.69
633.893	83.69
634.099	87.69
634.305	81.69
634.511	82.69
634.717	81.69
634.923	77.69
635.129	72.69
635.335	81.69
635.541	90.69
635.747	79.69
635.952	92.69
636.158	101.69
636.364	79.69
636.57	75.69
636.775	87.69
636.981	103.69
637.187	91.69
637.392	90.69
637.598	93.69
637.804	90.69
638.009	86.69
638.215	91.69
638.421	89.69
638.626	92.69
638.832	87.69
639.037	87.69
639.243	79.69
639.448	78.69
639.654	79.69
639.859	101.69
640.065	90.69
640.27	88.69
640.475	88.69
640.681	93.69
640.886	87.69
641.091	82.69
641.297	74.69
641.502	99.69
641.707	73.69
641.913	89.69
642.118	94.69
642.323	98.69
642.528	93.69
642.733	91.69
642.939	90.69
643.144	86.69
643.349	99.69
643.554	98.69
643.759	75.69
643.964	88.69
644.169	89.69
644.374	87.69
644.579	87.69
644.784	89.69
644.989	79.69
645.194	89.69
645.399	90.69
645.604	91.69
645.809	77.69
646.014	93.69
646.219	92.69
646.423	87.69
646.628	87.69
646.833	91.69
647.038	90.69
647.243	97.69
647.447	98.69
647.652	87.69
647.857	86.69
648.062	82.69
648.266	76.69
648.471	87.69
648.676	99.69
648.88	96.69
649.085	90.69
649.289	80.69
649.494	87.69
649.698	96.69
649.903	89.69
650.107	79.69
650.312	87.69
650.516	89.69
650.721	101.69
650.925	71.69
651.13	82.69
651.334	91.69
651.539	84.69
651.743	74.69
651.947	91.69
652.152	91.69
652.356	80.69
652.56	101.69
652.764	87.69
652.969	88.69
653.173	72.69
653.377	100.69
653.581	81.69
653.785	73.69
653.99	89.69
654.194	93.69
654.398	80.69
654.602	81.69
654.806	94.69
655.01	88.69
655.214	89.69
655.418	81.69
655.622	88.69
655.826	83.69
656.03	80.69
656.234	81.69
656.438	88.69
656.642	91.69
656.846	85.69
657.049	90.69
657.253	77.69
657.457	102.69
657.661	94.69
657.865	85.69
658.068	84.69
658.272	87.69
658.476	76.69
658.68	100.69
658.883	76.69
659.087	71.69
659.291	95.69
659.494	83.69
659.698	85.69
659.901	71.69
660.105	78.69
660.309	95.69
660.512	92.69
660.716	87.69
660.919	81.69
661.123	93.69
661.326	76.69
661.53	90.69
661.733	84.69
661.936	66.69
662.14	96.69
662.343	85.69
662.546	75.69
662.75	84.69
662.953	89.69
663.156	82.69
663.36	91.69
663.563	86.69
663.766	75.69
663.969	76.69
664.173	96.69
664.376	74.69
664.579	80.69
664.782	70.69
664.985	69.69
665.188	68.69
665.391	78.69
665.594	75.69
665.797	81.69
666	80.69
666.203	72.69
666.406	88.69
666.609	72.69
666.812	88.69
667.015	91.69
667.218	78.69
667.421	88.69
667.624	66.69
667.827	67.69
668.03	84.69
668.232	89.69
668.435	85.69
668.638	73.69
668.841	87.69
669.043	75.69
669.246	84.69
669.449	74.69
669.651	77.69
669.854	92.69
670.057	81.69
670.259	89.69
670.462	84.69
670.665	62.69
670.867	81.69
671.07	76.69
671.272	80.69
671.475	72.69
671.677	79.69
671.88	87.69
672.082	68.69
672.284	78.69
672.487	87.69
672.689	87.69
672.892	92.69
