Data from StandardFe(NO3)3.TAE.3%Agarose.FlatLispGreen.Lamp.Energy10.07252019_HRD10591_11-55-36-441.txt Node
Date: Thu Jul 25 11:55:36 EDT 2019
User: cochatt
Spectrometer: HR+D1059
Trigger mode: 1
Integration Time (sec): 1.000000E-1
Scans to average: 1
Electric dark correction enabled: true
Nonlinearity correction enabled: false
Boxcar width: 0
XAxis mode: Wavelengths
Number of Pixels in Spectrum: 2048
>>>>>Begin Spectral Data<<<<<
223.165	-13.62
223.4	-13.62
223.635	-13.62
223.869	-19.62
224.104	-12.62
224.338	-18.62
224.573	-21.62
224.808	-5.62
225.042	-2.62
225.277	1.38
225.511	-4.62
225.746	7.38
225.98	9.38
226.215	16.38
226.449	7.38
226.683	13.38
226.918	17.38
227.152	26.38
227.387	29.38
227.621	45.38
227.856	38.38
228.09	54.38
228.324	54.38
228.559	60.38
228.793	55.38
229.027	72.38
229.262	72.38
229.496	67.38
229.73	66.38
229.964	70.38
230.199	76.38
230.433	83.38
230.667	75.38
230.901	83.38
231.136	78.38
231.37	97.38
231.604	85.38
231.838	69.38
232.072	86.38
232.306	82.38
232.541	96.38
232.775	93.38
233.009	87.38
233.243	86.38
233.477	84.38
233.711	81.38
233.945	84.38
234.179	86.38
234.413	85.38
234.647	77.38
234.881	73.38
235.115	77.38
235.349	85.38
235.583	83.38
235.817	73.38
236.051	86.38
236.285	90.38
236.519	78.38
236.753	80.38
236.987	85.38
237.221	62.38
237.455	86.38
237.689	70.38
237.922	84.38
238.156	78.38
238.39	89.38
238.624	67.38
238.858	69.38
239.091	76.38
239.325	76.38
239.559	63.38
239.793	84.38
240.027	74.38
240.26	90.38
240.494	81.38
240.728	69.38
240.961	85.38
241.195	91.38
241.429	85.38
241.662	76.38
241.896	74.38
242.13	86.38
242.363	76.38
242.597	79.38
242.83	85.38
243.064	85.38
243.298	79.38
243.531	89.38
243.765	71.38
243.998	84.38
244.232	87.38
244.465	99.38
244.699	82.38
244.932	85.38
245.166	86.38
245.399	71.38
245.633	69.38
245.866	78.38
246.099	81.38
246.333	79.38
246.566	84.38
246.8	78.38
247.033	86.38
247.266	80.38
247.5	77.38
247.733	69.38
247.966	81.38
248.2	96.38
248.433	80.38
248.666	86.38
248.899	73.38
249.133	82.38
249.366	79.38
249.599	81.38
249.832	75.38
250.066	85.38
250.299	75.38
250.532	94.38
250.765	80.38
250.998	81.38
251.231	84.38
251.465	86.38
251.698	91.38
251.931	71.38
252.164	70.38
252.397	80.38
252.63	85.38
252.863	90.38
253.096	95.38
253.329	69.38
253.562	77.38
253.795	73.38
254.028	91.38
254.261	81.38
254.494	77.38
254.727	75.38
254.96	94.38
255.193	85.38
255.426	78.38
255.659	69.38
255.892	86.38
256.124	75.38
256.357	87.38
256.59	82.38
256.823	80.38
257.056	87.38
257.289	86.38
257.521	87.38
257.754	79.38
257.987	78.38
258.22	83.38
258.452	97.38
258.685	68.38
258.918	88.38
259.151	93.38
259.383	88.38
259.616	73.38
259.849	75.38
260.081	84.38
260.314	79.38
260.547	86.38
260.779	91.38
261.012	78.38
261.244	87.38
261.477	76.38
261.71	79.38
261.942	87.38
262.175	90.38
262.407	83.38
262.64	84.38
262.872	82.38
263.105	90.38
263.337	97.38
263.57	79.38
263.802	79.38
264.035	88.38
264.267	77.38
264.499	87.38
264.732	79.38
264.964	76.38
265.197	92.38
265.429	78.38
265.661	106.38
265.894	89.38
266.126	92.38
266.358	93.38
266.591	86.38
266.823	84.38
267.055	84.38
267.287	78.38
267.52	76.38
267.752	72.38
267.984	90.38
268.216	76.38
268.448	94.38
268.681	80.38
268.913	87.38
269.145	94.38
269.377	85.38
269.609	83.38
269.841	98.38
270.073	74.38
270.306	90.38
270.538	80.38
270.77	85.38
271.002	97.38
271.234	90.38
271.466	76.38
271.698	74.38
271.93	93.38
272.162	96.38
272.394	86.38
272.626	77.38
272.858	100.38
273.09	82.38
273.322	90.38
273.553	81.38
273.785	71.38
274.017	83.38
274.249	79.38
274.481	83.38
274.713	93.38
274.945	76.38
275.176	77.38
275.408	90.38
275.64	84.38
275.872	91.38
276.104	100.38
276.335	93.38
276.567	76.38
276.799	83.38
277.031	95.38
277.262	85.38
277.494	86.38
277.726	86.38
277.957	84.38
278.189	100.38
278.421	92.38
278.652	83.38
278.884	78.38
279.115	78.38
279.347	92.38
279.579	72.38
279.81	89.38
280.042	93.38
280.273	87.38
280.505	92.38
280.736	98.38
280.968	83.38
281.199	87.38
281.431	71.38
281.662	93.38
281.894	81.38
282.125	80.38
282.356	97.38
282.588	85.38
282.819	91.38
283.051	88.38
283.282	71.38
283.513	79.38
283.745	88.38
283.976	70.38
284.207	73.38
284.439	90.38
284.67	103.38
284.901	82.38
285.132	90.38
285.364	92.38
285.595	86.38
285.826	76.38
286.057	78.38
286.288	82.38
286.52	86.38
286.751	75.38
286.982	95.38
287.213	81.38
287.444	89.38
287.675	109.38
287.906	94.38
288.138	86.38
288.369	93.38
288.6	85.38
288.831	93.38
289.062	79.38
289.293	91.38
289.524	85.38
289.755	98.38
289.986	81.38
290.217	95.38
290.448	89.38
290.679	91.38
290.91	113.38
291.141	84.38
291.371	75.38
291.602	81.38
291.833	85.38
292.064	86.38
292.295	88.38
292.526	82.38
292.757	93.38
292.987	99.38
293.218	85.38
293.449	84.38
293.68	86.38
293.91	79.38
294.141	89.38
294.372	87.38
294.603	97.38
294.833	85.38
295.064	77.38
295.295	98.38
295.525	85.38
295.756	87.38
295.987	94.38
296.217	84.38
296.448	100.38
296.679	87.38
296.909	93.38
297.14	100.38
297.37	76.38
297.601	90.38
297.831	91.38
298.062	89.38
298.292	86.38
298.523	93.38
298.753	94.38
298.984	80.38
299.214	92.38
299.445	89.38
299.675	74.38
299.905	83.38
300.136	94.38
300.366	96.38
300.597	81.38
300.827	81.38
301.057	103.38
301.288	99.38
301.518	86.38
301.748	99.38
301.979	94.38
302.209	91.38
302.439	92.38
302.669	97.38
302.9	85.38
303.13	90.38
303.36	90.38
303.59	82.38
303.82	89.38
304.051	88.38
304.281	85.38
304.511	91.38
304.741	101.38
304.971	75.38
305.201	93.38
305.431	79.38
305.661	89.38
305.891	78.38
306.121	106.38
306.352	89.38
306.582	67.38
306.812	93.38
307.042	83.38
307.272	92.38
307.502	85.38
307.731	107.38
307.961	92.38
308.191	89.38
308.421	85.38
308.651	91.38
308.881	108.38
309.111	90.38
309.341	84.38
309.571	89.38
309.8	91.38
310.03	86.38
310.26	86.38
310.49	88.38
310.72	87.38
310.949	83.38
311.179	95.38
311.409	94.38
311.639	88.38
311.868	96.38
312.098	90.38
312.328	99.38
312.557	102.38
312.787	93.38
313.017	99.38
313.246	90.38
313.476	71.38
313.706	84.38
313.935	91.38
314.165	85.38
314.394	94.38
314.624	83.38
314.853	72.38
315.083	91.38
315.312	91.38
315.542	85.38
315.771	95.38
316.001	84.38
316.23	78.38
316.46	90.38
316.689	78.38
316.919	75.38
317.148	88.38
317.377	90.38
317.607	89.38
317.836	77.38
318.065	88.38
318.295	87.38
318.524	87.38
318.753	91.38
318.983	83.38
319.212	111.38
319.441	97.38
319.67	86.38
319.9	94.38
320.129	81.38
320.358	82.38
320.587	86.38
320.816	86.38
321.046	106.38
321.275	92.38
321.504	86.38
321.733	86.38
321.962	82.38
322.191	93.38
322.42	71.38
322.649	97.38
322.878	79.38
323.108	86.38
323.337	92.38
323.566	70.38
323.795	82.38
324.024	91.38
324.253	94.38
324.482	88.38
324.71	94.38
324.939	92.38
325.168	85.38
325.397	85.38
325.626	88.38
325.855	69.38
326.084	71.38
326.313	95.38
326.542	93.38
326.77	93.38
326.999	88.38
327.228	86.38
327.457	81.38
327.686	75.38
327.914	90.38
328.143	83.38
328.372	95.38
328.6	69.38
328.829	74.38
329.058	92.38
329.287	94.38
329.515	90.38
329.744	92.38
329.972	91.38
330.201	87.38
330.43	89.38
330.658	90.38
330.887	82.38
331.115	90.38
331.344	86.38
331.572	91.38
331.801	91.38
332.03	82.38
332.258	75.38
332.486	86.38
332.715	93.38
332.943	82.38
333.172	81.38
333.4	103.38
333.629	78.38
333.857	93.38
334.085	89.38
334.314	85.38
334.542	97.38
334.771	81.38
334.999	78.38
335.227	102.38
335.455	77.38
335.684	69.38
335.912	91.38
336.14	97.38
336.369	81.38
336.597	91.38
336.825	89.38
337.053	86.38
337.281	82.38
337.51	91.38
337.738	87.38
337.966	85.38
338.194	106.38
338.422	87.38
338.65	90.38
338.878	86.38
339.106	94.38
339.334	105.38
339.562	85.38
339.79	94.38
340.018	84.38
340.246	82.38
340.474	96.38
340.702	101.38
340.93	91.38
341.158	78.38
341.386	95.38
341.614	89.38
341.842	74.38
342.07	89.38
342.298	109.38
342.526	91.38
342.754	78.38
342.981	85.38
343.209	75.38
343.437	88.38
343.665	71.38
343.893	81.38
344.12	75.38
344.348	94.38
344.576	93.38
344.804	87.38
345.031	88.38
345.259	80.38
345.487	85.38
345.714	87.38
345.942	103.38
346.17	90.38
346.397	74.38
346.625	84.38
346.853	71.38
347.08	82.38
347.308	74.38
347.535	87.38
347.763	76.38
347.99	92.38
348.218	91.38
348.445	80.38
348.673	71.38
348.9	89.38
349.128	100.38
349.355	81.38
349.583	81.38
349.81	93.38
350.037	94.38
350.265	76.38
350.492	87.38
350.72	92.38
350.947	91.38
351.174	86.38
351.402	99.38
351.629	98.38
351.856	91.38
352.083	77.38
352.311	91.38
352.538	96.38
352.765	91.38
352.992	87.38
353.22	84.38
353.447	74.38
353.674	94.38
353.901	98.38
354.128	94.38
354.355	88.38
354.583	90.38
354.81	92.38
355.037	98.38
355.264	104.38
355.491	94.38
355.718	85.38
355.945	88.38
356.172	85.38
356.399	88.38
356.626	84.38
356.853	78.38
357.08	100.38
357.307	87.38
357.534	86.38
357.761	89.38
357.988	85.38
358.215	94.38
358.441	90.38
358.668	88.38
358.895	82.38
359.122	92.38
359.349	90.38
359.576	99.38
359.802	82.38
360.029	110.38
360.256	85.38
360.483	89.38
360.709	88.38
360.936	81.38
361.163	90.38
361.39	98.38
361.616	98.38
361.843	98.38
362.07	83.38
362.296	78.38
362.523	91.38
362.749	82.38
362.976	72.38
363.203	93.38
363.429	98.38
363.656	82.38
363.882	75.38
364.109	95.38
364.335	84.38
364.562	78.38
364.788	82.38
365.015	79.38
365.241	98.38
365.468	79.38
365.694	88.38
365.92	89.38
366.147	82.38
366.373	84.38
366.599	86.38
366.826	83.38
367.052	78.38
367.278	90.38
367.505	82.38
367.731	82.38
367.957	84.38
368.184	96.38
368.41	81.38
368.636	92.38
368.862	114.38
369.089	92.38
369.315	89.38
369.541	92.38
369.767	94.38
369.993	87.38
370.219	77.38
370.445	76.38
370.672	101.38
370.898	95.38
371.124	92.38
371.35	99.38
371.576	89.38
371.802	79.38
372.028	89.38
372.254	106.38
372.48	89.38
372.706	82.38
372.932	95.38
373.158	82.38
373.384	83.38
373.61	106.38
373.835	77.38
374.061	79.38
374.287	84.38
374.513	93.38
374.739	80.38
374.965	99.38
375.191	101.38
375.416	95.38
375.642	101.38
375.868	95.38
376.094	81.38
376.319	93.38
376.545	88.38
376.771	100.38
376.997	90.38
377.222	97.38
377.448	85.38
377.674	91.38
377.899	86.38
378.125	92.38
378.35	74.38
378.576	85.38
378.802	93.38
379.027	86.38
379.253	94.38
379.478	91.38
379.704	85.38
379.929	92.38
380.155	95.38
380.38	91.38
380.606	86.38
380.831	104.38
381.057	99.38
381.282	102.38
381.507	97.38
381.733	101.38
381.958	105.38
382.184	97.38
382.409	98.38
382.634	98.38
382.86	100.38
383.085	102.38
383.31	96.38
383.535	88.38
383.761	101.38
383.986	104.38
384.211	106.38
384.436	98.38
384.662	87.38
384.887	97.38
385.112	103.38
385.337	92.38
385.562	96.38
385.787	97.38
386.013	96.38
386.238	90.38
386.463	100.38
386.688	102.38
386.913	103.38
387.138	96.38
387.363	108.38
387.588	100.38
387.813	89.38
388.038	108.38
388.263	97.38
388.488	90.38
388.713	91.38
388.938	102.38
389.163	89.38
389.387	96.38
389.612	91.38
389.837	104.38
390.062	108.38
390.287	80.38
390.512	102.38
390.736	102.38
390.961	100.38
391.186	102.38
391.411	99.38
391.636	97.38
391.86	100.38
392.085	109.38
392.31	111.38
392.534	110.38
392.759	106.38
392.984	99.38
393.208	90.38
393.433	97.38
393.658	100.38
393.882	111.38
394.107	106.38
394.331	93.38
394.556	107.38
394.78	90.38
395.005	85.38
395.229	104.38
395.454	103.38
395.678	101.38
395.903	102.38
396.127	112.38
396.352	90.38
396.576	96.38
396.801	101.38
397.025	98.38
397.249	101.38
397.474	102.38
397.698	115.38
397.922	110.38
398.147	89.38
398.371	103.38
398.595	90.38
398.82	97.38
399.044	94.38
399.268	114.38
399.492	120.38
399.717	115.38
399.941	115.38
400.165	108.38
400.389	107.38
400.613	97.38
400.837	115.38
401.062	112.38
401.286	93.38
401.51	106.38
401.734	102.38
401.958	108.38
402.182	117.38
402.406	91.38
402.63	105.38
402.854	115.38
403.078	125.38
403.302	107.38
403.526	112.38
403.75	109.38
403.974	117.38
404.198	113.38
404.422	96.38
404.645	116.38
404.869	110.38
405.093	122.38
405.317	94.38
405.541	115.38
405.765	109.38
405.988	102.38
406.212	107.38
406.436	108.38
406.66	100.38
406.883	122.38
407.107	103.38
407.331	110.38
407.555	128.38
407.778	122.38
408.002	121.38
408.226	114.38
408.449	105.38
408.673	89.38
408.896	106.38
409.12	101.38
409.344	110.38
409.567	125.38
409.791	102.38
410.014	107.38
410.238	99.38
410.461	113.38
410.685	109.38
410.908	97.38
411.132	114.38
411.355	118.38
411.578	106.38
411.802	127.38
412.025	107.38
412.249	115.38
412.472	102.38
412.695	117.38
412.919	112.38
413.142	117.38
413.365	109.38
413.589	115.38
413.812	120.38
414.035	101.38
414.258	111.38
414.482	116.38
414.705	110.38
414.928	107.38
415.151	97.38
415.374	117.38
415.597	103.38
415.821	114.38
416.044	105.38
416.267	105.38
416.49	109.38
416.713	93.38
416.936	114.38
417.159	122.38
417.382	100.38
417.605	118.38
417.828	121.38
418.051	105.38
418.274	108.38
418.497	120.38
418.72	108.38
418.943	114.38
419.166	127.38
419.389	129.38
419.611	120.38
419.834	108.38
420.057	102.38
420.28	106.38
420.503	115.38
420.726	107.38
420.948	121.38
421.171	105.38
421.394	117.38
421.617	131.38
421.839	120.38
422.062	125.38
422.285	127.38
422.507	118.38
422.73	111.38
422.953	119.38
423.175	102.38
423.398	119.38
423.621	102.38
423.843	113.38
424.066	97.38
424.288	107.38
424.511	113.38
424.733	112.38
424.956	117.38
425.178	121.38
425.401	107.38
425.623	110.38
425.846	115.38
426.068	108.38
426.291	125.38
426.513	115.38
426.735	125.38
426.958	118.38
427.18	107.38
427.402	95.38
427.625	121.38
427.847	110.38
428.069	118.38
428.292	115.38
428.514	105.38
428.736	102.38
428.958	112.38
429.181	118.38
429.403	132.38
429.625	117.38
429.847	99.38
430.069	118.38
430.292	115.38
430.514	109.38
430.736	115.38
430.958	117.38
431.18	113.38
431.402	116.38
431.624	112.38
431.846	115.38
432.068	111.38
432.29	106.38
432.512	116.38
432.734	113.38
432.956	108.38
433.178	125.38
433.4	111.38
433.622	113.38
433.844	124.38
434.066	105.38
434.287	125.38
434.509	99.38
434.731	90.38
434.953	100.38
435.175	116.38
435.397	133.38
435.618	113.38
435.84	105.38
436.062	113.38
436.284	106.38
436.505	117.38
436.727	118.38
436.949	100.38
437.17	105.38
437.392	105.38
437.614	118.38
437.835	97.38
438.057	109.38
438.278	118.38
438.5	102.38
438.721	121.38
438.943	117.38
439.165	106.38
439.386	119.38
439.608	115.38
439.829	127.38
440.05	125.38
440.272	116.38
440.493	110.38
440.715	127.38
440.936	131.38
441.158	131.38
441.379	115.38
441.6	124.38
441.822	124.38
442.043	91.38
442.264	121.38
442.486	121.38
442.707	112.38
442.928	106.38
443.149	111.38
443.371	115.38
443.592	119.38
443.813	123.38
444.034	132.38
444.255	115.38
444.476	137.38
444.698	125.38
444.919	121.38
445.14	261.38
445.361	203.38
445.582	107.38
445.803	106.38
446.024	117.38
446.245	107.38
446.466	111.38
446.687	123.38
446.908	117.38
447.129	133.38
447.35	112.38
447.571	119.38
447.792	127.38
448.013	114.38
448.234	105.38
448.455	119.38
448.675	125.38
448.896	110.38
449.117	122.38
449.338	123.38
449.559	113.38
449.779	99.38
450	108.38
450.221	96.38
450.442	115.38
450.662	127.38
450.883	105.38
451.104	121.38
451.324	110.38
451.545	90.38
451.766	111.38
451.986	129.38
452.207	122.38
452.428	105.38
452.648	125.38
452.869	108.38
453.089	97.38
453.31	107.38
453.53	117.38
453.751	120.38
453.971	100.38
454.192	105.38
454.412	117.38
454.633	125.38
454.853	108.38
455.073	125.38
455.294	114.38
455.514	96.38
455.734	100.38
455.955	109.38
456.175	106.38
456.395	109.38
456.616	95.38
456.836	113.38
457.056	103.38
457.276	92.38
457.497	98.38
457.717	106.38
457.937	101.38
458.157	125.38
458.377	116.38
458.598	101.38
458.818	105.38
459.038	114.38
459.258	99.38
459.478	94.38
459.698	106.38
459.918	101.38
460.138	121.38
460.358	119.38
460.578	123.38
460.798	122.38
461.018	126.38
461.238	123.38
461.458	118.38
461.678	128.38
461.898	108.38
462.118	123.38
462.338	111.38
462.558	126.38
462.777	117.38
462.997	130.38
463.217	125.38
463.437	137.38
463.657	105.38
463.876	115.38
464.096	109.38
464.316	129.38
464.536	131.38
464.755	122.38
464.975	124.38
465.195	125.38
465.414	117.38
465.634	117.38
465.854	107.38
466.073	119.38
466.293	124.38
466.512	104.38
466.732	102.38
466.951	110.38
467.171	117.38
467.391	127.38
467.61	131.38
467.829	117.38
468.049	110.38
468.268	114.38
468.488	125.38
468.707	127.38
468.927	107.38
469.146	127.38
469.365	123.38
469.585	113.38
469.804	130.38
470.023	115.38
470.243	116.38
470.462	119.38
470.681	121.38
470.901	105.38
471.12	119.38
471.339	111.38
471.558	120.38
471.777	127.38
471.997	129.38
472.216	118.38
472.435	132.38
472.654	113.38
472.873	116.38
473.092	117.38
473.311	121.38
473.53	123.38
473.749	125.38
473.968	119.38
474.187	114.38
474.406	109.38
474.625	115.38
474.844	102.38
475.063	127.38
475.282	114.38
475.501	124.38
475.72	118.38
475.939	131.38
476.158	121.38
476.377	112.38
476.596	110.38
476.814	115.38
477.033	116.38
477.252	121.38
477.471	108.38
477.69	127.38
477.908	133.38
478.127	136.38
478.346	126.38
478.564	114.38
478.783	121.38
479.002	118.38
479.22	128.38
479.439	121.38
479.658	111.38
479.876	110.38
480.095	122.38
480.313	129.38
480.532	125.38
480.751	133.38
480.969	124.38
481.188	117.38
481.406	116.38
481.624	109.38
481.843	123.38
482.061	116.38
482.28	126.38
482.498	119.38
482.717	113.38
482.935	114.38
483.153	131.38
483.372	139.38
483.59	126.38
483.808	136.38
484.027	124.38
484.245	129.38
484.463	127.38
484.681	124.38
484.9	122.38
485.118	134.38
485.336	125.38
485.554	127.38
485.772	117.38
485.99	119.38
486.209	118.38
486.427	126.38
486.645	118.38
486.863	121.38
487.081	139.38
487.299	141.38
487.517	139.38
487.735	131.38
487.953	150.38
488.171	157.38
488.389	127.38
488.607	129.38
488.825	124.38
489.043	109.38
489.261	136.38
489.479	127.38
489.696	145.38
489.914	133.38
490.132	139.38
490.35	133.38
490.568	136.38
490.786	143.38
491.003	137.38
491.221	149.38
491.439	151.38
491.657	152.38
491.874	155.38
492.092	167.38
492.31	171.38
492.527	167.38
492.745	166.38
492.963	157.38
493.18	153.38
493.398	131.38
493.615	151.38
493.833	166.38
494.05	154.38
494.268	154.38
494.485	139.38
494.703	156.38
494.92	156.38
495.138	135.38
495.355	134.38
495.573	155.38
495.79	144.38
496.008	163.38
496.225	135.38
496.442	132.38
496.66	158.38
496.877	151.38
497.094	152.38
497.312	143.38
497.529	149.38
497.746	121.38
497.963	128.38
498.181	150.38
498.398	135.38
498.615	140.38
498.832	156.38
499.049	156.38
499.267	158.38
499.484	169.38
499.701	168.38
499.918	188.38
500.135	171.38
500.352	228.38
500.569	223.38
500.786	215.38
501.003	217.38
501.22	211.38
501.437	181.38
501.654	173.38
501.871	178.38
502.088	168.38
502.305	146.38
502.522	140.38
502.739	139.38
502.956	157.38
503.172	147.38
503.389	139.38
503.606	130.38
503.823	137.38
504.04	125.38
504.256	134.38
504.473	155.38
504.69	153.38
504.907	138.38
505.123	137.38
505.34	134.38
505.557	130.38
505.773	131.38
505.99	133.38
506.207	126.38
506.423	121.38
506.64	131.38
506.856	125.38
507.073	126.38
507.289	134.38
507.506	135.38
507.722	130.38
507.939	114.38
508.155	127.38
508.372	107.38
508.588	117.38
508.805	126.38
509.021	105.38
509.238	125.38
509.454	118.38
509.67	119.38
509.887	117.38
510.103	130.38
510.319	124.38
510.536	120.38
510.752	114.38
510.968	110.38
511.184	121.38
511.401	121.38
511.617	107.38
511.833	119.38
512.049	128.38
512.265	109.38
512.481	104.38
512.698	106.38
512.914	101.38
513.13	110.38
513.346	110.38
513.562	102.38
513.778	125.38
513.994	121.38
514.21	116.38
514.426	123.38
514.642	119.38
514.858	99.38
515.074	101.38
515.29	122.38
515.506	97.38
515.721	102.38
515.937	111.38
516.153	120.38
516.369	132.38
516.585	123.38
516.801	117.38
517.016	109.38
517.232	123.38
517.448	118.38
517.664	135.38
517.879	138.38
518.095	130.38
518.311	124.38
518.527	124.38
518.742	127.38
518.958	121.38
519.173	130.38
519.389	131.38
519.605	121.38
519.82	119.38
520.036	121.38
520.251	133.38
520.467	126.38
520.682	110.38
520.898	122.38
521.113	121.38
521.329	105.38
521.544	107.38
521.76	118.38
521.975	126.38
522.19	121.38
522.406	116.38
522.621	114.38
522.836	113.38
523.052	125.38
523.267	116.38
523.482	130.38
523.698	120.38
523.913	130.38
524.128	120.38
524.343	123.38
524.559	136.38
524.774	126.38
524.989	125.38
525.204	119.38
525.419	138.38
525.634	118.38
525.849	123.38
526.064	109.38
526.28	127.38
526.495	123.38
526.71	114.38
526.925	110.38
527.14	114.38
527.355	105.38
527.57	117.38
527.785	115.38
527.999	118.38
528.214	126.38
528.429	118.38
528.644	126.38
528.859	113.38
529.074	123.38
529.289	136.38
529.503	121.38
529.718	122.38
529.933	120.38
530.148	110.38
530.363	120.38
530.577	116.38
530.792	117.38
531.007	91.38
531.221	107.38
531.436	115.38
531.651	118.38
531.865	110.38
532.08	110.38
532.295	107.38
532.509	103.38
532.724	122.38
532.938	101.38
533.153	113.38
533.367	117.38
533.582	108.38
533.796	122.38
534.011	129.38
534.225	125.38
534.44	110.38
534.654	113.38
534.868	107.38
535.083	119.38
535.297	113.38
535.511	119.38
535.726	125.38
535.94	129.38
536.154	116.38
536.369	109.38
536.583	118.38
536.797	110.38
537.011	113.38
537.225	110.38
537.44	103.38
537.654	114.38
537.868	105.38
538.082	111.38
538.296	99.38
538.51	110.38
538.724	124.38
538.938	109.38
539.153	126.38
539.367	121.38
539.581	110.38
539.795	125.38
540.009	109.38
540.222	110.38
540.436	113.38
540.65	111.38
540.864	129.38
541.078	107.38
541.292	117.38
541.506	126.38
541.72	143.38
541.934	130.38
542.147	146.38
542.361	137.38
542.575	138.38
542.789	115.38
543.002	127.38
543.216	119.38
543.43	130.38
543.644	109.38
543.857	141.38
544.071	133.38
544.285	132.38
544.498	130.38
544.712	133.38
544.925	137.38
545.139	125.38
545.352	142.38
545.566	136.38
545.779	132.38
545.993	138.38
546.206	152.38
546.42	131.38
546.633	123.38
546.847	141.38
547.06	139.38
547.274	125.38
547.487	140.38
547.7	158.38
547.914	150.38
548.127	146.38
548.34	138.38
548.554	130.38
548.767	135.38
548.98	143.38
549.193	137.38
549.407	138.38
549.62	124.38
549.833	129.38
550.046	151.38
550.259	151.38
550.473	116.38
550.686	129.38
550.899	140.38
551.112	125.38
551.325	125.38
551.538	125.38
551.751	125.38
551.964	111.38
552.177	117.38
552.39	127.38
552.603	121.38
552.816	143.38
553.029	133.38
553.242	134.38
553.455	139.38
553.667	141.38
553.88	129.38
554.093	128.38
554.306	143.38
554.519	126.38
554.732	127.38
554.944	130.38
555.157	133.38
555.37	118.38
555.583	131.38
555.795	129.38
556.008	127.38
556.221	115.38
556.433	122.38
556.646	132.38
556.859	127.38
557.071	117.38
557.284	125.38
557.496	132.38
557.709	104.38
557.921	125.38
558.134	115.38
558.346	114.38
558.559	113.38
558.771	133.38
558.984	117.38
559.196	123.38
559.409	109.38
559.621	123.38
559.833	132.38
560.046	117.38
560.258	119.38
560.47	111.38
560.683	121.38
560.895	121.38
561.107	119.38
561.32	109.38
561.532	117.38
561.744	129.38
561.956	118.38
562.168	110.38
562.381	127.38
562.593	131.38
562.805	118.38
563.017	125.38
563.229	122.38
563.441	113.38
563.653	127.38
563.865	116.38
564.077	110.38
564.289	98.38
564.501	111.38
564.713	106.38
564.925	108.38
565.137	104.38
565.349	124.38
565.561	120.38
565.773	110.38
565.985	108.38
566.197	109.38
566.408	128.38
566.62	114.38
566.832	105.38
567.044	115.38
567.255	129.38
567.467	141.38
567.679	135.38
567.891	125.38
568.102	127.38
568.314	122.38
568.526	99.38
568.737	122.38
568.949	121.38
569.161	102.38
569.372	103.38
569.584	111.38
569.795	116.38
570.007	119.38
570.218	129.38
570.43	102.38
570.641	114.38
570.853	95.38
571.064	108.38
571.276	115.38
571.487	113.38
571.698	112.38
571.91	104.38
572.121	105.38
572.333	98.38
572.544	109.38
572.755	87.38
572.966	96.38
573.178	113.38
573.389	99.38
573.6	108.38
573.811	108.38
574.023	102.38
574.234	96.38
574.445	91.38
574.656	106.38
574.867	99.38
575.078	106.38
575.289	102.38
575.501	92.38
575.712	110.38
575.923	119.38
576.134	102.38
576.345	109.38
576.556	107.38
576.767	97.38
576.978	98.38
577.188	88.38
577.399	92.38
577.61	93.38
577.821	101.38
578.032	91.38
578.243	116.38
578.454	95.38
578.665	106.38
578.875	95.38
579.086	96.38
579.297	89.38
579.508	89.38
579.718	103.38
579.929	104.38
580.14	101.38
580.35	93.38
580.561	94.38
580.772	114.38
580.982	92.38
581.193	94.38
581.403	82.38
581.614	116.38
581.825	102.38
582.035	106.38
582.246	103.38
582.456	88.38
582.667	96.38
582.877	100.38
583.087	95.38
583.298	104.38
583.508	100.38
583.719	97.38
583.929	102.38
584.139	113.38
584.35	90.38
584.56	109.38
584.77	91.38
584.981	110.38
585.191	103.38
585.401	105.38
585.611	97.38
585.821	104.38
586.032	97.38
586.242	102.38
586.452	99.38
586.662	109.38
586.872	92.38
587.082	85.38
587.292	93.38
587.502	91.38
587.713	97.38
587.923	87.38
588.133	96.38
588.343	90.38
588.553	105.38
588.762	103.38
588.972	78.38
589.182	91.38
589.392	100.38
589.602	96.38
589.812	96.38
590.022	108.38
590.232	94.38
590.441	96.38
590.651	96.38
590.861	88.38
591.071	97.38
591.281	93.38
591.49	100.38
591.7	92.38
591.91	100.38
592.119	99.38
592.329	105.38
592.539	91.38
592.748	99.38
592.958	97.38
593.167	99.38
593.377	99.38
593.587	101.38
593.796	103.38
594.006	85.38
594.215	94.38
594.424	92.38
594.634	87.38
594.843	99.38
595.053	100.38
595.262	97.38
595.472	90.38
595.681	88.38
595.89	85.38
596.1	92.38
596.309	93.38
596.518	86.38
596.727	95.38
596.937	106.38
597.146	93.38
597.355	87.38
597.564	94.38
597.774	89.38
597.983	100.38
598.192	84.38
598.401	80.38
598.61	102.38
598.819	98.38
599.028	95.38
599.237	108.38
599.446	90.38
599.655	82.38
599.864	98.38
600.073	93.38
600.282	103.38
600.491	90.38
600.7	105.38
600.909	105.38
601.118	97.38
601.327	104.38
601.536	97.38
601.745	93.38
601.953	91.38
602.162	100.38
602.371	77.38
602.58	85.38
602.789	93.38
602.997	107.38
603.206	100.38
603.415	101.38
603.623	75.38
603.832	93.38
604.041	74.38
604.249	76.38
604.458	77.38
604.666	99.38
604.875	79.38
605.084	99.38
605.292	94.38
605.501	87.38
605.709	99.38
605.918	103.38
606.126	90.38
606.334	96.38
606.543	98.38
606.751	102.38
606.96	105.38
607.168	103.38
607.376	91.38
607.585	98.38
607.793	81.38
608.001	98.38
608.21	92.38
608.418	102.38
608.626	105.38
608.834	99.38
609.043	92.38
609.251	91.38
609.459	103.38
609.667	97.38
609.875	101.38
610.083	110.38
610.291	89.38
610.499	102.38
610.707	103.38
610.916	105.38
611.124	98.38
611.332	103.38
611.54	87.38
611.748	97.38
611.955	90.38
612.163	97.38
612.371	93.38
612.579	90.38
612.787	106.38
612.995	101.38
613.203	109.38
613.411	88.38
613.618	103.38
613.826	106.38
614.034	107.38
614.242	106.38
614.449	97.38
614.657	95.38
614.865	94.38
615.072	92.38
615.28	95.38
615.488	104.38
615.695	97.38
615.903	94.38
616.111	102.38
616.318	88.38
616.526	82.38
616.733	109.38
616.941	95.38
617.148	103.38
617.356	80.38
617.563	85.38
617.771	99.38
617.978	103.38
618.185	90.38
618.393	95.38
618.6	95.38
618.807	99.38
619.015	74.38
619.222	89.38
619.429	88.38
619.637	98.38
619.844	114.38
620.051	100.38
620.258	96.38
620.466	79.38
620.673	100.38
620.88	91.38
621.087	94.38
621.294	104.38
621.501	90.38
621.708	93.38
621.915	102.38
622.122	90.38
622.329	105.38
622.536	103.38
622.743	94.38
622.95	92.38
623.157	87.38
623.364	94.38
623.571	80.38
623.778	100.38
623.985	88.38
624.192	82.38
624.399	94.38
624.606	101.38
624.812	110.38
625.019	97.38
625.226	97.38
625.433	93.38
625.639	86.38
625.846	90.38
626.053	111.38
626.259	90.38
626.466	103.38
626.673	94.38
626.879	94.38
627.086	85.38
627.293	106.38
627.499	87.38
627.706	83.38
627.912	75.38
628.119	98.38
628.325	93.38
628.532	95.38
628.738	96.38
628.945	80.38
629.151	99.38
629.357	106.38
629.564	99.38
629.77	93.38
629.976	85.38
630.183	76.38
630.389	93.38
630.595	97.38
630.802	107.38
631.008	87.38
631.214	93.38
631.42	91.38
631.627	100.38
631.833	90.38
632.039	87.38
632.245	93.38
632.451	87.38
632.657	102.38
632.863	93.38
633.069	86.38
633.275	87.38
633.481	93.38
633.688	94.38
633.893	75.38
634.099	98.38
634.305	100.38
634.511	89.38
634.717	104.38
634.923	99.38
635.129	89.38
635.335	94.38
635.541	100.38
635.747	95.38
635.952	88.38
636.158	91.38
636.364	86.38
636.57	93.38
636.775	103.38
636.981	83.38
637.187	85.38
637.392	101.38
637.598	95.38
637.804	92.38
638.009	109.38
638.215	92.38
638.421	91.38
638.626	87.38
638.832	86.38
639.037	86.38
639.243	85.38
639.448	101.38
639.654	92.38
639.859	84.38
640.065	87.38
640.27	98.38
640.475	81.38
640.681	88.38
640.886	77.38
641.091	89.38
641.297	102.38
641.502	97.38
641.707	94.38
641.913	89.38
642.118	90.38
642.323	98.38
642.528	91.38
642.733	89.38
642.939	110.38
643.144	85.38
643.349	107.38
643.554	94.38
643.759	91.38
643.964	93.38
644.169	82.38
644.374	87.38
644.579	89.38
644.784	83.38
644.989	99.38
645.194	89.38
645.399	94.38
645.604	90.38
645.809	86.38
646.014	89.38
646.219	97.38
646.423	93.38
646.628	91.38
646.833	98.38
647.038	86.38
647.243	92.38
647.447	87.38
647.652	86.38
647.857	90.38
648.062	94.38
648.266	100.38
648.471	91.38
648.676	92.38
648.88	89.38
649.085	87.38
649.289	99.38
649.494	75.38
649.698	91.38
649.903	87.38
650.107	93.38
650.312	86.38
650.516	81.38
650.721	94.38
650.925	83.38
651.13	99.38
651.334	92.38
651.539	85.38
651.743	78.38
651.947	86.38
652.152	88.38
652.356	83.38
652.56	97.38
652.764	94.38
652.969	87.38
653.173	87.38
653.377	83.38
653.581	109.38
653.785	101.38
653.99	108.38
654.194	83.38
654.398	87.38
654.602	87.38
654.806	98.38
655.01	91.38
655.214	79.38
655.418	86.38
655.622	89.38
655.826	94.38
656.03	85.38
656.234	87.38
656.438	82.38
656.642	79.38
656.846	93.38
657.049	84.38
657.253	88.38
657.457	97.38
657.661	94.38
657.865	92.38
658.068	83.38
658.272	94.38
658.476	82.38
658.68	93.38
658.883	88.38
659.087	90.38
659.291	90.38
659.494	89.38
659.698	78.38
659.901	87.38
660.105	83.38
660.309	81.38
660.512	83.38
660.716	82.38
660.919	78.38
661.123	81.38
661.326	77.38
661.53	84.38
661.733	105.38
661.936	83.38
662.14	85.38
662.343	79.38
662.546	92.38
662.75	91.38
662.953	81.38
663.156	72.38
663.36	80.38
663.563	78.38
663.766	77.38
663.969	91.38
664.173	73.38
664.376	95.38
664.579	85.38
664.782	77.38
664.985	65.38
665.188	90.38
665.391	82.38
665.594	81.38
665.797	71.38
666	84.38
666.203	75.38
666.406	78.38
666.609	83.38
666.812	84.38
667.015	90.38
667.218	89.38
667.421	77.38
667.624	77.38
667.827	71.38
668.03	91.38
668.232	91.38
668.435	95.38
668.638	71.38
668.841	76.38
669.043	85.38
669.246	79.38
669.449	95.38
669.651	86.38
669.854	77.38
670.057	86.38
670.259	90.38
670.462	89.38
670.665	81.38
670.867	83.38
671.07	87.38
671.272	79.38
671.475	79.38
671.677	86.38
671.88	77.38
672.082	74.38
672.284	74.38
672.487	90.38
672.689	93.38
672.892	85.38
