Data from StandardFe(NO3)3.TAE.3%Agarose.FlatLispGreen.Lamp.Energy10.07252019_HRD10591_11-53-43-440.txt Node
Date: Thu Jul 25 11:53:43 EDT 2019
User: cochatt
Spectrometer: HR+D1059
Trigger mode: 1
Integration Time (sec): 1.000000E-1
Scans to average: 1
Electric dark correction enabled: true
Nonlinearity correction enabled: false
Boxcar width: 0
XAxis mode: Wavelengths
Number of Pixels in Spectrum: 2048
>>>>>Begin Spectral Data<<<<<
223.165	-12.12
223.4	-12.12
223.635	-12.12
223.869	-22.12
224.104	-29.12
224.338	-1.12
224.573	-6.12
224.808	-16.12
225.042	-0.12
225.277	-20.12
225.511	-10.12
225.746	2.88
225.98	9.88
226.215	18.88
226.449	3.88
226.683	32.88
226.918	18.88
227.152	29.88
227.387	22.88
227.621	43.88
227.856	55.88
228.09	51.88
228.324	40.88
228.559	65.88
228.793	66.88
229.027	63.88
229.262	42.88
229.496	62.88
229.73	69.88
229.964	72.88
230.199	60.88
230.433	69.88
230.667	74.88
230.901	73.88
231.136	59.88
231.37	74.88
231.604	68.88
231.838	83.88
232.072	83.88
232.306	97.88
232.541	79.88
232.775	76.88
233.009	84.88
233.243	90.88
233.477	83.88
233.711	73.88
233.945	59.88
234.179	75.88
234.413	71.88
234.647	66.88
234.881	79.88
235.115	85.88
235.349	88.88
235.583	70.88
235.817	74.88
236.051	82.88
236.285	67.88
236.519	63.88
236.753	72.88
236.987	79.88
237.221	75.88
237.455	75.88
237.689	71.88
237.922	92.88
238.156	61.88
238.39	73.88
238.624	76.88
238.858	73.88
239.091	69.88
239.325	74.88
239.559	75.88
239.793	75.88
240.027	80.88
240.26	70.88
240.494	72.88
240.728	57.88
240.961	75.88
241.195	70.88
241.429	85.88
241.662	65.88
241.896	75.88
242.13	75.88
242.363	74.88
242.597	78.88
242.83	78.88
243.064	71.88
243.298	73.88
243.531	82.88
243.765	76.88
243.998	77.88
244.232	66.88
244.465	75.88
244.699	75.88
244.932	86.88
245.166	78.88
245.399	64.88
245.633	75.88
245.866	61.88
246.099	78.88
246.333	96.88
246.566	70.88
246.8	74.88
247.033	77.88
247.266	84.88
247.5	72.88
247.733	83.88
247.966	79.88
248.2	64.88
248.433	70.88
248.666	68.88
248.899	76.88
249.133	69.88
249.366	76.88
249.599	82.88
249.832	75.88
250.066	75.88
250.299	77.88
250.532	68.88
250.765	84.88
250.998	89.88
251.231	70.88
251.465	70.88
251.698	72.88
251.931	87.88
252.164	76.88
252.397	66.88
252.63	55.88
252.863	70.88
253.096	74.88
253.329	76.88
253.562	82.88
253.795	74.88
254.028	93.88
254.261	73.88
254.494	62.88
254.727	73.88
254.96	62.88
255.193	65.88
255.426	65.88
255.659	63.88
255.892	86.88
256.124	76.88
256.357	82.88
256.59	78.88
256.823	69.88
257.056	101.88
257.289	75.88
257.521	71.88
257.754	83.88
257.987	83.88
258.22	91.88
258.452	82.88
258.685	79.88
258.918	71.88
259.151	69.88
259.383	77.88
259.616	83.88
259.849	75.88
260.081	86.88
260.314	79.88
260.547	83.88
260.779	65.88
261.012	65.88
261.244	77.88
261.477	88.88
261.71	88.88
261.942	83.88
262.175	88.88
262.407	75.88
262.64	58.88
262.872	68.88
263.105	97.88
263.337	64.88
263.57	77.88
263.802	83.88
264.035	81.88
264.267	83.88
264.499	85.88
264.732	79.88
264.964	77.88
265.197	88.88
265.429	85.88
265.661	73.88
265.894	86.88
266.126	80.88
266.358	72.88
266.591	73.88
266.823	74.88
267.055	85.88
267.287	85.88
267.52	75.88
267.752	87.88
267.984	72.88
268.216	83.88
268.448	78.88
268.681	74.88
268.913	73.88
269.145	87.88
269.377	77.88
269.609	86.88
269.841	73.88
270.073	78.88
270.306	85.88
270.538	87.88
270.77	74.88
271.002	72.88
271.234	73.88
271.466	93.88
271.698	79.88
271.93	93.88
272.162	83.88
272.394	70.88
272.626	102.88
272.858	76.88
273.09	74.88
273.322	71.88
273.553	77.88
273.785	75.88
274.017	77.88
274.249	92.88
274.481	93.88
274.713	78.88
274.945	79.88
275.176	78.88
275.408	79.88
275.64	90.88
275.872	86.88
276.104	80.88
276.335	74.88
276.567	76.88
276.799	75.88
277.031	79.88
277.262	86.88
277.494	103.88
277.726	78.88
277.957	88.88
278.189	62.88
278.421	81.88
278.652	84.88
278.884	70.88
279.115	81.88
279.347	76.88
279.579	73.88
279.81	84.88
280.042	71.88
280.273	71.88
280.505	76.88
280.736	78.88
280.968	70.88
281.199	82.88
281.431	83.88
281.662	77.88
281.894	85.88
282.125	80.88
282.356	72.88
282.588	82.88
282.819	79.88
283.051	74.88
283.282	77.88
283.513	89.88
283.745	82.88
283.976	88.88
284.207	82.88
284.439	90.88
284.67	87.88
284.901	83.88
285.132	80.88
285.364	80.88
285.595	86.88
285.826	78.88
286.057	71.88
286.288	80.88
286.52	83.88
286.751	76.88
286.982	78.88
287.213	77.88
287.444	83.88
287.675	80.88
287.906	70.88
288.138	83.88
288.369	83.88
288.6	83.88
288.831	83.88
289.062	89.88
289.293	86.88
289.524	102.88
289.755	82.88
289.986	73.88
290.217	72.88
290.448	92.88
290.679	72.88
290.91	76.88
291.141	75.88
291.371	79.88
291.602	79.88
291.833	87.88
292.064	81.88
292.295	87.88
292.526	83.88
292.757	83.88
292.987	65.88
293.218	80.88
293.449	84.88
293.68	77.88
293.91	69.88
294.141	88.88
294.372	70.88
294.603	84.88
294.833	97.88
295.064	83.88
295.295	85.88
295.525	79.88
295.756	74.88
295.987	83.88
296.217	64.88
296.448	78.88
296.679	80.88
296.909	71.88
297.14	73.88
297.37	87.88
297.601	80.88
297.831	81.88
298.062	88.88
298.292	89.88
298.523	88.88
298.753	94.88
298.984	85.88
299.214	80.88
299.445	75.88
299.675	74.88
299.905	69.88
300.136	105.88
300.366	76.88
300.597	73.88
300.827	91.88
301.057	70.88
301.288	78.88
301.518	69.88
301.748	92.88
301.979	92.88
302.209	77.88
302.439	62.88
302.669	71.88
302.9	88.88
303.13	74.88
303.36	74.88
303.59	84.88
303.82	83.88
304.051	79.88
304.281	79.88
304.511	75.88
304.741	76.88
304.971	80.88
305.201	69.88
305.431	65.88
305.661	94.88
305.891	90.88
306.121	72.88
306.352	91.88
306.582	82.88
306.812	83.88
307.042	95.88
307.272	87.88
307.502	92.88
307.731	83.88
307.961	83.88
308.191	73.88
308.421	83.88
308.651	87.88
308.881	83.88
309.111	75.88
309.341	90.88
309.571	83.88
309.8	80.88
310.03	71.88
310.26	89.88
310.49	74.88
310.72	81.88
310.949	73.88
311.179	87.88
311.409	74.88
311.639	88.88
311.868	80.88
312.098	88.88
312.328	73.88
312.557	79.88
312.787	83.88
313.017	80.88
313.246	86.88
313.476	84.88
313.706	85.88
313.935	76.88
314.165	85.88
314.394	91.88
314.624	81.88
314.853	87.88
315.083	95.88
315.312	83.88
315.542	66.88
315.771	85.88
316.001	85.88
316.23	73.88
316.46	72.88
316.689	72.88
316.919	97.88
317.148	80.88
317.377	83.88
317.607	94.88
317.836	94.88
318.065	65.88
318.295	79.88
318.524	78.88
318.753	94.88
318.983	85.88
319.212	80.88
319.441	80.88
319.67	84.88
319.9	84.88
320.129	85.88
320.358	88.88
320.587	80.88
320.816	95.88
321.046	75.88
321.275	70.88
321.504	77.88
321.733	74.88
321.962	77.88
322.191	77.88
322.42	81.88
322.649	80.88
322.878	91.88
323.108	88.88
323.337	80.88
323.566	72.88
323.795	95.88
324.024	83.88
324.253	80.88
324.482	79.88
324.71	78.88
324.939	80.88
325.168	83.88
325.397	70.88
325.626	96.88
325.855	82.88
326.084	56.88
326.313	77.88
326.542	75.88
326.77	90.88
326.999	77.88
327.228	82.88
327.457	89.88
327.686	90.88
327.914	97.88
328.143	83.88
328.372	73.88
328.6	74.88
328.829	85.88
329.058	91.88
329.287	73.88
329.515	92.88
329.744	80.88
329.972	90.88
330.201	75.88
330.43	68.88
330.658	84.88
330.887	91.88
331.115	86.88
331.344	87.88
331.572	75.88
331.801	91.88
332.03	79.88
332.258	80.88
332.486	87.88
332.715	87.88
332.943	73.88
333.172	77.88
333.4	92.88
333.629	85.88
333.857	86.88
334.085	81.88
334.314	75.88
334.542	73.88
334.771	75.88
334.999	74.88
335.227	92.88
335.455	72.88
335.684	75.88
335.912	83.88
336.14	79.88
336.369	88.88
336.597	81.88
336.825	70.88
337.053	76.88
337.281	88.88
337.51	71.88
337.738	84.88
337.966	83.88
338.194	78.88
338.422	75.88
338.65	81.88
338.878	91.88
339.106	99.88
339.334	91.88
339.562	85.88
339.79	81.88
340.018	71.88
340.246	79.88
340.474	65.88
340.702	73.88
340.93	78.88
341.158	81.88
341.386	97.88
341.614	76.88
341.842	86.88
342.07	79.88
342.298	80.88
342.526	86.88
342.754	93.88
342.981	84.88
343.209	82.88
343.437	94.88
343.665	83.88
343.893	78.88
344.12	89.88
344.348	85.88
344.576	84.88
344.804	69.88
345.031	80.88
345.259	78.88
345.487	78.88
345.714	77.88
345.942	87.88
346.17	83.88
346.397	65.88
346.625	80.88
346.853	86.88
347.08	90.88
347.308	77.88
347.535	78.88
347.763	90.88
347.99	87.88
348.218	95.88
348.445	81.88
348.673	77.88
348.9	80.88
349.128	87.88
349.355	97.88
349.583	82.88
349.81	82.88
350.037	77.88
350.265	90.88
350.492	93.88
350.72	80.88
350.947	96.88
351.174	81.88
351.402	79.88
351.629	87.88
351.856	82.88
352.083	86.88
352.311	95.88
352.538	76.88
352.765	86.88
352.992	82.88
353.22	84.88
353.447	84.88
353.674	75.88
353.901	75.88
354.128	81.88
354.355	73.88
354.583	83.88
354.81	88.88
355.037	79.88
355.264	74.88
355.491	75.88
355.718	95.88
355.945	94.88
356.172	84.88
356.399	75.88
356.626	73.88
356.853	89.88
357.08	72.88
357.307	84.88
357.534	97.88
357.761	70.88
357.988	83.88
358.215	87.88
358.441	84.88
358.668	85.88
358.895	72.88
359.122	95.88
359.349	77.88
359.576	90.88
359.802	78.88
360.029	75.88
360.256	88.88
360.483	83.88
360.709	88.88
360.936	98.88
361.163	74.88
361.39	86.88
361.616	96.88
361.843	88.88
362.07	78.88
362.296	81.88
362.523	83.88
362.749	78.88
362.976	94.88
363.203	95.88
363.429	75.88
363.656	87.88
363.882	88.88
364.109	77.88
364.335	76.88
364.562	95.88
364.788	84.88
365.015	93.88
365.241	81.88
365.468	87.88
365.694	88.88
365.92	85.88
366.147	88.88
366.373	71.88
366.599	71.88
366.826	76.88
367.052	71.88
367.278	87.88
367.505	92.88
367.731	78.88
367.957	75.88
368.184	83.88
368.41	81.88
368.636	85.88
368.862	80.88
369.089	81.88
369.315	77.88
369.541	96.88
369.767	83.88
369.993	89.88
370.219	79.88
370.445	79.88
370.672	85.88
370.898	85.88
371.124	77.88
371.35	85.88
371.576	93.88
371.802	91.88
372.028	82.88
372.254	75.88
372.48	81.88
372.706	95.88
372.932	91.88
373.158	83.88
373.384	87.88
373.61	86.88
373.835	83.88
374.061	84.88
374.287	93.88
374.513	78.88
374.739	85.88
374.965	80.88
375.191	94.88
375.416	86.88
375.642	89.88
375.868	86.88
376.094	77.88
376.319	82.88
376.545	87.88
376.771	73.88
376.997	85.88
377.222	98.88
377.448	94.88
377.674	94.88
377.899	91.88
378.125	91.88
378.35	95.88
378.576	98.88
378.802	87.88
379.027	100.88
379.253	90.88
379.478	81.88
379.704	81.88
379.929	97.88
380.155	81.88
380.38	70.88
380.606	74.88
380.831	83.88
381.057	83.88
381.282	81.88
381.507	95.88
381.733	90.88
381.958	83.88
382.184	85.88
382.409	87.88
382.634	91.88
382.86	75.88
383.085	88.88
383.31	82.88
383.535	88.88
383.761	95.88
383.986	97.88
384.211	96.88
384.436	88.88
384.662	80.88
384.887	92.88
385.112	96.88
385.337	98.88
385.562	90.88
385.787	102.88
386.013	93.88
386.238	96.88
386.463	83.88
386.688	89.88
386.913	80.88
387.138	86.88
387.363	77.88
387.588	104.88
387.813	90.88
388.038	102.88
388.263	93.88
388.488	95.88
388.713	85.88
388.938	85.88
389.163	105.88
389.387	75.88
389.612	95.88
389.837	110.88
390.062	81.88
390.287	98.88
390.512	73.88
390.736	79.88
390.961	93.88
391.186	82.88
391.411	106.88
391.636	92.88
391.86	81.88
392.085	88.88
392.31	91.88
392.534	101.88
392.759	91.88
392.984	94.88
393.208	91.88
393.433	91.88
393.658	118.88
393.882	99.88
394.107	98.88
394.331	90.88
394.556	90.88
394.78	86.88
395.005	90.88
395.229	88.88
395.454	93.88
395.678	95.88
395.903	85.88
396.127	74.88
396.352	93.88
396.576	100.88
396.801	91.88
397.025	111.88
397.249	101.88
397.474	90.88
397.698	89.88
397.922	101.88
398.147	104.88
398.371	107.88
398.595	103.88
398.82	95.88
399.044	98.88
399.268	91.88
399.492	110.88
399.717	111.88
399.941	113.88
400.165	104.88
400.389	115.88
400.613	115.88
400.837	110.88
401.062	107.88
401.286	93.88
401.51	100.88
401.734	99.88
401.958	99.88
402.182	102.88
402.406	104.88
402.63	99.88
402.854	99.88
403.078	98.88
403.302	92.88
403.526	98.88
403.75	103.88
403.974	104.88
404.198	106.88
404.422	90.88
404.645	102.88
404.869	113.88
405.093	110.88
405.317	101.88
405.541	105.88
405.765	88.88
405.988	95.88
406.212	110.88
406.436	102.88
406.66	124.88
406.883	114.88
407.107	101.88
407.331	121.88
407.555	121.88
407.778	114.88
408.002	111.88
408.226	96.88
408.449	117.88
408.673	99.88
408.896	109.88
409.12	112.88
409.344	106.88
409.567	105.88
409.791	101.88
410.014	101.88
410.238	110.88
410.461	97.88
410.685	108.88
410.908	114.88
411.132	105.88
411.355	106.88
411.578	99.88
411.802	106.88
412.025	111.88
412.249	97.88
412.472	113.88
412.695	109.88
412.919	106.88
413.142	106.88
413.365	115.88
413.589	120.88
413.812	100.88
414.035	113.88
414.258	100.88
414.482	101.88
414.705	121.88
414.928	109.88
415.151	110.88
415.374	121.88
415.597	113.88
415.821	121.88
416.044	110.88
416.267	116.88
416.49	94.88
416.713	116.88
416.936	101.88
417.159	121.88
417.382	123.88
417.605	103.88
417.828	105.88
418.051	107.88
418.274	117.88
418.497	113.88
418.72	102.88
418.943	117.88
419.166	120.88
419.389	115.88
419.611	107.88
419.834	118.88
420.057	115.88
420.28	102.88
420.503	114.88
420.726	121.88
420.948	114.88
421.171	131.88
421.394	95.88
421.617	119.88
421.839	102.88
422.062	105.88
422.285	110.88
422.507	106.88
422.73	118.88
422.953	104.88
423.175	112.88
423.398	115.88
423.621	115.88
423.843	121.88
424.066	126.88
424.288	119.88
424.511	115.88
424.733	121.88
424.956	107.88
425.178	93.88
425.401	103.88
425.623	115.88
425.846	111.88
426.068	115.88
426.291	119.88
426.513	113.88
426.735	119.88
426.958	112.88
427.18	103.88
427.402	131.88
427.625	103.88
427.847	115.88
428.069	128.88
428.292	117.88
428.514	104.88
428.736	117.88
428.958	105.88
429.181	116.88
429.403	118.88
429.625	99.88
429.847	94.88
430.069	111.88
430.292	125.88
430.514	110.88
430.736	95.88
430.958	97.88
431.18	106.88
431.402	107.88
431.624	100.88
431.846	112.88
432.068	105.88
432.29	95.88
432.512	83.88
432.734	120.88
432.956	102.88
433.178	118.88
433.4	122.88
433.622	121.88
433.844	115.88
434.066	103.88
434.287	113.88
434.509	101.88
434.731	116.88
434.953	106.88
435.175	95.88
435.397	108.88
435.618	104.88
435.84	111.88
436.062	107.88
436.284	110.88
436.505	97.88
436.727	120.88
436.949	111.88
437.17	101.88
437.392	101.88
437.614	107.88
437.835	111.88
438.057	112.88
438.278	113.88
438.5	98.88
438.721	100.88
438.943	99.88
439.165	114.88
439.386	119.88
439.608	110.88
439.829	123.88
440.05	113.88
440.272	118.88
440.493	119.88
440.715	115.88
440.936	118.88
441.158	123.88
441.379	123.88
441.6	114.88
441.822	115.88
442.043	130.88
442.264	124.88
442.486	118.88
442.707	112.88
442.928	118.88
443.149	112.88
443.371	98.88
443.592	121.88
443.813	135.88
444.034	118.88
444.255	128.88
444.476	111.88
444.698	121.88
444.919	120.88
445.14	233.88
445.361	165.88
445.582	118.88
445.803	127.88
446.024	128.88
446.245	112.88
446.466	97.88
446.687	121.88
446.908	117.88
447.129	114.88
447.35	122.88
447.571	110.88
447.792	113.88
448.013	109.88
448.234	111.88
448.455	110.88
448.675	117.88
448.896	118.88
449.117	119.88
449.338	119.88
449.559	105.88
449.779	114.88
450	105.88
450.221	112.88
450.442	106.88
450.662	113.88
450.883	121.88
451.104	118.88
451.324	109.88
451.545	107.88
451.766	121.88
451.986	97.88
452.207	111.88
452.428	109.88
452.648	105.88
452.869	97.88
453.089	103.88
453.31	110.88
453.53	109.88
453.751	82.88
453.971	97.88
454.192	119.88
454.412	109.88
454.633	104.88
454.853	103.88
455.073	105.88
455.294	106.88
455.514	111.88
455.734	102.88
455.955	121.88
456.175	101.88
456.395	103.88
456.616	101.88
456.836	109.88
457.056	96.88
457.276	99.88
457.497	106.88
457.717	102.88
457.937	102.88
458.157	106.88
458.377	98.88
458.598	100.88
458.818	93.88
459.038	92.88
459.258	106.88
459.478	102.88
459.698	90.88
459.918	96.88
460.138	104.88
460.358	104.88
460.578	111.88
460.798	121.88
461.018	111.88
461.238	124.88
461.458	121.88
461.678	118.88
461.898	97.88
462.118	117.88
462.338	122.88
462.558	127.88
462.777	115.88
462.997	109.88
463.217	124.88
463.437	123.88
463.657	125.88
463.876	116.88
464.096	128.88
464.316	131.88
464.536	111.88
464.755	121.88
464.975	136.88
465.195	122.88
465.414	110.88
465.634	122.88
465.854	111.88
466.073	107.88
466.293	115.88
466.512	104.88
466.732	118.88
466.951	115.88
467.171	125.88
467.391	124.88
467.61	126.88
467.829	115.88
468.049	116.88
468.268	116.88
468.488	102.88
468.707	120.88
468.927	109.88
469.146	101.88
469.365	118.88
469.585	120.88
469.804	124.88
470.023	121.88
470.243	114.88
470.462	117.88
470.681	125.88
470.901	119.88
471.12	118.88
471.339	124.88
471.558	129.88
471.777	118.88
471.997	102.88
472.216	116.88
472.435	103.88
472.654	88.88
472.873	104.88
473.092	102.88
473.311	105.88
473.53	113.88
473.749	115.88
473.968	111.88
474.187	117.88
474.406	115.88
474.625	127.88
474.844	133.88
475.063	114.88
475.282	115.88
475.501	122.88
475.72	120.88
475.939	118.88
476.158	114.88
476.377	122.88
476.596	117.88
476.814	122.88
477.033	101.88
477.252	105.88
477.471	123.88
477.69	120.88
477.908	123.88
478.127	133.88
478.346	119.88
478.564	114.88
478.783	131.88
479.002	131.88
479.22	122.88
479.439	130.88
479.658	106.88
479.876	116.88
480.095	97.88
480.313	132.88
480.532	124.88
480.751	126.88
480.969	97.88
481.188	103.88
481.406	127.88
481.624	110.88
481.843	109.88
482.061	109.88
482.28	112.88
482.498	131.88
482.717	103.88
482.935	124.88
483.153	133.88
483.372	141.88
483.59	135.88
483.808	124.88
484.027	122.88
484.245	95.88
484.463	109.88
484.681	131.88
484.9	120.88
485.118	120.88
485.336	119.88
485.554	124.88
485.772	103.88
485.99	101.88
486.209	113.88
486.427	120.88
486.645	114.88
486.863	123.88
487.081	104.88
487.299	121.88
487.517	121.88
487.735	136.88
487.953	138.88
488.171	161.88
488.389	145.88
488.607	134.88
488.825	125.88
489.043	118.88
489.261	120.88
489.479	123.88
489.696	118.88
489.914	133.88
490.132	130.88
490.35	142.88
490.568	143.88
490.786	140.88
491.003	141.88
491.221	147.88
491.439	142.88
491.657	150.88
491.874	156.88
492.092	153.88
492.31	163.88
492.527	152.88
492.745	152.88
492.963	148.88
493.18	153.88
493.398	153.88
493.615	146.88
493.833	147.88
494.05	142.88
494.268	134.88
494.485	157.88
494.703	147.88
494.92	129.88
495.138	130.88
495.355	149.88
495.573	160.88
495.79	136.88
496.008	137.88
496.225	145.88
496.442	147.88
496.66	155.88
496.877	140.88
497.094	145.88
497.312	149.88
497.529	146.88
497.746	152.88
497.963	129.88
498.181	130.88
498.398	143.88
498.615	137.88
498.832	139.88
499.049	145.88
499.267	144.88
499.484	161.88
499.701	154.88
499.918	175.88
500.135	191.88
500.352	214.88
500.569	221.88
500.786	208.88
501.003	202.88
501.22	193.88
501.437	159.88
501.654	178.88
501.871	149.88
502.088	159.88
502.305	144.88
502.522	127.88
502.739	131.88
502.956	145.88
503.172	154.88
503.389	121.88
503.606	132.88
503.823	127.88
504.04	145.88
504.256	149.88
504.473	136.88
504.69	135.88
504.907	141.88
505.123	130.88
505.34	128.88
505.557	113.88
505.773	120.88
505.99	122.88
506.207	118.88
506.423	118.88
506.64	116.88
506.856	127.88
507.073	127.88
507.289	117.88
507.506	134.88
507.722	114.88
507.939	116.88
508.155	117.88
508.372	119.88
508.588	112.88
508.805	121.88
509.021	120.88
509.238	115.88
509.454	120.88
509.67	121.88
509.887	108.88
510.103	127.88
510.319	113.88
510.536	96.88
510.752	110.88
510.968	110.88
511.184	118.88
511.401	93.88
511.617	115.88
511.833	110.88
512.049	124.88
512.265	120.88
512.481	96.88
512.698	117.88
512.914	121.88
513.13	115.88
513.346	110.88
513.562	105.88
513.778	116.88
513.994	116.88
514.21	117.88
514.426	123.88
514.642	124.88
514.858	121.88
515.074	112.88
515.29	126.88
515.506	117.88
515.721	114.88
515.937	120.88
516.153	103.88
516.369	104.88
516.585	97.88
516.801	117.88
517.016	129.88
517.232	140.88
517.448	133.88
517.664	121.88
517.879	128.88
518.095	116.88
518.311	116.88
518.527	127.88
518.742	122.88
518.958	113.88
519.173	122.88
519.389	117.88
519.605	102.88
519.82	113.88
520.036	117.88
520.251	106.88
520.467	115.88
520.682	103.88
520.898	107.88
521.113	113.88
521.329	112.88
521.544	114.88
521.76	106.88
521.975	109.88
522.19	97.88
522.406	109.88
522.621	119.88
522.836	113.88
523.052	113.88
523.267	120.88
523.482	106.88
523.698	114.88
523.913	113.88
524.128	118.88
524.343	108.88
524.559	113.88
524.774	130.88
524.989	115.88
525.204	125.88
525.419	111.88
525.634	113.88
525.849	124.88
526.064	99.88
526.28	104.88
526.495	113.88
526.71	114.88
526.925	114.88
527.14	105.88
527.355	93.88
527.57	118.88
527.785	117.88
527.999	98.88
528.214	109.88
528.429	106.88
528.644	113.88
528.859	117.88
529.074	120.88
529.289	134.88
529.503	128.88
529.718	127.88
529.933	112.88
530.148	105.88
530.363	105.88
530.577	90.88
530.792	114.88
531.007	109.88
531.221	115.88
531.436	115.88
531.651	99.88
531.865	98.88
532.08	117.88
532.295	104.88
532.509	112.88
532.724	112.88
532.938	104.88
533.153	115.88
533.367	122.88
533.582	112.88
533.796	118.88
534.011	118.88
534.225	106.88
534.44	111.88
534.654	111.88
534.868	107.88
535.083	118.88
535.297	116.88
535.511	120.88
535.726	114.88
535.94	102.88
536.154	99.88
536.369	107.88
536.583	107.88
536.797	96.88
537.011	96.88
537.225	97.88
537.44	91.88
537.654	105.88
537.868	100.88
538.082	97.88
538.296	103.88
538.51	113.88
538.724	94.88
538.938	116.88
539.153	111.88
539.367	111.88
539.581	115.88
539.795	117.88
540.009	98.88
540.222	119.88
540.436	110.88
540.65	103.88
540.864	117.88
541.078	123.88
541.292	118.88
541.506	122.88
541.72	134.88
541.934	127.88
542.147	140.88
542.361	138.88
542.575	134.88
542.789	131.88
543.002	98.88
543.216	117.88
543.43	107.88
543.644	115.88
543.857	136.88
544.071	118.88
544.285	124.88
544.498	124.88
544.712	133.88
544.925	133.88
545.139	120.88
545.352	119.88
545.566	133.88
545.779	130.88
545.993	154.88
546.206	130.88
546.42	119.88
546.633	130.88
546.847	121.88
547.06	137.88
547.274	133.88
547.487	128.88
547.7	131.88
547.914	145.88
548.127	133.88
548.34	116.88
548.554	135.88
548.767	134.88
548.98	125.88
549.193	120.88
549.407	131.88
549.62	114.88
549.833	121.88
550.046	122.88
550.259	113.88
550.473	125.88
550.686	119.88
550.899	120.88
551.112	121.88
551.325	134.88
551.538	129.88
551.751	113.88
551.964	119.88
552.177	100.88
552.39	115.88
552.603	120.88
552.816	131.88
553.029	135.88
553.242	135.88
553.455	130.88
553.667	124.88
553.88	127.88
554.093	113.88
554.306	123.88
554.519	113.88
554.732	113.88
554.944	122.88
555.157	121.88
555.37	113.88
555.583	115.88
555.795	123.88
556.008	122.88
556.221	108.88
556.433	117.88
556.646	122.88
556.859	123.88
557.071	113.88
557.284	110.88
557.496	109.88
557.709	125.88
557.921	124.88
558.134	113.88
558.346	106.88
558.559	106.88
558.771	121.88
558.984	118.88
559.196	129.88
559.409	121.88
559.621	109.88
559.833	101.88
560.046	116.88
560.258	94.88
560.47	133.88
560.683	113.88
560.895	110.88
561.107	107.88
561.32	109.88
561.532	111.88
561.744	115.88
561.956	116.88
562.168	129.88
562.381	111.88
562.593	117.88
562.805	127.88
563.017	99.88
563.229	103.88
563.441	98.88
563.653	107.88
563.865	101.88
564.077	102.88
564.289	103.88
564.501	118.88
564.713	113.88
564.925	101.88
565.137	113.88
565.349	112.88
565.561	115.88
565.773	106.88
565.985	107.88
566.197	113.88
566.408	105.88
566.62	105.88
566.832	120.88
567.044	100.88
567.255	109.88
567.467	106.88
567.679	132.88
567.891	129.88
568.102	134.88
568.314	118.88
568.526	106.88
568.737	107.88
568.949	112.88
569.161	105.88
569.372	100.88
569.584	99.88
569.795	97.88
570.007	99.88
570.218	110.88
570.43	111.88
570.641	103.88
570.853	103.88
571.064	99.88
571.276	114.88
571.487	106.88
571.698	89.88
571.91	101.88
572.121	91.88
572.333	90.88
572.544	94.88
572.755	81.88
572.966	95.88
573.178	97.88
573.389	90.88
573.6	95.88
573.811	103.88
574.023	76.88
574.234	96.88
574.445	112.88
574.656	87.88
574.867	84.88
575.078	87.88
575.289	89.88
575.501	99.88
575.712	101.88
575.923	92.88
576.134	94.88
576.345	98.88
576.556	84.88
576.767	86.88
576.978	81.88
577.188	95.88
577.399	89.88
577.61	86.88
577.821	101.88
578.032	87.88
578.243	111.88
578.454	91.88
578.665	91.88
578.875	97.88
579.086	94.88
579.297	90.88
579.508	79.88
579.718	101.88
579.929	105.88
580.14	85.88
580.35	83.88
580.561	106.88
580.772	88.88
580.982	91.88
581.193	95.88
581.403	102.88
581.614	84.88
581.825	96.88
582.035	86.88
582.246	104.88
582.456	80.88
582.667	80.88
582.877	102.88
583.087	94.88
583.298	99.88
583.508	101.88
583.719	92.88
583.929	86.88
584.139	80.88
584.35	85.88
584.56	93.88
584.77	96.88
584.981	89.88
585.191	95.88
585.401	81.88
585.611	97.88
585.821	96.88
586.032	100.88
586.242	104.88
586.452	88.88
586.662	97.88
586.872	99.88
587.082	89.88
587.292	82.88
587.502	78.88
587.713	94.88
587.923	80.88
588.133	96.88
588.343	83.88
588.553	85.88
588.762	98.88
588.972	78.88
589.182	81.88
589.392	96.88
589.602	86.88
589.812	79.88
590.022	94.88
590.232	105.88
590.441	90.88
590.651	97.88
590.861	88.88
591.071	90.88
591.281	104.88
591.49	90.88
591.7	83.88
591.91	90.88
592.119	89.88
592.329	75.88
592.539	75.88
592.748	89.88
592.958	103.88
593.167	91.88
593.377	97.88
593.587	90.88
593.796	92.88
594.006	93.88
594.215	87.88
594.424	105.88
594.634	90.88
594.843	95.88
595.053	103.88
595.262	91.88
595.472	89.88
595.681	86.88
595.89	89.88
596.1	85.88
596.309	90.88
596.518	89.88
596.727	83.88
596.937	85.88
597.146	88.88
597.355	86.88
597.564	88.88
597.774	98.88
597.983	82.88
598.192	93.88
598.401	98.88
598.61	82.88
598.819	92.88
599.028	82.88
599.237	82.88
599.446	79.88
599.655	87.88
599.864	95.88
600.073	99.88
600.282	86.88
600.491	99.88
600.7	81.88
600.909	88.88
601.118	81.88
601.327	101.88
601.536	93.88
601.745	87.88
601.953	95.88
602.162	96.88
602.371	114.88
602.58	73.88
602.789	85.88
602.997	89.88
603.206	102.88
603.415	89.88
603.623	85.88
603.832	95.88
604.041	84.88
604.249	93.88
604.458	90.88
604.666	83.88
604.875	86.88
605.084	85.88
605.292	94.88
605.501	105.88
605.709	80.88
605.918	86.88
606.126	94.88
606.334	101.88
606.543	98.88
606.751	91.88
606.96	96.88
607.168	86.88
607.376	92.88
607.585	103.88
607.793	96.88
608.001	95.88
608.21	93.88
608.418	92.88
608.626	101.88
608.834	96.88
609.043	88.88
609.251	75.88
609.459	96.88
609.667	97.88
609.875	95.88
610.083	98.88
610.291	94.88
610.499	90.88
610.707	93.88
610.916	86.88
611.124	94.88
611.332	91.88
611.54	90.88
611.748	93.88
611.955	90.88
612.163	93.88
612.371	80.88
612.579	96.88
612.787	114.88
612.995	91.88
613.203	85.88
613.411	105.88
613.618	88.88
613.826	103.88
614.034	94.88
614.242	84.88
614.449	86.88
614.657	83.88
614.865	95.88
615.072	88.88
615.28	101.88
615.488	90.88
615.695	86.88
615.903	84.88
616.111	79.88
616.318	102.88
616.526	104.88
616.733	85.88
616.941	90.88
617.148	94.88
617.356	87.88
617.563	95.88
617.771	88.88
617.978	89.88
618.185	85.88
618.393	94.88
618.6	81.88
618.807	92.88
619.015	95.88
619.222	89.88
619.429	87.88
619.637	83.88
619.844	100.88
620.051	88.88
620.258	87.88
620.466	90.88
620.673	90.88
620.88	102.88
621.087	102.88
621.294	85.88
621.501	95.88
621.708	106.88
621.915	85.88
622.122	95.88
622.329	88.88
622.536	100.88
622.743	82.88
622.95	94.88
623.157	83.88
623.364	83.88
623.571	87.88
623.778	100.88
623.985	101.88
624.192	81.88
624.399	78.88
624.606	101.88
624.812	104.88
625.019	93.88
625.226	91.88
625.433	103.88
625.639	100.88
625.846	98.88
626.053	81.88
626.259	82.88
626.466	88.88
626.673	82.88
626.879	74.88
627.086	81.88
627.293	80.88
627.499	84.88
627.706	90.88
627.912	78.88
628.119	93.88
628.325	77.88
628.532	91.88
628.738	97.88
628.945	87.88
629.151	85.88
629.357	91.88
629.564	99.88
629.77	104.88
629.976	77.88
630.183	93.88
630.389	77.88
630.595	87.88
630.802	104.88
631.008	85.88
631.214	86.88
631.42	98.88
631.627	81.88
631.833	75.88
632.039	85.88
632.245	79.88
632.451	93.88
632.657	88.88
632.863	86.88
633.069	85.88
633.275	88.88
633.481	81.88
633.688	83.88
633.893	90.88
634.099	90.88
634.305	90.88
634.511	88.88
634.717	88.88
634.923	92.88
635.129	73.88
635.335	76.88
635.541	77.88
635.747	91.88
635.952	96.88
636.158	82.88
636.364	83.88
636.57	92.88
636.775	90.88
636.981	86.88
637.187	87.88
637.392	98.88
637.598	99.88
637.804	87.88
638.009	89.88
638.215	81.88
638.421	90.88
638.626	90.88
638.832	85.88
639.037	87.88
639.243	79.88
639.448	98.88
639.654	87.88
639.859	90.88
640.065	87.88
640.27	87.88
640.475	94.88
640.681	91.88
640.886	92.88
641.091	85.88
641.297	103.88
641.502	72.88
641.707	65.88
641.913	90.88
642.118	81.88
642.323	91.88
642.528	87.88
642.733	88.88
642.939	96.88
643.144	85.88
643.349	88.88
643.554	98.88
643.759	74.88
643.964	87.88
644.169	85.88
644.374	74.88
644.579	86.88
644.784	109.88
644.989	81.88
645.194	82.88
645.399	77.88
645.604	80.88
645.809	92.88
646.014	88.88
646.219	89.88
646.423	75.88
646.628	89.88
646.833	88.88
647.038	92.88
647.243	99.88
647.447	86.88
647.652	86.88
647.857	90.88
648.062	88.88
648.266	102.88
648.471	88.88
648.676	80.88
648.88	81.88
649.085	89.88
649.289	86.88
649.494	88.88
649.698	100.88
649.903	96.88
650.107	96.88
650.312	94.88
650.516	85.88
650.721	89.88
650.925	89.88
651.13	86.88
651.334	86.88
651.539	96.88
651.743	92.88
651.947	94.88
652.152	79.88
652.356	88.88
652.56	94.88
652.764	77.88
652.969	101.88
653.173	68.88
653.377	80.88
653.581	76.88
653.785	93.88
653.99	89.88
654.194	75.88
654.398	89.88
654.602	81.88
654.806	81.88
655.01	79.88
655.214	82.88
655.418	85.88
655.622	80.88
655.826	83.88
656.03	89.88
656.234	76.88
656.438	91.88
656.642	86.88
656.846	90.88
657.049	81.88
657.253	84.88
657.457	79.88
657.661	79.88
657.865	78.88
658.068	77.88
658.272	71.88
658.476	74.88
658.68	87.88
658.883	84.88
659.087	89.88
659.291	95.88
659.494	86.88
659.698	80.88
659.901	82.88
660.105	65.88
660.309	90.88
660.512	81.88
660.716	78.88
660.919	90.88
661.123	92.88
661.326	83.88
661.53	69.88
661.733	69.88
661.936	67.88
662.14	77.88
662.343	82.88
662.546	84.88
662.75	82.88
662.953	77.88
663.156	63.88
663.36	89.88
663.563	83.88
663.766	83.88
663.969	98.88
664.173	79.88
664.376	85.88
664.579	91.88
664.782	80.88
664.985	86.88
665.188	79.88
665.391	85.88
665.594	80.88
665.797	86.88
666	82.88
666.203	70.88
666.406	90.88
666.609	69.88
666.812	85.88
667.015	78.88
667.218	73.88
667.421	73.88
667.624	87.88
667.827	91.88
668.03	78.88
668.232	83.88
668.435	76.88
668.638	77.88
668.841	86.88
669.043	61.88
669.246	86.88
669.449	90.88
669.651	78.88
669.854	74.88
670.057	72.88
670.259	75.88
670.462	79.88
670.665	77.88
670.867	96.88
671.07	66.88
671.272	85.88
671.475	90.88
671.677	84.88
671.88	86.88
672.082	78.88
672.284	81.88
672.487	77.88
672.689	61.88
672.892	71.88
