Data from StandardFe(NO3)3.TAE.3%Agarose.FlatLispGreen.Lamp.Energy10.07252019_HRD10591_11-55-04-440.txt Node
Date: Thu Jul 25 11:55:04 EDT 2019
User: cochatt
Spectrometer: HR+D1059
Trigger mode: 1
Integration Time (sec): 1.000000E-1
Scans to average: 1
Electric dark correction enabled: true
Nonlinearity correction enabled: false
Boxcar width: 0
XAxis mode: Wavelengths
Number of Pixels in Spectrum: 2048
>>>>>Begin Spectral Data<<<<<
223.165	-17.12
223.4	-17.12
223.635	-17.12
223.869	-16.12
224.104	-29.12
224.338	-13.12
224.573	-16.12
224.808	-5.12
225.042	-19.12
225.277	-17.12
225.511	3.88
225.746	12.88
225.98	2.88
226.215	13.88
226.449	9.88
226.683	23.88
226.918	29.88
227.152	35.88
227.387	21.88
227.621	34.88
227.856	38.88
228.09	38.88
228.324	64.88
228.559	61.88
228.793	50.88
229.027	53.88
229.262	57.88
229.496	62.88
229.73	74.88
229.964	61.88
230.199	75.88
230.433	72.88
230.667	87.88
230.901	84.88
231.136	80.88
231.37	84.88
231.604	78.88
231.838	80.88
232.072	66.88
232.306	80.88
232.541	83.88
232.775	87.88
233.009	72.88
233.243	77.88
233.477	82.88
233.711	89.88
233.945	67.88
234.179	71.88
234.413	76.88
234.647	81.88
234.881	80.88
235.115	65.88
235.349	83.88
235.583	85.88
235.817	83.88
236.051	85.88
236.285	74.88
236.519	63.88
236.753	86.88
236.987	70.88
237.221	78.88
237.455	74.88
237.689	65.88
237.922	83.88
238.156	65.88
238.39	86.88
238.624	59.88
238.858	67.88
239.091	73.88
239.325	76.88
239.559	75.88
239.793	81.88
240.027	70.88
240.26	81.88
240.494	78.88
240.728	71.88
240.961	78.88
241.195	76.88
241.429	75.88
241.662	82.88
241.896	83.88
242.13	81.88
242.363	69.88
242.597	88.88
242.83	72.88
243.064	70.88
243.298	74.88
243.531	74.88
243.765	88.88
243.998	69.88
244.232	76.88
244.465	75.88
244.699	87.88
244.932	84.88
245.166	87.88
245.399	88.88
245.633	83.88
245.866	75.88
246.099	54.88
246.333	75.88
246.566	68.88
246.8	78.88
247.033	72.88
247.266	74.88
247.5	64.88
247.733	69.88
247.966	82.88
248.2	71.88
248.433	82.88
248.666	69.88
248.899	76.88
249.133	69.88
249.366	85.88
249.599	75.88
249.832	81.88
250.066	62.88
250.299	79.88
250.532	81.88
250.765	85.88
250.998	69.88
251.231	76.88
251.465	81.88
251.698	68.88
251.931	69.88
252.164	80.88
252.397	72.88
252.63	80.88
252.863	64.88
253.096	70.88
253.329	68.88
253.562	66.88
253.795	69.88
254.028	83.88
254.261	81.88
254.494	74.88
254.727	83.88
254.96	79.88
255.193	72.88
255.426	70.88
255.659	90.88
255.892	80.88
256.124	75.88
256.357	75.88
256.59	77.88
256.823	78.88
257.056	74.88
257.289	79.88
257.521	79.88
257.754	79.88
257.987	78.88
258.22	67.88
258.452	86.88
258.685	90.88
258.918	76.88
259.151	73.88
259.383	90.88
259.616	70.88
259.849	95.88
260.081	89.88
260.314	80.88
260.547	81.88
260.779	88.88
261.012	81.88
261.244	78.88
261.477	80.88
261.71	88.88
261.942	73.88
262.175	87.88
262.407	92.88
262.64	74.88
262.872	82.88
263.105	80.88
263.337	78.88
263.57	70.88
263.802	81.88
264.035	93.88
264.267	87.88
264.499	80.88
264.732	71.88
264.964	73.88
265.197	74.88
265.429	79.88
265.661	89.88
265.894	79.88
266.126	82.88
266.358	73.88
266.591	88.88
266.823	87.88
267.055	73.88
267.287	82.88
267.52	79.88
267.752	80.88
267.984	76.88
268.216	67.88
268.448	68.88
268.681	79.88
268.913	75.88
269.145	84.88
269.377	81.88
269.609	77.88
269.841	79.88
270.073	55.88
270.306	66.88
270.538	81.88
270.77	72.88
271.002	70.88
271.234	75.88
271.466	74.88
271.698	81.88
271.93	72.88
272.162	82.88
272.394	93.88
272.626	85.88
272.858	85.88
273.09	76.88
273.322	79.88
273.553	85.88
273.785	77.88
274.017	77.88
274.249	74.88
274.481	66.88
274.713	81.88
274.945	81.88
275.176	86.88
275.408	78.88
275.64	81.88
275.872	85.88
276.104	88.88
276.335	91.88
276.567	68.88
276.799	86.88
277.031	98.88
277.262	84.88
277.494	87.88
277.726	74.88
277.957	69.88
278.189	81.88
278.421	78.88
278.652	73.88
278.884	75.88
279.115	86.88
279.347	83.88
279.579	94.88
279.81	87.88
280.042	74.88
280.273	76.88
280.505	83.88
280.736	74.88
280.968	69.88
281.199	75.88
281.431	82.88
281.662	64.88
281.894	73.88
282.125	86.88
282.356	74.88
282.588	81.88
282.819	77.88
283.051	79.88
283.282	79.88
283.513	82.88
283.745	79.88
283.976	88.88
284.207	88.88
284.439	79.88
284.67	79.88
284.901	82.88
285.132	93.88
285.364	80.88
285.595	79.88
285.826	85.88
286.057	89.88
286.288	82.88
286.52	79.88
286.751	88.88
286.982	71.88
287.213	83.88
287.444	86.88
287.675	59.88
287.906	85.88
288.138	85.88
288.369	90.88
288.6	86.88
288.831	72.88
289.062	88.88
289.293	88.88
289.524	78.88
289.755	95.88
289.986	85.88
290.217	98.88
290.448	93.88
290.679	87.88
290.91	81.88
291.141	83.88
291.371	82.88
291.602	98.88
291.833	83.88
292.064	85.88
292.295	90.88
292.526	81.88
292.757	78.88
292.987	68.88
293.218	78.88
293.449	84.88
293.68	91.88
293.91	78.88
294.141	83.88
294.372	72.88
294.603	87.88
294.833	70.88
295.064	85.88
295.295	86.88
295.525	88.88
295.756	83.88
295.987	89.88
296.217	86.88
296.448	84.88
296.679	89.88
296.909	74.88
297.14	85.88
297.37	54.88
297.601	77.88
297.831	82.88
298.062	96.88
298.292	69.88
298.523	85.88
298.753	80.88
298.984	77.88
299.214	78.88
299.445	84.88
299.675	83.88
299.905	81.88
300.136	74.88
300.366	88.88
300.597	75.88
300.827	90.88
301.057	81.88
301.288	85.88
301.518	74.88
301.748	77.88
301.979	74.88
302.209	95.88
302.439	84.88
302.669	91.88
302.9	79.88
303.13	86.88
303.36	73.88
303.59	83.88
303.82	79.88
304.051	70.88
304.281	95.88
304.511	80.88
304.741	92.88
304.971	84.88
305.201	91.88
305.431	80.88
305.661	87.88
305.891	97.88
306.121	69.88
306.352	93.88
306.582	80.88
306.812	75.88
307.042	81.88
307.272	85.88
307.502	75.88
307.731	82.88
307.961	84.88
308.191	79.88
308.421	104.88
308.651	77.88
308.881	96.88
309.111	80.88
309.341	83.88
309.571	85.88
309.8	96.88
310.03	85.88
310.26	104.88
310.49	86.88
310.72	94.88
310.949	79.88
311.179	83.88
311.409	84.88
311.639	79.88
311.868	90.88
312.098	87.88
312.328	76.88
312.557	94.88
312.787	86.88
313.017	81.88
313.246	73.88
313.476	69.88
313.706	75.88
313.935	78.88
314.165	85.88
314.394	78.88
314.624	83.88
314.853	89.88
315.083	65.88
315.312	81.88
315.542	78.88
315.771	97.88
316.001	80.88
316.23	103.88
316.46	72.88
316.689	75.88
316.919	72.88
317.148	94.88
317.377	98.88
317.607	98.88
317.836	78.88
318.065	86.88
318.295	83.88
318.524	77.88
318.753	83.88
318.983	79.88
319.212	65.88
319.441	79.88
319.67	78.88
319.9	84.88
320.129	83.88
320.358	92.88
320.587	81.88
320.816	76.88
321.046	79.88
321.275	89.88
321.504	85.88
321.733	74.88
321.962	85.88
322.191	86.88
322.42	79.88
322.649	78.88
322.878	86.88
323.108	75.88
323.337	72.88
323.566	81.88
323.795	83.88
324.024	84.88
324.253	95.88
324.482	74.88
324.71	86.88
324.939	70.88
325.168	63.88
325.397	81.88
325.626	83.88
325.855	74.88
326.084	74.88
326.313	89.88
326.542	107.88
326.77	84.88
326.999	75.88
327.228	85.88
327.457	70.88
327.686	89.88
327.914	94.88
328.143	89.88
328.372	93.88
328.6	78.88
328.829	65.88
329.058	87.88
329.287	77.88
329.515	89.88
329.744	90.88
329.972	75.88
330.201	89.88
330.43	94.88
330.658	83.88
330.887	81.88
331.115	78.88
331.344	74.88
331.572	96.88
331.801	82.88
332.03	75.88
332.258	86.88
332.486	85.88
332.715	88.88
332.943	94.88
333.172	66.88
333.4	75.88
333.629	97.88
333.857	76.88
334.085	75.88
334.314	82.88
334.542	99.88
334.771	79.88
334.999	88.88
335.227	83.88
335.455	66.88
335.684	82.88
335.912	81.88
336.14	72.88
336.369	89.88
336.597	84.88
336.825	88.88
337.053	84.88
337.281	98.88
337.51	84.88
337.738	87.88
337.966	79.88
338.194	89.88
338.422	74.88
338.65	81.88
338.878	74.88
339.106	88.88
339.334	89.88
339.562	84.88
339.79	89.88
340.018	76.88
340.246	79.88
340.474	80.88
340.702	89.88
340.93	85.88
341.158	87.88
341.386	69.88
341.614	88.88
341.842	81.88
342.07	93.88
342.298	88.88
342.526	85.88
342.754	89.88
342.981	87.88
343.209	74.88
343.437	83.88
343.665	88.88
343.893	78.88
344.12	70.88
344.348	79.88
344.576	72.88
344.804	83.88
345.031	74.88
345.259	73.88
345.487	90.88
345.714	74.88
345.942	74.88
346.17	85.88
346.397	84.88
346.625	83.88
346.853	85.88
347.08	89.88
347.308	80.88
347.535	83.88
347.763	88.88
347.99	93.88
348.218	95.88
348.445	88.88
348.673	76.88
348.9	89.88
349.128	73.88
349.355	93.88
349.583	86.88
349.81	72.88
350.037	66.88
350.265	67.88
350.492	84.88
350.72	86.88
350.947	80.88
351.174	78.88
351.402	82.88
351.629	74.88
351.856	85.88
352.083	77.88
352.311	97.88
352.538	85.88
352.765	83.88
352.992	85.88
353.22	87.88
353.447	77.88
353.674	94.88
353.901	93.88
354.128	89.88
354.355	90.88
354.583	78.88
354.81	94.88
355.037	104.88
355.264	85.88
355.491	74.88
355.718	63.88
355.945	79.88
356.172	85.88
356.399	87.88
356.626	87.88
356.853	85.88
357.08	76.88
357.307	87.88
357.534	91.88
357.761	90.88
357.988	100.88
358.215	81.88
358.441	85.88
358.668	79.88
358.895	86.88
359.122	81.88
359.349	88.88
359.576	81.88
359.802	79.88
360.029	93.88
360.256	75.88
360.483	78.88
360.709	82.88
360.936	94.88
361.163	75.88
361.39	83.88
361.616	73.88
361.843	88.88
362.07	85.88
362.296	82.88
362.523	95.88
362.749	84.88
362.976	72.88
363.203	70.88
363.429	75.88
363.656	88.88
363.882	89.88
364.109	79.88
364.335	85.88
364.562	91.88
364.788	83.88
365.015	82.88
365.241	83.88
365.468	81.88
365.694	82.88
365.92	76.88
366.147	79.88
366.373	79.88
366.599	88.88
366.826	91.88
367.052	86.88
367.278	84.88
367.505	79.88
367.731	73.88
367.957	73.88
368.184	98.88
368.41	83.88
368.636	92.88
368.862	91.88
369.089	91.88
369.315	86.88
369.541	85.88
369.767	77.88
369.993	82.88
370.219	75.88
370.445	78.88
370.672	94.88
370.898	105.88
371.124	82.88
371.35	94.88
371.576	84.88
371.802	94.88
372.028	83.88
372.254	73.88
372.48	81.88
372.706	87.88
372.932	94.88
373.158	84.88
373.384	95.88
373.61	102.88
373.835	89.88
374.061	93.88
374.287	100.88
374.513	84.88
374.739	105.88
374.965	93.88
375.191	76.88
375.416	93.88
375.642	99.88
375.868	97.88
376.094	81.88
376.319	82.88
376.545	91.88
376.771	97.88
376.997	83.88
377.222	92.88
377.448	91.88
377.674	76.88
377.899	91.88
378.125	95.88
378.35	93.88
378.576	89.88
378.802	88.88
379.027	98.88
379.253	107.88
379.478	94.88
379.704	96.88
379.929	94.88
380.155	82.88
380.38	94.88
380.606	86.88
380.831	93.88
381.057	101.88
381.282	86.88
381.507	83.88
381.733	92.88
381.958	82.88
382.184	88.88
382.409	83.88
382.634	95.88
382.86	83.88
383.085	91.88
383.31	103.88
383.535	89.88
383.761	96.88
383.986	94.88
384.211	109.88
384.436	89.88
384.662	101.88
384.887	87.88
385.112	97.88
385.337	93.88
385.562	72.88
385.787	90.88
386.013	106.88
386.238	88.88
386.463	97.88
386.688	89.88
386.913	83.88
387.138	101.88
387.363	86.88
387.588	99.88
387.813	99.88
388.038	89.88
388.263	101.88
388.488	92.88
388.713	93.88
388.938	79.88
389.163	103.88
389.387	88.88
389.612	92.88
389.837	94.88
390.062	100.88
390.287	92.88
390.512	90.88
390.736	104.88
390.961	98.88
391.186	93.88
391.411	120.88
391.636	95.88
391.86	85.88
392.085	87.88
392.31	79.88
392.534	100.88
392.759	91.88
392.984	106.88
393.208	95.88
393.433	98.88
393.658	86.88
393.882	99.88
394.107	100.88
394.331	87.88
394.556	92.88
394.78	83.88
395.005	93.88
395.229	101.88
395.454	74.88
395.678	112.88
395.903	93.88
396.127	96.88
396.352	93.88
396.576	91.88
396.801	105.88
397.025	100.88
397.249	94.88
397.474	104.88
397.698	104.88
397.922	96.88
398.147	90.88
398.371	107.88
398.595	119.88
398.82	107.88
399.044	113.88
399.268	115.88
399.492	116.88
399.717	98.88
399.941	113.88
400.165	106.88
400.389	113.88
400.613	110.88
400.837	114.88
401.062	102.88
401.286	100.88
401.51	91.88
401.734	91.88
401.958	97.88
402.182	94.88
402.406	114.88
402.63	105.88
402.854	111.88
403.078	111.88
403.302	124.88
403.526	101.88
403.75	99.88
403.974	116.88
404.198	101.88
404.422	116.88
404.645	105.88
404.869	112.88
405.093	103.88
405.317	94.88
405.541	106.88
405.765	102.88
405.988	101.88
406.212	98.88
406.436	102.88
406.66	120.88
406.883	112.88
407.107	95.88
407.331	111.88
407.555	110.88
407.778	104.88
408.002	113.88
408.226	122.88
408.449	114.88
408.673	111.88
408.896	121.88
409.12	99.88
409.344	109.88
409.567	113.88
409.791	113.88
410.014	105.88
410.238	105.88
410.461	105.88
410.685	113.88
410.908	105.88
411.132	98.88
411.355	118.88
411.578	100.88
411.802	109.88
412.025	103.88
412.249	109.88
412.472	103.88
412.695	103.88
412.919	117.88
413.142	110.88
413.365	98.88
413.589	120.88
413.812	93.88
414.035	96.88
414.258	113.88
414.482	119.88
414.705	106.88
414.928	107.88
415.151	94.88
415.374	106.88
415.597	103.88
415.821	113.88
416.044	114.88
416.267	120.88
416.49	109.88
416.713	109.88
416.936	105.88
417.159	95.88
417.382	100.88
417.605	99.88
417.828	107.88
418.051	109.88
418.274	113.88
418.497	106.88
418.72	105.88
418.943	91.88
419.166	112.88
419.389	119.88
419.611	112.88
419.834	116.88
420.057	112.88
420.28	105.88
420.503	121.88
420.726	113.88
420.948	118.88
421.171	107.88
421.394	113.88
421.617	119.88
421.839	113.88
422.062	110.88
422.285	100.88
422.507	112.88
422.73	103.88
422.953	113.88
423.175	115.88
423.398	97.88
423.621	117.88
423.843	137.88
424.066	91.88
424.288	129.88
424.511	109.88
424.733	105.88
424.956	111.88
425.178	114.88
425.401	122.88
425.623	101.88
425.846	121.88
426.068	112.88
426.291	118.88
426.513	115.88
426.735	113.88
426.958	107.88
427.18	105.88
427.402	94.88
427.625	117.88
427.847	103.88
428.069	107.88
428.292	117.88
428.514	97.88
428.736	101.88
428.958	103.88
429.181	102.88
429.403	120.88
429.625	120.88
429.847	107.88
430.069	101.88
430.292	106.88
430.514	121.88
430.736	90.88
430.958	95.88
431.18	100.88
431.402	102.88
431.624	106.88
431.846	116.88
432.068	101.88
432.29	102.88
432.512	102.88
432.734	94.88
432.956	119.88
433.178	106.88
433.4	97.88
433.622	114.88
433.844	118.88
434.066	117.88
434.287	115.88
434.509	118.88
434.731	102.88
434.953	101.88
435.175	115.88
435.397	114.88
435.618	101.88
435.84	113.88
436.062	110.88
436.284	110.88
436.505	113.88
436.727	113.88
436.949	111.88
437.17	122.88
437.392	107.88
437.614	101.88
437.835	93.88
438.057	96.88
438.278	127.88
438.5	117.88
438.721	114.88
438.943	106.88
439.165	116.88
439.386	115.88
439.608	122.88
439.829	130.88
440.05	106.88
440.272	107.88
440.493	115.88
440.715	115.88
440.936	127.88
441.158	123.88
441.379	125.88
441.6	124.88
441.822	114.88
442.043	115.88
442.264	113.88
442.486	113.88
442.707	104.88
442.928	113.88
443.149	104.88
443.371	124.88
443.592	120.88
443.813	123.88
444.034	116.88
444.255	114.88
444.476	115.88
444.698	126.88
444.919	106.88
445.14	226.88
445.361	164.88
445.582	124.88
445.803	112.88
446.024	127.88
446.245	123.88
446.466	124.88
446.687	113.88
446.908	121.88
447.129	122.88
447.35	113.88
447.571	115.88
447.792	120.88
448.013	120.88
448.234	118.88
448.455	109.88
448.675	119.88
448.896	107.88
449.117	111.88
449.338	118.88
449.559	113.88
449.779	116.88
450	111.88
450.221	111.88
450.442	105.88
450.662	113.88
450.883	105.88
451.104	118.88
451.324	103.88
451.545	107.88
451.766	110.88
451.986	105.88
452.207	110.88
452.428	110.88
452.648	108.88
452.869	102.88
453.089	103.88
453.31	95.88
453.53	102.88
453.751	92.88
453.971	102.88
454.192	112.88
454.412	95.88
454.633	87.88
454.853	119.88
455.073	96.88
455.294	102.88
455.514	106.88
455.734	102.88
455.955	101.88
456.175	112.88
456.395	105.88
456.616	90.88
456.836	108.88
457.056	98.88
457.276	99.88
457.497	94.88
457.717	97.88
457.937	105.88
458.157	101.88
458.377	97.88
458.598	111.88
458.818	101.88
459.038	107.88
459.258	109.88
459.478	98.88
459.698	102.88
459.918	107.88
460.138	98.88
460.358	96.88
460.578	109.88
460.798	114.88
461.018	121.88
461.238	116.88
461.458	114.88
461.678	122.88
461.898	119.88
462.118	118.88
462.338	123.88
462.558	103.88
462.777	116.88
462.997	116.88
463.217	121.88
463.437	121.88
463.657	110.88
463.876	117.88
464.096	113.88
464.316	122.88
464.536	115.88
464.755	119.88
464.975	113.88
465.195	113.88
465.414	105.88
465.634	117.88
465.854	123.88
466.073	115.88
466.293	134.88
466.512	118.88
466.732	104.88
466.951	115.88
467.171	88.88
467.391	111.88
467.61	117.88
467.829	120.88
468.049	114.88
468.268	104.88
468.488	107.88
468.707	111.88
468.927	126.88
469.146	111.88
469.365	115.88
469.585	118.88
469.804	109.88
470.023	117.88
470.243	117.88
470.462	105.88
470.681	127.88
470.901	124.88
471.12	122.88
471.339	103.88
471.558	105.88
471.777	118.88
471.997	113.88
472.216	113.88
472.435	109.88
472.654	98.88
472.873	98.88
473.092	97.88
473.311	109.88
473.53	104.88
473.749	113.88
473.968	113.88
474.187	115.88
474.406	109.88
474.625	112.88
474.844	144.88
475.063	118.88
475.282	100.88
475.501	120.88
475.72	104.88
475.939	100.88
476.158	118.88
476.377	119.88
476.596	105.88
476.814	117.88
477.033	103.88
477.252	113.88
477.471	112.88
477.69	132.88
477.908	117.88
478.127	125.88
478.346	127.88
478.564	111.88
478.783	123.88
479.002	127.88
479.22	125.88
479.439	127.88
479.658	117.88
479.876	115.88
480.095	103.88
480.313	125.88
480.532	121.88
480.751	125.88
480.969	106.88
481.188	117.88
481.406	104.88
481.624	114.88
481.843	117.88
482.061	121.88
482.28	119.88
482.498	126.88
482.717	125.88
482.935	97.88
483.153	123.88
483.372	135.88
483.59	121.88
483.808	131.88
484.027	124.88
484.245	118.88
484.463	131.88
484.681	129.88
484.9	128.88
485.118	119.88
485.336	113.88
485.554	125.88
485.772	114.88
485.99	100.88
486.209	125.88
486.427	118.88
486.645	121.88
486.863	119.88
487.081	124.88
487.299	117.88
487.517	121.88
487.735	132.88
487.953	151.88
488.171	157.88
488.389	138.88
488.607	132.88
488.825	120.88
489.043	123.88
489.261	122.88
489.479	103.88
489.696	132.88
489.914	137.88
490.132	125.88
490.35	131.88
490.568	142.88
490.786	151.88
491.003	161.88
491.221	143.88
491.439	135.88
491.657	137.88
491.874	156.88
492.092	164.88
492.31	178.88
492.527	151.88
492.745	167.88
492.963	133.88
493.18	143.88
493.398	133.88
493.615	153.88
493.833	145.88
494.05	136.88
494.268	158.88
494.485	127.88
494.703	143.88
494.92	145.88
495.138	140.88
495.355	157.88
495.573	165.88
495.79	150.88
496.008	135.88
496.225	143.88
496.442	146.88
496.66	149.88
496.877	167.88
497.094	143.88
497.312	144.88
497.529	134.88
497.746	134.88
497.963	138.88
498.181	151.88
498.398	139.88
498.615	129.88
498.832	151.88
499.049	162.88
499.267	156.88
499.484	146.88
499.701	162.88
499.918	190.88
500.135	199.88
500.352	223.88
500.569	200.88
500.786	187.88
501.003	208.88
501.22	177.88
501.437	176.88
501.654	169.88
501.871	150.88
502.088	153.88
502.305	150.88
502.522	153.88
502.739	146.88
502.956	154.88
503.172	141.88
503.389	135.88
503.606	138.88
503.823	132.88
504.04	134.88
504.256	122.88
504.473	131.88
504.69	133.88
504.907	128.88
505.123	130.88
505.34	132.88
505.557	128.88
505.773	127.88
505.99	125.88
506.207	126.88
506.423	110.88
506.64	134.88
506.856	133.88
507.073	119.88
507.289	114.88
507.506	133.88
507.722	124.88
507.939	115.88
508.155	128.88
508.372	121.88
508.588	111.88
508.805	112.88
509.021	120.88
509.238	111.88
509.454	107.88
509.67	115.88
509.887	122.88
510.103	130.88
510.319	116.88
510.536	104.88
510.752	100.88
510.968	115.88
511.184	110.88
511.401	114.88
511.617	106.88
511.833	87.88
512.049	124.88
512.265	119.88
512.481	112.88
512.698	111.88
512.914	115.88
513.13	123.88
513.346	126.88
513.562	106.88
513.778	119.88
513.994	106.88
514.21	100.88
514.426	107.88
514.642	102.88
514.858	100.88
515.074	108.88
515.29	111.88
515.506	117.88
515.721	118.88
515.937	117.88
516.153	98.88
516.369	114.88
516.585	125.88
516.801	129.88
517.016	123.88
517.232	113.88
517.448	128.88
517.664	128.88
517.879	131.88
518.095	127.88
518.311	124.88
518.527	117.88
518.742	126.88
518.958	131.88
519.173	122.88
519.389	124.88
519.605	123.88
519.82	122.88
520.036	122.88
520.251	109.88
520.467	131.88
520.682	118.88
520.898	119.88
521.113	101.88
521.329	111.88
521.544	102.88
521.76	114.88
521.975	114.88
522.19	113.88
522.406	117.88
522.621	114.88
522.836	105.88
523.052	105.88
523.267	125.88
523.482	112.88
523.698	105.88
523.913	129.88
524.128	118.88
524.343	102.88
524.559	129.88
524.774	111.88
524.989	106.88
525.204	122.88
525.419	121.88
525.634	105.88
525.849	116.88
526.064	120.88
526.28	109.88
526.495	119.88
526.71	102.88
526.925	101.88
527.14	93.88
527.355	94.88
527.57	113.88
527.785	110.88
527.999	97.88
528.214	121.88
528.429	114.88
528.644	121.88
528.859	131.88
529.074	136.88
529.289	133.88
529.503	136.88
529.718	112.88
529.933	121.88
530.148	114.88
530.363	114.88
530.577	106.88
530.792	100.88
531.007	119.88
531.221	122.88
531.436	103.88
531.651	106.88
531.865	91.88
532.08	97.88
532.295	123.88
532.509	110.88
532.724	103.88
532.938	114.88
533.153	112.88
533.367	114.88
533.582	116.88
533.796	115.88
534.011	99.88
534.225	114.88
534.44	112.88
534.654	119.88
534.868	91.88
535.083	118.88
535.297	113.88
535.511	119.88
535.726	116.88
535.94	113.88
536.154	96.88
536.369	119.88
536.583	106.88
536.797	109.88
537.011	106.88
537.225	100.88
537.44	120.88
537.654	104.88
537.868	103.88
538.082	98.88
538.296	122.88
538.51	100.88
538.724	112.88
538.938	106.88
539.153	114.88
539.367	113.88
539.581	126.88
539.795	115.88
540.009	110.88
540.222	106.88
540.436	106.88
540.65	108.88
540.864	109.88
541.078	124.88
541.292	141.88
541.506	124.88
541.72	129.88
541.934	131.88
542.147	126.88
542.361	125.88
542.575	137.88
542.789	119.88
543.002	104.88
543.216	121.88
543.43	123.88
543.644	105.88
543.857	133.88
544.071	137.88
544.285	130.88
544.498	114.88
544.712	129.88
544.925	139.88
545.139	131.88
545.352	149.88
545.566	151.88
545.779	134.88
545.993	125.88
546.206	119.88
546.42	138.88
546.633	133.88
546.847	123.88
547.06	121.88
547.274	133.88
547.487	122.88
547.7	127.88
547.914	133.88
548.127	125.88
548.34	128.88
548.554	128.88
548.767	117.88
548.98	132.88
549.193	131.88
549.407	105.88
549.62	125.88
549.833	134.88
550.046	135.88
550.259	135.88
550.473	127.88
550.686	115.88
550.899	135.88
551.112	120.88
551.325	109.88
551.538	117.88
551.751	116.88
551.964	110.88
552.177	124.88
552.39	121.88
552.603	110.88
552.816	125.88
553.029	119.88
553.242	130.88
553.455	125.88
553.667	135.88
553.88	119.88
554.093	118.88
554.306	117.88
554.519	122.88
554.732	122.88
554.944	127.88
555.157	121.88
555.37	106.88
555.583	106.88
555.795	113.88
556.008	103.88
556.221	111.88
556.433	113.88
556.646	126.88
556.859	125.88
557.071	123.88
557.284	118.88
557.496	114.88
557.709	116.88
557.921	116.88
558.134	113.88
558.346	112.88
558.559	123.88
558.771	112.88
558.984	129.88
559.196	126.88
559.409	123.88
559.621	115.88
559.833	116.88
560.046	109.88
560.258	118.88
560.47	117.88
560.683	120.88
560.895	100.88
561.107	98.88
561.32	115.88
561.532	114.88
561.744	127.88
561.956	110.88
562.168	124.88
562.381	116.88
562.593	113.88
562.805	120.88
563.017	96.88
563.229	112.88
563.441	105.88
563.653	97.88
563.865	116.88
564.077	120.88
564.289	101.88
564.501	111.88
564.713	119.88
564.925	111.88
565.137	106.88
565.349	111.88
565.561	111.88
565.773	109.88
565.985	120.88
566.197	115.88
566.408	125.88
566.62	121.88
566.832	122.88
567.044	109.88
567.255	129.88
567.467	132.88
567.679	118.88
567.891	128.88
568.102	123.88
568.314	113.88
568.526	123.88
568.737	110.88
568.949	113.88
569.161	118.88
569.372	106.88
569.584	88.88
569.795	101.88
570.007	98.88
570.218	95.88
570.43	111.88
570.641	112.88
570.853	103.88
571.064	95.88
571.276	112.88
571.487	107.88
571.698	105.88
571.91	107.88
572.121	89.88
572.333	95.88
572.544	91.88
572.755	113.88
572.966	105.88
573.178	97.88
573.389	97.88
573.6	113.88
573.811	92.88
574.023	120.88
574.234	98.88
574.445	93.88
574.656	97.88
574.867	94.88
575.078	92.88
575.289	103.88
575.501	95.88
575.712	103.88
575.923	96.88
576.134	85.88
576.345	99.88
576.556	90.88
576.767	80.88
576.978	103.88
577.188	89.88
577.399	90.88
577.61	102.88
577.821	102.88
578.032	103.88
578.243	81.88
578.454	100.88
578.665	100.88
578.875	83.88
579.086	101.88
579.297	91.88
579.508	95.88
579.718	102.88
579.929	104.88
580.14	106.88
580.35	97.88
580.561	98.88
580.772	92.88
580.982	94.88
581.193	101.88
581.403	97.88
581.614	96.88
581.825	98.88
582.035	102.88
582.246	95.88
582.456	101.88
582.667	92.88
582.877	98.88
583.087	91.88
583.298	88.88
583.508	90.88
583.719	92.88
583.929	87.88
584.139	93.88
584.35	86.88
584.56	103.88
584.77	92.88
584.981	97.88
585.191	87.88
585.401	88.88
585.611	97.88
585.821	88.88
586.032	92.88
586.242	99.88
586.452	90.88
586.662	103.88
586.872	99.88
587.082	82.88
587.292	92.88
587.502	115.88
587.713	105.88
587.923	97.88
588.133	84.88
588.343	87.88
588.553	90.88
588.762	90.88
588.972	93.88
589.182	93.88
589.392	97.88
589.602	97.88
589.812	99.88
590.022	86.88
590.232	89.88
590.441	100.88
590.651	81.88
590.861	87.88
591.071	100.88
591.281	102.88
591.49	100.88
591.7	94.88
591.91	93.88
592.119	98.88
592.329	86.88
592.539	89.88
592.748	107.88
592.958	84.88
593.167	97.88
593.377	81.88
593.587	83.88
593.796	104.88
594.006	105.88
594.215	102.88
594.424	104.88
594.634	91.88
594.843	89.88
595.053	96.88
595.262	101.88
595.472	85.88
595.681	93.88
595.89	91.88
596.1	79.88
596.309	89.88
596.518	88.88
596.727	100.88
596.937	91.88
597.146	100.88
597.355	93.88
597.564	89.88
597.774	89.88
597.983	94.88
598.192	88.88
598.401	82.88
598.61	90.88
598.819	90.88
599.028	92.88
599.237	96.88
599.446	86.88
599.655	91.88
599.864	94.88
600.073	83.88
600.282	87.88
600.491	96.88
600.7	94.88
600.909	90.88
601.118	93.88
601.327	90.88
601.536	110.88
601.745	91.88
601.953	89.88
602.162	102.88
602.371	98.88
602.58	107.88
602.789	91.88
602.997	98.88
603.206	102.88
603.415	94.88
603.623	81.88
603.832	85.88
604.041	98.88
604.249	81.88
604.458	82.88
604.666	89.88
604.875	91.88
605.084	84.88
605.292	101.88
605.501	106.88
605.709	103.88
605.918	89.88
606.126	95.88
606.334	93.88
606.543	114.88
606.751	95.88
606.96	98.88
607.168	91.88
607.376	82.88
607.585	81.88
607.793	109.88
608.001	95.88
608.21	102.88
608.418	93.88
608.626	83.88
608.834	105.88
609.043	102.88
609.251	87.88
609.459	86.88
609.667	98.88
609.875	107.88
610.083	89.88
610.291	95.88
610.499	96.88
610.707	99.88
610.916	87.88
611.124	84.88
611.332	91.88
611.54	100.88
611.748	113.88
611.955	87.88
612.163	100.88
612.371	101.88
612.579	91.88
612.787	97.88
612.995	89.88
613.203	99.88
613.411	107.88
613.618	101.88
613.826	86.88
614.034	102.88
614.242	83.88
614.449	100.88
614.657	82.88
614.865	96.88
615.072	98.88
615.28	94.88
615.488	104.88
615.695	95.88
615.903	93.88
616.111	101.88
616.318	92.88
616.526	89.88
616.733	106.88
616.941	83.88
617.148	102.88
617.356	96.88
617.563	96.88
617.771	83.88
617.978	89.88
618.185	95.88
618.393	95.88
618.6	85.88
618.807	91.88
619.015	75.88
619.222	96.88
619.429	95.88
619.637	80.88
619.844	84.88
620.051	93.88
620.258	90.88
620.466	94.88
620.673	98.88
620.88	89.88
621.087	99.88
621.294	87.88
621.501	79.88
621.708	106.88
621.915	111.88
622.122	90.88
622.329	93.88
622.536	78.88
622.743	85.88
622.95	83.88
623.157	95.88
623.364	96.88
623.571	90.88
623.778	86.88
623.985	82.88
624.192	97.88
624.399	87.88
624.606	93.88
624.812	79.88
625.019	94.88
625.226	91.88
625.433	90.88
625.639	76.88
625.846	84.88
626.053	95.88
626.259	92.88
626.466	91.88
626.673	102.88
626.879	97.88
627.086	96.88
627.293	88.88
627.499	96.88
627.706	72.88
627.912	103.88
628.119	83.88
628.325	93.88
628.532	90.88
628.738	79.88
628.945	86.88
629.151	80.88
629.357	78.88
629.564	88.88
629.77	80.88
629.976	81.88
630.183	95.88
630.389	81.88
630.595	82.88
630.802	89.88
631.008	84.88
631.214	90.88
631.42	87.88
631.627	90.88
631.833	91.88
632.039	86.88
632.245	95.88
632.451	97.88
632.657	88.88
632.863	89.88
633.069	79.88
633.275	92.88
633.481	83.88
633.688	82.88
633.893	97.88
634.099	93.88
634.305	96.88
634.511	87.88
634.717	91.88
634.923	90.88
635.129	93.88
635.335	89.88
635.541	86.88
635.747	88.88
635.952	82.88
636.158	87.88
636.364	81.88
636.57	95.88
636.775	84.88
636.981	95.88
637.187	89.88
637.392	89.88
637.598	83.88
637.804	82.88
638.009	91.88
638.215	99.88
638.421	97.88
638.626	75.88
638.832	90.88
639.037	95.88
639.243	85.88
639.448	71.88
639.654	101.88
639.859	88.88
640.065	98.88
640.27	95.88
640.475	98.88
640.681	99.88
640.886	78.88
641.091	97.88
641.297	82.88
641.502	80.88
641.707	99.88
641.913	92.88
642.118	79.88
642.323	104.88
642.528	96.88
642.733	83.88
642.939	90.88
643.144	99.88
643.349	92.88
643.554	83.88
643.759	97.88
643.964	94.88
644.169	81.88
644.374	83.88
644.579	101.88
644.784	88.88
644.989	78.88
645.194	86.88
645.399	96.88
645.604	91.88
645.809	98.88
646.014	83.88
646.219	81.88
646.423	90.88
646.628	85.88
646.833	78.88
647.038	101.88
647.243	98.88
647.447	84.88
647.652	72.88
647.857	77.88
648.062	86.88
648.266	90.88
648.471	85.88
648.676	98.88
648.88	95.88
649.085	84.88
649.289	80.88
649.494	79.88
649.698	90.88
649.903	86.88
650.107	86.88
650.312	89.88
650.516	92.88
650.721	80.88
650.925	78.88
651.13	85.88
651.334	78.88
651.539	85.88
651.743	84.88
651.947	78.88
652.152	85.88
652.356	73.88
652.56	80.88
652.764	79.88
652.969	88.88
653.173	83.88
653.377	81.88
653.581	77.88
653.785	82.88
653.99	73.88
654.194	91.88
654.398	87.88
654.602	94.88
654.806	86.88
655.01	71.88
655.214	72.88
655.418	80.88
655.622	95.88
655.826	87.88
656.03	86.88
656.234	82.88
656.438	84.88
656.642	85.88
656.846	74.88
657.049	83.88
657.253	83.88
657.457	86.88
657.661	77.88
657.865	87.88
658.068	80.88
658.272	78.88
658.476	91.88
658.68	104.88
658.883	77.88
659.087	78.88
659.291	74.88
659.494	81.88
659.698	82.88
659.901	71.88
660.105	82.88
660.309	84.88
660.512	96.88
660.716	70.88
660.919	67.88
661.123	88.88
661.326	77.88
661.53	83.88
661.733	92.88
661.936	85.88
662.14	79.88
662.343	71.88
662.546	82.88
662.75	75.88
662.953	90.88
663.156	77.88
663.36	87.88
663.563	86.88
663.766	75.88
663.969	82.88
664.173	75.88
664.376	67.88
664.579	83.88
664.782	90.88
664.985	65.88
665.188	73.88
665.391	85.88
665.594	77.88
665.797	77.88
666	79.88
666.203	81.88
666.406	83.88
666.609	71.88
666.812	82.88
667.015	96.88
667.218	84.88
667.421	66.88
667.624	70.88
667.827	85.88
668.03	70.88
668.232	78.88
668.435	77.88
668.638	79.88
668.841	87.88
669.043	83.88
669.246	88.88
669.449	73.88
669.651	87.88
669.854	86.88
670.057	70.88
670.259	79.88
670.462	85.88
670.665	71.88
670.867	78.88
671.07	77.88
671.272	72.88
671.475	85.88
671.677	85.88
671.88	87.88
672.082	79.88
672.284	81.88
672.487	80.88
672.689	86.88
672.892	66.88
