Data from StandardFe(NO3)3.TAE.3%Agarose.FlatLispGreen.Lamp.Energy10.07252019_HRD10591_11-54-35-440.txt Node
Date: Thu Jul 25 11:54:35 EDT 2019
User: cochatt
Spectrometer: HR+D1059
Trigger mode: 1
Integration Time (sec): 1.000000E-1
Scans to average: 1
Electric dark correction enabled: true
Nonlinearity correction enabled: false
Boxcar width: 0
XAxis mode: Wavelengths
Number of Pixels in Spectrum: 2048
>>>>>Begin Spectral Data<<<<<
223.165	-19.12
223.4	-19.12
223.635	-19.12
223.869	-15.12
224.104	-5.12
224.338	-24.12
224.573	1.88
224.808	-22.12
225.042	3.88
225.277	-9.12
225.511	7.88
225.746	-2.12
225.98	0.88
226.215	8.88
226.449	1.88
226.683	21.88
226.918	21.88
227.152	27.88
227.387	26.88
227.621	28.88
227.856	31.88
228.09	41.88
228.324	58.88
228.559	57.88
228.793	74.88
229.027	58.88
229.262	58.88
229.496	55.88
229.73	78.88
229.964	60.88
230.199	73.88
230.433	66.88
230.667	78.88
230.901	57.88
231.136	68.88
231.37	82.88
231.604	76.88
231.838	86.88
232.072	71.88
232.306	81.88
232.541	71.88
232.775	82.88
233.009	78.88
233.243	84.88
233.477	71.88
233.711	69.88
233.945	75.88
234.179	87.88
234.413	75.88
234.647	88.88
234.881	82.88
235.115	59.88
235.349	81.88
235.583	90.88
235.817	71.88
236.051	79.88
236.285	89.88
236.519	78.88
236.753	70.88
236.987	82.88
237.221	76.88
237.455	80.88
237.689	92.88
237.922	75.88
238.156	77.88
238.39	80.88
238.624	69.88
238.858	86.88
239.091	86.88
239.325	79.88
239.559	71.88
239.793	78.88
240.027	67.88
240.26	83.88
240.494	74.88
240.728	74.88
240.961	61.88
241.195	90.88
241.429	78.88
241.662	70.88
241.896	75.88
242.13	76.88
242.363	61.88
242.597	73.88
242.83	72.88
243.064	86.88
243.298	79.88
243.531	81.88
243.765	75.88
243.998	69.88
244.232	87.88
244.465	89.88
244.699	78.88
244.932	83.88
245.166	79.88
245.399	81.88
245.633	78.88
245.866	62.88
246.099	62.88
246.333	72.88
246.566	70.88
246.8	76.88
247.033	71.88
247.266	77.88
247.5	85.88
247.733	77.88
247.966	76.88
248.2	69.88
248.433	65.88
248.666	81.88
248.899	62.88
249.133	75.88
249.366	69.88
249.599	75.88
249.832	81.88
250.066	72.88
250.299	75.88
250.532	83.88
250.765	70.88
250.998	67.88
251.231	63.88
251.465	74.88
251.698	84.88
251.931	82.88
252.164	77.88
252.397	66.88
252.63	64.88
252.863	75.88
253.096	67.88
253.329	77.88
253.562	77.88
253.795	90.88
254.028	79.88
254.261	89.88
254.494	84.88
254.727	78.88
254.96	82.88
255.193	80.88
255.426	75.88
255.659	73.88
255.892	88.88
256.124	85.88
256.357	75.88
256.59	69.88
256.823	76.88
257.056	86.88
257.289	76.88
257.521	86.88
257.754	72.88
257.987	61.88
258.22	87.88
258.452	76.88
258.685	89.88
258.918	77.88
259.151	77.88
259.383	76.88
259.616	84.88
259.849	82.88
260.081	80.88
260.314	75.88
260.547	69.88
260.779	67.88
261.012	72.88
261.244	78.88
261.477	88.88
261.71	67.88
261.942	77.88
262.175	83.88
262.407	77.88
262.64	65.88
262.872	87.88
263.105	78.88
263.337	85.88
263.57	80.88
263.802	75.88
264.035	87.88
264.267	82.88
264.499	71.88
264.732	85.88
264.964	79.88
265.197	95.88
265.429	73.88
265.661	93.88
265.894	83.88
266.126	86.88
266.358	75.88
266.591	74.88
266.823	79.88
267.055	70.88
267.287	85.88
267.52	84.88
267.752	86.88
267.984	83.88
268.216	92.88
268.448	74.88
268.681	83.88
268.913	73.88
269.145	76.88
269.377	86.88
269.609	82.88
269.841	86.88
270.073	85.88
270.306	85.88
270.538	75.88
270.77	73.88
271.002	77.88
271.234	90.88
271.466	85.88
271.698	83.88
271.93	87.88
272.162	76.88
272.394	76.88
272.626	79.88
272.858	80.88
273.09	75.88
273.322	81.88
273.553	81.88
273.785	88.88
274.017	80.88
274.249	89.88
274.481	86.88
274.713	64.88
274.945	75.88
275.176	78.88
275.408	78.88
275.64	84.88
275.872	74.88
276.104	80.88
276.335	94.88
276.567	74.88
276.799	81.88
277.031	81.88
277.262	86.88
277.494	75.88
277.726	86.88
277.957	88.88
278.189	69.88
278.421	75.88
278.652	87.88
278.884	78.88
279.115	77.88
279.347	85.88
279.579	85.88
279.81	86.88
280.042	79.88
280.273	73.88
280.505	78.88
280.736	85.88
280.968	75.88
281.199	80.88
281.431	80.88
281.662	79.88
281.894	82.88
282.125	83.88
282.356	90.88
282.588	88.88
282.819	82.88
283.051	86.88
283.282	83.88
283.513	82.88
283.745	87.88
283.976	85.88
284.207	83.88
284.439	76.88
284.67	74.88
284.901	78.88
285.132	79.88
285.364	91.88
285.595	89.88
285.826	79.88
286.057	89.88
286.288	93.88
286.52	90.88
286.751	90.88
286.982	84.88
287.213	73.88
287.444	77.88
287.675	66.88
287.906	73.88
288.138	76.88
288.369	80.88
288.6	84.88
288.831	86.88
289.062	85.88
289.293	79.88
289.524	88.88
289.755	90.88
289.986	88.88
290.217	78.88
290.448	78.88
290.679	75.88
290.91	87.88
291.141	93.88
291.371	89.88
291.602	87.88
291.833	92.88
292.064	87.88
292.295	82.88
292.526	97.88
292.757	97.88
292.987	79.88
293.218	76.88
293.449	94.88
293.68	89.88
293.91	86.88
294.141	91.88
294.372	82.88
294.603	89.88
294.833	84.88
295.064	75.88
295.295	82.88
295.525	61.88
295.756	96.88
295.987	82.88
296.217	88.88
296.448	75.88
296.679	80.88
296.909	79.88
297.14	71.88
297.37	73.88
297.601	67.88
297.831	84.88
298.062	95.88
298.292	71.88
298.523	81.88
298.753	99.88
298.984	90.88
299.214	74.88
299.445	85.88
299.675	86.88
299.905	87.88
300.136	84.88
300.366	81.88
300.597	91.88
300.827	88.88
301.057	85.88
301.288	83.88
301.518	79.88
301.748	76.88
301.979	83.88
302.209	93.88
302.439	85.88
302.669	75.88
302.9	87.88
303.13	70.88
303.36	69.88
303.59	79.88
303.82	75.88
304.051	88.88
304.281	74.88
304.511	71.88
304.741	86.88
304.971	79.88
305.201	86.88
305.431	92.88
305.661	100.88
305.891	80.88
306.121	80.88
306.352	77.88
306.582	85.88
306.812	90.88
307.042	81.88
307.272	81.88
307.502	82.88
307.731	78.88
307.961	86.88
308.191	87.88
308.421	83.88
308.651	80.88
308.881	89.88
309.111	84.88
309.341	88.88
309.571	91.88
309.8	88.88
310.03	83.88
310.26	82.88
310.49	78.88
310.72	74.88
310.949	70.88
311.179	75.88
311.409	78.88
311.639	81.88
311.868	88.88
312.098	80.88
312.328	76.88
312.557	80.88
312.787	80.88
313.017	91.88
313.246	80.88
313.476	57.88
313.706	82.88
313.935	97.88
314.165	75.88
314.394	77.88
314.624	62.88
314.853	89.88
315.083	80.88
315.312	88.88
315.542	90.88
315.771	89.88
316.001	90.88
316.23	71.88
316.46	67.88
316.689	72.88
316.919	72.88
317.148	94.88
317.377	82.88
317.607	79.88
317.836	92.88
318.065	86.88
318.295	70.88
318.524	79.88
318.753	81.88
318.983	88.88
319.212	84.88
319.441	86.88
319.67	90.88
319.9	95.88
320.129	77.88
320.358	79.88
320.587	74.88
320.816	95.88
321.046	83.88
321.275	93.88
321.504	84.88
321.733	87.88
321.962	75.88
322.191	88.88
322.42	68.88
322.649	86.88
322.878	77.88
323.108	83.88
323.337	81.88
323.566	77.88
323.795	86.88
324.024	70.88
324.253	88.88
324.482	78.88
324.71	88.88
324.939	102.88
325.168	97.88
325.397	84.88
325.626	83.88
325.855	88.88
326.084	73.88
326.313	71.88
326.542	72.88
326.77	93.88
326.999	71.88
327.228	75.88
327.457	75.88
327.686	89.88
327.914	70.88
328.143	74.88
328.372	73.88
328.6	85.88
328.829	86.88
329.058	93.88
329.287	100.88
329.515	83.88
329.744	91.88
329.972	83.88
330.201	81.88
330.43	79.88
330.658	86.88
330.887	78.88
331.115	79.88
331.344	74.88
331.572	90.88
331.801	83.88
332.03	87.88
332.258	79.88
332.486	88.88
332.715	91.88
332.943	82.88
333.172	89.88
333.4	88.88
333.629	80.88
333.857	88.88
334.085	70.88
334.314	86.88
334.542	84.88
334.771	99.88
334.999	90.88
335.227	83.88
335.455	87.88
335.684	75.88
335.912	83.88
336.14	102.88
336.369	94.88
336.597	85.88
336.825	85.88
337.053	98.88
337.281	104.88
337.51	88.88
337.738	92.88
337.966	81.88
338.194	72.88
338.422	74.88
338.65	85.88
338.878	93.88
339.106	89.88
339.334	89.88
339.562	88.88
339.79	68.88
340.018	68.88
340.246	82.88
340.474	87.88
340.702	84.88
340.93	85.88
341.158	65.88
341.386	79.88
341.614	96.88
341.842	83.88
342.07	72.88
342.298	81.88
342.526	80.88
342.754	78.88
342.981	74.88
343.209	80.88
343.437	78.88
343.665	72.88
343.893	82.88
344.12	68.88
344.348	73.88
344.576	88.88
344.804	72.88
345.031	79.88
345.259	88.88
345.487	91.88
345.714	81.88
345.942	71.88
346.17	71.88
346.397	92.88
346.625	90.88
346.853	88.88
347.08	83.88
347.308	85.88
347.535	80.88
347.763	79.88
347.99	81.88
348.218	73.88
348.445	73.88
348.673	85.88
348.9	90.88
349.128	102.88
349.355	90.88
349.583	77.88
349.81	74.88
350.037	83.88
350.265	84.88
350.492	87.88
350.72	87.88
350.947	71.88
351.174	89.88
351.402	81.88
351.629	99.88
351.856	82.88
352.083	88.88
352.311	94.88
352.538	79.88
352.765	87.88
352.992	79.88
353.22	88.88
353.447	76.88
353.674	74.88
353.901	81.88
354.128	76.88
354.355	85.88
354.583	68.88
354.81	95.88
355.037	76.88
355.264	95.88
355.491	85.88
355.718	68.88
355.945	86.88
356.172	86.88
356.399	60.88
356.626	77.88
356.853	75.88
357.08	79.88
357.307	85.88
357.534	89.88
357.761	84.88
357.988	89.88
358.215	82.88
358.441	76.88
358.668	75.88
358.895	82.88
359.122	67.88
359.349	82.88
359.576	90.88
359.802	74.88
360.029	89.88
360.256	79.88
360.483	79.88
360.709	97.88
360.936	94.88
361.163	81.88
361.39	85.88
361.616	79.88
361.843	80.88
362.07	69.88
362.296	79.88
362.523	81.88
362.749	88.88
362.976	87.88
363.203	90.88
363.429	77.88
363.656	84.88
363.882	84.88
364.109	84.88
364.335	89.88
364.562	88.88
364.788	90.88
365.015	89.88
365.241	99.88
365.468	78.88
365.694	79.88
365.92	89.88
366.147	81.88
366.373	79.88
366.599	80.88
366.826	80.88
367.052	82.88
367.278	90.88
367.505	85.88
367.731	82.88
367.957	95.88
368.184	77.88
368.41	74.88
368.636	92.88
368.862	67.88
369.089	89.88
369.315	75.88
369.541	96.88
369.767	95.88
369.993	92.88
370.219	79.88
370.445	71.88
370.672	71.88
370.898	80.88
371.124	81.88
371.35	79.88
371.576	84.88
371.802	90.88
372.028	87.88
372.254	81.88
372.48	94.88
372.706	70.88
372.932	84.88
373.158	75.88
373.384	87.88
373.61	87.88
373.835	90.88
374.061	83.88
374.287	86.88
374.513	96.88
374.739	73.88
374.965	79.88
375.191	101.88
375.416	85.88
375.642	100.88
375.868	90.88
376.094	93.88
376.319	89.88
376.545	94.88
376.771	94.88
376.997	78.88
377.222	82.88
377.448	102.88
377.674	91.88
377.899	86.88
378.125	86.88
378.35	88.88
378.576	98.88
378.802	76.88
379.027	77.88
379.253	83.88
379.478	90.88
379.704	81.88
379.929	86.88
380.155	65.88
380.38	81.88
380.606	75.88
380.831	91.88
381.057	82.88
381.282	82.88
381.507	87.88
381.733	90.88
381.958	73.88
382.184	90.88
382.409	87.88
382.634	89.88
382.86	87.88
383.085	96.88
383.31	99.88
383.535	92.88
383.761	99.88
383.986	84.88
384.211	83.88
384.436	86.88
384.662	75.88
384.887	87.88
385.112	88.88
385.337	78.88
385.562	104.88
385.787	90.88
386.013	100.88
386.238	98.88
386.463	85.88
386.688	107.88
386.913	75.88
387.138	83.88
387.363	88.88
387.588	110.88
387.813	98.88
388.038	93.88
388.263	97.88
388.488	77.88
388.713	90.88
388.938	95.88
389.163	93.88
389.387	93.88
389.612	102.88
389.837	83.88
390.062	67.88
390.287	89.88
390.512	89.88
390.736	85.88
390.961	105.88
391.186	95.88
391.411	96.88
391.636	95.88
391.86	87.88
392.085	100.88
392.31	91.88
392.534	84.88
392.759	97.88
392.984	105.88
393.208	97.88
393.433	99.88
393.658	116.88
393.882	98.88
394.107	100.88
394.331	101.88
394.556	97.88
394.78	81.88
395.005	101.88
395.229	108.88
395.454	98.88
395.678	106.88
395.903	94.88
396.127	96.88
396.352	98.88
396.576	101.88
396.801	95.88
397.025	97.88
397.249	106.88
397.474	113.88
397.698	101.88
397.922	111.88
398.147	96.88
398.371	93.88
398.595	101.88
398.82	110.88
399.044	106.88
399.268	97.88
399.492	101.88
399.717	108.88
399.941	114.88
400.165	122.88
400.389	100.88
400.613	115.88
400.837	116.88
401.062	118.88
401.286	94.88
401.51	98.88
401.734	103.88
401.958	106.88
402.182	99.88
402.406	99.88
402.63	98.88
402.854	104.88
403.078	111.88
403.302	105.88
403.526	90.88
403.75	119.88
403.974	109.88
404.198	91.88
404.422	118.88
404.645	113.88
404.869	112.88
405.093	104.88
405.317	104.88
405.541	101.88
405.765	102.88
405.988	108.88
406.212	114.88
406.436	116.88
406.66	92.88
406.883	109.88
407.107	99.88
407.331	122.88
407.555	106.88
407.778	93.88
408.002	118.88
408.226	113.88
408.449	114.88
408.673	129.88
408.896	110.88
409.12	101.88
409.344	94.88
409.567	107.88
409.791	102.88
410.014	121.88
410.238	104.88
410.461	110.88
410.685	102.88
410.908	104.88
411.132	114.88
411.355	109.88
411.578	126.88
411.802	100.88
412.025	98.88
412.249	86.88
412.472	110.88
412.695	109.88
412.919	104.88
413.142	101.88
413.365	106.88
413.589	99.88
413.812	103.88
414.035	101.88
414.258	108.88
414.482	118.88
414.705	104.88
414.928	106.88
415.151	109.88
415.374	105.88
415.597	108.88
415.821	120.88
416.044	110.88
416.267	105.88
416.49	89.88
416.713	109.88
416.936	109.88
417.159	104.88
417.382	117.88
417.605	115.88
417.828	102.88
418.051	101.88
418.274	111.88
418.497	122.88
418.72	105.88
418.943	110.88
419.166	103.88
419.389	107.88
419.611	103.88
419.834	112.88
420.057	114.88
420.28	102.88
420.503	106.88
420.726	125.88
420.948	103.88
421.171	95.88
421.394	120.88
421.617	107.88
421.839	120.88
422.062	106.88
422.285	112.88
422.507	119.88
422.73	101.88
422.953	116.88
423.175	116.88
423.398	106.88
423.621	117.88
423.843	119.88
424.066	101.88
424.288	115.88
424.511	121.88
424.733	117.88
424.956	115.88
425.178	118.88
425.401	107.88
425.623	111.88
425.846	114.88
426.068	92.88
426.291	109.88
426.513	105.88
426.735	114.88
426.958	104.88
427.18	110.88
427.402	116.88
427.625	115.88
427.847	111.88
428.069	103.88
428.292	101.88
428.514	112.88
428.736	105.88
428.958	115.88
429.181	111.88
429.403	109.88
429.625	103.88
429.847	100.88
430.069	108.88
430.292	120.88
430.514	113.88
430.736	107.88
430.958	115.88
431.18	110.88
431.402	110.88
431.624	121.88
431.846	99.88
432.068	97.88
432.29	110.88
432.512	116.88
432.734	104.88
432.956	114.88
433.178	117.88
433.4	114.88
433.622	99.88
433.844	105.88
434.066	111.88
434.287	104.88
434.509	112.88
434.731	117.88
434.953	107.88
435.175	100.88
435.397	101.88
435.618	107.88
435.84	107.88
436.062	107.88
436.284	127.88
436.505	100.88
436.727	125.88
436.949	121.88
437.17	98.88
437.392	117.88
437.614	85.88
437.835	115.88
438.057	115.88
438.278	94.88
438.5	125.88
438.721	118.88
438.943	108.88
439.165	110.88
439.386	122.88
439.608	116.88
439.829	104.88
440.05	122.88
440.272	125.88
440.493	118.88
440.715	121.88
440.936	126.88
441.158	108.88
441.379	126.88
441.6	117.88
441.822	113.88
442.043	115.88
442.264	108.88
442.486	119.88
442.707	110.88
442.928	119.88
443.149	141.88
443.371	128.88
443.592	119.88
443.813	118.88
444.034	121.88
444.255	119.88
444.476	108.88
444.698	130.88
444.919	120.88
445.14	259.88
445.361	183.88
445.582	113.88
445.803	120.88
446.024	118.88
446.245	115.88
446.466	120.88
446.687	121.88
446.908	116.88
447.129	117.88
447.35	111.88
447.571	120.88
447.792	115.88
448.013	107.88
448.234	114.88
448.455	107.88
448.675	114.88
448.896	115.88
449.117	117.88
449.338	109.88
449.559	103.88
449.779	99.88
450	126.88
450.221	129.88
450.442	118.88
450.662	114.88
450.883	121.88
451.104	121.88
451.324	105.88
451.545	102.88
451.766	119.88
451.986	111.88
452.207	106.88
452.428	104.88
452.648	119.88
452.869	116.88
453.089	108.88
453.31	105.88
453.53	101.88
453.751	87.88
453.971	90.88
454.192	114.88
454.412	95.88
454.633	97.88
454.853	104.88
455.073	107.88
455.294	95.88
455.514	112.88
455.734	114.88
455.955	113.88
456.175	124.88
456.395	107.88
456.616	100.88
456.836	112.88
457.056	93.88
457.276	103.88
457.497	96.88
457.717	95.88
457.937	98.88
458.157	105.88
458.377	95.88
458.598	125.88
458.818	109.88
459.038	101.88
459.258	90.88
459.478	87.88
459.698	109.88
459.918	103.88
460.138	105.88
460.358	93.88
460.578	102.88
460.798	119.88
461.018	120.88
461.238	121.88
461.458	125.88
461.678	110.88
461.898	121.88
462.118	113.88
462.338	113.88
462.558	106.88
462.777	113.88
462.997	109.88
463.217	115.88
463.437	137.88
463.657	126.88
463.876	119.88
464.096	123.88
464.316	111.88
464.536	127.88
464.755	135.88
464.975	114.88
465.195	117.88
465.414	114.88
465.634	117.88
465.854	104.88
466.073	102.88
466.293	113.88
466.512	111.88
466.732	123.88
466.951	114.88
467.171	97.88
467.391	112.88
467.61	111.88
467.829	122.88
468.049	125.88
468.268	113.88
468.488	121.88
468.707	101.88
468.927	99.88
469.146	106.88
469.365	116.88
469.585	106.88
469.804	111.88
470.023	119.88
470.243	122.88
470.462	122.88
470.681	125.88
470.901	127.88
471.12	109.88
471.339	120.88
471.558	123.88
471.777	119.88
471.997	123.88
472.216	117.88
472.435	110.88
472.654	98.88
472.873	102.88
473.092	109.88
473.311	106.88
473.53	119.88
473.749	114.88
473.968	112.88
474.187	105.88
474.406	128.88
474.625	96.88
474.844	121.88
475.063	121.88
475.282	110.88
475.501	104.88
475.72	114.88
475.939	111.88
476.158	113.88
476.377	120.88
476.596	119.88
476.814	114.88
477.033	100.88
477.252	95.88
477.471	114.88
477.69	111.88
477.908	131.88
478.127	121.88
478.346	122.88
478.564	115.88
478.783	131.88
479.002	118.88
479.22	117.88
479.439	109.88
479.658	117.88
479.876	124.88
480.095	112.88
480.313	113.88
480.532	133.88
480.751	129.88
480.969	113.88
481.188	105.88
481.406	123.88
481.624	108.88
481.843	122.88
482.061	111.88
482.28	112.88
482.498	118.88
482.717	116.88
482.935	129.88
483.153	137.88
483.372	122.88
483.59	133.88
483.808	135.88
484.027	122.88
484.245	136.88
484.463	127.88
484.681	143.88
484.9	122.88
485.118	125.88
485.336	133.88
485.554	128.88
485.772	109.88
485.99	111.88
486.209	120.88
486.427	113.88
486.645	122.88
486.863	122.88
487.081	126.88
487.299	125.88
487.517	142.88
487.735	149.88
487.953	159.88
488.171	136.88
488.389	143.88
488.607	129.88
488.825	135.88
489.043	133.88
489.261	133.88
489.479	122.88
489.696	133.88
489.914	143.88
490.132	134.88
490.35	131.88
490.568	148.88
490.786	145.88
491.003	152.88
491.221	150.88
491.439	140.88
491.657	157.88
491.874	155.88
492.092	171.88
492.31	150.88
492.527	168.88
492.745	161.88
492.963	158.88
493.18	145.88
493.398	148.88
493.615	147.88
493.833	143.88
494.05	139.88
494.268	151.88
494.485	151.88
494.703	163.88
494.92	148.88
495.138	141.88
495.355	153.88
495.573	161.88
495.79	147.88
496.008	139.88
496.225	145.88
496.442	154.88
496.66	150.88
496.877	138.88
497.094	136.88
497.312	163.88
497.529	131.88
497.746	149.88
497.963	124.88
498.181	140.88
498.398	136.88
498.615	130.88
498.832	142.88
499.049	144.88
499.267	146.88
499.484	151.88
499.701	185.88
499.918	189.88
500.135	187.88
500.352	224.88
500.569	211.88
500.786	219.88
501.003	213.88
501.22	200.88
501.437	181.88
501.654	167.88
501.871	161.88
502.088	160.88
502.305	152.88
502.522	144.88
502.739	134.88
502.956	129.88
503.172	149.88
503.389	149.88
503.606	130.88
503.823	141.88
504.04	123.88
504.256	138.88
504.473	148.88
504.69	153.88
504.907	138.88
505.123	121.88
505.34	128.88
505.557	128.88
505.773	141.88
505.99	117.88
506.207	139.88
506.423	128.88
506.64	134.88
506.856	116.88
507.073	114.88
507.289	133.88
507.506	121.88
507.722	134.88
507.939	127.88
508.155	130.88
508.372	119.88
508.588	111.88
508.805	126.88
509.021	113.88
509.238	120.88
509.454	104.88
509.67	123.88
509.887	115.88
510.103	117.88
510.319	126.88
510.536	129.88
510.752	114.88
510.968	109.88
511.184	110.88
511.401	108.88
511.617	104.88
511.833	98.88
512.049	116.88
512.265	118.88
512.481	106.88
512.698	115.88
512.914	117.88
513.13	108.88
513.346	113.88
513.562	104.88
513.778	97.88
513.994	99.88
514.21	105.88
514.426	96.88
514.642	111.88
514.858	114.88
515.074	123.88
515.29	112.88
515.506	119.88
515.721	99.88
515.937	115.88
516.153	107.88
516.369	121.88
516.585	120.88
516.801	120.88
517.016	128.88
517.232	121.88
517.448	122.88
517.664	117.88
517.879	123.88
518.095	119.88
518.311	124.88
518.527	102.88
518.742	130.88
518.958	111.88
519.173	123.88
519.389	128.88
519.605	122.88
519.82	121.88
520.036	115.88
520.251	121.88
520.467	118.88
520.682	119.88
520.898	100.88
521.113	104.88
521.329	115.88
521.544	112.88
521.76	127.88
521.975	121.88
522.19	114.88
522.406	104.88
522.621	114.88
522.836	121.88
523.052	111.88
523.267	117.88
523.482	112.88
523.698	111.88
523.913	116.88
524.128	126.88
524.343	117.88
524.559	135.88
524.774	132.88
524.989	124.88
525.204	122.88
525.419	118.88
525.634	116.88
525.849	104.88
526.064	117.88
526.28	111.88
526.495	126.88
526.71	119.88
526.925	107.88
527.14	121.88
527.355	99.88
527.57	106.88
527.785	119.88
527.999	122.88
528.214	123.88
528.429	112.88
528.644	115.88
528.859	102.88
529.074	141.88
529.289	145.88
529.503	138.88
529.718	123.88
529.933	118.88
530.148	104.88
530.363	115.88
530.577	120.88
530.792	115.88
531.007	97.88
531.221	111.88
531.436	115.88
531.651	117.88
531.865	110.88
532.08	105.88
532.295	109.88
532.509	103.88
532.724	106.88
532.938	110.88
533.153	114.88
533.367	102.88
533.582	133.88
533.796	107.88
534.011	109.88
534.225	97.88
534.44	103.88
534.654	104.88
534.868	118.88
535.083	119.88
535.297	114.88
535.511	125.88
535.726	122.88
535.94	85.88
536.154	110.88
536.369	104.88
536.583	115.88
536.797	104.88
537.011	93.88
537.225	107.88
537.44	113.88
537.654	115.88
537.868	103.88
538.082	109.88
538.296	124.88
538.51	115.88
538.724	122.88
538.938	114.88
539.153	115.88
539.367	112.88
539.581	120.88
539.795	92.88
540.009	109.88
540.222	118.88
540.436	82.88
540.65	96.88
540.864	121.88
541.078	117.88
541.292	118.88
541.506	137.88
541.72	131.88
541.934	138.88
542.147	141.88
542.361	136.88
542.575	128.88
542.789	118.88
543.002	115.88
543.216	113.88
543.43	133.88
543.644	133.88
543.857	135.88
544.071	105.88
544.285	125.88
544.498	133.88
544.712	120.88
544.925	133.88
545.139	128.88
545.352	132.88
545.566	138.88
545.779	131.88
545.993	129.88
546.206	137.88
546.42	157.88
546.633	122.88
546.847	119.88
547.06	135.88
547.274	122.88
547.487	145.88
547.7	130.88
547.914	121.88
548.127	129.88
548.34	121.88
548.554	114.88
548.767	134.88
548.98	133.88
549.193	124.88
549.407	128.88
549.62	141.88
549.833	128.88
550.046	136.88
550.259	133.88
550.473	127.88
550.686	133.88
550.899	116.88
551.112	125.88
551.325	129.88
551.538	116.88
551.751	121.88
551.964	118.88
552.177	130.88
552.39	125.88
552.603	119.88
552.816	125.88
553.029	129.88
553.242	131.88
553.455	131.88
553.667	135.88
553.88	140.88
554.093	127.88
554.306	131.88
554.519	131.88
554.732	116.88
554.944	119.88
555.157	115.88
555.37	123.88
555.583	127.88
555.795	130.88
556.008	129.88
556.221	115.88
556.433	113.88
556.646	125.88
556.859	116.88
557.071	126.88
557.284	133.88
557.496	120.88
557.709	119.88
557.921	122.88
558.134	127.88
558.346	119.88
558.559	121.88
558.771	126.88
558.984	115.88
559.196	130.88
559.409	121.88
559.621	114.88
559.833	109.88
560.046	109.88
560.258	124.88
560.47	109.88
560.683	116.88
560.895	110.88
561.107	126.88
561.32	107.88
561.532	96.88
561.744	110.88
561.956	125.88
562.168	115.88
562.381	124.88
562.593	120.88
562.805	108.88
563.017	113.88
563.229	109.88
563.441	112.88
563.653	105.88
563.865	117.88
564.077	104.88
564.289	107.88
564.501	111.88
564.713	95.88
564.925	104.88
565.137	109.88
565.349	116.88
565.561	111.88
565.773	116.88
565.985	99.88
566.197	102.88
566.408	119.88
566.62	109.88
566.832	110.88
567.044	123.88
567.255	126.88
567.467	127.88
567.679	114.88
567.891	138.88
568.102	113.88
568.314	120.88
568.526	102.88
568.737	103.88
568.949	107.88
569.161	114.88
569.372	107.88
569.584	98.88
569.795	102.88
570.007	101.88
570.218	97.88
570.43	100.88
570.641	104.88
570.853	101.88
571.064	96.88
571.276	102.88
571.487	99.88
571.698	90.88
571.91	101.88
572.121	88.88
572.333	90.88
572.544	79.88
572.755	93.88
572.966	99.88
573.178	100.88
573.389	101.88
573.6	95.88
573.811	100.88
574.023	99.88
574.234	88.88
574.445	100.88
574.656	94.88
574.867	103.88
575.078	98.88
575.289	104.88
575.501	102.88
575.712	105.88
575.923	104.88
576.134	93.88
576.345	77.88
576.556	94.88
576.767	96.88
576.978	100.88
577.188	100.88
577.399	94.88
577.61	99.88
577.821	102.88
578.032	101.88
578.243	90.88
578.454	97.88
578.665	89.88
578.875	100.88
579.086	93.88
579.297	87.88
579.508	95.88
579.718	95.88
579.929	82.88
580.14	87.88
580.35	88.88
580.561	91.88
580.772	102.88
580.982	98.88
581.193	97.88
581.403	96.88
581.614	91.88
581.825	101.88
582.035	103.88
582.246	92.88
582.456	99.88
582.667	104.88
582.877	100.88
583.087	89.88
583.298	96.88
583.508	109.88
583.719	98.88
583.929	90.88
584.139	91.88
584.35	88.88
584.56	99.88
584.77	109.88
584.981	106.88
585.191	96.88
585.401	90.88
585.611	83.88
585.821	100.88
586.032	98.88
586.242	83.88
586.452	82.88
586.662	89.88
586.872	97.88
587.082	95.88
587.292	85.88
587.502	88.88
587.713	81.88
587.923	98.88
588.133	95.88
588.343	104.88
588.553	94.88
588.762	108.88
588.972	98.88
589.182	95.88
589.392	103.88
589.602	96.88
589.812	89.88
590.022	106.88
590.232	101.88
590.441	91.88
590.651	98.88
590.861	94.88
591.071	95.88
591.281	95.88
591.49	90.88
591.7	85.88
591.91	96.88
592.119	95.88
592.329	104.88
592.539	104.88
592.748	103.88
592.958	100.88
593.167	100.88
593.377	91.88
593.587	102.88
593.796	106.88
594.006	101.88
594.215	97.88
594.424	101.88
594.634	107.88
594.843	87.88
595.053	101.88
595.262	100.88
595.472	103.88
595.681	104.88
595.89	98.88
596.1	101.88
596.309	97.88
596.518	90.88
596.727	82.88
596.937	89.88
597.146	97.88
597.355	82.88
597.564	86.88
597.774	96.88
597.983	93.88
598.192	77.88
598.401	87.88
598.61	90.88
598.819	90.88
599.028	86.88
599.237	88.88
599.446	84.88
599.655	97.88
599.864	94.88
600.073	93.88
600.282	85.88
600.491	98.88
600.7	96.88
600.909	104.88
601.118	94.88
601.327	94.88
601.536	83.88
601.745	103.88
601.953	98.88
602.162	97.88
602.371	75.88
602.58	93.88
602.789	93.88
602.997	109.88
603.206	96.88
603.415	109.88
603.623	85.88
603.832	111.88
604.041	97.88
604.249	79.88
604.458	92.88
604.666	90.88
604.875	84.88
605.084	96.88
605.292	97.88
605.501	99.88
605.709	87.88
605.918	117.88
606.126	91.88
606.334	92.88
606.543	101.88
606.751	90.88
606.96	108.88
607.168	102.88
607.376	96.88
607.585	87.88
607.793	113.88
608.001	96.88
608.21	105.88
608.418	90.88
608.626	98.88
608.834	97.88
609.043	112.88
609.251	100.88
609.459	95.88
609.667	100.88
609.875	96.88
610.083	96.88
610.291	110.88
610.499	91.88
610.707	90.88
610.916	113.88
611.124	97.88
611.332	101.88
611.54	95.88
611.748	94.88
611.955	99.88
612.163	88.88
612.371	97.88
612.579	96.88
612.787	106.88
612.995	95.88
613.203	102.88
613.411	93.88
613.618	89.88
613.826	103.88
614.034	95.88
614.242	102.88
614.449	91.88
614.657	104.88
614.865	95.88
615.072	104.88
615.28	85.88
615.488	96.88
615.695	87.88
615.903	86.88
616.111	93.88
616.318	96.88
616.526	90.88
616.733	93.88
616.941	90.88
617.148	83.88
617.356	95.88
617.563	91.88
617.771	74.88
617.978	88.88
618.185	91.88
618.393	103.88
618.6	97.88
618.807	85.88
619.015	101.88
619.222	69.88
619.429	82.88
619.637	107.88
619.844	89.88
620.051	87.88
620.258	97.88
620.466	101.88
620.673	94.88
620.88	90.88
621.087	97.88
621.294	85.88
621.501	89.88
621.708	89.88
621.915	83.88
622.122	90.88
622.329	96.88
622.536	78.88
622.743	90.88
622.95	84.88
623.157	93.88
623.364	108.88
623.571	101.88
623.778	87.88
623.985	87.88
624.192	88.88
624.399	87.88
624.606	110.88
624.812	82.88
625.019	95.88
625.226	90.88
625.433	94.88
625.639	86.88
625.846	87.88
626.053	86.88
626.259	100.88
626.466	94.88
626.673	85.88
626.879	89.88
627.086	98.88
627.293	78.88
627.499	94.88
627.706	84.88
627.912	91.88
628.119	71.88
628.325	89.88
628.532	86.88
628.738	84.88
628.945	85.88
629.151	77.88
629.357	73.88
629.564	83.88
629.77	89.88
629.976	89.88
630.183	94.88
630.389	93.88
630.595	95.88
630.802	96.88
631.008	102.88
631.214	94.88
631.42	94.88
631.627	83.88
631.833	74.88
632.039	77.88
632.245	89.88
632.451	89.88
632.657	97.88
632.863	93.88
633.069	95.88
633.275	81.88
633.481	83.88
633.688	89.88
633.893	91.88
634.099	94.88
634.305	103.88
634.511	89.88
634.717	92.88
634.923	88.88
635.129	87.88
635.335	80.88
635.541	77.88
635.747	93.88
635.952	87.88
636.158	75.88
636.364	83.88
636.57	99.88
636.775	80.88
636.981	88.88
637.187	102.88
637.392	93.88
637.598	83.88
637.804	89.88
638.009	81.88
638.215	83.88
638.421	90.88
638.626	90.88
638.832	85.88
639.037	88.88
639.243	88.88
639.448	98.88
639.654	91.88
639.859	93.88
640.065	85.88
640.27	88.88
640.475	94.88
640.681	88.88
640.886	84.88
641.091	79.88
641.297	108.88
641.502	96.88
641.707	88.88
641.913	83.88
642.118	92.88
642.323	87.88
642.528	89.88
642.733	85.88
642.939	88.88
643.144	97.88
643.349	77.88
643.554	96.88
643.759	85.88
643.964	81.88
644.169	98.88
644.374	83.88
644.579	88.88
644.784	85.88
644.989	79.88
645.194	89.88
645.399	83.88
645.604	80.88
645.809	83.88
646.014	80.88
646.219	81.88
646.423	75.88
646.628	84.88
646.833	79.88
647.038	85.88
647.243	78.88
647.447	77.88
647.652	94.88
647.857	78.88
648.062	82.88
648.266	84.88
648.471	81.88
648.676	91.88
648.88	94.88
649.085	89.88
649.289	64.88
649.494	74.88
649.698	93.88
649.903	85.88
650.107	106.88
650.312	88.88
650.516	85.88
650.721	96.88
650.925	76.88
651.13	83.88
651.334	93.88
651.539	86.88
651.743	90.88
651.947	91.88
652.152	95.88
652.356	89.88
652.56	82.88
652.764	87.88
652.969	75.88
653.173	95.88
653.377	88.88
653.581	80.88
653.785	88.88
653.99	90.88
654.194	86.88
654.398	93.88
654.602	84.88
654.806	86.88
655.01	89.88
655.214	77.88
655.418	59.88
655.622	81.88
655.826	83.88
656.03	88.88
656.234	87.88
656.438	93.88
656.642	94.88
656.846	81.88
657.049	85.88
657.253	85.88
657.457	87.88
657.661	79.88
657.865	76.88
658.068	79.88
658.272	79.88
658.476	74.88
658.68	81.88
658.883	86.88
659.087	73.88
659.291	93.88
659.494	72.88
659.698	78.88
659.901	91.88
660.105	78.88
660.309	71.88
660.512	71.88
660.716	77.88
660.919	77.88
661.123	82.88
661.326	70.88
661.53	80.88
661.733	73.88
661.936	88.88
662.14	80.88
662.343	93.88
662.546	86.88
662.75	79.88
662.953	86.88
663.156	72.88
663.36	93.88
663.563	102.88
663.766	84.88
663.969	62.88
664.173	67.88
664.376	73.88
664.579	71.88
664.782	80.88
664.985	84.88
665.188	83.88
665.391	81.88
665.594	79.88
665.797	90.88
666	70.88
666.203	86.88
666.406	77.88
666.609	84.88
666.812	76.88
667.015	102.88
667.218	86.88
667.421	88.88
667.624	75.88
667.827	86.88
668.03	71.88
668.232	76.88
668.435	86.88
668.638	78.88
668.841	78.88
669.043	61.88
669.246	80.88
669.449	89.88
669.651	83.88
669.854	72.88
670.057	79.88
670.259	77.88
670.462	80.88
670.665	75.88
670.867	84.88
671.07	70.88
671.272	85.88
671.475	80.88
671.677	81.88
671.88	95.88
672.082	90.88
672.284	84.88
672.487	73.88
672.689	80.88
672.892	90.88
