Data from StandardFe(NO3)3.TAE.3%Agarose.FlatLispGreen.Lamp.Energy10.07252019_HRD10591_11-54-22-439.txt Node
Date: Thu Jul 25 11:54:22 EDT 2019
User: cochatt
Spectrometer: HR+D1059
Trigger mode: 1
Integration Time (sec): 1.000000E-1
Scans to average: 1
Electric dark correction enabled: true
Nonlinearity correction enabled: false
Boxcar width: 0
XAxis mode: Wavelengths
Number of Pixels in Spectrum: 2048
>>>>>Begin Spectral Data<<<<<
223.165	-23.12
223.4	-23.12
223.635	-23.12
223.869	-26.12
224.104	-12.12
224.338	-14.12
224.573	-7.12
224.808	-14.12
225.042	-1.12
225.277	4.88
225.511	-4.12
225.746	-3.12
225.98	4.88
226.215	4.88
226.449	16.88
226.683	19.88
226.918	18.88
227.152	34.88
227.387	34.88
227.621	41.88
227.856	51.88
228.09	53.88
228.324	43.88
228.559	70.88
228.793	55.88
229.027	69.88
229.262	58.88
229.496	69.88
229.73	61.88
229.964	63.88
230.199	69.88
230.433	58.88
230.667	76.88
230.901	72.88
231.136	80.88
231.37	89.88
231.604	90.88
231.838	80.88
232.072	77.88
232.306	94.88
232.541	81.88
232.775	95.88
233.009	81.88
233.243	87.88
233.477	82.88
233.711	90.88
233.945	89.88
234.179	80.88
234.413	90.88
234.647	93.88
234.881	81.88
235.115	78.88
235.349	83.88
235.583	95.88
235.817	79.88
236.051	78.88
236.285	81.88
236.519	73.88
236.753	72.88
236.987	76.88
237.221	78.88
237.455	78.88
237.689	75.88
237.922	93.88
238.156	79.88
238.39	72.88
238.624	82.88
238.858	90.88
239.091	91.88
239.325	88.88
239.559	80.88
239.793	79.88
240.027	74.88
240.26	67.88
240.494	76.88
240.728	78.88
240.961	77.88
241.195	62.88
241.429	85.88
241.662	80.88
241.896	90.88
242.13	85.88
242.363	82.88
242.597	71.88
242.83	86.88
243.064	87.88
243.298	73.88
243.531	70.88
243.765	78.88
243.998	84.88
244.232	93.88
244.465	78.88
244.699	73.88
244.932	90.88
245.166	88.88
245.399	74.88
245.633	85.88
245.866	83.88
246.099	79.88
246.333	83.88
246.566	78.88
246.8	91.88
247.033	79.88
247.266	70.88
247.5	77.88
247.733	85.88
247.966	82.88
248.2	78.88
248.433	81.88
248.666	88.88
248.899	68.88
249.133	74.88
249.366	80.88
249.599	72.88
249.832	94.88
250.066	89.88
250.299	78.88
250.532	87.88
250.765	83.88
250.998	82.88
251.231	73.88
251.465	92.88
251.698	82.88
251.931	83.88
252.164	78.88
252.397	78.88
252.63	76.88
252.863	95.88
253.096	85.88
253.329	91.88
253.562	81.88
253.795	80.88
254.028	80.88
254.261	81.88
254.494	82.88
254.727	75.88
254.96	80.88
255.193	85.88
255.426	75.88
255.659	85.88
255.892	79.88
256.124	80.88
256.357	83.88
256.59	88.88
256.823	106.88
257.056	80.88
257.289	75.88
257.521	85.88
257.754	90.88
257.987	60.88
258.22	80.88
258.452	83.88
258.685	89.88
258.918	85.88
259.151	77.88
259.383	78.88
259.616	77.88
259.849	84.88
260.081	82.88
260.314	60.88
260.547	97.88
260.779	82.88
261.012	86.88
261.244	78.88
261.477	88.88
261.71	87.88
261.942	98.88
262.175	97.88
262.407	71.88
262.64	77.88
262.872	95.88
263.105	98.88
263.337	86.88
263.57	97.88
263.802	82.88
264.035	86.88
264.267	92.88
264.499	83.88
264.732	80.88
264.964	75.88
265.197	86.88
265.429	74.88
265.661	90.88
265.894	69.88
266.126	88.88
266.358	80.88
266.591	90.88
266.823	73.88
267.055	93.88
267.287	87.88
267.52	92.88
267.752	86.88
267.984	85.88
268.216	100.88
268.448	95.88
268.681	58.88
268.913	77.88
269.145	83.88
269.377	82.88
269.609	84.88
269.841	91.88
270.073	84.88
270.306	94.88
270.538	83.88
270.77	74.88
271.002	85.88
271.234	92.88
271.466	83.88
271.698	80.88
271.93	76.88
272.162	71.88
272.394	85.88
272.626	77.88
272.858	73.88
273.09	87.88
273.322	89.88
273.553	88.88
273.785	76.88
274.017	86.88
274.249	87.88
274.481	72.88
274.713	94.88
274.945	80.88
275.176	90.88
275.408	97.88
275.64	79.88
275.872	86.88
276.104	77.88
276.335	89.88
276.567	86.88
276.799	85.88
277.031	84.88
277.262	80.88
277.494	84.88
277.726	88.88
277.957	88.88
278.189	90.88
278.421	89.88
278.652	77.88
278.884	76.88
279.115	79.88
279.347	77.88
279.579	85.88
279.81	84.88
280.042	91.88
280.273	85.88
280.505	88.88
280.736	96.88
280.968	101.88
281.199	88.88
281.431	89.88
281.662	79.88
281.894	87.88
282.125	82.88
282.356	75.88
282.588	90.88
282.819	87.88
283.051	92.88
283.282	94.88
283.513	84.88
283.745	85.88
283.976	99.88
284.207	84.88
284.439	92.88
284.67	69.88
284.901	76.88
285.132	96.88
285.364	92.88
285.595	92.88
285.826	99.88
286.057	81.88
286.288	80.88
286.52	96.88
286.751	85.88
286.982	90.88
287.213	78.88
287.444	78.88
287.675	77.88
287.906	95.88
288.138	79.88
288.369	93.88
288.6	88.88
288.831	84.88
289.062	80.88
289.293	95.88
289.524	72.88
289.755	65.88
289.986	79.88
290.217	94.88
290.448	88.88
290.679	100.88
290.91	82.88
291.141	89.88
291.371	90.88
291.602	86.88
291.833	83.88
292.064	83.88
292.295	90.88
292.526	87.88
292.757	105.88
292.987	85.88
293.218	82.88
293.449	78.88
293.68	96.88
293.91	88.88
294.141	85.88
294.372	76.88
294.603	85.88
294.833	86.88
295.064	83.88
295.295	70.88
295.525	83.88
295.756	98.88
295.987	93.88
296.217	84.88
296.448	92.88
296.679	91.88
296.909	82.88
297.14	92.88
297.37	94.88
297.601	88.88
297.831	90.88
298.062	65.88
298.292	79.88
298.523	99.88
298.753	94.88
298.984	70.88
299.214	93.88
299.445	91.88
299.675	87.88
299.905	77.88
300.136	69.88
300.366	80.88
300.597	84.88
300.827	70.88
301.057	91.88
301.288	81.88
301.518	92.88
301.748	92.88
301.979	84.88
302.209	82.88
302.439	73.88
302.669	72.88
302.9	103.88
303.13	86.88
303.36	85.88
303.59	75.88
303.82	86.88
304.051	79.88
304.281	84.88
304.511	83.88
304.741	77.88
304.971	81.88
305.201	92.88
305.431	80.88
305.661	88.88
305.891	85.88
306.121	83.88
306.352	85.88
306.582	88.88
306.812	81.88
307.042	92.88
307.272	92.88
307.502	96.88
307.731	89.88
307.961	77.88
308.191	91.88
308.421	87.88
308.651	91.88
308.881	93.88
309.111	75.88
309.341	81.88
309.571	80.88
309.8	83.88
310.03	66.88
310.26	87.88
310.49	71.88
310.72	84.88
310.949	80.88
311.179	86.88
311.409	77.88
311.639	76.88
311.868	78.88
312.098	87.88
312.328	82.88
312.557	83.88
312.787	87.88
313.017	98.88
313.246	98.88
313.476	84.88
313.706	88.88
313.935	97.88
314.165	82.88
314.394	88.88
314.624	90.88
314.853	88.88
315.083	92.88
315.312	90.88
315.542	89.88
315.771	94.88
316.001	68.88
316.23	82.88
316.46	72.88
316.689	80.88
316.919	72.88
317.148	86.88
317.377	90.88
317.607	88.88
317.836	93.88
318.065	85.88
318.295	85.88
318.524	86.88
318.753	78.88
318.983	68.88
319.212	89.88
319.441	92.88
319.67	82.88
319.9	87.88
320.129	89.88
320.358	79.88
320.587	86.88
320.816	93.88
321.046	83.88
321.275	94.88
321.504	94.88
321.733	96.88
321.962	87.88
322.191	97.88
322.42	89.88
322.649	86.88
322.878	78.88
323.108	94.88
323.337	94.88
323.566	88.88
323.795	98.88
324.024	91.88
324.253	89.88
324.482	81.88
324.71	82.88
324.939	93.88
325.168	89.88
325.397	95.88
325.626	81.88
325.855	81.88
326.084	79.88
326.313	100.88
326.542	88.88
326.77	89.88
326.999	94.88
327.228	86.88
327.457	71.88
327.686	83.88
327.914	89.88
328.143	88.88
328.372	87.88
328.6	82.88
328.829	77.88
329.058	80.88
329.287	88.88
329.515	88.88
329.744	88.88
329.972	84.88
330.201	87.88
330.43	91.88
330.658	95.88
330.887	94.88
331.115	91.88
331.344	84.88
331.572	80.88
331.801	75.88
332.03	85.88
332.258	81.88
332.486	77.88
332.715	87.88
332.943	77.88
333.172	97.88
333.4	75.88
333.629	89.88
333.857	102.88
334.085	87.88
334.314	91.88
334.542	76.88
334.771	78.88
334.999	89.88
335.227	78.88
335.455	72.88
335.684	91.88
335.912	90.88
336.14	90.88
336.369	88.88
336.597	84.88
336.825	87.88
337.053	91.88
337.281	88.88
337.51	93.88
337.738	87.88
337.966	89.88
338.194	80.88
338.422	60.88
338.65	80.88
338.878	90.88
339.106	87.88
339.334	83.88
339.562	79.88
339.79	80.88
340.018	89.88
340.246	86.88
340.474	79.88
340.702	91.88
340.93	81.88
341.158	93.88
341.386	87.88
341.614	85.88
341.842	87.88
342.07	78.88
342.298	84.88
342.526	71.88
342.754	82.88
342.981	64.88
343.209	91.88
343.437	90.88
343.665	76.88
343.893	92.88
344.12	99.88
344.348	100.88
344.576	86.88
344.804	86.88
345.031	78.88
345.259	86.88
345.487	87.88
345.714	82.88
345.942	95.88
346.17	78.88
346.397	71.88
346.625	97.88
346.853	93.88
347.08	99.88
347.308	100.88
347.535	96.88
347.763	89.88
347.99	77.88
348.218	78.88
348.445	88.88
348.673	88.88
348.9	81.88
349.128	76.88
349.355	78.88
349.583	80.88
349.81	98.88
350.037	96.88
350.265	78.88
350.492	86.88
350.72	84.88
350.947	85.88
351.174	84.88
351.402	73.88
351.629	98.88
351.856	92.88
352.083	91.88
352.311	98.88
352.538	91.88
352.765	92.88
352.992	98.88
353.22	93.88
353.447	88.88
353.674	92.88
353.901	87.88
354.128	91.88
354.355	75.88
354.583	87.88
354.81	92.88
355.037	93.88
355.264	91.88
355.491	78.88
355.718	73.88
355.945	87.88
356.172	82.88
356.399	91.88
356.626	82.88
356.853	88.88
357.08	91.88
357.307	103.88
357.534	91.88
357.761	100.88
357.988	84.88
358.215	83.88
358.441	86.88
358.668	84.88
358.895	95.88
359.122	83.88
359.349	93.88
359.576	83.88
359.802	92.88
360.029	84.88
360.256	81.88
360.483	81.88
360.709	74.88
360.936	102.88
361.163	94.88
361.39	89.88
361.616	102.88
361.843	63.88
362.07	76.88
362.296	93.88
362.523	74.88
362.749	90.88
362.976	77.88
363.203	87.88
363.429	86.88
363.656	91.88
363.882	89.88
364.109	89.88
364.335	90.88
364.562	68.88
364.788	69.88
365.015	89.88
365.241	92.88
365.468	83.88
365.694	81.88
365.92	87.88
366.147	94.88
366.373	80.88
366.599	80.88
366.826	82.88
367.052	75.88
367.278	76.88
367.505	82.88
367.731	94.88
367.957	75.88
368.184	102.88
368.41	88.88
368.636	100.88
368.862	89.88
369.089	107.88
369.315	84.88
369.541	99.88
369.767	95.88
369.993	73.88
370.219	91.88
370.445	85.88
370.672	83.88
370.898	90.88
371.124	91.88
371.35	95.88
371.576	76.88
371.802	89.88
372.028	91.88
372.254	86.88
372.48	97.88
372.706	82.88
372.932	77.88
373.158	86.88
373.384	96.88
373.61	92.88
373.835	96.88
374.061	81.88
374.287	94.88
374.513	87.88
374.739	91.88
374.965	80.88
375.191	80.88
375.416	91.88
375.642	78.88
375.868	90.88
376.094	91.88
376.319	89.88
376.545	97.88
376.771	96.88
376.997	95.88
377.222	98.88
377.448	96.88
377.674	99.88
377.899	87.88
378.125	83.88
378.35	84.88
378.576	88.88
378.802	94.88
379.027	82.88
379.253	99.88
379.478	91.88
379.704	95.88
379.929	86.88
380.155	81.88
380.38	94.88
380.606	85.88
380.831	93.88
381.057	92.88
381.282	91.88
381.507	102.88
381.733	92.88
381.958	97.88
382.184	91.88
382.409	80.88
382.634	94.88
382.86	88.88
383.085	101.88
383.31	89.88
383.535	91.88
383.761	104.88
383.986	86.88
384.211	93.88
384.436	86.88
384.662	110.88
384.887	96.88
385.112	98.88
385.337	86.88
385.562	106.88
385.787	96.88
386.013	114.88
386.238	105.88
386.463	87.88
386.688	94.88
386.913	90.88
387.138	84.88
387.363	105.88
387.588	110.88
387.813	85.88
388.038	107.88
388.263	95.88
388.488	87.88
388.713	112.88
388.938	101.88
389.163	87.88
389.387	87.88
389.612	91.88
389.837	95.88
390.062	90.88
390.287	103.88
390.512	108.88
390.736	99.88
390.961	92.88
391.186	99.88
391.411	111.88
391.636	96.88
391.86	105.88
392.085	96.88
392.31	94.88
392.534	91.88
392.759	102.88
392.984	96.88
393.208	113.88
393.433	102.88
393.658	92.88
393.882	103.88
394.107	104.88
394.331	109.88
394.556	86.88
394.78	94.88
395.005	98.88
395.229	107.88
395.454	95.88
395.678	94.88
395.903	91.88
396.127	90.88
396.352	99.88
396.576	102.88
396.801	103.88
397.025	102.88
397.249	102.88
397.474	102.88
397.698	101.88
397.922	102.88
398.147	110.88
398.371	105.88
398.595	97.88
398.82	97.88
399.044	107.88
399.268	104.88
399.492	98.88
399.717	108.88
399.941	108.88
400.165	105.88
400.389	99.88
400.613	115.88
400.837	101.88
401.062	93.88
401.286	105.88
401.51	101.88
401.734	104.88
401.958	107.88
402.182	109.88
402.406	100.88
402.63	93.88
402.854	113.88
403.078	126.88
403.302	116.88
403.526	114.88
403.75	112.88
403.974	114.88
404.198	122.88
404.422	111.88
404.645	95.88
404.869	86.88
405.093	107.88
405.317	106.88
405.541	105.88
405.765	116.88
405.988	108.88
406.212	102.88
406.436	94.88
406.66	110.88
406.883	112.88
407.107	112.88
407.331	114.88
407.555	117.88
407.778	112.88
408.002	126.88
408.226	114.88
408.449	116.88
408.673	109.88
408.896	112.88
409.12	122.88
409.344	109.88
409.567	109.88
409.791	122.88
410.014	111.88
410.238	115.88
410.461	117.88
410.685	117.88
410.908	85.88
411.132	107.88
411.355	122.88
411.578	119.88
411.802	120.88
412.025	115.88
412.249	132.88
412.472	119.88
412.695	103.88
412.919	115.88
413.142	98.88
413.365	104.88
413.589	106.88
413.812	114.88
414.035	110.88
414.258	114.88
414.482	107.88
414.705	98.88
414.928	114.88
415.151	106.88
415.374	115.88
415.597	124.88
415.821	119.88
416.044	111.88
416.267	112.88
416.49	118.88
416.713	114.88
416.936	107.88
417.159	108.88
417.382	104.88
417.605	105.88
417.828	99.88
418.051	100.88
418.274	116.88
418.497	126.88
418.72	101.88
418.943	130.88
419.166	126.88
419.389	120.88
419.611	110.88
419.834	123.88
420.057	118.88
420.28	121.88
420.503	106.88
420.726	117.88
420.948	116.88
421.171	110.88
421.394	103.88
421.617	103.88
421.839	118.88
422.062	117.88
422.285	119.88
422.507	107.88
422.73	117.88
422.953	122.88
423.175	114.88
423.398	110.88
423.621	115.88
423.843	118.88
424.066	120.88
424.288	115.88
424.511	125.88
424.733	95.88
424.956	120.88
425.178	114.88
425.401	107.88
425.623	116.88
425.846	111.88
426.068	111.88
426.291	114.88
426.513	106.88
426.735	121.88
426.958	125.88
427.18	123.88
427.402	121.88
427.625	119.88
427.847	102.88
428.069	114.88
428.292	120.88
428.514	106.88
428.736	108.88
428.958	115.88
429.181	110.88
429.403	117.88
429.625	113.88
429.847	111.88
430.069	116.88
430.292	109.88
430.514	112.88
430.736	134.88
430.958	116.88
431.18	114.88
431.402	109.88
431.624	110.88
431.846	118.88
432.068	109.88
432.29	100.88
432.512	101.88
432.734	115.88
432.956	126.88
433.178	119.88
433.4	110.88
433.622	114.88
433.844	119.88
434.066	112.88
434.287	102.88
434.509	107.88
434.731	116.88
434.953	118.88
435.175	124.88
435.397	109.88
435.618	95.88
435.84	120.88
436.062	107.88
436.284	99.88
436.505	110.88
436.727	124.88
436.949	114.88
437.17	122.88
437.392	107.88
437.614	118.88
437.835	103.88
438.057	106.88
438.278	103.88
438.5	105.88
438.721	113.88
438.943	108.88
439.165	124.88
439.386	110.88
439.608	128.88
439.829	119.88
440.05	124.88
440.272	110.88
440.493	118.88
440.715	116.88
440.936	118.88
441.158	112.88
441.379	115.88
441.6	128.88
441.822	128.88
442.043	136.88
442.264	107.88
442.486	123.88
442.707	104.88
442.928	120.88
443.149	124.88
443.371	117.88
443.592	127.88
443.813	130.88
444.034	130.88
444.255	117.88
444.476	110.88
444.698	110.88
444.919	129.88
445.14	242.88
445.361	159.88
445.582	111.88
445.803	120.88
446.024	125.88
446.245	130.88
446.466	126.88
446.687	116.88
446.908	116.88
447.129	126.88
447.35	118.88
447.571	115.88
447.792	115.88
448.013	125.88
448.234	108.88
448.455	122.88
448.675	104.88
448.896	118.88
449.117	132.88
449.338	101.88
449.559	98.88
449.779	110.88
450	118.88
450.221	119.88
450.442	106.88
450.662	110.88
450.883	125.88
451.104	115.88
451.324	110.88
451.545	114.88
451.766	114.88
451.986	107.88
452.207	118.88
452.428	122.88
452.648	119.88
452.869	106.88
453.089	118.88
453.31	108.88
453.53	100.88
453.751	112.88
453.971	96.88
454.192	111.88
454.412	108.88
454.633	119.88
454.853	124.88
455.073	123.88
455.294	101.88
455.514	106.88
455.734	123.88
455.955	121.88
456.175	106.88
456.395	116.88
456.616	114.88
456.836	111.88
457.056	109.88
457.276	92.88
457.497	118.88
457.717	102.88
457.937	112.88
458.157	103.88
458.377	111.88
458.598	105.88
458.818	112.88
459.038	100.88
459.258	101.88
459.478	96.88
459.698	108.88
459.918	114.88
460.138	114.88
460.358	131.88
460.578	116.88
460.798	98.88
461.018	112.88
461.238	116.88
461.458	120.88
461.678	117.88
461.898	117.88
462.118	103.88
462.338	119.88
462.558	122.88
462.777	123.88
462.997	124.88
463.217	119.88
463.437	122.88
463.657	123.88
463.876	124.88
464.096	102.88
464.316	120.88
464.536	134.88
464.755	121.88
464.975	117.88
465.195	125.88
465.414	114.88
465.634	104.88
465.854	102.88
466.073	104.88
466.293	110.88
466.512	123.88
466.732	106.88
466.951	112.88
467.171	123.88
467.391	121.88
467.61	106.88
467.829	107.88
468.049	106.88
468.268	107.88
468.488	108.88
468.707	122.88
468.927	132.88
469.146	122.88
469.365	132.88
469.585	123.88
469.804	136.88
470.023	112.88
470.243	122.88
470.462	126.88
470.681	109.88
470.901	122.88
471.12	120.88
471.339	120.88
471.558	117.88
471.777	119.88
471.997	123.88
472.216	112.88
472.435	112.88
472.654	105.88
472.873	114.88
473.092	98.88
473.311	106.88
473.53	96.88
473.749	119.88
473.968	117.88
474.187	117.88
474.406	121.88
474.625	114.88
474.844	122.88
475.063	110.88
475.282	120.88
475.501	108.88
475.72	116.88
475.939	109.88
476.158	118.88
476.377	126.88
476.596	102.88
476.814	107.88
477.033	110.88
477.252	116.88
477.471	112.88
477.69	140.88
477.908	138.88
478.127	112.88
478.346	120.88
478.564	134.88
478.783	120.88
479.002	121.88
479.22	126.88
479.439	119.88
479.658	115.88
479.876	117.88
480.095	114.88
480.313	130.88
480.532	136.88
480.751	125.88
480.969	119.88
481.188	126.88
481.406	110.88
481.624	107.88
481.843	110.88
482.061	101.88
482.28	101.88
482.498	115.88
482.717	126.88
482.935	112.88
483.153	125.88
483.372	136.88
483.59	127.88
483.808	129.88
484.027	112.88
484.245	128.88
484.463	124.88
484.681	130.88
484.9	116.88
485.118	111.88
485.336	114.88
485.554	122.88
485.772	124.88
485.99	110.88
486.209	116.88
486.427	111.88
486.645	108.88
486.863	126.88
487.081	133.88
487.299	122.88
487.517	112.88
487.735	130.88
487.953	146.88
488.171	129.88
488.389	129.88
488.607	145.88
488.825	135.88
489.043	121.88
489.261	128.88
489.479	129.88
489.696	128.88
489.914	137.88
490.132	134.88
490.35	127.88
490.568	143.88
490.786	137.88
491.003	152.88
491.221	144.88
491.439	150.88
491.657	151.88
491.874	169.88
492.092	157.88
492.31	169.88
492.527	174.88
492.745	149.88
492.963	156.88
493.18	155.88
493.398	143.88
493.615	146.88
493.833	158.88
494.05	141.88
494.268	152.88
494.485	159.88
494.703	136.88
494.92	153.88
495.138	128.88
495.355	149.88
495.573	152.88
495.79	154.88
496.008	149.88
496.225	142.88
496.442	138.88
496.66	148.88
496.877	147.88
497.094	154.88
497.312	145.88
497.529	144.88
497.746	150.88
497.963	139.88
498.181	132.88
498.398	149.88
498.615	142.88
498.832	145.88
499.049	138.88
499.267	144.88
499.484	165.88
499.701	155.88
499.918	183.88
500.135	192.88
500.352	213.88
500.569	209.88
500.786	214.88
501.003	202.88
501.22	187.88
501.437	175.88
501.654	163.88
501.871	169.88
502.088	151.88
502.305	142.88
502.522	133.88
502.739	136.88
502.956	145.88
503.172	141.88
503.389	141.88
503.606	147.88
503.823	123.88
504.04	122.88
504.256	143.88
504.473	142.88
504.69	121.88
504.907	130.88
505.123	134.88
505.34	118.88
505.557	128.88
505.773	129.88
505.99	122.88
506.207	131.88
506.423	124.88
506.64	135.88
506.856	124.88
507.073	123.88
507.289	123.88
507.506	122.88
507.722	128.88
507.939	117.88
508.155	147.88
508.372	114.88
508.588	133.88
508.805	116.88
509.021	107.88
509.238	106.88
509.454	112.88
509.67	112.88
509.887	120.88
510.103	121.88
510.319	111.88
510.536	121.88
510.752	112.88
510.968	108.88
511.184	94.88
511.401	117.88
511.617	106.88
511.833	126.88
512.049	107.88
512.265	109.88
512.481	103.88
512.698	130.88
512.914	108.88
513.13	119.88
513.346	124.88
513.562	116.88
513.778	116.88
513.994	119.88
514.21	111.88
514.426	122.88
514.642	120.88
514.858	108.88
515.074	121.88
515.29	123.88
515.506	116.88
515.721	119.88
515.937	124.88
516.153	131.88
516.369	111.88
516.585	126.88
516.801	122.88
517.016	120.88
517.232	131.88
517.448	120.88
517.664	129.88
517.879	124.88
518.095	122.88
518.311	118.88
518.527	127.88
518.742	110.88
518.958	132.88
519.173	108.88
519.389	112.88
519.605	111.88
519.82	130.88
520.036	136.88
520.251	131.88
520.467	116.88
520.682	122.88
520.898	117.88
521.113	120.88
521.329	107.88
521.544	112.88
521.76	108.88
521.975	118.88
522.19	120.88
522.406	121.88
522.621	110.88
522.836	112.88
523.052	127.88
523.267	125.88
523.482	122.88
523.698	112.88
523.913	116.88
524.128	118.88
524.343	130.88
524.559	121.88
524.774	106.88
524.989	132.88
525.204	128.88
525.419	128.88
525.634	117.88
525.849	115.88
526.064	116.88
526.28	116.88
526.495	106.88
526.71	103.88
526.925	118.88
527.14	118.88
527.355	112.88
527.57	106.88
527.785	118.88
527.999	117.88
528.214	123.88
528.429	122.88
528.644	119.88
528.859	127.88
529.074	124.88
529.289	121.88
529.503	126.88
529.718	130.88
529.933	98.88
530.148	119.88
530.363	105.88
530.577	119.88
530.792	109.88
531.007	103.88
531.221	114.88
531.436	122.88
531.651	108.88
531.865	103.88
532.08	98.88
532.295	127.88
532.509	102.88
532.724	104.88
532.938	108.88
533.153	121.88
533.367	94.88
533.582	135.88
533.796	125.88
534.011	105.88
534.225	95.88
534.44	97.88
534.654	124.88
534.868	101.88
535.083	125.88
535.297	119.88
535.511	121.88
535.726	129.88
535.94	112.88
536.154	106.88
536.369	101.88
536.583	94.88
536.797	121.88
537.011	122.88
537.225	111.88
537.44	89.88
537.654	114.88
537.868	116.88
538.082	123.88
538.296	114.88
538.51	120.88
538.724	123.88
538.938	122.88
539.153	116.88
539.367	135.88
539.581	122.88
539.795	125.88
540.009	107.88
540.222	114.88
540.436	107.88
540.65	109.88
540.864	115.88
541.078	113.88
541.292	141.88
541.506	134.88
541.72	142.88
541.934	149.88
542.147	134.88
542.361	136.88
542.575	127.88
542.789	124.88
543.002	126.88
543.216	110.88
543.43	119.88
543.644	128.88
543.857	132.88
544.071	127.88
544.285	122.88
544.498	125.88
544.712	131.88
544.925	138.88
545.139	143.88
545.352	138.88
545.566	146.88
545.779	126.88
545.993	138.88
546.206	126.88
546.42	134.88
546.633	132.88
546.847	136.88
547.06	131.88
547.274	125.88
547.487	138.88
547.7	129.88
547.914	146.88
548.127	135.88
548.34	137.88
548.554	140.88
548.767	140.88
548.98	130.88
549.193	127.88
549.407	129.88
549.62	130.88
549.833	134.88
550.046	130.88
550.259	132.88
550.473	131.88
550.686	129.88
550.899	127.88
551.112	125.88
551.325	138.88
551.538	132.88
551.751	120.88
551.964	114.88
552.177	118.88
552.39	120.88
552.603	150.88
552.816	126.88
553.029	143.88
553.242	136.88
553.455	144.88
553.667	141.88
553.88	132.88
554.093	135.88
554.306	138.88
554.519	132.88
554.732	123.88
554.944	118.88
555.157	120.88
555.37	131.88
555.583	132.88
555.795	121.88
556.008	119.88
556.221	114.88
556.433	114.88
556.646	137.88
556.859	118.88
557.071	125.88
557.284	111.88
557.496	134.88
557.709	126.88
557.921	131.88
558.134	120.88
558.346	126.88
558.559	124.88
558.771	122.88
558.984	116.88
559.196	117.88
559.409	121.88
559.621	124.88
559.833	116.88
560.046	108.88
560.258	104.88
560.47	106.88
560.683	110.88
560.895	109.88
561.107	122.88
561.32	123.88
561.532	131.88
561.744	111.88
561.956	109.88
562.168	107.88
562.381	128.88
562.593	108.88
562.805	112.88
563.017	107.88
563.229	96.88
563.441	116.88
563.653	118.88
563.865	119.88
564.077	120.88
564.289	120.88
564.501	100.88
564.713	119.88
564.925	110.88
565.137	103.88
565.349	110.88
565.561	133.88
565.773	103.88
565.985	123.88
566.197	124.88
566.408	116.88
566.62	124.88
566.832	126.88
567.044	139.88
567.255	144.88
567.467	127.88
567.679	112.88
567.891	122.88
568.102	136.88
568.314	131.88
568.526	125.88
568.737	122.88
568.949	111.88
569.161	100.88
569.372	104.88
569.584	110.88
569.795	108.88
570.007	92.88
570.218	107.88
570.43	125.88
570.641	105.88
570.853	101.88
571.064	101.88
571.276	112.88
571.487	104.88
571.698	105.88
571.91	107.88
572.121	101.88
572.333	106.88
572.544	94.88
572.755	97.88
572.966	92.88
573.178	105.88
573.389	108.88
573.6	119.88
573.811	99.88
574.023	106.88
574.234	100.88
574.445	92.88
574.656	84.88
574.867	103.88
575.078	95.88
575.289	99.88
575.501	98.88
575.712	102.88
575.923	101.88
576.134	103.88
576.345	99.88
576.556	96.88
576.767	107.88
576.978	99.88
577.188	95.88
577.399	97.88
577.61	102.88
577.821	100.88
578.032	105.88
578.243	108.88
578.454	87.88
578.665	103.88
578.875	96.88
579.086	103.88
579.297	105.88
579.508	101.88
579.718	107.88
579.929	102.88
580.14	114.88
580.35	98.88
580.561	83.88
580.772	92.88
580.982	95.88
581.193	106.88
581.403	105.88
581.614	91.88
581.825	96.88
582.035	111.88
582.246	90.88
582.456	106.88
582.667	92.88
582.877	100.88
583.087	102.88
583.298	98.88
583.508	101.88
583.719	90.88
583.929	103.88
584.139	100.88
584.35	105.88
584.56	119.88
584.77	104.88
584.981	84.88
585.191	100.88
585.401	96.88
585.611	91.88
585.821	101.88
586.032	92.88
586.242	94.88
586.452	91.88
586.662	91.88
586.872	94.88
587.082	112.88
587.292	111.88
587.502	97.88
587.713	92.88
587.923	87.88
588.133	98.88
588.343	104.88
588.553	102.88
588.762	87.88
588.972	87.88
589.182	89.88
589.392	85.88
589.602	105.88
589.812	94.88
590.022	104.88
590.232	95.88
590.441	91.88
590.651	97.88
590.861	106.88
591.071	95.88
591.281	103.88
591.49	94.88
591.7	97.88
591.91	99.88
592.119	84.88
592.329	89.88
592.539	93.88
592.748	96.88
592.958	97.88
593.167	106.88
593.377	105.88
593.587	89.88
593.796	92.88
594.006	106.88
594.215	107.88
594.424	105.88
594.634	103.88
594.843	105.88
595.053	85.88
595.262	110.88
595.472	93.88
595.681	92.88
595.89	112.88
596.1	102.88
596.309	101.88
596.518	77.88
596.727	93.88
596.937	94.88
597.146	103.88
597.355	95.88
597.564	88.88
597.774	98.88
597.983	86.88
598.192	94.88
598.401	79.88
598.61	96.88
598.819	83.88
599.028	93.88
599.237	97.88
599.446	82.88
599.655	105.88
599.864	93.88
600.073	96.88
600.282	109.88
600.491	101.88
600.7	88.88
600.909	107.88
601.118	98.88
601.327	90.88
601.536	87.88
601.745	100.88
601.953	94.88
602.162	101.88
602.371	96.88
602.58	86.88
602.789	92.88
602.997	85.88
603.206	98.88
603.415	93.88
603.623	104.88
603.832	98.88
604.041	87.88
604.249	111.88
604.458	83.88
604.666	98.88
604.875	97.88
605.084	117.88
605.292	85.88
605.501	109.88
605.709	111.88
605.918	103.88
606.126	101.88
606.334	85.88
606.543	107.88
606.751	89.88
606.96	91.88
607.168	106.88
607.376	99.88
607.585	93.88
607.793	93.88
608.001	94.88
608.21	97.88
608.418	99.88
608.626	89.88
608.834	85.88
609.043	92.88
609.251	102.88
609.459	96.88
609.667	117.88
609.875	102.88
610.083	95.88
610.291	88.88
610.499	99.88
610.707	85.88
610.916	94.88
611.124	102.88
611.332	113.88
611.54	103.88
611.748	98.88
611.955	94.88
612.163	90.88
612.371	105.88
612.579	90.88
612.787	98.88
612.995	110.88
613.203	95.88
613.411	104.88
613.618	99.88
613.826	99.88
614.034	102.88
614.242	105.88
614.449	98.88
614.657	99.88
614.865	106.88
615.072	90.88
615.28	78.88
615.488	88.88
615.695	89.88
615.903	104.88
616.111	92.88
616.318	109.88
616.526	100.88
616.733	94.88
616.941	99.88
617.148	99.88
617.356	90.88
617.563	108.88
617.771	86.88
617.978	106.88
618.185	95.88
618.393	93.88
618.6	83.88
618.807	88.88
619.015	84.88
619.222	105.88
619.429	89.88
619.637	90.88
619.844	106.88
620.051	101.88
620.258	98.88
620.466	96.88
620.673	94.88
620.88	96.88
621.087	99.88
621.294	104.88
621.501	98.88
621.708	103.88
621.915	83.88
622.122	91.88
622.329	95.88
622.536	99.88
622.743	87.88
622.95	84.88
623.157	98.88
623.364	90.88
623.571	95.88
623.778	104.88
623.985	109.88
624.192	91.88
624.399	88.88
624.606	90.88
624.812	93.88
625.019	86.88
625.226	93.88
625.433	93.88
625.639	93.88
625.846	101.88
626.053	94.88
626.259	93.88
626.466	88.88
626.673	99.88
626.879	97.88
627.086	91.88
627.293	90.88
627.499	96.88
627.706	95.88
627.912	91.88
628.119	84.88
628.325	95.88
628.532	83.88
628.738	104.88
628.945	104.88
629.151	96.88
629.357	101.88
629.564	90.88
629.77	87.88
629.976	89.88
630.183	80.88
630.389	103.88
630.595	98.88
630.802	105.88
631.008	90.88
631.214	92.88
631.42	103.88
631.627	86.88
631.833	102.88
632.039	94.88
632.245	86.88
632.451	98.88
632.657	87.88
632.863	94.88
633.069	98.88
633.275	91.88
633.481	89.88
633.688	107.88
633.893	95.88
634.099	91.88
634.305	82.88
634.511	103.88
634.717	94.88
634.923	84.88
635.129	95.88
635.335	98.88
635.541	77.88
635.747	94.88
635.952	87.88
636.158	96.88
636.364	112.88
636.57	78.88
636.775	85.88
636.981	100.88
637.187	92.88
637.392	98.88
637.598	97.88
637.804	78.88
638.009	99.88
638.215	90.88
638.421	87.88
638.626	87.88
638.832	99.88
639.037	87.88
639.243	82.88
639.448	94.88
639.654	95.88
639.859	102.88
640.065	99.88
640.27	106.88
640.475	79.88
640.681	87.88
640.886	90.88
641.091	89.88
641.297	88.88
641.502	90.88
641.707	93.88
641.913	92.88
642.118	78.88
642.323	96.88
642.528	88.88
642.733	82.88
642.939	81.88
643.144	93.88
643.349	100.88
643.554	87.88
643.759	101.88
643.964	87.88
644.169	95.88
644.374	90.88
644.579	89.88
644.784	108.88
644.989	96.88
645.194	83.88
645.399	93.88
645.604	80.88
645.809	94.88
646.014	92.88
646.219	82.88
646.423	77.88
646.628	93.88
646.833	99.88
647.038	99.88
647.243	82.88
647.447	98.88
647.652	92.88
647.857	84.88
648.062	99.88
648.266	84.88
648.471	87.88
648.676	88.88
648.88	85.88
649.085	89.88
649.289	94.88
649.494	84.88
649.698	94.88
649.903	86.88
650.107	84.88
650.312	92.88
650.516	103.88
650.721	93.88
650.925	103.88
651.13	91.88
651.334	90.88
651.539	87.88
651.743	85.88
651.947	94.88
652.152	95.88
652.356	87.88
652.56	81.88
652.764	92.88
652.969	95.88
653.173	93.88
653.377	82.88
653.581	92.88
653.785	87.88
653.99	76.88
654.194	86.88
654.398	79.88
654.602	91.88
654.806	72.88
655.01	89.88
655.214	90.88
655.418	98.88
655.622	83.88
655.826	91.88
656.03	87.88
656.234	71.88
656.438	76.88
656.642	81.88
656.846	80.88
657.049	96.88
657.253	86.88
657.457	90.88
657.661	89.88
657.865	89.88
658.068	102.88
658.272	91.88
658.476	86.88
658.68	90.88
658.883	88.88
659.087	92.88
659.291	96.88
659.494	84.88
659.698	95.88
659.901	85.88
660.105	77.88
660.309	92.88
660.512	81.88
660.716	93.88
660.919	80.88
661.123	88.88
661.326	74.88
661.53	83.88
661.733	84.88
661.936	84.88
662.14	95.88
662.343	73.88
662.546	73.88
662.75	82.88
662.953	105.88
663.156	76.88
663.36	90.88
663.563	78.88
663.766	85.88
663.969	88.88
664.173	78.88
664.376	92.88
664.579	89.88
664.782	79.88
664.985	88.88
665.188	85.88
665.391	84.88
665.594	84.88
665.797	99.88
666	84.88
666.203	83.88
666.406	78.88
666.609	80.88
666.812	95.88
667.015	77.88
667.218	87.88
667.421	81.88
667.624	74.88
667.827	79.88
668.03	86.88
668.232	92.88
668.435	86.88
668.638	88.88
668.841	72.88
669.043	79.88
669.246	89.88
669.449	97.88
669.651	84.88
669.854	78.88
670.057	67.88
670.259	92.88
670.462	84.88
670.665	76.88
670.867	85.88
671.07	80.88
671.272	70.88
671.475	87.88
671.677	80.88
671.88	87.88
672.082	78.88
672.284	92.88
672.487	70.88
672.689	91.88
672.892	84.88
