Data from StandardFe(NO3)3.TAE.3%Agarose.FlatLispGreen.Lamp.Energy10.07252019_HRD10591_11-56-05-442.txt Node
Date: Thu Jul 25 11:56:05 EDT 2019
User: cochatt
Spectrometer: HR+D1059
Trigger mode: 1
Integration Time (sec): 1.000000E-1
Scans to average: 1
Electric dark correction enabled: true
Nonlinearity correction enabled: false
Boxcar width: 0
XAxis mode: Wavelengths
Number of Pixels in Spectrum: 2048
>>>>>Begin Spectral Data<<<<<
223.165	-18.31
223.4	-18.31
223.635	-18.31
223.869	-26.31
224.104	-10.31
224.338	2.69
224.573	-18.31
224.808	-17.31
225.042	-1.31
225.277	-4.31
225.511	-15.31
225.746	-19.31
225.98	9.69
226.215	0.69
226.449	26.69
226.683	26.69
226.918	38.69
227.152	25.69
227.387	36.69
227.621	40.69
227.856	32.69
228.09	47.69
228.324	32.69
228.559	58.69
228.793	71.69
229.027	65.69
229.262	66.69
229.496	72.69
229.73	73.69
229.964	69.69
230.199	80.69
230.433	72.69
230.667	77.69
230.901	84.69
231.136	76.69
231.37	74.69
231.604	85.69
231.838	83.69
232.072	74.69
232.306	83.69
232.541	78.69
232.775	84.69
233.009	89.69
233.243	91.69
233.477	97.69
233.711	76.69
233.945	83.69
234.179	84.69
234.413	89.69
234.647	82.69
234.881	73.69
235.115	78.69
235.349	85.69
235.583	82.69
235.817	88.69
236.051	77.69
236.285	86.69
236.519	85.69
236.753	71.69
236.987	78.69
237.221	99.69
237.455	85.69
237.689	82.69
237.922	81.69
238.156	73.69
238.39	88.69
238.624	83.69
238.858	82.69
239.091	91.69
239.325	85.69
239.559	73.69
239.793	73.69
240.027	66.69
240.26	77.69
240.494	87.69
240.728	77.69
240.961	77.69
241.195	84.69
241.429	82.69
241.662	84.69
241.896	79.69
242.13	75.69
242.363	83.69
242.597	82.69
242.83	85.69
243.064	82.69
243.298	77.69
243.531	76.69
243.765	77.69
243.998	81.69
244.232	80.69
244.465	79.69
244.699	85.69
244.932	92.69
245.166	78.69
245.399	90.69
245.633	86.69
245.866	88.69
246.099	72.69
246.333	71.69
246.566	94.69
246.8	78.69
247.033	64.69
247.266	85.69
247.5	70.69
247.733	80.69
247.966	67.69
248.2	82.69
248.433	78.69
248.666	78.69
248.899	89.69
249.133	86.69
249.366	87.69
249.599	76.69
249.832	85.69
250.066	79.69
250.299	70.69
250.532	74.69
250.765	71.69
250.998	93.69
251.231	88.69
251.465	88.69
251.698	60.69
251.931	81.69
252.164	76.69
252.397	73.69
252.63	77.69
252.863	75.69
253.096	85.69
253.329	81.69
253.562	81.69
253.795	68.69
254.028	88.69
254.261	73.69
254.494	76.69
254.727	82.69
254.96	80.69
255.193	85.69
255.426	93.69
255.659	85.69
255.892	78.69
256.124	76.69
256.357	84.69
256.59	85.69
256.823	90.69
257.056	93.69
257.289	86.69
257.521	90.69
257.754	86.69
257.987	92.69
258.22	79.69
258.452	81.69
258.685	91.69
258.918	82.69
259.151	74.69
259.383	86.69
259.616	80.69
259.849	81.69
260.081	86.69
260.314	87.69
260.547	97.69
260.779	80.69
261.012	84.69
261.244	86.69
261.477	94.69
261.71	95.69
261.942	83.69
262.175	78.69
262.407	76.69
262.64	80.69
262.872	76.69
263.105	82.69
263.337	83.69
263.57	84.69
263.802	77.69
264.035	89.69
264.267	83.69
264.499	89.69
264.732	93.69
264.964	77.69
265.197	84.69
265.429	77.69
265.661	93.69
265.894	68.69
266.126	89.69
266.358	78.69
266.591	78.69
266.823	91.69
267.055	74.69
267.287	72.69
267.52	89.69
267.752	79.69
267.984	91.69
268.216	80.69
268.448	94.69
268.681	93.69
268.913	89.69
269.145	84.69
269.377	98.69
269.609	96.69
269.841	86.69
270.073	79.69
270.306	93.69
270.538	80.69
270.77	78.69
271.002	81.69
271.234	81.69
271.466	81.69
271.698	93.69
271.93	94.69
272.162	82.69
272.394	87.69
272.626	81.69
272.858	67.69
273.09	75.69
273.322	88.69
273.553	83.69
273.785	90.69
274.017	84.69
274.249	80.69
274.481	81.69
274.713	91.69
274.945	82.69
275.176	75.69
275.408	86.69
275.64	87.69
275.872	87.69
276.104	100.69
276.335	89.69
276.567	86.69
276.799	70.69
277.031	92.69
277.262	76.69
277.494	83.69
277.726	89.69
277.957	97.69
278.189	81.69
278.421	77.69
278.652	88.69
278.884	86.69
279.115	73.69
279.347	88.69
279.579	88.69
279.81	90.69
280.042	71.69
280.273	74.69
280.505	78.69
280.736	91.69
280.968	95.69
281.199	78.69
281.431	94.69
281.662	67.69
281.894	93.69
282.125	85.69
282.356	89.69
282.588	87.69
282.819	73.69
283.051	89.69
283.282	74.69
283.513	89.69
283.745	101.69
283.976	93.69
284.207	97.69
284.439	80.69
284.67	86.69
284.901	81.69
285.132	78.69
285.364	88.69
285.595	95.69
285.826	90.69
286.057	88.69
286.288	72.69
286.52	81.69
286.751	83.69
286.982	89.69
287.213	87.69
287.444	83.69
287.675	87.69
287.906	96.69
288.138	86.69
288.369	91.69
288.6	78.69
288.831	90.69
289.062	82.69
289.293	92.69
289.524	87.69
289.755	84.69
289.986	88.69
290.217	83.69
290.448	99.69
290.679	90.69
290.91	86.69
291.141	82.69
291.371	78.69
291.602	76.69
291.833	95.69
292.064	81.69
292.295	90.69
292.526	92.69
292.757	99.69
292.987	86.69
293.218	68.69
293.449	89.69
293.68	82.69
293.91	81.69
294.141	89.69
294.372	77.69
294.603	84.69
294.833	90.69
295.064	73.69
295.295	89.69
295.525	82.69
295.756	93.69
295.987	88.69
296.217	84.69
296.448	97.69
296.679	83.69
296.909	82.69
297.14	84.69
297.37	95.69
297.601	104.69
297.831	84.69
298.062	97.69
298.292	86.69
298.523	88.69
298.753	86.69
298.984	89.69
299.214	82.69
299.445	86.69
299.675	89.69
299.905	93.69
300.136	90.69
300.366	98.69
300.597	87.69
300.827	93.69
301.057	103.69
301.288	100.69
301.518	84.69
301.748	76.69
301.979	66.69
302.209	97.69
302.439	100.69
302.669	79.69
302.9	89.69
303.13	93.69
303.36	89.69
303.59	89.69
303.82	88.69
304.051	88.69
304.281	81.69
304.511	97.69
304.741	75.69
304.971	90.69
305.201	85.69
305.431	89.69
305.661	87.69
305.891	84.69
306.121	81.69
306.352	81.69
306.582	74.69
306.812	82.69
307.042	84.69
307.272	89.69
307.502	94.69
307.731	84.69
307.961	81.69
308.191	81.69
308.421	72.69
308.651	93.69
308.881	96.69
309.111	104.69
309.341	77.69
309.571	86.69
309.8	88.69
310.03	96.69
310.26	88.69
310.49	96.69
310.72	95.69
310.949	86.69
311.179	94.69
311.409	91.69
311.639	78.69
311.868	92.69
312.098	82.69
312.328	88.69
312.557	77.69
312.787	74.69
313.017	81.69
313.246	83.69
313.476	91.69
313.706	78.69
313.935	82.69
314.165	93.69
314.394	97.69
314.624	78.69
314.853	90.69
315.083	86.69
315.312	89.69
315.542	91.69
315.771	74.69
316.001	80.69
316.23	77.69
316.46	85.69
316.689	96.69
316.919	97.69
317.148	90.69
317.377	88.69
317.607	92.69
317.836	84.69
318.065	86.69
318.295	89.69
318.524	83.69
318.753	76.69
318.983	76.69
319.212	91.69
319.441	89.69
319.67	99.69
319.9	96.69
320.129	95.69
320.358	85.69
320.587	82.69
320.816	89.69
321.046	80.69
321.275	101.69
321.504	82.69
321.733	93.69
321.962	94.69
322.191	86.69
322.42	89.69
322.649	90.69
322.878	89.69
323.108	86.69
323.337	88.69
323.566	81.69
323.795	90.69
324.024	100.69
324.253	85.69
324.482	97.69
324.71	92.69
324.939	107.69
325.168	107.69
325.397	77.69
325.626	83.69
325.855	90.69
326.084	98.69
326.313	81.69
326.542	86.69
326.77	91.69
326.999	73.69
327.228	86.69
327.457	85.69
327.686	92.69
327.914	97.69
328.143	87.69
328.372	96.69
328.6	92.69
328.829	84.69
329.058	91.69
329.287	94.69
329.515	76.69
329.744	87.69
329.972	88.69
330.201	98.69
330.43	87.69
330.658	89.69
330.887	81.69
331.115	88.69
331.344	86.69
331.572	92.69
331.801	85.69
332.03	89.69
332.258	91.69
332.486	60.69
332.715	77.69
332.943	71.69
333.172	67.69
333.4	88.69
333.629	89.69
333.857	90.69
334.085	100.69
334.314	104.69
334.542	84.69
334.771	92.69
334.999	88.69
335.227	80.69
335.455	90.69
335.684	100.69
335.912	89.69
336.14	85.69
336.369	88.69
336.597	72.69
336.825	79.69
337.053	83.69
337.281	84.69
337.51	92.69
337.738	95.69
337.966	77.69
338.194	91.69
338.422	84.69
338.65	81.69
338.878	84.69
339.106	88.69
339.334	89.69
339.562	85.69
339.79	78.69
340.018	76.69
340.246	78.69
340.474	70.69
340.702	84.69
340.93	93.69
341.158	75.69
341.386	66.69
341.614	101.69
341.842	92.69
342.07	92.69
342.298	83.69
342.526	85.69
342.754	92.69
342.981	84.69
343.209	94.69
343.437	87.69
343.665	90.69
343.893	77.69
344.12	91.69
344.348	89.69
344.576	88.69
344.804	85.69
345.031	77.69
345.259	88.69
345.487	81.69
345.714	85.69
345.942	82.69
346.17	92.69
346.397	88.69
346.625	96.69
346.853	82.69
347.08	92.69
347.308	86.69
347.535	77.69
347.763	96.69
347.99	93.69
348.218	88.69
348.445	83.69
348.673	96.69
348.9	93.69
349.128	97.69
349.355	86.69
349.583	82.69
349.81	86.69
350.037	89.69
350.265	82.69
350.492	89.69
350.72	84.69
350.947	90.69
351.174	91.69
351.402	79.69
351.629	88.69
351.856	91.69
352.083	83.69
352.311	85.69
352.538	100.69
352.765	81.69
352.992	90.69
353.22	78.69
353.447	79.69
353.674	90.69
353.901	82.69
354.128	79.69
354.355	94.69
354.583	82.69
354.81	91.69
355.037	84.69
355.264	74.69
355.491	86.69
355.718	87.69
355.945	106.69
356.172	100.69
356.399	82.69
356.626	84.69
356.853	79.69
357.08	94.69
357.307	86.69
357.534	71.69
357.761	88.69
357.988	89.69
358.215	97.69
358.441	91.69
358.668	88.69
358.895	79.69
359.122	80.69
359.349	81.69
359.576	90.69
359.802	78.69
360.029	77.69
360.256	84.69
360.483	83.69
360.709	79.69
360.936	83.69
361.163	78.69
361.39	89.69
361.616	93.69
361.843	88.69
362.07	93.69
362.296	89.69
362.523	88.69
362.749	82.69
362.976	84.69
363.203	88.69
363.429	92.69
363.656	90.69
363.882	86.69
364.109	80.69
364.335	86.69
364.562	94.69
364.788	82.69
365.015	84.69
365.241	91.69
365.468	98.69
365.694	108.69
365.92	92.69
366.147	75.69
366.373	90.69
366.599	100.69
366.826	79.69
367.052	77.69
367.278	83.69
367.505	91.69
367.731	84.69
367.957	94.69
368.184	83.69
368.41	103.69
368.636	94.69
368.862	91.69
369.089	87.69
369.315	96.69
369.541	78.69
369.767	98.69
369.993	88.69
370.219	79.69
370.445	107.69
370.672	93.69
370.898	85.69
371.124	90.69
371.35	98.69
371.576	94.69
371.802	96.69
372.028	94.69
372.254	81.69
372.48	86.69
372.706	88.69
372.932	78.69
373.158	93.69
373.384	85.69
373.61	94.69
373.835	86.69
374.061	89.69
374.287	96.69
374.513	93.69
374.739	92.69
374.965	81.69
375.191	90.69
375.416	77.69
375.642	74.69
375.868	87.69
376.094	81.69
376.319	98.69
376.545	99.69
376.771	90.69
376.997	80.69
377.222	89.69
377.448	88.69
377.674	90.69
377.899	92.69
378.125	86.69
378.35	81.69
378.576	101.69
378.802	108.69
379.027	78.69
379.253	97.69
379.478	89.69
379.704	96.69
379.929	92.69
380.155	98.69
380.38	82.69
380.606	82.69
380.831	89.69
381.057	102.69
381.282	105.69
381.507	83.69
381.733	98.69
381.958	88.69
382.184	96.69
382.409	90.69
382.634	97.69
382.86	105.69
383.085	95.69
383.31	102.69
383.535	94.69
383.761	81.69
383.986	90.69
384.211	105.69
384.436	106.69
384.662	112.69
384.887	99.69
385.112	85.69
385.337	92.69
385.562	90.69
385.787	92.69
386.013	103.69
386.238	107.69
386.463	103.69
386.688	83.69
386.913	101.69
387.138	97.69
387.363	88.69
387.588	86.69
387.813	86.69
388.038	96.69
388.263	86.69
388.488	85.69
388.713	99.69
388.938	92.69
389.163	93.69
389.387	109.69
389.612	83.69
389.837	97.69
390.062	92.69
390.287	110.69
390.512	98.69
390.736	99.69
390.961	84.69
391.186	90.69
391.411	94.69
391.636	91.69
391.86	82.69
392.085	120.69
392.31	101.69
392.534	94.69
392.759	116.69
392.984	103.69
393.208	100.69
393.433	97.69
393.658	86.69
393.882	112.69
394.107	102.69
394.331	110.69
394.556	99.69
394.78	96.69
395.005	105.69
395.229	96.69
395.454	98.69
395.678	109.69
395.903	93.69
396.127	103.69
396.352	100.69
396.576	90.69
396.801	101.69
397.025	98.69
397.249	101.69
397.474	102.69
397.698	102.69
397.922	102.69
398.147	93.69
398.371	97.69
398.595	92.69
398.82	110.69
399.044	112.69
399.268	104.69
399.492	128.69
399.717	116.69
399.941	114.69
400.165	115.69
400.389	102.69
400.613	101.69
400.837	108.69
401.062	99.69
401.286	92.69
401.51	100.69
401.734	97.69
401.958	102.69
402.182	109.69
402.406	109.69
402.63	110.69
402.854	107.69
403.078	101.69
403.302	107.69
403.526	95.69
403.75	113.69
403.974	107.69
404.198	112.69
404.422	109.69
404.645	108.69
404.869	105.69
405.093	99.69
405.317	98.69
405.541	114.69
405.765	100.69
405.988	104.69
406.212	108.69
406.436	103.69
406.66	101.69
406.883	107.69
407.107	120.69
407.331	117.69
407.555	109.69
407.778	107.69
408.002	109.69
408.226	118.69
408.449	96.69
408.673	110.69
408.896	93.69
409.12	108.69
409.344	103.69
409.567	106.69
409.791	119.69
410.014	116.69
410.238	113.69
410.461	107.69
410.685	107.69
410.908	114.69
411.132	114.69
411.355	118.69
411.578	101.69
411.802	103.69
412.025	123.69
412.249	106.69
412.472	93.69
412.695	89.69
412.919	111.69
413.142	112.69
413.365	90.69
413.589	108.69
413.812	108.69
414.035	116.69
414.258	108.69
414.482	102.69
414.705	112.69
414.928	96.69
415.151	106.69
415.374	114.69
415.597	116.69
415.821	112.69
416.044	100.69
416.267	116.69
416.49	115.69
416.713	124.69
416.936	103.69
417.159	113.69
417.382	93.69
417.605	101.69
417.828	99.69
418.051	113.69
418.274	110.69
418.497	114.69
418.72	97.69
418.943	99.69
419.166	106.69
419.389	126.69
419.611	109.69
419.834	128.69
420.057	116.69
420.28	120.69
420.503	101.69
420.726	82.69
420.948	110.69
421.171	106.69
421.394	108.69
421.617	117.69
421.839	106.69
422.062	120.69
422.285	116.69
422.507	109.69
422.73	112.69
422.953	98.69
423.175	118.69
423.398	116.69
423.621	130.69
423.843	135.69
424.066	129.69
424.288	125.69
424.511	125.69
424.733	115.69
424.956	105.69
425.178	101.69
425.401	107.69
425.623	130.69
425.846	103.69
426.068	97.69
426.291	114.69
426.513	114.69
426.735	124.69
426.958	116.69
427.18	99.69
427.402	105.69
427.625	108.69
427.847	100.69
428.069	111.69
428.292	106.69
428.514	100.69
428.736	105.69
428.958	98.69
429.181	99.69
429.403	123.69
429.625	98.69
429.847	114.69
430.069	99.69
430.292	113.69
430.514	107.69
430.736	110.69
430.958	108.69
431.18	126.69
431.402	117.69
431.624	106.69
431.846	104.69
432.068	104.69
432.29	102.69
432.512	109.69
432.734	110.69
432.956	109.69
433.178	113.69
433.4	136.69
433.622	112.69
433.844	113.69
434.066	113.69
434.287	103.69
434.509	86.69
434.731	127.69
434.953	109.69
435.175	117.69
435.397	114.69
435.618	106.69
435.84	112.69
436.062	109.69
436.284	105.69
436.505	102.69
436.727	130.69
436.949	96.69
437.17	94.69
437.392	111.69
437.614	121.69
437.835	98.69
438.057	118.69
438.278	110.69
438.5	91.69
438.721	107.69
438.943	113.69
439.165	102.69
439.386	116.69
439.608	121.69
439.829	103.69
440.05	131.69
440.272	96.69
440.493	116.69
440.715	108.69
440.936	116.69
441.158	113.69
441.379	122.69
441.6	125.69
441.822	128.69
442.043	122.69
442.264	124.69
442.486	120.69
442.707	116.69
442.928	127.69
443.149	102.69
443.371	116.69
443.592	108.69
443.813	108.69
444.034	123.69
444.255	111.69
444.476	114.69
444.698	128.69
444.919	117.69
445.14	229.69
445.361	184.69
445.582	117.69
445.803	123.69
446.024	128.69
446.245	124.69
446.466	134.69
446.687	108.69
446.908	118.69
447.129	123.69
447.35	113.69
447.571	115.69
447.792	95.69
448.013	121.69
448.234	101.69
448.455	117.69
448.675	105.69
448.896	116.69
449.117	108.69
449.338	89.69
449.559	122.69
449.779	118.69
450	100.69
450.221	112.69
450.442	108.69
450.662	118.69
450.883	122.69
451.104	113.69
451.324	106.69
451.545	117.69
451.766	100.69
451.986	109.69
452.207	100.69
452.428	112.69
452.648	131.69
452.869	118.69
453.089	103.69
453.31	101.69
453.53	104.69
453.751	107.69
453.971	110.69
454.192	115.69
454.412	108.69
454.633	106.69
454.853	102.69
455.073	109.69
455.294	105.69
455.514	103.69
455.734	105.69
455.955	103.69
456.175	100.69
456.395	96.69
456.616	93.69
456.836	103.69
457.056	102.69
457.276	99.69
457.497	108.69
457.717	92.69
457.937	101.69
458.157	99.69
458.377	103.69
458.598	105.69
458.818	104.69
459.038	115.69
459.258	107.69
459.478	98.69
459.698	99.69
459.918	117.69
460.138	98.69
460.358	117.69
460.578	107.69
460.798	112.69
461.018	113.69
461.238	121.69
461.458	122.69
461.678	118.69
461.898	120.69
462.118	121.69
462.338	116.69
462.558	125.69
462.777	117.69
462.997	124.69
463.217	132.69
463.437	126.69
463.657	112.69
463.876	105.69
464.096	108.69
464.316	121.69
464.536	118.69
464.755	106.69
464.975	114.69
465.195	132.69
465.414	123.69
465.634	110.69
465.854	117.69
466.073	114.69
466.293	114.69
466.512	111.69
466.732	118.69
466.951	114.69
467.171	112.69
467.391	117.69
467.61	113.69
467.829	113.69
468.049	115.69
468.268	114.69
468.488	106.69
468.707	103.69
468.927	116.69
469.146	92.69
469.365	126.69
469.585	122.69
469.804	113.69
470.023	113.69
470.243	109.69
470.462	120.69
470.681	101.69
470.901	119.69
471.12	121.69
471.339	123.69
471.558	134.69
471.777	118.69
471.997	112.69
472.216	124.69
472.435	108.69
472.654	120.69
472.873	118.69
473.092	105.69
473.311	114.69
473.53	132.69
473.749	124.69
473.968	106.69
474.187	114.69
474.406	109.69
474.625	103.69
474.844	118.69
475.063	116.69
475.282	114.69
475.501	116.69
475.72	121.69
475.939	116.69
476.158	107.69
476.377	115.69
476.596	98.69
476.814	105.69
477.033	119.69
477.252	110.69
477.471	116.69
477.69	130.69
477.908	124.69
478.127	128.69
478.346	143.69
478.564	130.69
478.783	120.69
479.002	120.69
479.22	122.69
479.439	108.69
479.658	112.69
479.876	113.69
480.095	130.69
480.313	140.69
480.532	128.69
480.751	138.69
480.969	107.69
481.188	113.69
481.406	114.69
481.624	102.69
481.843	117.69
482.061	97.69
482.28	108.69
482.498	114.69
482.717	110.69
482.935	112.69
483.153	119.69
483.372	123.69
483.59	131.69
483.808	130.69
484.027	134.69
484.245	135.69
484.463	121.69
484.681	126.69
484.9	128.69
485.118	119.69
485.336	114.69
485.554	115.69
485.772	104.69
485.99	112.69
486.209	116.69
486.427	134.69
486.645	130.69
486.863	133.69
487.081	126.69
487.299	134.69
487.517	137.69
487.735	139.69
487.953	138.69
488.171	144.69
488.389	134.69
488.607	127.69
488.825	115.69
489.043	139.69
489.261	125.69
489.479	121.69
489.696	138.69
489.914	127.69
490.132	135.69
490.35	125.69
490.568	137.69
490.786	164.69
491.003	140.69
491.221	141.69
491.439	154.69
491.657	150.69
491.874	173.69
492.092	152.69
492.31	163.69
492.527	168.69
492.745	149.69
492.963	155.69
493.18	153.69
493.398	151.69
493.615	154.69
493.833	140.69
494.05	142.69
494.268	144.69
494.485	147.69
494.703	147.69
494.92	132.69
495.138	133.69
495.355	156.69
495.573	140.69
495.79	149.69
496.008	146.69
496.225	139.69
496.442	125.69
496.66	156.69
496.877	134.69
497.094	153.69
497.312	146.69
497.529	154.69
497.746	139.69
497.963	132.69
498.181	130.69
498.398	138.69
498.615	143.69
498.832	143.69
499.049	148.69
499.267	155.69
499.484	156.69
499.701	164.69
499.918	173.69
500.135	188.69
500.352	197.69
500.569	218.69
500.786	206.69
501.003	202.69
501.22	192.69
501.437	181.69
501.654	158.69
501.871	164.69
502.088	146.69
502.305	143.69
502.522	150.69
502.739	137.69
502.956	132.69
503.172	132.69
503.389	136.69
503.606	138.69
503.823	135.69
504.04	130.69
504.256	136.69
504.473	134.69
504.69	120.69
504.907	141.69
505.123	129.69
505.34	137.69
505.557	140.69
505.773	126.69
505.99	132.69
506.207	128.69
506.423	117.69
506.64	115.69
506.856	127.69
507.073	129.69
507.289	121.69
507.506	120.69
507.722	131.69
507.939	123.69
508.155	116.69
508.372	114.69
508.588	103.69
508.805	120.69
509.021	121.69
509.238	134.69
509.454	117.69
509.67	125.69
509.887	126.69
510.103	112.69
510.319	117.69
510.536	105.69
510.752	111.69
510.968	116.69
511.184	105.69
511.401	112.69
511.617	112.69
511.833	117.69
512.049	109.69
512.265	106.69
512.481	118.69
512.698	107.69
512.914	107.69
513.13	127.69
513.346	116.69
513.562	112.69
513.778	116.69
513.994	109.69
514.21	122.69
514.426	113.69
514.642	121.69
514.858	119.69
515.074	114.69
515.29	105.69
515.506	98.69
515.721	112.69
515.937	120.69
516.153	112.69
516.369	110.69
516.585	133.69
516.801	108.69
517.016	126.69
517.232	121.69
517.448	122.69
517.664	125.69
517.879	122.69
518.095	113.69
518.311	118.69
518.527	136.69
518.742	121.69
518.958	121.69
519.173	118.69
519.389	116.69
519.605	109.69
519.82	116.69
520.036	113.69
520.251	117.69
520.467	105.69
520.682	97.69
520.898	118.69
521.113	108.69
521.329	110.69
521.544	115.69
521.76	107.69
521.975	108.69
522.19	115.69
522.406	124.69
522.621	124.69
522.836	118.69
523.052	112.69
523.267	129.69
523.482	120.69
523.698	108.69
523.913	113.69
524.128	121.69
524.343	123.69
524.559	124.69
524.774	112.69
524.989	121.69
525.204	110.69
525.419	120.69
525.634	112.69
525.849	128.69
526.064	121.69
526.28	122.69
526.495	106.69
526.71	105.69
526.925	106.69
527.14	95.69
527.355	122.69
527.57	104.69
527.785	120.69
527.999	112.69
528.214	123.69
528.429	132.69
528.644	125.69
528.859	131.69
529.074	131.69
529.289	146.69
529.503	117.69
529.718	121.69
529.933	112.69
530.148	112.69
530.363	107.69
530.577	122.69
530.792	120.69
531.007	103.69
531.221	103.69
531.436	103.69
531.651	113.69
531.865	102.69
532.08	106.69
532.295	114.69
532.509	109.69
532.724	107.69
532.938	96.69
533.153	106.69
533.367	105.69
533.582	124.69
533.796	118.69
534.011	118.69
534.225	121.69
534.44	122.69
534.654	121.69
534.868	108.69
535.083	101.69
535.297	113.69
535.511	114.69
535.726	107.69
535.94	117.69
536.154	105.69
536.369	94.69
536.583	108.69
536.797	113.69
537.011	122.69
537.225	99.69
537.44	108.69
537.654	116.69
537.868	107.69
538.082	104.69
538.296	98.69
538.51	117.69
538.724	122.69
538.938	92.69
539.153	104.69
539.367	120.69
539.581	124.69
539.795	104.69
540.009	106.69
540.222	111.69
540.436	122.69
540.65	105.69
540.864	114.69
541.078	120.69
541.292	121.69
541.506	130.69
541.72	132.69
541.934	132.69
542.147	139.69
542.361	126.69
542.575	137.69
542.789	120.69
543.002	121.69
543.216	130.69
543.43	121.69
543.644	128.69
543.857	124.69
544.071	120.69
544.285	125.69
544.498	114.69
544.712	125.69
544.925	129.69
545.139	117.69
545.352	128.69
545.566	126.69
545.779	131.69
545.993	137.69
546.206	141.69
546.42	148.69
546.633	128.69
546.847	128.69
547.06	125.69
547.274	132.69
547.487	138.69
547.7	138.69
547.914	142.69
548.127	133.69
548.34	132.69
548.554	129.69
548.767	124.69
548.98	142.69
549.193	116.69
549.407	116.69
549.62	121.69
549.833	137.69
550.046	130.69
550.259	137.69
550.473	131.69
550.686	117.69
550.899	130.69
551.112	139.69
551.325	116.69
551.538	115.69
551.751	125.69
551.964	118.69
552.177	120.69
552.39	113.69
552.603	141.69
552.816	128.69
553.029	113.69
553.242	128.69
553.455	132.69
553.667	144.69
553.88	130.69
554.093	131.69
554.306	128.69
554.519	137.69
554.732	132.69
554.944	133.69
555.157	115.69
555.37	116.69
555.583	123.69
555.795	125.69
556.008	120.69
556.221	122.69
556.433	118.69
556.646	126.69
556.859	112.69
557.071	135.69
557.284	118.69
557.496	130.69
557.709	110.69
557.921	126.69
558.134	124.69
558.346	130.69
558.559	117.69
558.771	116.69
558.984	124.69
559.196	117.69
559.409	110.69
559.621	107.69
559.833	125.69
560.046	116.69
560.258	124.69
560.47	124.69
560.683	120.69
560.895	101.69
561.107	98.69
561.32	113.69
561.532	100.69
561.744	120.69
561.956	118.69
562.168	118.69
562.381	113.69
562.593	119.69
562.805	116.69
563.017	114.69
563.229	118.69
563.441	113.69
563.653	120.69
563.865	117.69
564.077	126.69
564.289	106.69
564.501	120.69
564.713	108.69
564.925	105.69
565.137	113.69
565.349	114.69
565.561	91.69
565.773	114.69
565.985	108.69
566.197	112.69
566.408	133.69
566.62	102.69
566.832	124.69
567.044	122.69
567.255	117.69
567.467	132.69
567.679	126.69
567.891	125.69
568.102	131.69
568.314	121.69
568.526	123.69
568.737	106.69
568.949	112.69
569.161	106.69
569.372	90.69
569.584	109.69
569.795	102.69
570.007	102.69
570.218	93.69
570.43	100.69
570.641	104.69
570.853	113.69
571.064	91.69
571.276	102.69
571.487	101.69
571.698	98.69
571.91	111.69
572.121	82.69
572.333	101.69
572.544	110.69
572.755	96.69
572.966	98.69
573.178	94.69
573.389	104.69
573.6	102.69
573.811	105.69
574.023	106.69
574.234	106.69
574.445	98.69
574.656	109.69
574.867	102.69
575.078	100.69
575.289	103.69
575.501	118.69
575.712	98.69
575.923	90.69
576.134	100.69
576.345	106.69
576.556	92.69
576.767	104.69
576.978	81.69
577.188	109.69
577.399	98.69
577.61	96.69
577.821	91.69
578.032	103.69
578.243	109.69
578.454	97.69
578.665	85.69
578.875	87.69
579.086	95.69
579.297	94.69
579.508	101.69
579.718	102.69
579.929	93.69
580.14	92.69
580.35	82.69
580.561	86.69
580.772	106.69
580.982	115.69
581.193	98.69
581.403	99.69
581.614	96.69
581.825	102.69
582.035	106.69
582.246	100.69
582.456	96.69
582.667	96.69
582.877	99.69
583.087	109.69
583.298	99.69
583.508	97.69
583.719	99.69
583.929	84.69
584.139	99.69
584.35	92.69
584.56	95.69
584.77	102.69
584.981	105.69
585.191	95.69
585.401	85.69
585.611	89.69
585.821	98.69
586.032	82.69
586.242	102.69
586.452	90.69
586.662	109.69
586.872	92.69
587.082	87.69
587.292	82.69
587.502	88.69
587.713	78.69
587.923	90.69
588.133	92.69
588.343	100.69
588.553	82.69
588.762	99.69
588.972	104.69
589.182	114.69
589.392	80.69
589.602	94.69
589.812	98.69
590.022	92.69
590.232	115.69
590.441	86.69
590.651	96.69
590.861	91.69
591.071	100.69
591.281	100.69
591.49	106.69
591.7	103.69
591.91	85.69
592.119	96.69
592.329	107.69
592.539	103.69
592.748	104.69
592.958	97.69
593.167	89.69
593.377	100.69
593.587	114.69
593.796	102.69
594.006	83.69
594.215	97.69
594.424	90.69
594.634	91.69
594.843	90.69
595.053	104.69
595.262	106.69
595.472	103.69
595.681	113.69
595.89	92.69
596.1	86.69
596.309	112.69
596.518	97.69
596.727	84.69
596.937	83.69
597.146	100.69
597.355	83.69
597.564	95.69
597.774	115.69
597.983	92.69
598.192	86.69
598.401	90.69
598.61	102.69
598.819	100.69
599.028	98.69
599.237	94.69
599.446	94.69
599.655	97.69
599.864	92.69
600.073	90.69
600.282	99.69
600.491	90.69
600.7	99.69
600.909	85.69
601.118	99.69
601.327	90.69
601.536	100.69
601.745	111.69
601.953	102.69
602.162	94.69
602.371	99.69
602.58	103.69
602.789	92.69
602.997	96.69
603.206	97.69
603.415	105.69
603.623	101.69
603.832	112.69
604.041	95.69
604.249	87.69
604.458	77.69
604.666	98.69
604.875	107.69
605.084	85.69
605.292	101.69
605.501	110.69
605.709	103.69
605.918	94.69
606.126	112.69
606.334	108.69
606.543	97.69
606.751	104.69
606.96	100.69
607.168	97.69
607.376	101.69
607.585	86.69
607.793	89.69
608.001	106.69
608.21	110.69
608.418	97.69
608.626	78.69
608.834	113.69
609.043	81.69
609.251	99.69
609.459	96.69
609.667	96.69
609.875	95.69
610.083	85.69
610.291	94.69
610.499	102.69
610.707	99.69
610.916	92.69
611.124	88.69
611.332	83.69
611.54	88.69
611.748	85.69
611.955	96.69
612.163	102.69
612.371	95.69
612.579	106.69
612.787	98.69
612.995	92.69
613.203	100.69
613.411	94.69
613.618	90.69
613.826	96.69
614.034	97.69
614.242	98.69
614.449	89.69
614.657	90.69
614.865	100.69
615.072	88.69
615.28	92.69
615.488	93.69
615.695	92.69
615.903	87.69
616.111	101.69
616.318	87.69
616.526	90.69
616.733	101.69
616.941	97.69
617.148	103.69
617.356	100.69
617.563	101.69
617.771	99.69
617.978	99.69
618.185	107.69
618.393	90.69
618.6	89.69
618.807	79.69
619.015	114.69
619.222	93.69
619.429	94.69
619.637	97.69
619.844	89.69
620.051	85.69
620.258	101.69
620.466	101.69
620.673	98.69
620.88	99.69
621.087	106.69
621.294	81.69
621.501	96.69
621.708	85.69
621.915	94.69
622.122	91.69
622.329	95.69
622.536	92.69
622.743	97.69
622.95	102.69
623.157	88.69
623.364	85.69
623.571	94.69
623.778	99.69
623.985	101.69
624.192	97.69
624.399	88.69
624.606	113.69
624.812	89.69
625.019	71.69
625.226	94.69
625.433	94.69
625.639	92.69
625.846	98.69
626.053	90.69
626.259	87.69
626.466	100.69
626.673	102.69
626.879	84.69
627.086	87.69
627.293	84.69
627.499	96.69
627.706	98.69
627.912	90.69
628.119	96.69
628.325	101.69
628.532	109.69
628.738	85.69
628.945	79.69
629.151	93.69
629.357	104.69
629.564	98.69
629.77	80.69
629.976	91.69
630.183	97.69
630.389	91.69
630.595	90.69
630.802	89.69
631.008	84.69
631.214	88.69
631.42	67.69
631.627	95.69
631.833	87.69
632.039	73.69
632.245	91.69
632.451	99.69
632.657	90.69
632.863	99.69
633.069	82.69
633.275	89.69
633.481	89.69
633.688	83.69
633.893	84.69
634.099	101.69
634.305	84.69
634.511	81.69
634.717	92.69
634.923	77.69
635.129	88.69
635.335	89.69
635.541	90.69
635.747	74.69
635.952	106.69
636.158	78.69
636.364	95.69
636.57	92.69
636.775	86.69
636.981	95.69
637.187	85.69
637.392	100.69
637.598	103.69
637.804	90.69
638.009	83.69
638.215	104.69
638.421	98.69
638.626	92.69
638.832	88.69
639.037	101.69
639.243	98.69
639.448	104.69
639.654	99.69
639.859	73.69
640.065	89.69
640.27	85.69
640.475	88.69
640.681	76.69
640.886	88.69
641.091	93.69
641.297	88.69
641.502	78.69
641.707	90.69
641.913	104.69
642.118	99.69
642.323	85.69
642.528	97.69
642.733	98.69
642.939	88.69
643.144	93.69
643.349	94.69
643.554	84.69
643.759	101.69
643.964	91.69
644.169	99.69
644.374	87.69
644.579	91.69
644.784	99.69
644.989	84.69
645.194	78.69
645.399	93.69
645.604	92.69
645.809	100.69
646.014	89.69
646.219	94.69
646.423	99.69
646.628	77.69
646.833	75.69
647.038	77.69
647.243	84.69
647.447	84.69
647.652	93.69
647.857	87.69
648.062	90.69
648.266	76.69
648.471	93.69
648.676	90.69
648.88	83.69
649.085	78.69
649.289	77.69
649.494	83.69
649.698	98.69
649.903	105.69
650.107	84.69
650.312	80.69
650.516	89.69
650.721	93.69
650.925	84.69
651.13	84.69
651.334	87.69
651.539	82.69
651.743	96.69
651.947	84.69
652.152	93.69
652.356	85.69
652.56	100.69
652.764	94.69
652.969	91.69
653.173	74.69
653.377	90.69
653.581	79.69
653.785	91.69
653.99	96.69
654.194	92.69
654.398	91.69
654.602	100.69
654.806	97.69
655.01	105.69
655.214	93.69
655.418	86.69
655.622	92.69
655.826	88.69
656.03	77.69
656.234	74.69
656.438	85.69
656.642	93.69
656.846	97.69
657.049	83.69
657.253	82.69
657.457	88.69
657.661	85.69
657.865	99.69
658.068	99.69
658.272	105.69
658.476	87.69
658.68	79.69
658.883	85.69
659.087	78.69
659.291	82.69
659.494	67.69
659.698	92.69
659.901	98.69
660.105	87.69
660.309	92.69
660.512	82.69
660.716	74.69
660.919	77.69
661.123	93.69
661.326	85.69
661.53	89.69
661.733	84.69
661.936	96.69
662.14	80.69
662.343	88.69
662.546	95.69
662.75	86.69
662.953	85.69
663.156	98.69
663.36	92.69
663.563	84.69
663.766	79.69
663.969	87.69
664.173	78.69
664.376	92.69
664.579	86.69
664.782	85.69
664.985	91.69
665.188	85.69
665.391	87.69
665.594	89.69
665.797	77.69
666	91.69
666.203	77.69
666.406	90.69
666.609	92.69
666.812	90.69
667.015	83.69
667.218	71.69
667.421	75.69
667.624	80.69
667.827	81.69
668.03	92.69
668.232	83.69
668.435	91.69
668.638	89.69
668.841	95.69
669.043	98.69
669.246	84.69
669.449	79.69
669.651	80.69
669.854	84.69
670.057	86.69
670.259	73.69
670.462	84.69
670.665	80.69
670.867	83.69
671.07	89.69
671.272	79.69
671.475	92.69
671.677	91.69
671.88	82.69
672.082	80.69
672.284	74.69
672.487	84.69
672.689	77.69
672.892	85.69
