Data from StandardFe(NO3)3.TAE.3%Agarose.FlatLispGreen.Lamp.Energy10.07252019_HRD10591_11-53-32-440.txt Node
Date: Thu Jul 25 11:53:32 EDT 2019
User: cochatt
Spectrometer: HR+D1059
Trigger mode: 1
Integration Time (sec): 1.000000E-1
Scans to average: 1
Electric dark correction enabled: true
Nonlinearity correction enabled: false
Boxcar width: 0
XAxis mode: Wavelengths
Number of Pixels in Spectrum: 2048
>>>>>Begin Spectral Data<<<<<
223.165	-13.94
223.4	-13.94
223.635	-13.94
223.869	-14.94
224.104	-26.94
224.338	4.06
224.573	-14.94
224.808	-6.94
225.042	-8.94
225.277	-7.94
225.511	-10.94
225.746	-4.94
225.98	3.06
226.215	15.06
226.449	19.06
226.683	28.06
226.918	18.06
227.152	23.06
227.387	36.06
227.621	42.06
227.856	35.06
228.09	41.06
228.324	49.06
228.559	75.06
228.793	64.06
229.027	64.06
229.262	58.06
229.496	75.06
229.73	71.06
229.964	67.06
230.199	67.06
230.433	76.06
230.667	83.06
230.901	69.06
231.136	83.06
231.37	80.06
231.604	99.06
231.838	85.06
232.072	78.06
232.306	74.06
232.541	68.06
232.775	80.06
233.009	85.06
233.243	85.06
233.477	83.06
233.711	88.06
233.945	102.06
234.179	73.06
234.413	87.06
234.647	79.06
234.881	87.06
235.115	75.06
235.349	86.06
235.583	78.06
235.817	92.06
236.051	74.06
236.285	78.06
236.519	68.06
236.753	69.06
236.987	83.06
237.221	83.06
237.455	91.06
237.689	77.06
237.922	79.06
238.156	71.06
238.39	67.06
238.624	83.06
238.858	82.06
239.091	66.06
239.325	71.06
239.559	63.06
239.793	80.06
240.027	88.06
240.26	82.06
240.494	64.06
240.728	66.06
240.961	81.06
241.195	70.06
241.429	84.06
241.662	71.06
241.896	65.06
242.13	83.06
242.363	77.06
242.597	68.06
242.83	81.06
243.064	80.06
243.298	72.06
243.531	78.06
243.765	83.06
243.998	85.06
244.232	84.06
244.465	59.06
244.699	67.06
244.932	72.06
245.166	88.06
245.399	93.06
245.633	75.06
245.866	89.06
246.099	79.06
246.333	67.06
246.566	64.06
246.8	69.06
247.033	85.06
247.266	79.06
247.5	76.06
247.733	84.06
247.966	70.06
248.2	87.06
248.433	82.06
248.666	76.06
248.899	63.06
249.133	77.06
249.366	87.06
249.599	68.06
249.832	67.06
250.066	78.06
250.299	62.06
250.532	75.06
250.765	92.06
250.998	74.06
251.231	81.06
251.465	86.06
251.698	81.06
251.931	87.06
252.164	85.06
252.397	74.06
252.63	85.06
252.863	87.06
253.096	44.06
253.329	73.06
253.562	75.06
253.795	90.06
254.028	82.06
254.261	77.06
254.494	93.06
254.727	84.06
254.96	88.06
255.193	64.06
255.426	73.06
255.659	68.06
255.892	68.06
256.124	72.06
256.357	71.06
256.59	84.06
256.823	97.06
257.056	80.06
257.289	81.06
257.521	71.06
257.754	80.06
257.987	84.06
258.22	87.06
258.452	71.06
258.685	72.06
258.918	71.06
259.151	84.06
259.383	91.06
259.616	93.06
259.849	80.06
260.081	87.06
260.314	69.06
260.547	78.06
260.779	72.06
261.012	87.06
261.244	76.06
261.477	80.06
261.71	75.06
261.942	89.06
262.175	83.06
262.407	76.06
262.64	76.06
262.872	87.06
263.105	74.06
263.337	93.06
263.57	72.06
263.802	84.06
264.035	84.06
264.267	83.06
264.499	98.06
264.732	82.06
264.964	79.06
265.197	75.06
265.429	81.06
265.661	88.06
265.894	73.06
266.126	87.06
266.358	74.06
266.591	82.06
266.823	82.06
267.055	70.06
267.287	78.06
267.52	72.06
267.752	88.06
267.984	92.06
268.216	82.06
268.448	73.06
268.681	70.06
268.913	69.06
269.145	92.06
269.377	81.06
269.609	91.06
269.841	94.06
270.073	81.06
270.306	83.06
270.538	93.06
270.77	93.06
271.002	93.06
271.234	84.06
271.466	86.06
271.698	63.06
271.93	81.06
272.162	86.06
272.394	98.06
272.626	80.06
272.858	91.06
273.09	71.06
273.322	94.06
273.553	84.06
273.785	83.06
274.017	75.06
274.249	80.06
274.481	91.06
274.713	83.06
274.945	91.06
275.176	91.06
275.408	76.06
275.64	85.06
275.872	89.06
276.104	98.06
276.335	82.06
276.567	103.06
276.799	61.06
277.031	83.06
277.262	77.06
277.494	103.06
277.726	69.06
277.957	90.06
278.189	75.06
278.421	73.06
278.652	84.06
278.884	78.06
279.115	87.06
279.347	92.06
279.579	87.06
279.81	75.06
280.042	72.06
280.273	83.06
280.505	77.06
280.736	86.06
280.968	93.06
281.199	75.06
281.431	97.06
281.662	79.06
281.894	85.06
282.125	96.06
282.356	83.06
282.588	83.06
282.819	88.06
283.051	82.06
283.282	83.06
283.513	89.06
283.745	71.06
283.976	74.06
284.207	92.06
284.439	94.06
284.67	72.06
284.901	95.06
285.132	76.06
285.364	91.06
285.595	90.06
285.826	87.06
286.057	76.06
286.288	76.06
286.52	87.06
286.751	82.06
286.982	78.06
287.213	95.06
287.444	84.06
287.675	77.06
287.906	77.06
288.138	91.06
288.369	87.06
288.6	93.06
288.831	93.06
289.062	85.06
289.293	82.06
289.524	100.06
289.755	85.06
289.986	96.06
290.217	83.06
290.448	73.06
290.679	95.06
290.91	74.06
291.141	82.06
291.371	85.06
291.602	100.06
291.833	76.06
292.064	88.06
292.295	81.06
292.526	90.06
292.757	102.06
292.987	84.06
293.218	81.06
293.449	86.06
293.68	79.06
293.91	89.06
294.141	81.06
294.372	84.06
294.603	100.06
294.833	105.06
295.064	87.06
295.295	89.06
295.525	78.06
295.756	78.06
295.987	90.06
296.217	91.06
296.448	77.06
296.679	87.06
296.909	94.06
297.14	77.06
297.37	83.06
297.601	85.06
297.831	88.06
298.062	87.06
298.292	84.06
298.523	93.06
298.753	91.06
298.984	86.06
299.214	69.06
299.445	81.06
299.675	88.06
299.905	81.06
300.136	88.06
300.366	90.06
300.597	83.06
300.827	76.06
301.057	84.06
301.288	80.06
301.518	86.06
301.748	85.06
301.979	68.06
302.209	74.06
302.439	92.06
302.669	79.06
302.9	91.06
303.13	73.06
303.36	76.06
303.59	80.06
303.82	86.06
304.051	92.06
304.281	83.06
304.511	95.06
304.741	75.06
304.971	94.06
305.201	86.06
305.431	88.06
305.661	87.06
305.891	67.06
306.121	73.06
306.352	86.06
306.582	85.06
306.812	90.06
307.042	89.06
307.272	86.06
307.502	100.06
307.731	85.06
307.961	93.06
308.191	95.06
308.421	88.06
308.651	77.06
308.881	93.06
309.111	85.06
309.341	86.06
309.571	89.06
309.8	91.06
310.03	107.06
310.26	95.06
310.49	88.06
310.72	77.06
310.949	80.06
311.179	86.06
311.409	99.06
311.639	76.06
311.868	87.06
312.098	89.06
312.328	97.06
312.557	81.06
312.787	84.06
313.017	89.06
313.246	73.06
313.476	80.06
313.706	78.06
313.935	89.06
314.165	74.06
314.394	74.06
314.624	97.06
314.853	87.06
315.083	87.06
315.312	77.06
315.542	76.06
315.771	90.06
316.001	91.06
316.23	80.06
316.46	90.06
316.689	84.06
316.919	84.06
317.148	92.06
317.377	96.06
317.607	73.06
317.836	93.06
318.065	84.06
318.295	93.06
318.524	86.06
318.753	68.06
318.983	84.06
319.212	91.06
319.441	92.06
319.67	75.06
319.9	87.06
320.129	85.06
320.358	85.06
320.587	93.06
320.816	79.06
321.046	92.06
321.275	96.06
321.504	94.06
321.733	89.06
321.962	75.06
322.191	81.06
322.42	84.06
322.649	80.06
322.878	72.06
323.108	83.06
323.337	76.06
323.566	79.06
323.795	75.06
324.024	87.06
324.253	77.06
324.482	84.06
324.71	81.06
324.939	84.06
325.168	78.06
325.397	91.06
325.626	86.06
325.855	90.06
326.084	85.06
326.313	72.06
326.542	79.06
326.77	92.06
326.999	81.06
327.228	83.06
327.457	89.06
327.686	90.06
327.914	77.06
328.143	100.06
328.372	89.06
328.6	82.06
328.829	82.06
329.058	87.06
329.287	86.06
329.515	89.06
329.744	79.06
329.972	88.06
330.201	85.06
330.43	79.06
330.658	79.06
330.887	90.06
331.115	86.06
331.344	76.06
331.572	81.06
331.801	85.06
332.03	76.06
332.258	92.06
332.486	74.06
332.715	75.06
332.943	84.06
333.172	89.06
333.4	85.06
333.629	73.06
333.857	82.06
334.085	86.06
334.314	98.06
334.542	98.06
334.771	90.06
334.999	90.06
335.227	87.06
335.455	103.06
335.684	84.06
335.912	83.06
336.14	76.06
336.369	90.06
336.597	81.06
336.825	78.06
337.053	94.06
337.281	73.06
337.51	85.06
337.738	100.06
337.966	77.06
338.194	84.06
338.422	100.06
338.65	92.06
338.878	96.06
339.106	60.06
339.334	79.06
339.562	79.06
339.79	84.06
340.018	85.06
340.246	76.06
340.474	81.06
340.702	87.06
340.93	71.06
341.158	78.06
341.386	85.06
341.614	82.06
341.842	95.06
342.07	89.06
342.298	94.06
342.526	76.06
342.754	76.06
342.981	71.06
343.209	69.06
343.437	81.06
343.665	102.06
343.893	103.06
344.12	80.06
344.348	86.06
344.576	72.06
344.804	87.06
345.031	74.06
345.259	81.06
345.487	87.06
345.714	88.06
345.942	87.06
346.17	86.06
346.397	73.06
346.625	87.06
346.853	77.06
347.08	70.06
347.308	83.06
347.535	96.06
347.763	80.06
347.99	87.06
348.218	85.06
348.445	87.06
348.673	76.06
348.9	90.06
349.128	72.06
349.355	81.06
349.583	87.06
349.81	92.06
350.037	72.06
350.265	76.06
350.492	78.06
350.72	93.06
350.947	84.06
351.174	81.06
351.402	75.06
351.629	81.06
351.856	75.06
352.083	84.06
352.311	84.06
352.538	86.06
352.765	67.06
352.992	76.06
353.22	92.06
353.447	92.06
353.674	100.06
353.901	95.06
354.128	84.06
354.355	89.06
354.583	83.06
354.81	92.06
355.037	84.06
355.264	92.06
355.491	87.06
355.718	81.06
355.945	87.06
356.172	84.06
356.399	95.06
356.626	87.06
356.853	84.06
357.08	97.06
357.307	83.06
357.534	77.06
357.761	78.06
357.988	99.06
358.215	86.06
358.441	83.06
358.668	71.06
358.895	80.06
359.122	95.06
359.349	88.06
359.576	90.06
359.802	77.06
360.029	80.06
360.256	81.06
360.483	87.06
360.709	91.06
360.936	80.06
361.163	91.06
361.39	85.06
361.616	86.06
361.843	80.06
362.07	101.06
362.296	93.06
362.523	84.06
362.749	87.06
362.976	87.06
363.203	89.06
363.429	83.06
363.656	90.06
363.882	68.06
364.109	100.06
364.335	96.06
364.562	82.06
364.788	83.06
365.015	92.06
365.241	94.06
365.468	84.06
365.694	79.06
365.92	85.06
366.147	86.06
366.373	95.06
366.599	86.06
366.826	87.06
367.052	84.06
367.278	85.06
367.505	97.06
367.731	90.06
367.957	85.06
368.184	91.06
368.41	90.06
368.636	83.06
368.862	88.06
369.089	97.06
369.315	88.06
369.541	83.06
369.767	87.06
369.993	85.06
370.219	85.06
370.445	85.06
370.672	77.06
370.898	87.06
371.124	77.06
371.35	85.06
371.576	82.06
371.802	92.06
372.028	80.06
372.254	89.06
372.48	92.06
372.706	88.06
372.932	83.06
373.158	82.06
373.384	101.06
373.61	84.06
373.835	89.06
374.061	93.06
374.287	82.06
374.513	99.06
374.739	86.06
374.965	91.06
375.191	84.06
375.416	82.06
375.642	84.06
375.868	91.06
376.094	95.06
376.319	98.06
376.545	92.06
376.771	87.06
376.997	85.06
377.222	83.06
377.448	97.06
377.674	103.06
377.899	97.06
378.125	85.06
378.35	99.06
378.576	83.06
378.802	102.06
379.027	89.06
379.253	91.06
379.478	86.06
379.704	71.06
379.929	83.06
380.155	84.06
380.38	76.06
380.606	81.06
380.831	87.06
381.057	72.06
381.282	88.06
381.507	84.06
381.733	87.06
381.958	77.06
382.184	90.06
382.409	89.06
382.634	104.06
382.86	98.06
383.085	92.06
383.31	90.06
383.535	99.06
383.761	88.06
383.986	83.06
384.211	83.06
384.436	96.06
384.662	100.06
384.887	96.06
385.112	84.06
385.337	85.06
385.562	96.06
385.787	97.06
386.013	104.06
386.238	87.06
386.463	96.06
386.688	101.06
386.913	99.06
387.138	91.06
387.363	89.06
387.588	88.06
387.813	95.06
388.038	90.06
388.263	104.06
388.488	93.06
388.713	93.06
388.938	95.06
389.163	91.06
389.387	85.06
389.612	97.06
389.837	87.06
390.062	111.06
390.287	86.06
390.512	98.06
390.736	111.06
390.961	107.06
391.186	103.06
391.411	94.06
391.636	105.06
391.86	95.06
392.085	83.06
392.31	105.06
392.534	94.06
392.759	104.06
392.984	96.06
393.208	89.06
393.433	87.06
393.658	103.06
393.882	103.06
394.107	96.06
394.331	92.06
394.556	83.06
394.78	98.06
395.005	109.06
395.229	102.06
395.454	99.06
395.678	111.06
395.903	92.06
396.127	103.06
396.352	89.06
396.576	99.06
396.801	92.06
397.025	88.06
397.249	109.06
397.474	113.06
397.698	113.06
397.922	103.06
398.147	90.06
398.371	95.06
398.595	108.06
398.82	101.06
399.044	103.06
399.268	126.06
399.492	108.06
399.717	115.06
399.941	117.06
400.165	107.06
400.389	103.06
400.613	114.06
400.837	96.06
401.062	115.06
401.286	105.06
401.51	109.06
401.734	113.06
401.958	105.06
402.182	104.06
402.406	98.06
402.63	116.06
402.854	105.06
403.078	97.06
403.302	105.06
403.526	112.06
403.75	114.06
403.974	106.06
404.198	114.06
404.422	113.06
404.645	117.06
404.869	116.06
405.093	100.06
405.317	112.06
405.541	108.06
405.765	100.06
405.988	105.06
406.212	109.06
406.436	135.06
406.66	115.06
406.883	103.06
407.107	106.06
407.331	117.06
407.555	110.06
407.778	106.06
408.002	122.06
408.226	115.06
408.449	117.06
408.673	116.06
408.896	113.06
409.12	104.06
409.344	99.06
409.567	102.06
409.791	105.06
410.014	117.06
410.238	125.06
410.461	104.06
410.685	116.06
410.908	113.06
411.132	107.06
411.355	106.06
411.578	114.06
411.802	89.06
412.025	129.06
412.249	119.06
412.472	117.06
412.695	102.06
412.919	95.06
413.142	119.06
413.365	107.06
413.589	98.06
413.812	119.06
414.035	119.06
414.258	110.06
414.482	117.06
414.705	106.06
414.928	115.06
415.151	116.06
415.374	115.06
415.597	119.06
415.821	124.06
416.044	104.06
416.267	119.06
416.49	113.06
416.713	97.06
416.936	120.06
417.159	102.06
417.382	104.06
417.605	117.06
417.828	135.06
418.051	118.06
418.274	131.06
418.497	129.06
418.72	129.06
418.943	123.06
419.166	110.06
419.389	122.06
419.611	125.06
419.834	126.06
420.057	117.06
420.28	112.06
420.503	106.06
420.726	118.06
420.948	109.06
421.171	115.06
421.394	128.06
421.617	119.06
421.839	112.06
422.062	121.06
422.285	111.06
422.507	116.06
422.73	122.06
422.953	93.06
423.175	107.06
423.398	135.06
423.621	117.06
423.843	131.06
424.066	113.06
424.288	121.06
424.511	122.06
424.733	108.06
424.956	105.06
425.178	127.06
425.401	119.06
425.623	121.06
425.846	107.06
426.068	109.06
426.291	128.06
426.513	102.06
426.735	101.06
426.958	104.06
427.18	114.06
427.402	103.06
427.625	121.06
427.847	107.06
428.069	118.06
428.292	112.06
428.514	116.06
428.736	120.06
428.958	121.06
429.181	112.06
429.403	107.06
429.625	113.06
429.847	111.06
430.069	106.06
430.292	113.06
430.514	115.06
430.736	118.06
430.958	117.06
431.18	106.06
431.402	121.06
431.624	117.06
431.846	92.06
432.068	96.06
432.29	101.06
432.512	126.06
432.734	109.06
432.956	115.06
433.178	101.06
433.4	119.06
433.622	121.06
433.844	123.06
434.066	116.06
434.287	117.06
434.509	108.06
434.731	104.06
434.953	104.06
435.175	101.06
435.397	111.06
435.618	113.06
435.84	119.06
436.062	114.06
436.284	99.06
436.505	112.06
436.727	111.06
436.949	112.06
437.17	123.06
437.392	115.06
437.614	123.06
437.835	106.06
438.057	97.06
438.278	113.06
438.5	118.06
438.721	111.06
438.943	117.06
439.165	109.06
439.386	125.06
439.608	115.06
439.829	123.06
440.05	131.06
440.272	122.06
440.493	114.06
440.715	124.06
440.936	127.06
441.158	118.06
441.379	131.06
441.6	125.06
441.822	124.06
442.043	120.06
442.264	124.06
442.486	117.06
442.707	117.06
442.928	128.06
443.149	123.06
443.371	121.06
443.592	115.06
443.813	126.06
444.034	123.06
444.255	131.06
444.476	119.06
444.698	139.06
444.919	132.06
445.14	250.06
445.361	185.06
445.582	127.06
445.803	129.06
446.024	141.06
446.245	126.06
446.466	124.06
446.687	114.06
446.908	120.06
447.129	121.06
447.35	117.06
447.571	132.06
447.792	119.06
448.013	115.06
448.234	124.06
448.455	108.06
448.675	116.06
448.896	123.06
449.117	108.06
449.338	119.06
449.559	119.06
449.779	117.06
450	124.06
450.221	121.06
450.442	111.06
450.662	118.06
450.883	115.06
451.104	122.06
451.324	111.06
451.545	111.06
451.766	115.06
451.986	113.06
452.207	100.06
452.428	106.06
452.648	107.06
452.869	112.06
453.089	106.06
453.31	105.06
453.53	109.06
453.751	100.06
453.971	95.06
454.192	95.06
454.412	122.06
454.633	115.06
454.853	109.06
455.073	108.06
455.294	93.06
455.514	115.06
455.734	116.06
455.955	92.06
456.175	114.06
456.395	115.06
456.616	117.06
456.836	114.06
457.056	109.06
457.276	96.06
457.497	116.06
457.717	104.06
457.937	111.06
458.157	99.06
458.377	102.06
458.598	108.06
458.818	108.06
459.038	78.06
459.258	97.06
459.478	89.06
459.698	111.06
459.918	110.06
460.138	107.06
460.358	126.06
460.578	125.06
460.798	122.06
461.018	115.06
461.238	114.06
461.458	120.06
461.678	121.06
461.898	126.06
462.118	112.06
462.338	132.06
462.558	129.06
462.777	127.06
462.997	130.06
463.217	145.06
463.437	140.06
463.657	127.06
463.876	103.06
464.096	105.06
464.316	121.06
464.536	121.06
464.755	122.06
464.975	127.06
465.195	131.06
465.414	113.06
465.634	106.06
465.854	101.06
466.073	127.06
466.293	117.06
466.512	115.06
466.732	118.06
466.951	120.06
467.171	121.06
467.391	116.06
467.61	100.06
467.829	117.06
468.049	107.06
468.268	109.06
468.488	120.06
468.707	122.06
468.927	111.06
469.146	114.06
469.365	120.06
469.585	124.06
469.804	132.06
470.023	111.06
470.243	115.06
470.462	131.06
470.681	109.06
470.901	117.06
471.12	120.06
471.339	132.06
471.558	127.06
471.777	132.06
471.997	106.06
472.216	116.06
472.435	109.06
472.654	101.06
472.873	117.06
473.092	108.06
473.311	125.06
473.53	113.06
473.749	117.06
473.968	114.06
474.187	120.06
474.406	103.06
474.625	106.06
474.844	115.06
475.063	97.06
475.282	119.06
475.501	105.06
475.72	115.06
475.939	119.06
476.158	111.06
476.377	109.06
476.596	117.06
476.814	124.06
477.033	131.06
477.252	113.06
477.471	117.06
477.69	114.06
477.908	133.06
478.127	122.06
478.346	129.06
478.564	130.06
478.783	122.06
479.002	123.06
479.22	133.06
479.439	128.06
479.658	119.06
479.876	115.06
480.095	103.06
480.313	129.06
480.532	116.06
480.751	121.06
480.969	113.06
481.188	100.06
481.406	116.06
481.624	93.06
481.843	115.06
482.061	113.06
482.28	109.06
482.498	116.06
482.717	114.06
482.935	119.06
483.153	110.06
483.372	117.06
483.59	122.06
483.808	120.06
484.027	127.06
484.245	128.06
484.463	140.06
484.681	128.06
484.9	130.06
485.118	134.06
485.336	120.06
485.554	123.06
485.772	125.06
485.99	120.06
486.209	127.06
486.427	124.06
486.645	111.06
486.863	143.06
487.081	136.06
487.299	123.06
487.517	125.06
487.735	131.06
487.953	144.06
488.171	133.06
488.389	140.06
488.607	139.06
488.825	140.06
489.043	115.06
489.261	127.06
489.479	125.06
489.696	122.06
489.914	113.06
490.132	125.06
490.35	128.06
490.568	140.06
490.786	133.06
491.003	141.06
491.221	153.06
491.439	149.06
491.657	152.06
491.874	167.06
492.092	168.06
492.31	175.06
492.527	161.06
492.745	172.06
492.963	163.06
493.18	155.06
493.398	147.06
493.615	160.06
493.833	146.06
494.05	147.06
494.268	140.06
494.485	155.06
494.703	153.06
494.92	149.06
495.138	134.06
495.355	143.06
495.573	134.06
495.79	147.06
496.008	175.06
496.225	169.06
496.442	160.06
496.66	145.06
496.877	151.06
497.094	135.06
497.312	149.06
497.529	153.06
497.746	137.06
497.963	144.06
498.181	138.06
498.398	141.06
498.615	134.06
498.832	139.06
499.049	156.06
499.267	163.06
499.484	171.06
499.701	182.06
499.918	202.06
500.135	203.06
500.352	217.06
500.569	216.06
500.786	230.06
501.003	213.06
501.22	205.06
501.437	188.06
501.654	171.06
501.871	163.06
502.088	160.06
502.305	147.06
502.522	152.06
502.739	159.06
502.956	124.06
503.172	149.06
503.389	145.06
503.606	126.06
503.823	123.06
504.04	148.06
504.256	123.06
504.473	132.06
504.69	138.06
504.907	143.06
505.123	141.06
505.34	123.06
505.557	139.06
505.773	138.06
505.99	133.06
506.207	135.06
506.423	126.06
506.64	122.06
506.856	131.06
507.073	117.06
507.289	140.06
507.506	119.06
507.722	120.06
507.939	108.06
508.155	131.06
508.372	121.06
508.588	119.06
508.805	106.06
509.021	123.06
509.238	129.06
509.454	125.06
509.67	117.06
509.887	116.06
510.103	136.06
510.319	123.06
510.536	115.06
510.752	120.06
510.968	109.06
511.184	107.06
511.401	98.06
511.617	108.06
511.833	97.06
512.049	128.06
512.265	115.06
512.481	115.06
512.698	107.06
512.914	120.06
513.13	115.06
513.346	111.06
513.562	119.06
513.778	106.06
513.994	105.06
514.21	115.06
514.426	105.06
514.642	118.06
514.858	123.06
515.074	108.06
515.29	108.06
515.506	110.06
515.721	123.06
515.937	110.06
516.153	119.06
516.369	115.06
516.585	107.06
516.801	118.06
517.016	113.06
517.232	117.06
517.448	123.06
517.664	127.06
517.879	135.06
518.095	126.06
518.311	121.06
518.527	125.06
518.742	108.06
518.958	122.06
519.173	130.06
519.389	129.06
519.605	118.06
519.82	115.06
520.036	119.06
520.251	105.06
520.467	118.06
520.682	113.06
520.898	122.06
521.113	115.06
521.329	112.06
521.544	123.06
521.76	117.06
521.975	124.06
522.19	117.06
522.406	116.06
522.621	116.06
522.836	115.06
523.052	121.06
523.267	120.06
523.482	106.06
523.698	91.06
523.913	105.06
524.128	121.06
524.343	124.06
524.559	124.06
524.774	122.06
524.989	121.06
525.204	120.06
525.419	102.06
525.634	116.06
525.849	121.06
526.064	115.06
526.28	114.06
526.495	88.06
526.71	106.06
526.925	103.06
527.14	105.06
527.355	105.06
527.57	114.06
527.785	94.06
527.999	114.06
528.214	104.06
528.429	117.06
528.644	115.06
528.859	123.06
529.074	125.06
529.289	131.06
529.503	130.06
529.718	107.06
529.933	103.06
530.148	116.06
530.363	116.06
530.577	119.06
530.792	107.06
531.007	105.06
531.221	106.06
531.436	113.06
531.651	103.06
531.865	104.06
532.08	85.06
532.295	104.06
532.509	108.06
532.724	100.06
532.938	105.06
533.153	114.06
533.367	113.06
533.582	104.06
533.796	119.06
534.011	121.06
534.225	103.06
534.44	98.06
534.654	103.06
534.868	103.06
535.083	99.06
535.297	102.06
535.511	109.06
535.726	111.06
535.94	100.06
536.154	102.06
536.369	97.06
536.583	105.06
536.797	122.06
537.011	106.06
537.225	109.06
537.44	98.06
537.654	108.06
537.868	100.06
538.082	97.06
538.296	108.06
538.51	104.06
538.724	120.06
538.938	115.06
539.153	117.06
539.367	98.06
539.581	114.06
539.795	100.06
540.009	111.06
540.222	107.06
540.436	123.06
540.65	123.06
540.864	115.06
541.078	131.06
541.292	115.06
541.506	122.06
541.72	127.06
541.934	127.06
542.147	139.06
542.361	135.06
542.575	113.06
542.789	118.06
543.002	123.06
543.216	121.06
543.43	106.06
543.644	129.06
543.857	119.06
544.071	135.06
544.285	140.06
544.498	144.06
544.712	134.06
544.925	136.06
545.139	124.06
545.352	131.06
545.566	129.06
545.779	120.06
545.993	145.06
546.206	149.06
546.42	144.06
546.633	140.06
546.847	133.06
547.06	132.06
547.274	135.06
547.487	143.06
547.7	137.06
547.914	141.06
548.127	121.06
548.34	140.06
548.554	136.06
548.767	141.06
548.98	138.06
549.193	124.06
549.407	133.06
549.62	125.06
549.833	142.06
550.046	133.06
550.259	128.06
550.473	125.06
550.686	132.06
550.899	120.06
551.112	123.06
551.325	130.06
551.538	115.06
551.751	124.06
551.964	112.06
552.177	116.06
552.39	140.06
552.603	128.06
552.816	117.06
553.029	122.06
553.242	127.06
553.455	123.06
553.667	140.06
553.88	132.06
554.093	137.06
554.306	129.06
554.519	120.06
554.732	117.06
554.944	126.06
555.157	135.06
555.37	133.06
555.583	118.06
555.795	117.06
556.008	117.06
556.221	113.06
556.433	129.06
556.646	123.06
556.859	111.06
557.071	117.06
557.284	115.06
557.496	120.06
557.709	123.06
557.921	119.06
558.134	115.06
558.346	111.06
558.559	118.06
558.771	120.06
558.984	119.06
559.196	117.06
559.409	115.06
559.621	113.06
559.833	120.06
560.046	112.06
560.258	103.06
560.47	106.06
560.683	111.06
560.895	121.06
561.107	106.06
561.32	117.06
561.532	118.06
561.744	117.06
561.956	114.06
562.168	109.06
562.381	107.06
562.593	98.06
562.805	123.06
563.017	108.06
563.229	107.06
563.441	112.06
563.653	123.06
563.865	116.06
564.077	119.06
564.289	121.06
564.501	103.06
564.713	97.06
564.925	113.06
565.137	117.06
565.349	117.06
565.561	127.06
565.773	105.06
565.985	108.06
566.197	115.06
566.408	107.06
566.62	125.06
566.832	127.06
567.044	120.06
567.255	124.06
567.467	131.06
567.679	114.06
567.891	131.06
568.102	137.06
568.314	123.06
568.526	117.06
568.737	106.06
568.949	107.06
569.161	98.06
569.372	107.06
569.584	92.06
569.795	97.06
570.007	92.06
570.218	91.06
570.43	93.06
570.641	90.06
570.853	95.06
571.064	98.06
571.276	105.06
571.487	88.06
571.698	100.06
571.91	114.06
572.121	103.06
572.333	97.06
572.544	92.06
572.755	107.06
572.966	105.06
573.178	103.06
573.389	101.06
573.6	112.06
573.811	97.06
574.023	98.06
574.234	100.06
574.445	110.06
574.656	98.06
574.867	103.06
575.078	83.06
575.289	87.06
575.501	96.06
575.712	96.06
575.923	96.06
576.134	111.06
576.345	94.06
576.556	112.06
576.767	96.06
576.978	115.06
577.188	97.06
577.399	102.06
577.61	96.06
577.821	98.06
578.032	107.06
578.243	96.06
578.454	91.06
578.665	94.06
578.875	104.06
579.086	91.06
579.297	86.06
579.508	81.06
579.718	103.06
579.929	111.06
580.14	93.06
580.35	100.06
580.561	96.06
580.772	81.06
580.982	107.06
581.193	96.06
581.403	87.06
581.614	102.06
581.825	98.06
582.035	92.06
582.246	107.06
582.456	80.06
582.667	82.06
582.877	92.06
583.087	98.06
583.298	100.06
583.508	87.06
583.719	85.06
583.929	88.06
584.139	107.06
584.35	99.06
584.56	100.06
584.77	102.06
584.981	89.06
585.191	112.06
585.401	99.06
585.611	107.06
585.821	84.06
586.032	95.06
586.242	89.06
586.452	97.06
586.662	89.06
586.872	87.06
587.082	88.06
587.292	92.06
587.502	89.06
587.713	93.06
587.923	93.06
588.133	86.06
588.343	95.06
588.553	88.06
588.762	99.06
588.972	99.06
589.182	93.06
589.392	98.06
589.602	85.06
589.812	83.06
590.022	97.06
590.232	96.06
590.441	91.06
590.651	98.06
590.861	80.06
591.071	94.06
591.281	85.06
591.49	106.06
591.7	85.06
591.91	94.06
592.119	91.06
592.329	90.06
592.539	97.06
592.748	105.06
592.958	85.06
593.167	90.06
593.377	91.06
593.587	101.06
593.796	81.06
594.006	95.06
594.215	101.06
594.424	98.06
594.634	96.06
594.843	105.06
595.053	98.06
595.262	93.06
595.472	86.06
595.681	95.06
595.89	109.06
596.1	107.06
596.309	103.06
596.518	92.06
596.727	106.06
596.937	92.06
597.146	76.06
597.355	95.06
597.564	98.06
597.774	91.06
597.983	89.06
598.192	85.06
598.401	90.06
598.61	92.06
598.819	88.06
599.028	87.06
599.237	92.06
599.446	110.06
599.655	112.06
599.864	96.06
600.073	97.06
600.282	88.06
600.491	103.06
600.7	91.06
600.909	99.06
601.118	102.06
601.327	82.06
601.536	86.06
601.745	107.06
601.953	108.06
602.162	96.06
602.371	105.06
602.58	95.06
602.789	90.06
602.997	103.06
603.206	92.06
603.415	93.06
603.623	108.06
603.832	101.06
604.041	96.06
604.249	93.06
604.458	84.06
604.666	87.06
604.875	92.06
605.084	104.06
605.292	93.06
605.501	98.06
605.709	92.06
605.918	96.06
606.126	89.06
606.334	106.06
606.543	94.06
606.751	105.06
606.96	92.06
607.168	96.06
607.376	92.06
607.585	95.06
607.793	90.06
608.001	77.06
608.21	108.06
608.418	95.06
608.626	103.06
608.834	103.06
609.043	87.06
609.251	92.06
609.459	102.06
609.667	107.06
609.875	93.06
610.083	92.06
610.291	90.06
610.499	98.06
610.707	87.06
610.916	96.06
611.124	115.06
611.332	99.06
611.54	79.06
611.748	88.06
611.955	98.06
612.163	89.06
612.371	101.06
612.579	106.06
612.787	101.06
612.995	94.06
613.203	84.06
613.411	90.06
613.618	97.06
613.826	87.06
614.034	97.06
614.242	91.06
614.449	99.06
614.657	107.06
614.865	82.06
615.072	96.06
615.28	92.06
615.488	97.06
615.695	114.06
615.903	85.06
616.111	90.06
616.318	103.06
616.526	99.06
616.733	105.06
616.941	107.06
617.148	86.06
617.356	91.06
617.563	74.06
617.771	88.06
617.978	98.06
618.185	95.06
618.393	100.06
618.6	87.06
618.807	107.06
619.015	103.06
619.222	91.06
619.429	80.06
619.637	102.06
619.844	89.06
620.051	91.06
620.258	90.06
620.466	88.06
620.673	81.06
620.88	87.06
621.087	89.06
621.294	88.06
621.501	86.06
621.708	92.06
621.915	89.06
622.122	85.06
622.329	100.06
622.536	105.06
622.743	93.06
622.95	83.06
623.157	82.06
623.364	68.06
623.571	91.06
623.778	95.06
623.985	97.06
624.192	97.06
624.399	97.06
624.606	94.06
624.812	95.06
625.019	99.06
625.226	89.06
625.433	88.06
625.639	88.06
625.846	89.06
626.053	93.06
626.259	83.06
626.466	82.06
626.673	83.06
626.879	85.06
627.086	114.06
627.293	81.06
627.499	87.06
627.706	83.06
627.912	79.06
628.119	93.06
628.325	97.06
628.532	84.06
628.738	91.06
628.945	98.06
629.151	84.06
629.357	95.06
629.564	90.06
629.77	84.06
629.976	90.06
630.183	95.06
630.389	96.06
630.595	93.06
630.802	93.06
631.008	102.06
631.214	85.06
631.42	93.06
631.627	85.06
631.833	88.06
632.039	100.06
632.245	96.06
632.451	93.06
632.657	87.06
632.863	97.06
633.069	103.06
633.275	91.06
633.481	89.06
633.688	97.06
633.893	108.06
634.099	93.06
634.305	85.06
634.511	98.06
634.717	94.06
634.923	97.06
635.129	91.06
635.335	90.06
635.541	87.06
635.747	106.06
635.952	87.06
636.158	91.06
636.364	81.06
636.57	81.06
636.775	90.06
636.981	81.06
637.187	83.06
637.392	84.06
637.598	91.06
637.804	100.06
638.009	86.06
638.215	84.06
638.421	91.06
638.626	88.06
638.832	95.06
639.037	96.06
639.243	97.06
639.448	93.06
639.654	92.06
639.859	77.06
640.065	87.06
640.27	100.06
640.475	91.06
640.681	90.06
640.886	78.06
641.091	92.06
641.297	106.06
641.502	102.06
641.707	98.06
641.913	91.06
642.118	87.06
642.323	77.06
642.528	87.06
642.733	83.06
642.939	94.06
643.144	78.06
643.349	88.06
643.554	93.06
643.759	72.06
643.964	88.06
644.169	100.06
644.374	88.06
644.579	93.06
644.784	88.06
644.989	87.06
645.194	82.06
645.399	101.06
645.604	74.06
645.809	92.06
646.014	89.06
646.219	97.06
646.423	90.06
646.628	90.06
646.833	91.06
647.038	95.06
647.243	96.06
647.447	92.06
647.652	93.06
647.857	80.06
648.062	101.06
648.266	104.06
648.471	75.06
648.676	66.06
648.88	82.06
649.085	98.06
649.289	85.06
649.494	86.06
649.698	98.06
649.903	87.06
650.107	111.06
650.312	87.06
650.516	93.06
650.721	94.06
650.925	96.06
651.13	90.06
651.334	96.06
651.539	91.06
651.743	79.06
651.947	99.06
652.152	73.06
652.356	93.06
652.56	98.06
652.764	76.06
652.969	80.06
653.173	90.06
653.377	85.06
653.581	85.06
653.785	78.06
653.99	99.06
654.194	98.06
654.398	80.06
654.602	99.06
654.806	83.06
655.01	90.06
655.214	89.06
655.418	92.06
655.622	92.06
655.826	85.06
656.03	92.06
656.234	77.06
656.438	87.06
656.642	79.06
656.846	81.06
657.049	104.06
657.253	105.06
657.457	83.06
657.661	80.06
657.865	85.06
658.068	82.06
658.272	85.06
658.476	80.06
658.68	84.06
658.883	78.06
659.087	83.06
659.291	84.06
659.494	88.06
659.698	80.06
659.901	84.06
660.105	83.06
660.309	82.06
660.512	83.06
660.716	92.06
660.919	87.06
661.123	91.06
661.326	86.06
661.53	84.06
661.733	94.06
661.936	83.06
662.14	81.06
662.343	98.06
662.546	73.06
662.75	80.06
662.953	74.06
663.156	91.06
663.36	92.06
663.563	74.06
663.766	69.06
663.969	73.06
664.173	80.06
664.376	86.06
664.579	69.06
664.782	75.06
664.985	59.06
665.188	78.06
665.391	81.06
665.594	86.06
665.797	96.06
666	76.06
666.203	71.06
666.406	77.06
666.609	59.06
666.812	90.06
667.015	87.06
667.218	84.06
667.421	84.06
667.624	92.06
667.827	81.06
668.03	74.06
668.232	86.06
668.435	89.06
668.638	63.06
668.841	85.06
669.043	85.06
669.246	75.06
669.449	76.06
669.651	83.06
669.854	85.06
670.057	88.06
670.259	80.06
670.462	93.06
670.665	89.06
670.867	87.06
671.07	73.06
671.272	80.06
671.475	83.06
671.677	81.06
671.88	82.06
672.082	81.06
672.284	67.06
672.487	82.06
672.689	66.06
672.892	92.06
