Data from StandardFe(NO3)3.TAE.3%Agarose.FlatLispGreen.Lamp.Energy10.07252019_HRD10591_11-55-31-441.txt Node
Date: Thu Jul 25 11:55:31 EDT 2019
User: cochatt
Spectrometer: HR+D1059
Trigger mode: 1
Integration Time (sec): 1.000000E-1
Scans to average: 1
Electric dark correction enabled: true
Nonlinearity correction enabled: false
Boxcar width: 0
XAxis mode: Wavelengths
Number of Pixels in Spectrum: 2048
>>>>>Begin Spectral Data<<<<<
223.165	-24.31
223.4	-24.31
223.635	-24.31
223.869	-16.31
224.104	-9.31
224.338	-22.31
224.573	-9.31
224.808	-12.31
225.042	-15.31
225.277	-9.31
225.511	-2.31
225.746	-5.31
225.98	1.69
226.215	13.69
226.449	35.69
226.683	27.69
226.918	14.69
227.152	32.69
227.387	40.69
227.621	17.69
227.856	40.69
228.09	44.69
228.324	53.69
228.559	52.69
228.793	48.69
229.027	73.69
229.262	61.69
229.496	55.69
229.73	77.69
229.964	72.69
230.199	77.69
230.433	94.69
230.667	74.69
230.901	74.69
231.136	72.69
231.37	74.69
231.604	80.69
231.838	74.69
232.072	75.69
232.306	82.69
232.541	92.69
232.775	78.69
233.009	89.69
233.243	76.69
233.477	85.69
233.711	82.69
233.945	92.69
234.179	73.69
234.413	69.69
234.647	69.69
234.881	68.69
235.115	82.69
235.349	83.69
235.583	57.69
235.817	67.69
236.051	74.69
236.285	78.69
236.519	76.69
236.753	94.69
236.987	84.69
237.221	82.69
237.455	83.69
237.689	78.69
237.922	76.69
238.156	81.69
238.39	81.69
238.624	95.69
238.858	80.69
239.091	73.69
239.325	84.69
239.559	72.69
239.793	86.69
240.027	64.69
240.26	80.69
240.494	72.69
240.728	85.69
240.961	88.69
241.195	75.69
241.429	84.69
241.662	84.69
241.896	84.69
242.13	62.69
242.363	85.69
242.597	81.69
242.83	80.69
243.064	88.69
243.298	85.69
243.531	91.69
243.765	93.69
243.998	81.69
244.232	87.69
244.465	68.69
244.699	83.69
244.932	69.69
245.166	75.69
245.399	81.69
245.633	83.69
245.866	78.69
246.099	80.69
246.333	83.69
246.566	82.69
246.8	81.69
247.033	73.69
247.266	92.69
247.5	102.69
247.733	85.69
247.966	89.69
248.2	81.69
248.433	79.69
248.666	72.69
248.899	88.69
249.133	68.69
249.366	84.69
249.599	88.69
249.832	72.69
250.066	76.69
250.299	94.69
250.532	74.69
250.765	90.69
250.998	86.69
251.231	87.69
251.465	93.69
251.698	91.69
251.931	86.69
252.164	65.69
252.397	81.69
252.63	58.69
252.863	86.69
253.096	65.69
253.329	78.69
253.562	85.69
253.795	71.69
254.028	81.69
254.261	84.69
254.494	86.69
254.727	76.69
254.96	76.69
255.193	83.69
255.426	74.69
255.659	73.69
255.892	81.69
256.124	74.69
256.357	94.69
256.59	89.69
256.823	72.69
257.056	79.69
257.289	90.69
257.521	72.69
257.754	72.69
257.987	80.69
258.22	91.69
258.452	85.69
258.685	78.69
258.918	77.69
259.151	82.69
259.383	92.69
259.616	67.69
259.849	70.69
260.081	76.69
260.314	75.69
260.547	76.69
260.779	83.69
261.012	80.69
261.244	67.69
261.477	83.69
261.71	85.69
261.942	81.69
262.175	68.69
262.407	75.69
262.64	77.69
262.872	88.69
263.105	73.69
263.337	81.69
263.57	84.69
263.802	64.69
264.035	76.69
264.267	75.69
264.499	83.69
264.732	91.69
264.964	86.69
265.197	65.69
265.429	81.69
265.661	79.69
265.894	74.69
266.126	89.69
266.358	76.69
266.591	83.69
266.823	79.69
267.055	84.69
267.287	88.69
267.52	92.69
267.752	72.69
267.984	84.69
268.216	85.69
268.448	84.69
268.681	83.69
268.913	82.69
269.145	78.69
269.377	83.69
269.609	86.69
269.841	91.69
270.073	82.69
270.306	85.69
270.538	89.69
270.77	77.69
271.002	89.69
271.234	71.69
271.466	73.69
271.698	85.69
271.93	105.69
272.162	80.69
272.394	67.69
272.626	85.69
272.858	67.69
273.09	75.69
273.322	95.69
273.553	66.69
273.785	84.69
274.017	67.69
274.249	101.69
274.481	82.69
274.713	92.69
274.945	76.69
275.176	64.69
275.408	91.69
275.64	84.69
275.872	77.69
276.104	79.69
276.335	77.69
276.567	76.69
276.799	86.69
277.031	88.69
277.262	94.69
277.494	83.69
277.726	79.69
277.957	87.69
278.189	86.69
278.421	101.69
278.652	79.69
278.884	92.69
279.115	85.69
279.347	74.69
279.579	86.69
279.81	86.69
280.042	90.69
280.273	86.69
280.505	75.69
280.736	92.69
280.968	95.69
281.199	77.69
281.431	83.69
281.662	87.69
281.894	77.69
282.125	87.69
282.356	84.69
282.588	75.69
282.819	83.69
283.051	89.69
283.282	91.69
283.513	68.69
283.745	74.69
283.976	94.69
284.207	85.69
284.439	75.69
284.67	86.69
284.901	65.69
285.132	76.69
285.364	78.69
285.595	84.69
285.826	69.69
286.057	78.69
286.288	79.69
286.52	82.69
286.751	78.69
286.982	81.69
287.213	89.69
287.444	65.69
287.675	69.69
287.906	83.69
288.138	75.69
288.369	85.69
288.6	89.69
288.831	78.69
289.062	74.69
289.293	77.69
289.524	75.69
289.755	82.69
289.986	93.69
290.217	83.69
290.448	95.69
290.679	83.69
290.91	80.69
291.141	91.69
291.371	83.69
291.602	100.69
291.833	71.69
292.064	84.69
292.295	72.69
292.526	68.69
292.757	76.69
292.987	89.69
293.218	75.69
293.449	88.69
293.68	87.69
293.91	99.69
294.141	100.69
294.372	86.69
294.603	78.69
294.833	74.69
295.064	78.69
295.295	87.69
295.525	89.69
295.756	89.69
295.987	79.69
296.217	83.69
296.448	90.69
296.679	81.69
296.909	85.69
297.14	89.69
297.37	83.69
297.601	85.69
297.831	94.69
298.062	84.69
298.292	80.69
298.523	78.69
298.753	89.69
298.984	77.69
299.214	87.69
299.445	83.69
299.675	82.69
299.905	89.69
300.136	96.69
300.366	80.69
300.597	86.69
300.827	93.69
301.057	85.69
301.288	98.69
301.518	84.69
301.748	83.69
301.979	88.69
302.209	84.69
302.439	88.69
302.669	84.69
302.9	80.69
303.13	82.69
303.36	75.69
303.59	89.69
303.82	89.69
304.051	84.69
304.281	94.69
304.511	88.69
304.741	86.69
304.971	98.69
305.201	94.69
305.431	97.69
305.661	84.69
305.891	83.69
306.121	86.69
306.352	90.69
306.582	82.69
306.812	82.69
307.042	88.69
307.272	96.69
307.502	83.69
307.731	90.69
307.961	87.69
308.191	92.69
308.421	73.69
308.651	83.69
308.881	80.69
309.111	82.69
309.341	69.69
309.571	92.69
309.8	76.69
310.03	73.69
310.26	84.69
310.49	78.69
310.72	87.69
310.949	94.69
311.179	91.69
311.409	74.69
311.639	96.69
311.868	75.69
312.098	92.69
312.328	86.69
312.557	77.69
312.787	98.69
313.017	87.69
313.246	84.69
313.476	92.69
313.706	90.69
313.935	79.69
314.165	91.69
314.394	86.69
314.624	81.69
314.853	81.69
315.083	93.69
315.312	90.69
315.542	76.69
315.771	97.69
316.001	77.69
316.23	78.69
316.46	90.69
316.689	76.69
316.919	77.69
317.148	97.69
317.377	86.69
317.607	86.69
317.836	101.69
318.065	109.69
318.295	89.69
318.524	93.69
318.753	84.69
318.983	91.69
319.212	88.69
319.441	84.69
319.67	85.69
319.9	88.69
320.129	98.69
320.358	83.69
320.587	90.69
320.816	97.69
321.046	88.69
321.275	96.69
321.504	84.69
321.733	77.69
321.962	84.69
322.191	83.69
322.42	83.69
322.649	100.69
322.878	82.69
323.108	90.69
323.337	85.69
323.566	88.69
323.795	78.69
324.024	76.69
324.253	81.69
324.482	82.69
324.71	93.69
324.939	80.69
325.168	105.69
325.397	104.69
325.626	89.69
325.855	84.69
326.084	88.69
326.313	82.69
326.542	72.69
326.77	88.69
326.999	83.69
327.228	87.69
327.457	86.69
327.686	81.69
327.914	77.69
328.143	83.69
328.372	87.69
328.6	92.69
328.829	80.69
329.058	71.69
329.287	90.69
329.515	80.69
329.744	72.69
329.972	76.69
330.201	91.69
330.43	85.69
330.658	92.69
330.887	90.69
331.115	80.69
331.344	93.69
331.572	89.69
331.801	92.69
332.03	84.69
332.258	92.69
332.486	72.69
332.715	93.69
332.943	86.69
333.172	92.69
333.4	92.69
333.629	74.69
333.857	100.69
334.085	79.69
334.314	90.69
334.542	82.69
334.771	76.69
334.999	81.69
335.227	95.69
335.455	90.69
335.684	86.69
335.912	98.69
336.14	91.69
336.369	67.69
336.597	93.69
336.825	90.69
337.053	77.69
337.281	69.69
337.51	78.69
337.738	98.69
337.966	90.69
338.194	90.69
338.422	97.69
338.65	87.69
338.878	83.69
339.106	68.69
339.334	94.69
339.562	85.69
339.79	85.69
340.018	86.69
340.246	81.69
340.474	82.69
340.702	75.69
340.93	87.69
341.158	93.69
341.386	84.69
341.614	84.69
341.842	66.69
342.07	92.69
342.298	78.69
342.526	92.69
342.754	84.69
342.981	85.69
343.209	85.69
343.437	84.69
343.665	83.69
343.893	82.69
344.12	78.69
344.348	99.69
344.576	79.69
344.804	90.69
345.031	82.69
345.259	88.69
345.487	82.69
345.714	86.69
345.942	85.69
346.17	79.69
346.397	78.69
346.625	85.69
346.853	81.69
347.08	88.69
347.308	89.69
347.535	89.69
347.763	91.69
347.99	96.69
348.218	85.69
348.445	82.69
348.673	73.69
348.9	77.69
349.128	69.69
349.355	82.69
349.583	87.69
349.81	76.69
350.037	83.69
350.265	78.69
350.492	85.69
350.72	77.69
350.947	83.69
351.174	83.69
351.402	84.69
351.629	96.69
351.856	91.69
352.083	71.69
352.311	87.69
352.538	88.69
352.765	76.69
352.992	83.69
353.22	92.69
353.447	102.69
353.674	86.69
353.901	84.69
354.128	70.69
354.355	70.69
354.583	76.69
354.81	93.69
355.037	100.69
355.264	78.69
355.491	85.69
355.718	82.69
355.945	85.69
356.172	94.69
356.399	91.69
356.626	85.69
356.853	80.69
357.08	70.69
357.307	92.69
357.534	88.69
357.761	93.69
357.988	84.69
358.215	77.69
358.441	91.69
358.668	93.69
358.895	82.69
359.122	82.69
359.349	86.69
359.576	79.69
359.802	89.69
360.029	84.69
360.256	97.69
360.483	81.69
360.709	78.69
360.936	85.69
361.163	89.69
361.39	80.69
361.616	97.69
361.843	98.69
362.07	102.69
362.296	82.69
362.523	84.69
362.749	85.69
362.976	77.69
363.203	101.69
363.429	80.69
363.656	82.69
363.882	80.69
364.109	99.69
364.335	64.69
364.562	91.69
364.788	83.69
365.015	76.69
365.241	90.69
365.468	86.69
365.694	102.69
365.92	91.69
366.147	90.69
366.373	91.69
366.599	89.69
366.826	98.69
367.052	98.69
367.278	85.69
367.505	83.69
367.731	89.69
367.957	105.69
368.184	83.69
368.41	82.69
368.636	93.69
368.862	86.69
369.089	88.69
369.315	89.69
369.541	92.69
369.767	92.69
369.993	78.69
370.219	74.69
370.445	88.69
370.672	79.69
370.898	85.69
371.124	86.69
371.35	88.69
371.576	78.69
371.802	87.69
372.028	83.69
372.254	97.69
372.48	82.69
372.706	81.69
372.932	89.69
373.158	94.69
373.384	72.69
373.61	87.69
373.835	76.69
374.061	85.69
374.287	82.69
374.513	70.69
374.739	86.69
374.965	88.69
375.191	88.69
375.416	93.69
375.642	98.69
375.868	79.69
376.094	96.69
376.319	88.69
376.545	83.69
376.771	106.69
376.997	85.69
377.222	99.69
377.448	87.69
377.674	80.69
377.899	87.69
378.125	88.69
378.35	103.69
378.576	88.69
378.802	93.69
379.027	99.69
379.253	96.69
379.478	90.69
379.704	101.69
379.929	94.69
380.155	90.69
380.38	106.69
380.606	85.69
380.831	94.69
381.057	106.69
381.282	85.69
381.507	98.69
381.733	88.69
381.958	96.69
382.184	87.69
382.409	92.69
382.634	87.69
382.86	86.69
383.085	74.69
383.31	86.69
383.535	84.69
383.761	104.69
383.986	104.69
384.211	103.69
384.436	91.69
384.662	85.69
384.887	95.69
385.112	93.69
385.337	111.69
385.562	90.69
385.787	96.69
386.013	84.69
386.238	98.69
386.463	104.69
386.688	103.69
386.913	96.69
387.138	99.69
387.363	84.69
387.588	90.69
387.813	98.69
388.038	108.69
388.263	101.69
388.488	118.69
388.713	100.69
388.938	101.69
389.163	87.69
389.387	92.69
389.612	98.69
389.837	86.69
390.062	105.69
390.287	97.69
390.512	104.69
390.736	112.69
390.961	81.69
391.186	91.69
391.411	100.69
391.636	101.69
391.86	101.69
392.085	90.69
392.31	97.69
392.534	99.69
392.759	106.69
392.984	85.69
393.208	107.69
393.433	90.69
393.658	91.69
393.882	98.69
394.107	78.69
394.331	117.69
394.556	98.69
394.78	95.69
395.005	99.69
395.229	88.69
395.454	100.69
395.678	88.69
395.903	81.69
396.127	86.69
396.352	102.69
396.576	97.69
396.801	84.69
397.025	81.69
397.249	99.69
397.474	108.69
397.698	109.69
397.922	86.69
398.147	105.69
398.371	98.69
398.595	100.69
398.82	92.69
399.044	106.69
399.268	102.69
399.492	104.69
399.717	112.69
399.941	122.69
400.165	103.69
400.389	94.69
400.613	92.69
400.837	101.69
401.062	109.69
401.286	108.69
401.51	107.69
401.734	107.69
401.958	94.69
402.182	87.69
402.406	105.69
402.63	98.69
402.854	101.69
403.078	108.69
403.302	113.69
403.526	114.69
403.75	109.69
403.974	114.69
404.198	108.69
404.422	87.69
404.645	99.69
404.869	106.69
405.093	104.69
405.317	112.69
405.541	105.69
405.765	85.69
405.988	113.69
406.212	112.69
406.436	109.69
406.66	109.69
406.883	128.69
407.107	100.69
407.331	106.69
407.555	122.69
407.778	123.69
408.002	120.69
408.226	112.69
408.449	105.69
408.673	107.69
408.896	116.69
409.12	104.69
409.344	112.69
409.567	100.69
409.791	98.69
410.014	96.69
410.238	107.69
410.461	116.69
410.685	103.69
410.908	112.69
411.132	122.69
411.355	96.69
411.578	128.69
411.802	114.69
412.025	99.69
412.249	94.69
412.472	103.69
412.695	117.69
412.919	102.69
413.142	110.69
413.365	102.69
413.589	118.69
413.812	124.69
414.035	113.69
414.258	117.69
414.482	117.69
414.705	105.69
414.928	101.69
415.151	93.69
415.374	105.69
415.597	135.69
415.821	110.69
416.044	114.69
416.267	104.69
416.49	104.69
416.713	90.69
416.936	103.69
417.159	105.69
417.382	106.69
417.605	112.69
417.828	108.69
418.051	118.69
418.274	110.69
418.497	106.69
418.72	105.69
418.943	120.69
419.166	103.69
419.389	92.69
419.611	112.69
419.834	114.69
420.057	122.69
420.28	104.69
420.503	101.69
420.726	99.69
420.948	105.69
421.171	103.69
421.394	119.69
421.617	112.69
421.839	124.69
422.062	102.69
422.285	107.69
422.507	122.69
422.73	113.69
422.953	115.69
423.175	120.69
423.398	124.69
423.621	114.69
423.843	119.69
424.066	105.69
424.288	124.69
424.511	112.69
424.733	110.69
424.956	114.69
425.178	115.69
425.401	112.69
425.623	110.69
425.846	125.69
426.068	105.69
426.291	110.69
426.513	121.69
426.735	116.69
426.958	108.69
427.18	93.69
427.402	110.69
427.625	108.69
427.847	117.69
428.069	100.69
428.292	99.69
428.514	116.69
428.736	112.69
428.958	106.69
429.181	114.69
429.403	108.69
429.625	126.69
429.847	113.69
430.069	109.69
430.292	120.69
430.514	117.69
430.736	116.69
430.958	125.69
431.18	108.69
431.402	101.69
431.624	97.69
431.846	96.69
432.068	98.69
432.29	100.69
432.512	107.69
432.734	107.69
432.956	89.69
433.178	106.69
433.4	125.69
433.622	114.69
433.844	131.69
434.066	120.69
434.287	101.69
434.509	108.69
434.731	108.69
434.953	107.69
435.175	116.69
435.397	114.69
435.618	117.69
435.84	114.69
436.062	112.69
436.284	119.69
436.505	109.69
436.727	114.69
436.949	110.69
437.17	106.69
437.392	126.69
437.614	118.69
437.835	96.69
438.057	109.69
438.278	102.69
438.5	109.69
438.721	114.69
438.943	117.69
439.165	112.69
439.386	107.69
439.608	134.69
439.829	121.69
440.05	110.69
440.272	106.69
440.493	125.69
440.715	103.69
440.936	103.69
441.158	115.69
441.379	112.69
441.6	124.69
441.822	130.69
442.043	127.69
442.264	125.69
442.486	109.69
442.707	104.69
442.928	98.69
443.149	109.69
443.371	117.69
443.592	109.69
443.813	120.69
444.034	130.69
444.255	125.69
444.476	121.69
444.698	133.69
444.919	124.69
445.14	244.69
445.361	202.69
445.582	130.69
445.803	115.69
446.024	122.69
446.245	112.69
446.466	110.69
446.687	114.69
446.908	113.69
447.129	112.69
447.35	114.69
447.571	121.69
447.792	106.69
448.013	116.69
448.234	111.69
448.455	117.69
448.675	129.69
448.896	123.69
449.117	115.69
449.338	108.69
449.559	113.69
449.779	112.69
450	109.69
450.221	114.69
450.442	132.69
450.662	108.69
450.883	101.69
451.104	119.69
451.324	114.69
451.545	114.69
451.766	111.69
451.986	116.69
452.207	119.69
452.428	114.69
452.648	101.69
452.869	99.69
453.089	99.69
453.31	118.69
453.53	87.69
453.751	91.69
453.971	112.69
454.192	106.69
454.412	99.69
454.633	113.69
454.853	108.69
455.073	97.69
455.294	101.69
455.514	122.69
455.734	121.69
455.955	114.69
456.175	107.69
456.395	113.69
456.616	108.69
456.836	115.69
457.056	101.69
457.276	88.69
457.497	96.69
457.717	98.69
457.937	123.69
458.157	98.69
458.377	90.69
458.598	112.69
458.818	101.69
459.038	106.69
459.258	104.69
459.478	96.69
459.698	98.69
459.918	112.69
460.138	112.69
460.358	118.69
460.578	112.69
460.798	112.69
461.018	114.69
461.238	119.69
461.458	101.69
461.678	107.69
461.898	124.69
462.118	118.69
462.338	114.69
462.558	109.69
462.777	121.69
462.997	122.69
463.217	126.69
463.437	117.69
463.657	122.69
463.876	124.69
464.096	125.69
464.316	94.69
464.536	106.69
464.755	121.69
464.975	122.69
465.195	113.69
465.414	120.69
465.634	105.69
465.854	108.69
466.073	120.69
466.293	102.69
466.512	112.69
466.732	109.69
466.951	112.69
467.171	118.69
467.391	103.69
467.61	122.69
467.829	128.69
468.049	113.69
468.268	115.69
468.488	125.69
468.707	137.69
468.927	109.69
469.146	120.69
469.365	120.69
469.585	141.69
469.804	119.69
470.023	107.69
470.243	122.69
470.462	117.69
470.681	120.69
470.901	130.69
471.12	113.69
471.339	120.69
471.558	122.69
471.777	118.69
471.997	120.69
472.216	117.69
472.435	116.69
472.654	109.69
472.873	103.69
473.092	106.69
473.311	113.69
473.53	105.69
473.749	119.69
473.968	108.69
474.187	102.69
474.406	120.69
474.625	120.69
474.844	109.69
475.063	115.69
475.282	107.69
475.501	101.69
475.72	117.69
475.939	99.69
476.158	108.69
476.377	111.69
476.596	128.69
476.814	117.69
477.033	120.69
477.252	120.69
477.471	118.69
477.69	104.69
477.908	120.69
478.127	125.69
478.346	113.69
478.564	130.69
478.783	125.69
479.002	132.69
479.22	138.69
479.439	117.69
479.658	109.69
479.876	115.69
480.095	113.69
480.313	129.69
480.532	124.69
480.751	116.69
480.969	126.69
481.188	111.69
481.406	114.69
481.624	103.69
481.843	105.69
482.061	111.69
482.28	112.69
482.498	117.69
482.717	105.69
482.935	114.69
483.153	121.69
483.372	127.69
483.59	120.69
483.808	123.69
484.027	115.69
484.245	110.69
484.463	100.69
484.681	124.69
484.9	126.69
485.118	128.69
485.336	128.69
485.554	132.69
485.772	97.69
485.99	118.69
486.209	112.69
486.427	117.69
486.645	122.69
486.863	133.69
487.081	122.69
487.299	133.69
487.517	130.69
487.735	126.69
487.953	146.69
488.171	136.69
488.389	132.69
488.607	132.69
488.825	123.69
489.043	117.69
489.261	120.69
489.479	117.69
489.696	139.69
489.914	124.69
490.132	126.69
490.35	128.69
490.568	132.69
490.786	155.69
491.003	141.69
491.221	152.69
491.439	140.69
491.657	151.69
491.874	173.69
492.092	150.69
492.31	171.69
492.527	149.69
492.745	145.69
492.963	158.69
493.18	148.69
493.398	138.69
493.615	156.69
493.833	141.69
494.05	148.69
494.268	139.69
494.485	155.69
494.703	158.69
494.92	131.69
495.138	146.69
495.355	152.69
495.573	148.69
495.79	167.69
496.008	149.69
496.225	156.69
496.442	145.69
496.66	152.69
496.877	148.69
497.094	147.69
497.312	134.69
497.529	147.69
497.746	154.69
497.963	132.69
498.181	144.69
498.398	140.69
498.615	136.69
498.832	138.69
499.049	143.69
499.267	133.69
499.484	164.69
499.701	177.69
499.918	172.69
500.135	188.69
500.352	216.69
500.569	195.69
500.786	203.69
501.003	185.69
501.22	210.69
501.437	200.69
501.654	172.69
501.871	153.69
502.088	165.69
502.305	150.69
502.522	156.69
502.739	153.69
502.956	148.69
503.172	143.69
503.389	133.69
503.606	148.69
503.823	132.69
504.04	131.69
504.256	153.69
504.473	133.69
504.69	138.69
504.907	121.69
505.123	122.69
505.34	139.69
505.557	132.69
505.773	125.69
505.99	117.69
506.207	128.69
506.423	128.69
506.64	125.69
506.856	125.69
507.073	125.69
507.289	133.69
507.506	133.69
507.722	127.69
507.939	130.69
508.155	128.69
508.372	104.69
508.588	116.69
508.805	120.69
509.021	104.69
509.238	125.69
509.454	132.69
509.67	119.69
509.887	112.69
510.103	110.69
510.319	123.69
510.536	128.69
510.752	98.69
510.968	101.69
511.184	118.69
511.401	135.69
511.617	119.69
511.833	119.69
512.049	107.69
512.265	111.69
512.481	112.69
512.698	105.69
512.914	124.69
513.13	110.69
513.346	107.69
513.562	112.69
513.778	112.69
513.994	115.69
514.21	109.69
514.426	115.69
514.642	120.69
514.858	101.69
515.074	112.69
515.29	118.69
515.506	118.69
515.721	113.69
515.937	123.69
516.153	116.69
516.369	109.69
516.585	102.69
516.801	106.69
517.016	119.69
517.232	137.69
517.448	108.69
517.664	122.69
517.879	129.69
518.095	123.69
518.311	134.69
518.527	123.69
518.742	117.69
518.958	125.69
519.173	137.69
519.389	124.69
519.605	124.69
519.82	122.69
520.036	120.69
520.251	108.69
520.467	116.69
520.682	106.69
520.898	111.69
521.113	121.69
521.329	110.69
521.544	122.69
521.76	118.69
521.975	99.69
522.19	117.69
522.406	110.69
522.621	109.69
522.836	114.69
523.052	118.69
523.267	123.69
523.482	126.69
523.698	126.69
523.913	124.69
524.128	115.69
524.343	126.69
524.559	122.69
524.774	123.69
524.989	116.69
525.204	121.69
525.419	107.69
525.634	116.69
525.849	122.69
526.064	119.69
526.28	96.69
526.495	108.69
526.71	102.69
526.925	113.69
527.14	116.69
527.355	112.69
527.57	104.69
527.785	115.69
527.999	115.69
528.214	112.69
528.429	122.69
528.644	127.69
528.859	135.69
529.074	134.69
529.289	122.69
529.503	126.69
529.718	118.69
529.933	112.69
530.148	94.69
530.363	112.69
530.577	113.69
530.792	116.69
531.007	116.69
531.221	119.69
531.436	95.69
531.651	106.69
531.865	106.69
532.08	109.69
532.295	122.69
532.509	114.69
532.724	115.69
532.938	112.69
533.153	96.69
533.367	107.69
533.582	131.69
533.796	120.69
534.011	114.69
534.225	94.69
534.44	115.69
534.654	107.69
534.868	114.69
535.083	107.69
535.297	128.69
535.511	118.69
535.726	112.69
535.94	106.69
536.154	106.69
536.369	100.69
536.583	115.69
536.797	115.69
537.011	97.69
537.225	94.69
537.44	99.69
537.654	118.69
537.868	106.69
538.082	114.69
538.296	108.69
538.51	114.69
538.724	107.69
538.938	105.69
539.153	108.69
539.367	117.69
539.581	119.69
539.795	122.69
540.009	128.69
540.222	109.69
540.436	118.69
540.65	117.69
540.864	112.69
541.078	112.69
541.292	126.69
541.506	129.69
541.72	142.69
541.934	154.69
542.147	161.69
542.361	137.69
542.575	133.69
542.789	117.69
543.002	135.69
543.216	120.69
543.43	123.69
543.644	117.69
543.857	125.69
544.071	137.69
544.285	134.69
544.498	132.69
544.712	123.69
544.925	128.69
545.139	131.69
545.352	120.69
545.566	131.69
545.779	130.69
545.993	134.69
546.206	153.69
546.42	129.69
546.633	134.69
546.847	122.69
547.06	135.69
547.274	138.69
547.487	133.69
547.7	142.69
547.914	138.69
548.127	140.69
548.34	148.69
548.554	132.69
548.767	123.69
548.98	132.69
549.193	133.69
549.407	133.69
549.62	132.69
549.833	141.69
550.046	112.69
550.259	131.69
550.473	126.69
550.686	135.69
550.899	128.69
551.112	125.69
551.325	116.69
551.538	118.69
551.751	115.69
551.964	108.69
552.177	114.69
552.39	112.69
552.603	127.69
552.816	136.69
553.029	149.69
553.242	132.69
553.455	134.69
553.667	133.69
553.88	134.69
554.093	133.69
554.306	141.69
554.519	136.69
554.732	128.69
554.944	134.69
555.157	119.69
555.37	133.69
555.583	124.69
555.795	113.69
556.008	126.69
556.221	119.69
556.433	100.69
556.646	120.69
556.859	116.69
557.071	129.69
557.284	118.69
557.496	112.69
557.709	121.69
557.921	128.69
558.134	120.69
558.346	106.69
558.559	106.69
558.771	123.69
558.984	112.69
559.196	125.69
559.409	124.69
559.621	128.69
559.833	115.69
560.046	103.69
560.258	105.69
560.47	106.69
560.683	119.69
560.895	125.69
561.107	108.69
561.32	112.69
561.532	90.69
561.744	101.69
561.956	106.69
562.168	116.69
562.381	118.69
562.593	113.69
562.805	116.69
563.017	105.69
563.229	112.69
563.441	126.69
563.653	109.69
563.865	109.69
564.077	116.69
564.289	114.69
564.501	114.69
564.713	100.69
564.925	98.69
565.137	117.69
565.349	101.69
565.561	106.69
565.773	116.69
565.985	115.69
566.197	112.69
566.408	124.69
566.62	129.69
566.832	124.69
567.044	115.69
567.255	127.69
567.467	126.69
567.679	126.69
567.891	108.69
568.102	129.69
568.314	120.69
568.526	131.69
568.737	113.69
568.949	117.69
569.161	96.69
569.372	100.69
569.584	117.69
569.795	92.69
570.007	96.69
570.218	102.69
570.43	92.69
570.641	100.69
570.853	103.69
571.064	109.69
571.276	111.69
571.487	102.69
571.698	120.69
571.91	117.69
572.121	116.69
572.333	98.69
572.544	103.69
572.755	112.69
572.966	74.69
573.178	97.69
573.389	86.69
573.6	101.69
573.811	79.69
574.023	104.69
574.234	89.69
574.445	92.69
574.656	96.69
574.867	97.69
575.078	99.69
575.289	91.69
575.501	99.69
575.712	96.69
575.923	92.69
576.134	113.69
576.345	96.69
576.556	103.69
576.767	97.69
576.978	92.69
577.188	103.69
577.399	108.69
577.61	104.69
577.821	109.69
578.032	93.69
578.243	91.69
578.454	84.69
578.665	102.69
578.875	92.69
579.086	100.69
579.297	94.69
579.508	97.69
579.718	84.69
579.929	102.69
580.14	96.69
580.35	106.69
580.561	93.69
580.772	100.69
580.982	92.69
581.193	95.69
581.403	107.69
581.614	90.69
581.825	89.69
582.035	88.69
582.246	83.69
582.456	104.69
582.667	98.69
582.877	89.69
583.087	98.69
583.298	90.69
583.508	88.69
583.719	87.69
583.929	107.69
584.139	93.69
584.35	79.69
584.56	101.69
584.77	100.69
584.981	101.69
585.191	107.69
585.401	84.69
585.611	92.69
585.821	99.69
586.032	99.69
586.242	89.69
586.452	107.69
586.662	82.69
586.872	77.69
587.082	89.69
587.292	113.69
587.502	91.69
587.713	86.69
587.923	110.69
588.133	82.69
588.343	88.69
588.553	91.69
588.762	94.69
588.972	97.69
589.182	85.69
589.392	89.69
589.602	86.69
589.812	83.69
590.022	96.69
590.232	91.69
590.441	82.69
590.651	90.69
590.861	103.69
591.071	91.69
591.281	86.69
591.49	82.69
591.7	92.69
591.91	91.69
592.119	89.69
592.329	97.69
592.539	93.69
592.748	88.69
592.958	82.69
593.167	91.69
593.377	90.69
593.587	88.69
593.796	104.69
594.006	96.69
594.215	100.69
594.424	99.69
594.634	98.69
594.843	105.69
595.053	98.69
595.262	99.69
595.472	107.69
595.681	97.69
595.89	97.69
596.1	85.69
596.309	89.69
596.518	95.69
596.727	98.69
596.937	97.69
597.146	99.69
597.355	76.69
597.564	91.69
597.774	92.69
597.983	94.69
598.192	76.69
598.401	92.69
598.61	95.69
598.819	88.69
599.028	80.69
599.237	93.69
599.446	80.69
599.655	99.69
599.864	118.69
600.073	101.69
600.282	90.69
600.491	92.69
600.7	97.69
600.909	87.69
601.118	87.69
601.327	91.69
601.536	98.69
601.745	86.69
601.953	96.69
602.162	97.69
602.371	89.69
602.58	100.69
602.789	88.69
602.997	110.69
603.206	98.69
603.415	105.69
603.623	89.69
603.832	90.69
604.041	93.69
604.249	97.69
604.458	97.69
604.666	89.69
604.875	96.69
605.084	112.69
605.292	101.69
605.501	94.69
605.709	89.69
605.918	90.69
606.126	87.69
606.334	99.69
606.543	107.69
606.751	97.69
606.96	90.69
607.168	87.69
607.376	95.69
607.585	96.69
607.793	88.69
608.001	88.69
608.21	104.69
608.418	102.69
608.626	96.69
608.834	99.69
609.043	89.69
609.251	92.69
609.459	91.69
609.667	98.69
609.875	81.69
610.083	100.69
610.291	90.69
610.499	81.69
610.707	101.69
610.916	97.69
611.124	108.69
611.332	92.69
611.54	87.69
611.748	100.69
611.955	96.69
612.163	84.69
612.371	96.69
612.579	88.69
612.787	96.69
612.995	108.69
613.203	99.69
613.411	105.69
613.618	101.69
613.826	90.69
614.034	98.69
614.242	98.69
614.449	95.69
614.657	102.69
614.865	105.69
615.072	99.69
615.28	84.69
615.488	101.69
615.695	87.69
615.903	95.69
616.111	89.69
616.318	109.69
616.526	109.69
616.733	104.69
616.941	98.69
617.148	91.69
617.356	82.69
617.563	107.69
617.771	101.69
617.978	91.69
618.185	90.69
618.393	92.69
618.6	102.69
618.807	106.69
619.015	113.69
619.222	100.69
619.429	96.69
619.637	98.69
619.844	90.69
620.051	80.69
620.258	92.69
620.466	93.69
620.673	98.69
620.88	90.69
621.087	99.69
621.294	111.69
621.501	73.69
621.708	85.69
621.915	77.69
622.122	89.69
622.329	90.69
622.536	105.69
622.743	104.69
622.95	102.69
623.157	96.69
623.364	99.69
623.571	99.69
623.778	100.69
623.985	104.69
624.192	84.69
624.399	107.69
624.606	106.69
624.812	102.69
625.019	94.69
625.226	91.69
625.433	105.69
625.639	85.69
625.846	83.69
626.053	85.69
626.259	88.69
626.466	94.69
626.673	93.69
626.879	91.69
627.086	108.69
627.293	85.69
627.499	95.69
627.706	93.69
627.912	102.69
628.119	90.69
628.325	86.69
628.532	79.69
628.738	85.69
628.945	94.69
629.151	97.69
629.357	94.69
629.564	97.69
629.77	84.69
629.976	91.69
630.183	92.69
630.389	85.69
630.595	75.69
630.802	97.69
631.008	101.69
631.214	88.69
631.42	78.69
631.627	102.69
631.833	95.69
632.039	86.69
632.245	101.69
632.451	93.69
632.657	90.69
632.863	106.69
633.069	109.69
633.275	96.69
633.481	80.69
633.688	92.69
633.893	94.69
634.099	85.69
634.305	81.69
634.511	75.69
634.717	78.69
634.923	85.69
635.129	85.69
635.335	89.69
635.541	97.69
635.747	88.69
635.952	97.69
636.158	93.69
636.364	93.69
636.57	95.69
636.775	95.69
636.981	94.69
637.187	75.69
637.392	89.69
637.598	96.69
637.804	107.69
638.009	99.69
638.215	91.69
638.421	83.69
638.626	84.69
638.832	82.69
639.037	74.69
639.243	90.69
639.448	84.69
639.654	89.69
639.859	94.69
640.065	82.69
640.27	83.69
640.475	91.69
640.681	84.69
640.886	75.69
641.091	90.69
641.297	90.69
641.502	84.69
641.707	100.69
641.913	89.69
642.118	89.69
642.323	98.69
642.528	95.69
642.733	84.69
642.939	93.69
643.144	87.69
643.349	85.69
643.554	83.69
643.759	104.69
643.964	89.69
644.169	90.69
644.374	94.69
644.579	101.69
644.784	76.69
644.989	82.69
645.194	84.69
645.399	91.69
645.604	94.69
645.809	89.69
646.014	91.69
646.219	84.69
646.423	93.69
646.628	93.69
646.833	94.69
647.038	93.69
647.243	80.69
647.447	90.69
647.652	113.69
647.857	92.69
648.062	75.69
648.266	83.69
648.471	79.69
648.676	87.69
648.88	75.69
649.085	93.69
649.289	98.69
649.494	92.69
649.698	85.69
649.903	89.69
650.107	78.69
650.312	93.69
650.516	89.69
650.721	90.69
650.925	93.69
651.13	86.69
651.334	88.69
651.539	84.69
651.743	83.69
651.947	84.69
652.152	101.69
652.356	86.69
652.56	90.69
652.764	91.69
652.969	92.69
653.173	85.69
653.377	70.69
653.581	78.69
653.785	87.69
653.99	86.69
654.194	85.69
654.398	87.69
654.602	81.69
654.806	91.69
655.01	95.69
655.214	89.69
655.418	76.69
655.622	86.69
655.826	76.69
656.03	85.69
656.234	88.69
656.438	78.69
656.642	83.69
656.846	108.69
657.049	79.69
657.253	93.69
657.457	85.69
657.661	95.69
657.865	93.69
658.068	81.69
658.272	98.69
658.476	85.69
658.68	88.69
658.883	84.69
659.087	79.69
659.291	80.69
659.494	66.69
659.698	78.69
659.901	84.69
660.105	80.69
660.309	84.69
660.512	70.69
660.716	99.69
660.919	89.69
661.123	80.69
661.326	91.69
661.53	89.69
661.733	82.69
661.936	80.69
662.14	92.69
662.343	92.69
662.546	87.69
662.75	71.69
662.953	93.69
663.156	84.69
663.36	91.69
663.563	77.69
663.766	76.69
663.969	98.69
664.173	97.69
664.376	81.69
664.579	80.69
664.782	85.69
664.985	101.69
665.188	76.69
665.391	95.69
665.594	76.69
665.797	86.69
666	94.69
666.203	83.69
666.406	88.69
666.609	90.69
666.812	85.69
667.015	84.69
667.218	104.69
667.421	84.69
667.624	82.69
667.827	93.69
668.03	90.69
668.232	77.69
668.435	68.69
668.638	98.69
668.841	100.69
669.043	78.69
669.246	75.69
669.449	82.69
669.651	86.69
669.854	80.69
670.057	93.69
670.259	86.69
670.462	82.69
670.665	81.69
670.867	83.69
671.07	90.69
671.272	89.69
671.475	84.69
671.677	70.69
671.88	82.69
672.082	77.69
672.284	70.69
672.487	83.69
672.689	81.69
672.892	70.69
