Data from StandardFe(NO3)3.TAE.3%Agarose.FlatLispGreen.Lamp.Energy10.07252019_HRD10591_11-54-06-439.txt Node
Date: Thu Jul 25 11:54:06 EDT 2019
User: cochatt
Spectrometer: HR+D1059
Trigger mode: 1
Integration Time (sec): 1.000000E-1
Scans to average: 1
Electric dark correction enabled: true
Nonlinearity correction enabled: false
Boxcar width: 0
XAxis mode: Wavelengths
Number of Pixels in Spectrum: 2048
>>>>>Begin Spectral Data<<<<<
223.165	-13.94
223.4	-13.94
223.635	-13.94
223.869	-10.94
224.104	-13.94
224.338	-20.94
224.573	-28.94
224.808	-4.94
225.042	0.06
225.277	-5.94
225.511	0.06
225.746	7.06
225.98	22.06
226.215	4.06
226.449	12.06
226.683	11.06
226.918	12.06
227.152	31.06
227.387	34.06
227.621	38.06
227.856	41.06
228.09	65.06
228.324	47.06
228.559	63.06
228.793	54.06
229.027	63.06
229.262	75.06
229.496	78.06
229.73	69.06
229.964	60.06
230.199	72.06
230.433	79.06
230.667	79.06
230.901	79.06
231.136	83.06
231.37	91.06
231.604	82.06
231.838	75.06
232.072	65.06
232.306	87.06
232.541	88.06
232.775	98.06
233.009	82.06
233.243	93.06
233.477	67.06
233.711	75.06
233.945	89.06
234.179	76.06
234.413	81.06
234.647	82.06
234.881	86.06
235.115	77.06
235.349	84.06
235.583	89.06
235.817	72.06
236.051	85.06
236.285	66.06
236.519	77.06
236.753	77.06
236.987	73.06
237.221	90.06
237.455	79.06
237.689	64.06
237.922	80.06
238.156	79.06
238.39	75.06
238.624	76.06
238.858	76.06
239.091	75.06
239.325	79.06
239.559	91.06
239.793	79.06
240.027	64.06
240.26	82.06
240.494	86.06
240.728	90.06
240.961	94.06
241.195	99.06
241.429	80.06
241.662	71.06
241.896	60.06
242.13	80.06
242.363	77.06
242.597	77.06
242.83	71.06
243.064	85.06
243.298	62.06
243.531	84.06
243.765	85.06
243.998	85.06
244.232	84.06
244.465	97.06
244.699	99.06
244.932	81.06
245.166	71.06
245.399	77.06
245.633	90.06
245.866	63.06
246.099	81.06
246.333	86.06
246.566	89.06
246.8	86.06
247.033	85.06
247.266	78.06
247.5	88.06
247.733	81.06
247.966	89.06
248.2	62.06
248.433	81.06
248.666	72.06
248.899	84.06
249.133	66.06
249.366	83.06
249.599	80.06
249.832	82.06
250.066	87.06
250.299	71.06
250.532	90.06
250.765	68.06
250.998	81.06
251.231	84.06
251.465	85.06
251.698	80.06
251.931	66.06
252.164	73.06
252.397	75.06
252.63	78.06
252.863	72.06
253.096	73.06
253.329	93.06
253.562	94.06
253.795	76.06
254.028	75.06
254.261	89.06
254.494	85.06
254.727	90.06
254.96	77.06
255.193	77.06
255.426	81.06
255.659	88.06
255.892	82.06
256.124	82.06
256.357	82.06
256.59	91.06
256.823	77.06
257.056	84.06
257.289	89.06
257.521	76.06
257.754	88.06
257.987	80.06
258.22	76.06
258.452	85.06
258.685	87.06
258.918	73.06
259.151	77.06
259.383	86.06
259.616	80.06
259.849	73.06
260.081	85.06
260.314	83.06
260.547	91.06
260.779	79.06
261.012	75.06
261.244	70.06
261.477	85.06
261.71	83.06
261.942	88.06
262.175	90.06
262.407	83.06
262.64	77.06
262.872	90.06
263.105	77.06
263.337	91.06
263.57	80.06
263.802	69.06
264.035	87.06
264.267	100.06
264.499	87.06
264.732	94.06
264.964	97.06
265.197	94.06
265.429	99.06
265.661	87.06
265.894	90.06
266.126	100.06
266.358	82.06
266.591	75.06
266.823	84.06
267.055	84.06
267.287	75.06
267.52	92.06
267.752	77.06
267.984	80.06
268.216	82.06
268.448	80.06
268.681	82.06
268.913	92.06
269.145	87.06
269.377	88.06
269.609	81.06
269.841	83.06
270.073	79.06
270.306	95.06
270.538	93.06
270.77	92.06
271.002	80.06
271.234	92.06
271.466	82.06
271.698	93.06
271.93	83.06
272.162	80.06
272.394	82.06
272.626	82.06
272.858	101.06
273.09	92.06
273.322	89.06
273.553	73.06
273.785	96.06
274.017	86.06
274.249	88.06
274.481	70.06
274.713	80.06
274.945	78.06
275.176	95.06
275.408	87.06
275.64	83.06
275.872	81.06
276.104	100.06
276.335	72.06
276.567	79.06
276.799	81.06
277.031	81.06
277.262	75.06
277.494	90.06
277.726	78.06
277.957	85.06
278.189	87.06
278.421	72.06
278.652	80.06
278.884	80.06
279.115	93.06
279.347	75.06
279.579	82.06
279.81	76.06
280.042	73.06
280.273	92.06
280.505	91.06
280.736	88.06
280.968	85.06
281.199	82.06
281.431	76.06
281.662	80.06
281.894	92.06
282.125	78.06
282.356	92.06
282.588	86.06
282.819	79.06
283.051	83.06
283.282	76.06
283.513	102.06
283.745	79.06
283.976	77.06
284.207	90.06
284.439	83.06
284.67	98.06
284.901	82.06
285.132	94.06
285.364	96.06
285.595	89.06
285.826	94.06
286.057	81.06
286.288	74.06
286.52	79.06
286.751	87.06
286.982	86.06
287.213	99.06
287.444	90.06
287.675	90.06
287.906	87.06
288.138	80.06
288.369	85.06
288.6	78.06
288.831	98.06
289.062	95.06
289.293	88.06
289.524	84.06
289.755	100.06
289.986	86.06
290.217	82.06
290.448	88.06
290.679	86.06
290.91	82.06
291.141	90.06
291.371	88.06
291.602	85.06
291.833	82.06
292.064	74.06
292.295	75.06
292.526	102.06
292.757	79.06
292.987	80.06
293.218	82.06
293.449	87.06
293.68	79.06
293.91	84.06
294.141	95.06
294.372	89.06
294.603	90.06
294.833	79.06
295.064	90.06
295.295	100.06
295.525	98.06
295.756	87.06
295.987	93.06
296.217	76.06
296.448	79.06
296.679	68.06
296.909	90.06
297.14	93.06
297.37	104.06
297.601	99.06
297.831	91.06
298.062	80.06
298.292	83.06
298.523	88.06
298.753	82.06
298.984	80.06
299.214	95.06
299.445	92.06
299.675	99.06
299.905	74.06
300.136	85.06
300.366	85.06
300.597	87.06
300.827	79.06
301.057	88.06
301.288	85.06
301.518	96.06
301.748	87.06
301.979	93.06
302.209	85.06
302.439	94.06
302.669	83.06
302.9	95.06
303.13	100.06
303.36	89.06
303.59	96.06
303.82	90.06
304.051	87.06
304.281	86.06
304.511	89.06
304.741	90.06
304.971	94.06
305.201	100.06
305.431	85.06
305.661	84.06
305.891	86.06
306.121	91.06
306.352	88.06
306.582	88.06
306.812	90.06
307.042	89.06
307.272	99.06
307.502	89.06
307.731	94.06
307.961	93.06
308.191	97.06
308.421	92.06
308.651	92.06
308.881	84.06
309.111	80.06
309.341	99.06
309.571	89.06
309.8	81.06
310.03	104.06
310.26	84.06
310.49	88.06
310.72	91.06
310.949	102.06
311.179	83.06
311.409	93.06
311.639	91.06
311.868	72.06
312.098	84.06
312.328	89.06
312.557	85.06
312.787	87.06
313.017	94.06
313.246	85.06
313.476	96.06
313.706	96.06
313.935	77.06
314.165	91.06
314.394	83.06
314.624	81.06
314.853	79.06
315.083	89.06
315.312	75.06
315.542	84.06
315.771	74.06
316.001	77.06
316.23	89.06
316.46	86.06
316.689	70.06
316.919	70.06
317.148	84.06
317.377	91.06
317.607	78.06
317.836	79.06
318.065	80.06
318.295	81.06
318.524	78.06
318.753	83.06
318.983	88.06
319.212	82.06
319.441	76.06
319.67	91.06
319.9	92.06
320.129	86.06
320.358	82.06
320.587	93.06
320.816	86.06
321.046	80.06
321.275	95.06
321.504	81.06
321.733	92.06
321.962	78.06
322.191	82.06
322.42	98.06
322.649	100.06
322.878	95.06
323.108	87.06
323.337	83.06
323.566	81.06
323.795	88.06
324.024	87.06
324.253	106.06
324.482	98.06
324.71	97.06
324.939	96.06
325.168	91.06
325.397	95.06
325.626	77.06
325.855	74.06
326.084	95.06
326.313	88.06
326.542	68.06
326.77	90.06
326.999	95.06
327.228	84.06
327.457	96.06
327.686	94.06
327.914	89.06
328.143	90.06
328.372	83.06
328.6	86.06
328.829	87.06
329.058	104.06
329.287	92.06
329.515	90.06
329.744	95.06
329.972	84.06
330.201	85.06
330.43	77.06
330.658	89.06
330.887	80.06
331.115	92.06
331.344	85.06
331.572	86.06
331.801	85.06
332.03	80.06
332.258	74.06
332.486	87.06
332.715	86.06
332.943	99.06
333.172	91.06
333.4	78.06
333.629	85.06
333.857	87.06
334.085	98.06
334.314	90.06
334.542	98.06
334.771	80.06
334.999	78.06
335.227	77.06
335.455	91.06
335.684	67.06
335.912	94.06
336.14	90.06
336.369	102.06
336.597	94.06
336.825	64.06
337.053	83.06
337.281	89.06
337.51	79.06
337.738	87.06
337.966	95.06
338.194	90.06
338.422	88.06
338.65	84.06
338.878	94.06
339.106	95.06
339.334	96.06
339.562	74.06
339.79	85.06
340.018	85.06
340.246	93.06
340.474	77.06
340.702	84.06
340.93	90.06
341.158	88.06
341.386	80.06
341.614	78.06
341.842	93.06
342.07	86.06
342.298	88.06
342.526	95.06
342.754	77.06
342.981	76.06
343.209	89.06
343.437	80.06
343.665	78.06
343.893	83.06
344.12	98.06
344.348	98.06
344.576	80.06
344.804	78.06
345.031	79.06
345.259	92.06
345.487	88.06
345.714	89.06
345.942	93.06
346.17	87.06
346.397	87.06
346.625	70.06
346.853	92.06
347.08	83.06
347.308	88.06
347.535	88.06
347.763	81.06
347.99	85.06
348.218	93.06
348.445	80.06
348.673	80.06
348.9	102.06
349.128	95.06
349.355	87.06
349.583	90.06
349.81	80.06
350.037	87.06
350.265	93.06
350.492	91.06
350.72	86.06
350.947	86.06
351.174	84.06
351.402	90.06
351.629	86.06
351.856	102.06
352.083	96.06
352.311	95.06
352.538	79.06
352.765	99.06
352.992	96.06
353.22	90.06
353.447	87.06
353.674	86.06
353.901	74.06
354.128	79.06
354.355	84.06
354.583	96.06
354.81	92.06
355.037	82.06
355.264	89.06
355.491	93.06
355.718	87.06
355.945	78.06
356.172	84.06
356.399	87.06
356.626	80.06
356.853	88.06
357.08	91.06
357.307	85.06
357.534	108.06
357.761	81.06
357.988	90.06
358.215	91.06
358.441	91.06
358.668	92.06
358.895	104.06
359.122	87.06
359.349	81.06
359.576	90.06
359.802	83.06
360.029	77.06
360.256	95.06
360.483	89.06
360.709	89.06
360.936	96.06
361.163	90.06
361.39	92.06
361.616	89.06
361.843	89.06
362.07	92.06
362.296	93.06
362.523	87.06
362.749	92.06
362.976	95.06
363.203	88.06
363.429	85.06
363.656	77.06
363.882	85.06
364.109	100.06
364.335	93.06
364.562	82.06
364.788	89.06
365.015	88.06
365.241	93.06
365.468	97.06
365.694	94.06
365.92	95.06
366.147	107.06
366.373	95.06
366.599	73.06
366.826	93.06
367.052	102.06
367.278	85.06
367.505	82.06
367.731	83.06
367.957	106.06
368.184	110.06
368.41	94.06
368.636	84.06
368.862	98.06
369.089	79.06
369.315	102.06
369.541	89.06
369.767	105.06
369.993	90.06
370.219	91.06
370.445	107.06
370.672	75.06
370.898	83.06
371.124	90.06
371.35	80.06
371.576	92.06
371.802	86.06
372.028	95.06
372.254	84.06
372.48	84.06
372.706	91.06
372.932	91.06
373.158	105.06
373.384	93.06
373.61	102.06
373.835	81.06
374.061	85.06
374.287	92.06
374.513	100.06
374.739	98.06
374.965	101.06
375.191	91.06
375.416	106.06
375.642	95.06
375.868	97.06
376.094	80.06
376.319	93.06
376.545	113.06
376.771	92.06
376.997	100.06
377.222	100.06
377.448	106.06
377.674	107.06
377.899	91.06
378.125	91.06
378.35	102.06
378.576	89.06
378.802	96.06
379.027	86.06
379.253	88.06
379.478	102.06
379.704	91.06
379.929	92.06
380.155	80.06
380.38	93.06
380.606	81.06
380.831	85.06
381.057	85.06
381.282	80.06
381.507	102.06
381.733	89.06
381.958	91.06
382.184	96.06
382.409	84.06
382.634	113.06
382.86	109.06
383.085	101.06
383.31	96.06
383.535	111.06
383.761	95.06
383.986	101.06
384.211	92.06
384.436	100.06
384.662	105.06
384.887	109.06
385.112	98.06
385.337	91.06
385.562	94.06
385.787	88.06
386.013	91.06
386.238	103.06
386.463	110.06
386.688	99.06
386.913	98.06
387.138	96.06
387.363	113.06
387.588	104.06
387.813	106.06
388.038	106.06
388.263	108.06
388.488	99.06
388.713	93.06
388.938	92.06
389.163	89.06
389.387	104.06
389.612	108.06
389.837	103.06
390.062	91.06
390.287	96.06
390.512	88.06
390.736	86.06
390.961	103.06
391.186	88.06
391.411	102.06
391.636	100.06
391.86	97.06
392.085	92.06
392.31	99.06
392.534	100.06
392.759	102.06
392.984	111.06
393.208	90.06
393.433	101.06
393.658	106.06
393.882	96.06
394.107	95.06
394.331	98.06
394.556	107.06
394.78	105.06
395.005	99.06
395.229	110.06
395.454	107.06
395.678	92.06
395.903	117.06
396.127	93.06
396.352	102.06
396.576	102.06
396.801	108.06
397.025	112.06
397.249	102.06
397.474	104.06
397.698	98.06
397.922	102.06
398.147	99.06
398.371	98.06
398.595	92.06
398.82	106.06
399.044	107.06
399.268	109.06
399.492	111.06
399.717	116.06
399.941	109.06
400.165	116.06
400.389	104.06
400.613	103.06
400.837	108.06
401.062	104.06
401.286	113.06
401.51	105.06
401.734	100.06
401.958	107.06
402.182	107.06
402.406	98.06
402.63	106.06
402.854	107.06
403.078	107.06
403.302	103.06
403.526	119.06
403.75	114.06
403.974	116.06
404.198	121.06
404.422	111.06
404.645	114.06
404.869	128.06
405.093	120.06
405.317	108.06
405.541	114.06
405.765	122.06
405.988	120.06
406.212	107.06
406.436	110.06
406.66	116.06
406.883	128.06
407.107	102.06
407.331	114.06
407.555	116.06
407.778	102.06
408.002	118.06
408.226	111.06
408.449	114.06
408.673	124.06
408.896	122.06
409.12	107.06
409.344	98.06
409.567	116.06
409.791	107.06
410.014	126.06
410.238	122.06
410.461	110.06
410.685	124.06
410.908	103.06
411.132	114.06
411.355	107.06
411.578	110.06
411.802	99.06
412.025	111.06
412.249	109.06
412.472	103.06
412.695	104.06
412.919	123.06
413.142	111.06
413.365	114.06
413.589	121.06
413.812	102.06
414.035	101.06
414.258	111.06
414.482	108.06
414.705	114.06
414.928	123.06
415.151	119.06
415.374	100.06
415.597	98.06
415.821	118.06
416.044	108.06
416.267	114.06
416.49	115.06
416.713	115.06
416.936	123.06
417.159	100.06
417.382	107.06
417.605	109.06
417.828	106.06
418.051	109.06
418.274	129.06
418.497	118.06
418.72	120.06
418.943	110.06
419.166	117.06
419.389	124.06
419.611	127.06
419.834	129.06
420.057	135.06
420.28	117.06
420.503	104.06
420.726	118.06
420.948	118.06
421.171	117.06
421.394	112.06
421.617	101.06
421.839	108.06
422.062	124.06
422.285	122.06
422.507	121.06
422.73	114.06
422.953	107.06
423.175	107.06
423.398	120.06
423.621	114.06
423.843	122.06
424.066	122.06
424.288	112.06
424.511	124.06
424.733	123.06
424.956	116.06
425.178	120.06
425.401	126.06
425.623	104.06
425.846	116.06
426.068	137.06
426.291	127.06
426.513	122.06
426.735	118.06
426.958	135.06
427.18	124.06
427.402	129.06
427.625	106.06
427.847	113.06
428.069	112.06
428.292	118.06
428.514	113.06
428.736	110.06
428.958	101.06
429.181	111.06
429.403	109.06
429.625	103.06
429.847	118.06
430.069	122.06
430.292	112.06
430.514	122.06
430.736	108.06
430.958	111.06
431.18	115.06
431.402	118.06
431.624	123.06
431.846	117.06
432.068	100.06
432.29	97.06
432.512	99.06
432.734	120.06
432.956	118.06
433.178	121.06
433.4	140.06
433.622	127.06
433.844	124.06
434.066	122.06
434.287	109.06
434.509	114.06
434.731	105.06
434.953	108.06
435.175	117.06
435.397	126.06
435.618	107.06
435.84	111.06
436.062	114.06
436.284	107.06
436.505	92.06
436.727	109.06
436.949	114.06
437.17	118.06
437.392	123.06
437.614	99.06
437.835	100.06
438.057	100.06
438.278	115.06
438.5	93.06
438.721	109.06
438.943	117.06
439.165	114.06
439.386	120.06
439.608	124.06
439.829	118.06
440.05	117.06
440.272	118.06
440.493	114.06
440.715	107.06
440.936	132.06
441.158	127.06
441.379	136.06
441.6	134.06
441.822	125.06
442.043	138.06
442.264	110.06
442.486	108.06
442.707	128.06
442.928	126.06
443.149	131.06
443.371	118.06
443.592	128.06
443.813	131.06
444.034	122.06
444.255	115.06
444.476	132.06
444.698	126.06
444.919	127.06
445.14	269.06
445.361	191.06
445.582	118.06
445.803	124.06
446.024	121.06
446.245	114.06
446.466	125.06
446.687	118.06
446.908	126.06
447.129	121.06
447.35	120.06
447.571	121.06
447.792	127.06
448.013	109.06
448.234	106.06
448.455	124.06
448.675	123.06
448.896	119.06
449.117	123.06
449.338	117.06
449.559	120.06
449.779	122.06
450	111.06
450.221	130.06
450.442	118.06
450.662	115.06
450.883	114.06
451.104	117.06
451.324	118.06
451.545	110.06
451.766	106.06
451.986	113.06
452.207	108.06
452.428	108.06
452.648	114.06
452.869	103.06
453.089	111.06
453.31	96.06
453.53	116.06
453.751	125.06
453.971	107.06
454.192	111.06
454.412	132.06
454.633	106.06
454.853	107.06
455.073	115.06
455.294	126.06
455.514	104.06
455.734	120.06
455.955	101.06
456.175	112.06
456.395	98.06
456.616	107.06
456.836	113.06
457.056	118.06
457.276	101.06
457.497	117.06
457.717	107.06
457.937	101.06
458.157	105.06
458.377	95.06
458.598	91.06
458.818	102.06
459.038	99.06
459.258	120.06
459.478	101.06
459.698	105.06
459.918	99.06
460.138	115.06
460.358	117.06
460.578	124.06
460.798	122.06
461.018	105.06
461.238	122.06
461.458	128.06
461.678	107.06
461.898	128.06
462.118	108.06
462.338	112.06
462.558	108.06
462.777	121.06
462.997	118.06
463.217	128.06
463.437	125.06
463.657	136.06
463.876	132.06
464.096	118.06
464.316	130.06
464.536	118.06
464.755	116.06
464.975	103.06
465.195	109.06
465.414	112.06
465.634	111.06
465.854	119.06
466.073	116.06
466.293	110.06
466.512	119.06
466.732	122.06
466.951	116.06
467.171	112.06
467.391	122.06
467.61	113.06
467.829	125.06
468.049	124.06
468.268	115.06
468.488	118.06
468.707	111.06
468.927	107.06
469.146	117.06
469.365	130.06
469.585	124.06
469.804	118.06
470.023	125.06
470.243	116.06
470.462	130.06
470.681	137.06
470.901	135.06
471.12	115.06
471.339	124.06
471.558	122.06
471.777	120.06
471.997	119.06
472.216	123.06
472.435	107.06
472.654	118.06
472.873	118.06
473.092	129.06
473.311	126.06
473.53	114.06
473.749	116.06
473.968	112.06
474.187	132.06
474.406	124.06
474.625	109.06
474.844	120.06
475.063	124.06
475.282	122.06
475.501	134.06
475.72	110.06
475.939	114.06
476.158	123.06
476.377	127.06
476.596	114.06
476.814	103.06
477.033	114.06
477.252	103.06
477.471	122.06
477.69	131.06
477.908	124.06
478.127	135.06
478.346	126.06
478.564	123.06
478.783	130.06
479.002	123.06
479.22	124.06
479.439	121.06
479.658	132.06
479.876	129.06
480.095	126.06
480.313	115.06
480.532	124.06
480.751	135.06
480.969	106.06
481.188	124.06
481.406	120.06
481.624	102.06
481.843	116.06
482.061	100.06
482.28	127.06
482.498	122.06
482.717	123.06
482.935	140.06
483.153	134.06
483.372	127.06
483.59	132.06
483.808	126.06
484.027	124.06
484.245	126.06
484.463	124.06
484.681	133.06
484.9	118.06
485.118	133.06
485.336	119.06
485.554	106.06
485.772	106.06
485.99	117.06
486.209	115.06
486.427	118.06
486.645	135.06
486.863	132.06
487.081	126.06
487.299	133.06
487.517	133.06
487.735	144.06
487.953	138.06
488.171	162.06
488.389	146.06
488.607	155.06
488.825	134.06
489.043	129.06
489.261	130.06
489.479	142.06
489.696	135.06
489.914	128.06
490.132	139.06
490.35	130.06
490.568	143.06
490.786	140.06
491.003	160.06
491.221	161.06
491.439	147.06
491.657	168.06
491.874	159.06
492.092	170.06
492.31	180.06
492.527	173.06
492.745	162.06
492.963	146.06
493.18	157.06
493.398	154.06
493.615	160.06
493.833	150.06
494.05	150.06
494.268	157.06
494.485	156.06
494.703	160.06
494.92	147.06
495.138	141.06
495.355	154.06
495.573	146.06
495.79	148.06
496.008	146.06
496.225	144.06
496.442	151.06
496.66	141.06
496.877	153.06
497.094	148.06
497.312	148.06
497.529	142.06
497.746	147.06
497.963	148.06
498.181	151.06
498.398	137.06
498.615	142.06
498.832	129.06
499.049	136.06
499.267	154.06
499.484	160.06
499.701	163.06
499.918	207.06
500.135	199.06
500.352	210.06
500.569	226.06
500.786	226.06
501.003	215.06
501.22	182.06
501.437	182.06
501.654	175.06
501.871	178.06
502.088	174.06
502.305	150.06
502.522	155.06
502.739	145.06
502.956	146.06
503.172	144.06
503.389	162.06
503.606	142.06
503.823	143.06
504.04	134.06
504.256	134.06
504.473	134.06
504.69	157.06
504.907	148.06
505.123	148.06
505.34	139.06
505.557	127.06
505.773	131.06
505.99	120.06
506.207	122.06
506.423	136.06
506.64	124.06
506.856	125.06
507.073	131.06
507.289	122.06
507.506	128.06
507.722	129.06
507.939	118.06
508.155	118.06
508.372	119.06
508.588	136.06
508.805	114.06
509.021	110.06
509.238	119.06
509.454	113.06
509.67	121.06
509.887	113.06
510.103	132.06
510.319	119.06
510.536	118.06
510.752	119.06
510.968	125.06
511.184	117.06
511.401	94.06
511.617	115.06
511.833	107.06
512.049	119.06
512.265	105.06
512.481	121.06
512.698	116.06
512.914	111.06
513.13	114.06
513.346	126.06
513.562	106.06
513.778	124.06
513.994	119.06
514.21	124.06
514.426	108.06
514.642	128.06
514.858	128.06
515.074	111.06
515.29	118.06
515.506	122.06
515.721	115.06
515.937	108.06
516.153	117.06
516.369	131.06
516.585	110.06
516.801	122.06
517.016	129.06
517.232	124.06
517.448	130.06
517.664	125.06
517.879	139.06
518.095	121.06
518.311	123.06
518.527	115.06
518.742	133.06
518.958	142.06
519.173	127.06
519.389	111.06
519.605	132.06
519.82	117.06
520.036	114.06
520.251	130.06
520.467	118.06
520.682	114.06
520.898	118.06
521.113	106.06
521.329	111.06
521.544	108.06
521.76	126.06
521.975	105.06
522.19	106.06
522.406	127.06
522.621	130.06
522.836	107.06
523.052	130.06
523.267	128.06
523.482	115.06
523.698	113.06
523.913	135.06
524.128	114.06
524.343	123.06
524.559	123.06
524.774	119.06
524.989	131.06
525.204	130.06
525.419	122.06
525.634	124.06
525.849	130.06
526.064	126.06
526.28	125.06
526.495	128.06
526.71	120.06
526.925	99.06
527.14	118.06
527.355	130.06
527.57	124.06
527.785	114.06
527.999	115.06
528.214	126.06
528.429	130.06
528.644	121.06
528.859	140.06
529.074	123.06
529.289	137.06
529.503	133.06
529.718	127.06
529.933	130.06
530.148	125.06
530.363	114.06
530.577	130.06
530.792	101.06
531.007	112.06
531.221	128.06
531.436	112.06
531.651	114.06
531.865	116.06
532.08	99.06
532.295	106.06
532.509	116.06
532.724	105.06
532.938	112.06
533.153	123.06
533.367	125.06
533.582	118.06
533.796	121.06
534.011	120.06
534.225	125.06
534.44	106.06
534.654	117.06
534.868	127.06
535.083	114.06
535.297	108.06
535.511	114.06
535.726	132.06
535.94	135.06
536.154	119.06
536.369	106.06
536.583	118.06
536.797	125.06
537.011	119.06
537.225	110.06
537.44	119.06
537.654	118.06
537.868	104.06
538.082	115.06
538.296	125.06
538.51	112.06
538.724	116.06
538.938	124.06
539.153	123.06
539.367	128.06
539.581	116.06
539.795	109.06
540.009	114.06
540.222	107.06
540.436	116.06
540.65	111.06
540.864	128.06
541.078	124.06
541.292	140.06
541.506	143.06
541.72	140.06
541.934	150.06
542.147	149.06
542.361	131.06
542.575	134.06
542.789	128.06
543.002	118.06
543.216	118.06
543.43	118.06
543.644	136.06
543.857	140.06
544.071	139.06
544.285	129.06
544.498	130.06
544.712	123.06
544.925	130.06
545.139	135.06
545.352	136.06
545.566	135.06
545.779	132.06
545.993	129.06
546.206	128.06
546.42	150.06
546.633	144.06
546.847	139.06
547.06	134.06
547.274	142.06
547.487	146.06
547.7	144.06
547.914	156.06
548.127	152.06
548.34	147.06
548.554	119.06
548.767	135.06
548.98	129.06
549.193	145.06
549.407	133.06
549.62	128.06
549.833	131.06
550.046	135.06
550.259	131.06
550.473	137.06
550.686	126.06
550.899	120.06
551.112	133.06
551.325	132.06
551.538	126.06
551.751	117.06
551.964	105.06
552.177	132.06
552.39	126.06
552.603	132.06
552.816	134.06
553.029	143.06
553.242	126.06
553.455	128.06
553.667	136.06
553.88	127.06
554.093	136.06
554.306	136.06
554.519	126.06
554.732	123.06
554.944	122.06
555.157	119.06
555.37	131.06
555.583	130.06
555.795	136.06
556.008	130.06
556.221	115.06
556.433	109.06
556.646	130.06
556.859	121.06
557.071	126.06
557.284	126.06
557.496	117.06
557.709	126.06
557.921	111.06
558.134	122.06
558.346	122.06
558.559	103.06
558.771	130.06
558.984	120.06
559.196	120.06
559.409	129.06
559.621	111.06
559.833	99.06
560.046	109.06
560.258	119.06
560.47	106.06
560.683	118.06
560.895	126.06
561.107	102.06
561.32	111.06
561.532	124.06
561.744	125.06
561.956	118.06
562.168	118.06
562.381	127.06
562.593	110.06
562.805	123.06
563.017	108.06
563.229	107.06
563.441	124.06
563.653	127.06
563.865	121.06
564.077	114.06
564.289	119.06
564.501	122.06
564.713	118.06
564.925	107.06
565.137	124.06
565.349	114.06
565.561	109.06
565.773	126.06
565.985	119.06
566.197	117.06
566.408	115.06
566.62	134.06
566.832	128.06
567.044	109.06
567.255	140.06
567.467	134.06
567.679	120.06
567.891	136.06
568.102	121.06
568.314	131.06
568.526	116.06
568.737	114.06
568.949	127.06
569.161	112.06
569.372	117.06
569.584	117.06
569.795	118.06
570.007	107.06
570.218	103.06
570.43	87.06
570.641	102.06
570.853	98.06
571.064	114.06
571.276	110.06
571.487	102.06
571.698	110.06
571.91	97.06
572.121	121.06
572.333	94.06
572.544	108.06
572.755	98.06
572.966	88.06
573.178	106.06
573.389	99.06
573.6	102.06
573.811	99.06
574.023	98.06
574.234	107.06
574.445	111.06
574.656	108.06
574.867	107.06
575.078	97.06
575.289	93.06
575.501	91.06
575.712	100.06
575.923	104.06
576.134	92.06
576.345	102.06
576.556	102.06
576.767	98.06
576.978	95.06
577.188	106.06
577.399	117.06
577.61	118.06
577.821	99.06
578.032	106.06
578.243	91.06
578.454	88.06
578.665	99.06
578.875	100.06
579.086	104.06
579.297	102.06
579.508	94.06
579.718	100.06
579.929	93.06
580.14	96.06
580.35	91.06
580.561	114.06
580.772	102.06
580.982	95.06
581.193	105.06
581.403	114.06
581.614	88.06
581.825	99.06
582.035	88.06
582.246	94.06
582.456	94.06
582.667	79.06
582.877	94.06
583.087	88.06
583.298	103.06
583.508	116.06
583.719	79.06
583.929	108.06
584.139	94.06
584.35	99.06
584.56	96.06
584.77	102.06
584.981	104.06
585.191	91.06
585.401	89.06
585.611	99.06
585.821	92.06
586.032	92.06
586.242	100.06
586.452	100.06
586.662	93.06
586.872	103.06
587.082	83.06
587.292	101.06
587.502	100.06
587.713	100.06
587.923	106.06
588.133	98.06
588.343	94.06
588.553	112.06
588.762	109.06
588.972	95.06
589.182	106.06
589.392	97.06
589.602	95.06
589.812	87.06
590.022	104.06
590.232	89.06
590.441	88.06
590.651	105.06
590.861	91.06
591.071	96.06
591.281	98.06
591.49	101.06
591.7	106.06
591.91	98.06
592.119	107.06
592.329	102.06
592.539	100.06
592.748	98.06
592.958	95.06
593.167	97.06
593.377	109.06
593.587	102.06
593.796	104.06
594.006	95.06
594.215	86.06
594.424	97.06
594.634	100.06
594.843	98.06
595.053	108.06
595.262	100.06
595.472	106.06
595.681	98.06
595.89	102.06
596.1	94.06
596.309	101.06
596.518	107.06
596.727	93.06
596.937	105.06
597.146	102.06
597.355	103.06
597.564	99.06
597.774	102.06
597.983	98.06
598.192	98.06
598.401	93.06
598.61	98.06
598.819	98.06
599.028	92.06
599.237	111.06
599.446	93.06
599.655	102.06
599.864	105.06
600.073	90.06
600.282	108.06
600.491	108.06
600.7	89.06
600.909	102.06
601.118	84.06
601.327	95.06
601.536	92.06
601.745	102.06
601.953	94.06
602.162	99.06
602.371	97.06
602.58	100.06
602.789	89.06
602.997	85.06
603.206	80.06
603.415	108.06
603.623	98.06
603.832	98.06
604.041	102.06
604.249	80.06
604.458	102.06
604.666	100.06
604.875	87.06
605.084	101.06
605.292	96.06
605.501	93.06
605.709	95.06
605.918	99.06
606.126	73.06
606.334	99.06
606.543	103.06
606.751	103.06
606.96	84.06
607.168	108.06
607.376	110.06
607.585	106.06
607.793	99.06
608.001	93.06
608.21	87.06
608.418	95.06
608.626	101.06
608.834	101.06
609.043	105.06
609.251	111.06
609.459	106.06
609.667	101.06
609.875	104.06
610.083	88.06
610.291	98.06
610.499	101.06
610.707	104.06
610.916	92.06
611.124	103.06
611.332	98.06
611.54	96.06
611.748	109.06
611.955	109.06
612.163	102.06
612.371	104.06
612.579	88.06
612.787	102.06
612.995	99.06
613.203	90.06
613.411	100.06
613.618	104.06
613.826	96.06
614.034	106.06
614.242	89.06
614.449	92.06
614.657	98.06
614.865	103.06
615.072	109.06
615.28	101.06
615.488	94.06
615.695	99.06
615.903	85.06
616.111	104.06
616.318	94.06
616.526	97.06
616.733	98.06
616.941	102.06
617.148	108.06
617.356	88.06
617.563	96.06
617.771	107.06
617.978	100.06
618.185	94.06
618.393	85.06
618.6	78.06
618.807	88.06
619.015	100.06
619.222	100.06
619.429	100.06
619.637	93.06
619.844	94.06
620.051	91.06
620.258	84.06
620.466	97.06
620.673	93.06
620.88	97.06
621.087	90.06
621.294	105.06
621.501	95.06
621.708	101.06
621.915	103.06
622.122	98.06
622.329	103.06
622.536	96.06
622.743	95.06
622.95	92.06
623.157	100.06
623.364	88.06
623.571	103.06
623.778	95.06
623.985	85.06
624.192	97.06
624.399	100.06
624.606	93.06
624.812	86.06
625.019	95.06
625.226	99.06
625.433	88.06
625.639	83.06
625.846	100.06
626.053	97.06
626.259	94.06
626.466	93.06
626.673	85.06
626.879	80.06
627.086	90.06
627.293	101.06
627.499	102.06
627.706	90.06
627.912	89.06
628.119	97.06
628.325	94.06
628.532	106.06
628.738	94.06
628.945	101.06
629.151	91.06
629.357	104.06
629.564	90.06
629.77	87.06
629.976	79.06
630.183	83.06
630.389	106.06
630.595	101.06
630.802	97.06
631.008	92.06
631.214	86.06
631.42	79.06
631.627	80.06
631.833	110.06
632.039	101.06
632.245	91.06
632.451	86.06
632.657	94.06
632.863	99.06
633.069	96.06
633.275	94.06
633.481	95.06
633.688	87.06
633.893	84.06
634.099	95.06
634.305	90.06
634.511	90.06
634.717	97.06
634.923	87.06
635.129	100.06
635.335	97.06
635.541	93.06
635.747	106.06
635.952	93.06
636.158	92.06
636.364	89.06
636.57	98.06
636.775	91.06
636.981	92.06
637.187	83.06
637.392	86.06
637.598	89.06
637.804	92.06
638.009	83.06
638.215	84.06
638.421	98.06
638.626	85.06
638.832	72.06
639.037	93.06
639.243	85.06
639.448	96.06
639.654	101.06
639.859	99.06
640.065	87.06
640.27	102.06
640.475	107.06
640.681	87.06
640.886	84.06
641.091	92.06
641.297	91.06
641.502	88.06
641.707	91.06
641.913	85.06
642.118	94.06
642.323	103.06
642.528	99.06
642.733	90.06
642.939	98.06
643.144	91.06
643.349	89.06
643.554	99.06
643.759	94.06
643.964	102.06
644.169	96.06
644.374	88.06
644.579	93.06
644.784	85.06
644.989	90.06
645.194	95.06
645.399	92.06
645.604	108.06
645.809	91.06
646.014	82.06
646.219	93.06
646.423	91.06
646.628	100.06
646.833	101.06
647.038	105.06
647.243	95.06
647.447	90.06
647.652	86.06
647.857	94.06
648.062	103.06
648.266	94.06
648.471	98.06
648.676	100.06
648.88	88.06
649.085	91.06
649.289	92.06
649.494	91.06
649.698	101.06
649.903	80.06
650.107	88.06
650.312	86.06
650.516	98.06
650.721	84.06
650.925	93.06
651.13	80.06
651.334	84.06
651.539	87.06
651.743	85.06
651.947	101.06
652.152	93.06
652.356	90.06
652.56	96.06
652.764	79.06
652.969	91.06
653.173	94.06
653.377	102.06
653.581	92.06
653.785	93.06
653.99	86.06
654.194	74.06
654.398	85.06
654.602	96.06
654.806	87.06
655.01	85.06
655.214	87.06
655.418	87.06
655.622	97.06
655.826	101.06
656.03	99.06
656.234	102.06
656.438	91.06
656.642	77.06
656.846	90.06
657.049	96.06
657.253	95.06
657.457	89.06
657.661	75.06
657.865	90.06
658.068	96.06
658.272	86.06
658.476	77.06
658.68	101.06
658.883	82.06
659.087	92.06
659.291	83.06
659.494	87.06
659.698	79.06
659.901	88.06
660.105	89.06
660.309	86.06
660.512	88.06
660.716	90.06
660.919	90.06
661.123	87.06
661.326	89.06
661.53	92.06
661.733	80.06
661.936	91.06
662.14	78.06
662.343	90.06
662.546	87.06
662.75	82.06
662.953	92.06
663.156	95.06
663.36	75.06
663.563	80.06
663.766	97.06
663.969	77.06
664.173	72.06
664.376	82.06
664.579	89.06
664.782	88.06
664.985	83.06
665.188	88.06
665.391	83.06
665.594	76.06
665.797	90.06
666	88.06
666.203	87.06
666.406	89.06
666.609	95.06
666.812	95.06
667.015	89.06
667.218	82.06
667.421	79.06
667.624	71.06
667.827	90.06
668.03	95.06
668.232	84.06
668.435	85.06
668.638	86.06
668.841	83.06
669.043	80.06
669.246	81.06
669.449	84.06
669.651	79.06
669.854	91.06
670.057	72.06
670.259	102.06
670.462	90.06
670.665	77.06
670.867	88.06
671.07	96.06
671.272	81.06
671.475	90.06
671.677	93.06
671.88	92.06
672.082	78.06
672.284	77.06
672.487	88.06
672.689	87.06
672.892	92.06
