Data from StandardFe(NO3)3.TAE.3%Agarose.FlatLispGreen.Lamp.Energy10.07252019_HRD10591_11-54-05-439.txt Node
Date: Thu Jul 25 11:54:05 EDT 2019
User: cochatt
Spectrometer: HR+D1059
Trigger mode: 1
Integration Time (sec): 1.000000E-1
Scans to average: 1
Electric dark correction enabled: true
Nonlinearity correction enabled: false
Boxcar width: 0
XAxis mode: Wavelengths
Number of Pixels in Spectrum: 2048
>>>>>Begin Spectral Data<<<<<
223.165	-16.62
223.4	-16.62
223.635	-16.62
223.869	-16.62
224.104	-15.62
224.338	-8.62
224.573	-9.62
224.808	-16.62
225.042	-1.62
225.277	-1.62
225.511	-1.62
225.746	-18.62
225.98	-0.62
226.215	12.38
226.449	11.38
226.683	11.38
226.918	29.38
227.152	43.38
227.387	37.38
227.621	31.38
227.856	41.38
228.09	38.38
228.324	57.38
228.559	53.38
228.793	55.38
229.027	66.38
229.262	59.38
229.496	78.38
229.73	70.38
229.964	72.38
230.199	63.38
230.433	82.38
230.667	93.38
230.901	83.38
231.136	88.38
231.37	83.38
231.604	83.38
231.838	78.38
232.072	93.38
232.306	98.38
232.541	92.38
232.775	90.38
233.009	80.38
233.243	94.38
233.477	73.38
233.711	94.38
233.945	87.38
234.179	104.38
234.413	94.38
234.647	84.38
234.881	99.38
235.115	83.38
235.349	66.38
235.583	76.38
235.817	79.38
236.051	79.38
236.285	74.38
236.519	73.38
236.753	77.38
236.987	78.38
237.221	90.38
237.455	89.38
237.689	73.38
237.922	68.38
238.156	70.38
238.39	73.38
238.624	75.38
238.858	77.38
239.091	95.38
239.325	78.38
239.559	79.38
239.793	87.38
240.027	86.38
240.26	66.38
240.494	88.38
240.728	74.38
240.961	78.38
241.195	92.38
241.429	80.38
241.662	90.38
241.896	76.38
242.13	82.38
242.363	75.38
242.597	63.38
242.83	75.38
243.064	78.38
243.298	94.38
243.531	81.38
243.765	80.38
243.998	71.38
244.232	80.38
244.465	80.38
244.699	77.38
244.932	88.38
245.166	79.38
245.399	84.38
245.633	89.38
245.866	79.38
246.099	81.38
246.333	89.38
246.566	69.38
246.8	90.38
247.033	84.38
247.266	79.38
247.5	88.38
247.733	73.38
247.966	80.38
248.2	92.38
248.433	89.38
248.666	87.38
248.899	76.38
249.133	79.38
249.366	93.38
249.599	99.38
249.832	75.38
250.066	87.38
250.299	82.38
250.532	93.38
250.765	83.38
250.998	83.38
251.231	89.38
251.465	90.38
251.698	68.38
251.931	79.38
252.164	82.38
252.397	63.38
252.63	78.38
252.863	58.38
253.096	78.38
253.329	87.38
253.562	70.38
253.795	87.38
254.028	84.38
254.261	93.38
254.494	90.38
254.727	79.38
254.96	88.38
255.193	80.38
255.426	80.38
255.659	86.38
255.892	89.38
256.124	75.38
256.357	92.38
256.59	99.38
256.823	86.38
257.056	82.38
257.289	93.38
257.521	93.38
257.754	84.38
257.987	82.38
258.22	91.38
258.452	86.38
258.685	75.38
258.918	69.38
259.151	80.38
259.383	92.38
259.616	85.38
259.849	80.38
260.081	94.38
260.314	76.38
260.547	86.38
260.779	79.38
261.012	75.38
261.244	100.38
261.477	86.38
261.71	87.38
261.942	77.38
262.175	77.38
262.407	76.38
262.64	77.38
262.872	80.38
263.105	77.38
263.337	76.38
263.57	70.38
263.802	79.38
264.035	80.38
264.267	100.38
264.499	79.38
264.732	78.38
264.964	90.38
265.197	88.38
265.429	74.38
265.661	93.38
265.894	98.38
266.126	85.38
266.358	85.38
266.591	95.38
266.823	84.38
267.055	75.38
267.287	80.38
267.52	108.38
267.752	84.38
267.984	80.38
268.216	88.38
268.448	78.38
268.681	84.38
268.913	82.38
269.145	84.38
269.377	87.38
269.609	83.38
269.841	88.38
270.073	80.38
270.306	82.38
270.538	99.38
270.77	85.38
271.002	89.38
271.234	89.38
271.466	99.38
271.698	95.38
271.93	104.38
272.162	96.38
272.394	83.38
272.626	86.38
272.858	79.38
273.09	87.38
273.322	102.38
273.553	75.38
273.785	89.38
274.017	86.38
274.249	75.38
274.481	87.38
274.713	91.38
274.945	84.38
275.176	93.38
275.408	104.38
275.64	100.38
275.872	91.38
276.104	79.38
276.335	80.38
276.567	88.38
276.799	80.38
277.031	80.38
277.262	83.38
277.494	92.38
277.726	87.38
277.957	102.38
278.189	81.38
278.421	98.38
278.652	85.38
278.884	85.38
279.115	80.38
279.347	80.38
279.579	83.38
279.81	88.38
280.042	95.38
280.273	81.38
280.505	88.38
280.736	87.38
280.968	103.38
281.199	94.38
281.431	80.38
281.662	106.38
281.894	88.38
282.125	87.38
282.356	99.38
282.588	90.38
282.819	82.38
283.051	85.38
283.282	92.38
283.513	84.38
283.745	97.38
283.976	82.38
284.207	80.38
284.439	81.38
284.67	82.38
284.901	86.38
285.132	84.38
285.364	84.38
285.595	90.38
285.826	99.38
286.057	99.38
286.288	80.38
286.52	80.38
286.751	90.38
286.982	91.38
287.213	92.38
287.444	87.38
287.675	93.38
287.906	91.38
288.138	90.38
288.369	90.38
288.6	96.38
288.831	76.38
289.062	85.38
289.293	70.38
289.524	75.38
289.755	90.38
289.986	81.38
290.217	92.38
290.448	95.38
290.679	82.38
290.91	90.38
291.141	92.38
291.371	93.38
291.602	84.38
291.833	88.38
292.064	89.38
292.295	84.38
292.526	88.38
292.757	99.38
292.987	89.38
293.218	91.38
293.449	86.38
293.68	79.38
293.91	80.38
294.141	92.38
294.372	83.38
294.603	86.38
294.833	94.38
295.064	89.38
295.295	91.38
295.525	91.38
295.756	100.38
295.987	74.38
296.217	90.38
296.448	102.38
296.679	94.38
296.909	90.38
297.14	87.38
297.37	93.38
297.601	99.38
297.831	86.38
298.062	92.38
298.292	102.38
298.523	90.38
298.753	106.38
298.984	84.38
299.214	99.38
299.445	85.38
299.675	91.38
299.905	76.38
300.136	76.38
300.366	85.38
300.597	77.38
300.827	90.38
301.057	88.38
301.288	95.38
301.518	93.38
301.748	99.38
301.979	95.38
302.209	86.38
302.439	86.38
302.669	87.38
302.9	89.38
303.13	90.38
303.36	93.38
303.59	80.38
303.82	90.38
304.051	84.38
304.281	95.38
304.511	91.38
304.741	83.38
304.971	97.38
305.201	98.38
305.431	85.38
305.661	91.38
305.891	96.38
306.121	84.38
306.352	90.38
306.582	85.38
306.812	74.38
307.042	94.38
307.272	85.38
307.502	90.38
307.731	85.38
307.961	87.38
308.191	94.38
308.421	94.38
308.651	91.38
308.881	90.38
309.111	89.38
309.341	96.38
309.571	84.38
309.8	97.38
310.03	91.38
310.26	85.38
310.49	84.38
310.72	83.38
310.949	89.38
311.179	86.38
311.409	90.38
311.639	91.38
311.868	86.38
312.098	79.38
312.328	87.38
312.557	96.38
312.787	80.38
313.017	94.38
313.246	84.38
313.476	75.38
313.706	94.38
313.935	91.38
314.165	77.38
314.394	96.38
314.624	99.38
314.853	86.38
315.083	105.38
315.312	85.38
315.542	83.38
315.771	94.38
316.001	93.38
316.23	78.38
316.46	89.38
316.689	89.38
316.919	84.38
317.148	103.38
317.377	74.38
317.607	89.38
317.836	106.38
318.065	94.38
318.295	84.38
318.524	84.38
318.753	89.38
318.983	91.38
319.212	100.38
319.441	92.38
319.67	92.38
319.9	87.38
320.129	73.38
320.358	96.38
320.587	82.38
320.816	82.38
321.046	90.38
321.275	96.38
321.504	92.38
321.733	98.38
321.962	99.38
322.191	85.38
322.42	96.38
322.649	84.38
322.878	90.38
323.108	83.38
323.337	96.38
323.566	94.38
323.795	91.38
324.024	81.38
324.253	82.38
324.482	84.38
324.71	87.38
324.939	85.38
325.168	87.38
325.397	84.38
325.626	99.38
325.855	80.38
326.084	80.38
326.313	96.38
326.542	77.38
326.77	104.38
326.999	84.38
327.228	87.38
327.457	89.38
327.686	84.38
327.914	97.38
328.143	84.38
328.372	92.38
328.6	87.38
328.829	101.38
329.058	79.38
329.287	91.38
329.515	101.38
329.744	85.38
329.972	106.38
330.201	90.38
330.43	74.38
330.658	90.38
330.887	87.38
331.115	86.38
331.344	90.38
331.572	95.38
331.801	96.38
332.03	80.38
332.258	78.38
332.486	98.38
332.715	93.38
332.943	94.38
333.172	79.38
333.4	108.38
333.629	90.38
333.857	93.38
334.085	89.38
334.314	83.38
334.542	87.38
334.771	88.38
334.999	88.38
335.227	97.38
335.455	83.38
335.684	91.38
335.912	85.38
336.14	91.38
336.369	87.38
336.597	86.38
336.825	92.38
337.053	86.38
337.281	91.38
337.51	83.38
337.738	80.38
337.966	84.38
338.194	102.38
338.422	99.38
338.65	90.38
338.878	96.38
339.106	92.38
339.334	91.38
339.562	80.38
339.79	91.38
340.018	85.38
340.246	90.38
340.474	87.38
340.702	92.38
340.93	96.38
341.158	92.38
341.386	87.38
341.614	84.38
341.842	83.38
342.07	88.38
342.298	86.38
342.526	79.38
342.754	84.38
342.981	79.38
343.209	89.38
343.437	94.38
343.665	105.38
343.893	89.38
344.12	83.38
344.348	104.38
344.576	105.38
344.804	97.38
345.031	85.38
345.259	92.38
345.487	70.38
345.714	84.38
345.942	86.38
346.17	94.38
346.397	79.38
346.625	86.38
346.853	86.38
347.08	90.38
347.308	92.38
347.535	87.38
347.763	105.38
347.99	89.38
348.218	83.38
348.445	92.38
348.673	89.38
348.9	79.38
349.128	94.38
349.355	92.38
349.583	93.38
349.81	85.38
350.037	88.38
350.265	93.38
350.492	90.38
350.72	91.38
350.947	93.38
351.174	109.38
351.402	97.38
351.629	91.38
351.856	92.38
352.083	87.38
352.311	80.38
352.538	75.38
352.765	80.38
352.992	92.38
353.22	96.38
353.447	96.38
353.674	93.38
353.901	100.38
354.128	99.38
354.355	103.38
354.583	86.38
354.81	90.38
355.037	96.38
355.264	94.38
355.491	85.38
355.718	78.38
355.945	87.38
356.172	83.38
356.399	92.38
356.626	91.38
356.853	88.38
357.08	87.38
357.307	97.38
357.534	80.38
357.761	90.38
357.988	91.38
358.215	75.38
358.441	92.38
358.668	78.38
358.895	98.38
359.122	74.38
359.349	91.38
359.576	92.38
359.802	86.38
360.029	92.38
360.256	91.38
360.483	105.38
360.709	98.38
360.936	91.38
361.163	89.38
361.39	90.38
361.616	87.38
361.843	86.38
362.07	94.38
362.296	75.38
362.523	93.38
362.749	90.38
362.976	91.38
363.203	95.38
363.429	80.38
363.656	89.38
363.882	86.38
364.109	98.38
364.335	89.38
364.562	90.38
364.788	90.38
365.015	83.38
365.241	86.38
365.468	91.38
365.694	91.38
365.92	91.38
366.147	79.38
366.373	91.38
366.599	95.38
366.826	95.38
367.052	98.38
367.278	82.38
367.505	91.38
367.731	84.38
367.957	96.38
368.184	69.38
368.41	102.38
368.636	87.38
368.862	81.38
369.089	83.38
369.315	88.38
369.541	79.38
369.767	101.38
369.993	80.38
370.219	83.38
370.445	97.38
370.672	93.38
370.898	90.38
371.124	78.38
371.35	87.38
371.576	84.38
371.802	91.38
372.028	95.38
372.254	102.38
372.48	90.38
372.706	92.38
372.932	104.38
373.158	85.38
373.384	76.38
373.61	72.38
373.835	86.38
374.061	79.38
374.287	97.38
374.513	87.38
374.739	96.38
374.965	106.38
375.191	94.38
375.416	79.38
375.642	88.38
375.868	97.38
376.094	98.38
376.319	91.38
376.545	67.38
376.771	84.38
376.997	90.38
377.222	90.38
377.448	79.38
377.674	88.38
377.899	101.38
378.125	84.38
378.35	87.38
378.576	95.38
378.802	89.38
379.027	93.38
379.253	87.38
379.478	72.38
379.704	81.38
379.929	87.38
380.155	101.38
380.38	94.38
380.606	93.38
380.831	99.38
381.057	99.38
381.282	108.38
381.507	94.38
381.733	92.38
381.958	97.38
382.184	90.38
382.409	98.38
382.634	104.38
382.86	115.38
383.085	109.38
383.31	95.38
383.535	99.38
383.761	90.38
383.986	101.38
384.211	86.38
384.436	90.38
384.662	99.38
384.887	95.38
385.112	100.38
385.337	79.38
385.562	98.38
385.787	91.38
386.013	106.38
386.238	104.38
386.463	98.38
386.688	91.38
386.913	104.38
387.138	88.38
387.363	93.38
387.588	94.38
387.813	78.38
388.038	91.38
388.263	116.38
388.488	94.38
388.713	99.38
388.938	94.38
389.163	96.38
389.387	107.38
389.612	110.38
389.837	97.38
390.062	98.38
390.287	100.38
390.512	102.38
390.736	81.38
390.961	100.38
391.186	116.38
391.411	99.38
391.636	115.38
391.86	108.38
392.085	95.38
392.31	107.38
392.534	91.38
392.759	98.38
392.984	97.38
393.208	94.38
393.433	103.38
393.658	99.38
393.882	103.38
394.107	89.38
394.331	103.38
394.556	98.38
394.78	107.38
395.005	106.38
395.229	113.38
395.454	104.38
395.678	99.38
395.903	105.38
396.127	100.38
396.352	100.38
396.576	101.38
396.801	104.38
397.025	112.38
397.249	103.38
397.474	107.38
397.698	96.38
397.922	107.38
398.147	93.38
398.371	92.38
398.595	98.38
398.82	86.38
399.044	97.38
399.268	118.38
399.492	120.38
399.717	111.38
399.941	125.38
400.165	103.38
400.389	104.38
400.613	111.38
400.837	98.38
401.062	107.38
401.286	99.38
401.51	119.38
401.734	120.38
401.958	115.38
402.182	106.38
402.406	101.38
402.63	114.38
402.854	118.38
403.078	105.38
403.302	122.38
403.526	126.38
403.75	111.38
403.974	90.38
404.198	114.38
404.422	116.38
404.645	104.38
404.869	116.38
405.093	117.38
405.317	119.38
405.541	124.38
405.765	104.38
405.988	114.38
406.212	117.38
406.436	110.38
406.66	115.38
406.883	110.38
407.107	111.38
407.331	116.38
407.555	116.38
407.778	99.38
408.002	105.38
408.226	118.38
408.449	114.38
408.673	118.38
408.896	109.38
409.12	100.38
409.344	108.38
409.567	120.38
409.791	107.38
410.014	99.38
410.238	106.38
410.461	110.38
410.685	112.38
410.908	122.38
411.132	110.38
411.355	119.38
411.578	107.38
411.802	106.38
412.025	93.38
412.249	115.38
412.472	114.38
412.695	117.38
412.919	120.38
413.142	118.38
413.365	107.38
413.589	96.38
413.812	104.38
414.035	119.38
414.258	104.38
414.482	104.38
414.705	114.38
414.928	120.38
415.151	108.38
415.374	118.38
415.597	116.38
415.821	98.38
416.044	119.38
416.267	115.38
416.49	125.38
416.713	117.38
416.936	118.38
417.159	123.38
417.382	103.38
417.605	115.38
417.828	120.38
418.051	116.38
418.274	126.38
418.497	124.38
418.72	125.38
418.943	115.38
419.166	116.38
419.389	120.38
419.611	114.38
419.834	133.38
420.057	121.38
420.28	127.38
420.503	126.38
420.726	122.38
420.948	120.38
421.171	116.38
421.394	122.38
421.617	108.38
421.839	122.38
422.062	115.38
422.285	115.38
422.507	133.38
422.73	116.38
422.953	113.38
423.175	118.38
423.398	120.38
423.621	127.38
423.843	131.38
424.066	127.38
424.288	128.38
424.511	133.38
424.733	123.38
424.956	128.38
425.178	117.38
425.401	128.38
425.623	126.38
425.846	120.38
426.068	130.38
426.291	119.38
426.513	126.38
426.735	109.38
426.958	120.38
427.18	128.38
427.402	126.38
427.625	112.38
427.847	110.38
428.069	119.38
428.292	123.38
428.514	119.38
428.736	112.38
428.958	112.38
429.181	126.38
429.403	113.38
429.625	114.38
429.847	99.38
430.069	119.38
430.292	122.38
430.514	118.38
430.736	108.38
430.958	108.38
431.18	108.38
431.402	108.38
431.624	120.38
431.846	116.38
432.068	112.38
432.29	104.38
432.512	121.38
432.734	112.38
432.956	120.38
433.178	110.38
433.4	112.38
433.622	117.38
433.844	125.38
434.066	116.38
434.287	111.38
434.509	116.38
434.731	118.38
434.953	114.38
435.175	123.38
435.397	124.38
435.618	112.38
435.84	122.38
436.062	98.38
436.284	110.38
436.505	125.38
436.727	114.38
436.949	118.38
437.17	112.38
437.392	109.38
437.614	114.38
437.835	110.38
438.057	111.38
438.278	119.38
438.5	98.38
438.721	118.38
438.943	125.38
439.165	127.38
439.386	117.38
439.608	111.38
439.829	122.38
440.05	121.38
440.272	121.38
440.493	113.38
440.715	131.38
440.936	123.38
441.158	121.38
441.379	117.38
441.6	127.38
441.822	124.38
442.043	133.38
442.264	127.38
442.486	142.38
442.707	120.38
442.928	133.38
443.149	116.38
443.371	125.38
443.592	134.38
443.813	136.38
444.034	130.38
444.255	124.38
444.476	128.38
444.698	144.38
444.919	134.38
445.14	248.38
445.361	164.38
445.582	128.38
445.803	129.38
446.024	134.38
446.245	133.38
446.466	133.38
446.687	121.38
446.908	123.38
447.129	116.38
447.35	118.38
447.571	122.38
447.792	116.38
448.013	125.38
448.234	132.38
448.455	111.38
448.675	126.38
448.896	125.38
449.117	119.38
449.338	118.38
449.559	118.38
449.779	119.38
450	114.38
450.221	113.38
450.442	115.38
450.662	124.38
450.883	128.38
451.104	109.38
451.324	107.38
451.545	102.38
451.766	120.38
451.986	114.38
452.207	121.38
452.428	107.38
452.648	117.38
452.869	120.38
453.089	114.38
453.31	106.38
453.53	107.38
453.751	118.38
453.971	109.38
454.192	120.38
454.412	109.38
454.633	98.38
454.853	118.38
455.073	117.38
455.294	116.38
455.514	130.38
455.734	100.38
455.955	105.38
456.175	94.38
456.395	103.38
456.616	93.38
456.836	118.38
457.056	99.38
457.276	102.38
457.497	97.38
457.717	102.38
457.937	105.38
458.157	114.38
458.377	103.38
458.598	118.38
458.818	120.38
459.038	107.38
459.258	112.38
459.478	110.38
459.698	93.38
459.918	110.38
460.138	103.38
460.358	132.38
460.578	130.38
460.798	131.38
461.018	122.38
461.238	109.38
461.458	113.38
461.678	130.38
461.898	126.38
462.118	114.38
462.338	123.38
462.558	131.38
462.777	127.38
462.997	139.38
463.217	138.38
463.437	137.38
463.657	108.38
463.876	120.38
464.096	111.38
464.316	126.38
464.536	118.38
464.755	118.38
464.975	116.38
465.195	117.38
465.414	130.38
465.634	135.38
465.854	115.38
466.073	123.38
466.293	122.38
466.512	111.38
466.732	122.38
466.951	134.38
467.171	119.38
467.391	122.38
467.61	114.38
467.829	121.38
468.049	121.38
468.268	139.38
468.488	126.38
468.707	123.38
468.927	120.38
469.146	115.38
469.365	129.38
469.585	118.38
469.804	119.38
470.023	131.38
470.243	121.38
470.462	126.38
470.681	136.38
470.901	133.38
471.12	134.38
471.339	125.38
471.558	122.38
471.777	130.38
471.997	140.38
472.216	113.38
472.435	106.38
472.654	100.38
472.873	112.38
473.092	124.38
473.311	109.38
473.53	125.38
473.749	128.38
473.968	134.38
474.187	111.38
474.406	120.38
474.625	108.38
474.844	112.38
475.063	122.38
475.282	126.38
475.501	125.38
475.72	125.38
475.939	115.38
476.158	118.38
476.377	115.38
476.596	101.38
476.814	118.38
477.033	114.38
477.252	118.38
477.471	122.38
477.69	136.38
477.908	119.38
478.127	126.38
478.346	124.38
478.564	145.38
478.783	126.38
479.002	128.38
479.22	132.38
479.439	132.38
479.658	117.38
479.876	102.38
480.095	111.38
480.313	119.38
480.532	126.38
480.751	134.38
480.969	117.38
481.188	115.38
481.406	109.38
481.624	111.38
481.843	123.38
482.061	114.38
482.28	121.38
482.498	120.38
482.717	125.38
482.935	118.38
483.153	144.38
483.372	127.38
483.59	124.38
483.808	121.38
484.027	134.38
484.245	121.38
484.463	120.38
484.681	146.38
484.9	128.38
485.118	133.38
485.336	120.38
485.554	139.38
485.772	126.38
485.99	109.38
486.209	115.38
486.427	112.38
486.645	127.38
486.863	125.38
487.081	140.38
487.299	138.38
487.517	139.38
487.735	141.38
487.953	144.38
488.171	153.38
488.389	135.38
488.607	129.38
488.825	135.38
489.043	116.38
489.261	132.38
489.479	127.38
489.696	137.38
489.914	132.38
490.132	120.38
490.35	145.38
490.568	137.38
490.786	135.38
491.003	151.38
491.221	156.38
491.439	170.38
491.657	172.38
491.874	164.38
492.092	159.38
492.31	164.38
492.527	158.38
492.745	152.38
492.963	153.38
493.18	150.38
493.398	155.38
493.615	154.38
493.833	156.38
494.05	154.38
494.268	144.38
494.485	150.38
494.703	163.38
494.92	149.38
495.138	154.38
495.355	146.38
495.573	148.38
495.79	156.38
496.008	163.38
496.225	131.38
496.442	157.38
496.66	156.38
496.877	146.38
497.094	160.38
497.312	138.38
497.529	162.38
497.746	143.38
497.963	141.38
498.181	141.38
498.398	134.38
498.615	141.38
498.832	152.38
499.049	152.38
499.267	148.38
499.484	155.38
499.701	183.38
499.918	184.38
500.135	196.38
500.352	217.38
500.569	219.38
500.786	219.38
501.003	208.38
501.22	200.38
501.437	192.38
501.654	173.38
501.871	167.38
502.088	159.38
502.305	150.38
502.522	166.38
502.739	163.38
502.956	135.38
503.172	140.38
503.389	144.38
503.606	141.38
503.823	123.38
504.04	138.38
504.256	136.38
504.473	134.38
504.69	138.38
504.907	144.38
505.123	126.38
505.34	133.38
505.557	129.38
505.773	127.38
505.99	135.38
506.207	130.38
506.423	131.38
506.64	131.38
506.856	121.38
507.073	127.38
507.289	120.38
507.506	130.38
507.722	120.38
507.939	120.38
508.155	137.38
508.372	128.38
508.588	120.38
508.805	132.38
509.021	121.38
509.238	119.38
509.454	124.38
509.67	120.38
509.887	119.38
510.103	121.38
510.319	124.38
510.536	131.38
510.752	107.38
510.968	116.38
511.184	111.38
511.401	109.38
511.617	121.38
511.833	100.38
512.049	128.38
512.265	103.38
512.481	111.38
512.698	113.38
512.914	124.38
513.13	121.38
513.346	124.38
513.562	112.38
513.778	122.38
513.994	124.38
514.21	123.38
514.426	117.38
514.642	126.38
514.858	120.38
515.074	123.38
515.29	120.38
515.506	119.38
515.721	119.38
515.937	118.38
516.153	106.38
516.369	110.38
516.585	130.38
516.801	115.38
517.016	110.38
517.232	119.38
517.448	140.38
517.664	134.38
517.879	137.38
518.095	138.38
518.311	135.38
518.527	136.38
518.742	141.38
518.958	140.38
519.173	133.38
519.389	127.38
519.605	134.38
519.82	120.38
520.036	105.38
520.251	111.38
520.467	109.38
520.682	131.38
520.898	109.38
521.113	109.38
521.329	117.38
521.544	95.38
521.76	127.38
521.975	131.38
522.19	126.38
522.406	127.38
522.621	124.38
522.836	122.38
523.052	120.38
523.267	108.38
523.482	120.38
523.698	118.38
523.913	116.38
524.128	127.38
524.343	122.38
524.559	136.38
524.774	125.38
524.989	138.38
525.204	123.38
525.419	131.38
525.634	113.38
525.849	132.38
526.064	127.38
526.28	131.38
526.495	118.38
526.71	129.38
526.925	105.38
527.14	100.38
527.355	123.38
527.57	108.38
527.785	112.38
527.999	103.38
528.214	123.38
528.429	123.38
528.644	136.38
528.859	128.38
529.074	141.38
529.289	141.38
529.503	126.38
529.718	140.38
529.933	134.38
530.148	126.38
530.363	114.38
530.577	112.38
530.792	112.38
531.007	126.38
531.221	108.38
531.436	106.38
531.651	107.38
531.865	103.38
532.08	118.38
532.295	115.38
532.509	107.38
532.724	104.38
532.938	102.38
533.153	119.38
533.367	108.38
533.582	130.38
533.796	120.38
534.011	115.38
534.225	117.38
534.44	104.38
534.654	114.38
534.868	118.38
535.083	105.38
535.297	118.38
535.511	114.38
535.726	128.38
535.94	126.38
536.154	110.38
536.369	110.38
536.583	116.38
536.797	111.38
537.011	107.38
537.225	119.38
537.44	112.38
537.654	108.38
537.868	127.38
538.082	114.38
538.296	119.38
538.51	120.38
538.724	114.38
538.938	122.38
539.153	120.38
539.367	122.38
539.581	105.38
539.795	108.38
540.009	118.38
540.222	110.38
540.436	119.38
540.65	114.38
540.864	106.38
541.078	142.38
541.292	123.38
541.506	133.38
541.72	140.38
541.934	153.38
542.147	144.38
542.361	134.38
542.575	143.38
542.789	132.38
543.002	130.38
543.216	126.38
543.43	116.38
543.644	126.38
543.857	121.38
544.071	132.38
544.285	130.38
544.498	131.38
544.712	128.38
544.925	134.38
545.139	132.38
545.352	128.38
545.566	138.38
545.779	142.38
545.993	139.38
546.206	124.38
546.42	142.38
546.633	132.38
546.847	143.38
547.06	141.38
547.274	128.38
547.487	141.38
547.7	146.38
547.914	144.38
548.127	146.38
548.34	132.38
548.554	149.38
548.767	144.38
548.98	144.38
549.193	132.38
549.407	126.38
549.62	141.38
549.833	121.38
550.046	137.38
550.259	124.38
550.473	146.38
550.686	128.38
550.899	132.38
551.112	119.38
551.325	122.38
551.538	124.38
551.751	118.38
551.964	128.38
552.177	118.38
552.39	119.38
552.603	124.38
552.816	128.38
553.029	132.38
553.242	122.38
553.455	128.38
553.667	127.38
553.88	130.38
554.093	125.38
554.306	138.38
554.519	120.38
554.732	137.38
554.944	121.38
555.157	109.38
555.37	124.38
555.583	126.38
555.795	118.38
556.008	127.38
556.221	111.38
556.433	114.38
556.646	123.38
556.859	126.38
557.071	128.38
557.284	126.38
557.496	103.38
557.709	122.38
557.921	118.38
558.134	121.38
558.346	123.38
558.559	131.38
558.771	126.38
558.984	123.38
559.196	123.38
559.409	106.38
559.621	115.38
559.833	121.38
560.046	112.38
560.258	122.38
560.47	116.38
560.683	122.38
560.895	126.38
561.107	111.38
561.32	124.38
561.532	107.38
561.744	101.38
561.956	121.38
562.168	123.38
562.381	120.38
562.593	120.38
562.805	133.38
563.017	104.38
563.229	116.38
563.441	125.38
563.653	111.38
563.865	110.38
564.077	118.38
564.289	109.38
564.501	119.38
564.713	118.38
564.925	96.38
565.137	105.38
565.349	114.38
565.561	119.38
565.773	102.38
565.985	114.38
566.197	118.38
566.408	115.38
566.62	120.38
566.832	134.38
567.044	139.38
567.255	118.38
567.467	125.38
567.679	132.38
567.891	124.38
568.102	123.38
568.314	112.38
568.526	103.38
568.737	118.38
568.949	130.38
569.161	109.38
569.372	112.38
569.584	97.38
569.795	116.38
570.007	102.38
570.218	96.38
570.43	94.38
570.641	99.38
570.853	100.38
571.064	119.38
571.276	108.38
571.487	120.38
571.698	117.38
571.91	106.38
572.121	100.38
572.333	117.38
572.544	110.38
572.755	99.38
572.966	103.38
573.178	102.38
573.389	94.38
573.6	103.38
573.811	102.38
574.023	92.38
574.234	106.38
574.445	106.38
574.656	100.38
574.867	103.38
575.078	108.38
575.289	102.38
575.501	101.38
575.712	99.38
575.923	98.38
576.134	98.38
576.345	101.38
576.556	106.38
576.767	96.38
576.978	114.38
577.188	96.38
577.399	107.38
577.61	96.38
577.821	93.38
578.032	104.38
578.243	97.38
578.454	111.38
578.665	87.38
578.875	91.38
579.086	98.38
579.297	96.38
579.508	102.38
579.718	90.38
579.929	97.38
580.14	107.38
580.35	90.38
580.561	92.38
580.772	103.38
580.982	99.38
581.193	105.38
581.403	102.38
581.614	91.38
581.825	101.38
582.035	86.38
582.246	99.38
582.456	91.38
582.667	99.38
582.877	99.38
583.087	101.38
583.298	100.38
583.508	101.38
583.719	103.38
583.929	78.38
584.139	104.38
584.35	86.38
584.56	104.38
584.77	96.38
584.981	96.38
585.191	111.38
585.401	98.38
585.611	92.38
585.821	80.38
586.032	94.38
586.242	86.38
586.452	89.38
586.662	94.38
586.872	84.38
587.082	87.38
587.292	88.38
587.502	115.38
587.713	99.38
587.923	111.38
588.133	94.38
588.343	96.38
588.553	98.38
588.762	105.38
588.972	84.38
589.182	103.38
589.392	99.38
589.602	93.38
589.812	104.38
590.022	103.38
590.232	90.38
590.441	89.38
590.651	83.38
590.861	106.38
591.071	111.38
591.281	101.38
591.49	93.38
591.7	84.38
591.91	101.38
592.119	88.38
592.329	104.38
592.539	102.38
592.748	103.38
592.958	107.38
593.167	98.38
593.377	87.38
593.587	96.38
593.796	100.38
594.006	87.38
594.215	102.38
594.424	96.38
594.634	107.38
594.843	98.38
595.053	115.38
595.262	99.38
595.472	105.38
595.681	107.38
595.89	98.38
596.1	88.38
596.309	91.38
596.518	85.38
596.727	98.38
596.937	108.38
597.146	98.38
597.355	93.38
597.564	85.38
597.774	88.38
597.983	91.38
598.192	91.38
598.401	92.38
598.61	83.38
598.819	92.38
599.028	96.38
599.237	103.38
599.446	86.38
599.655	98.38
599.864	100.38
600.073	91.38
600.282	108.38
600.491	96.38
600.7	68.38
600.909	90.38
601.118	94.38
601.327	99.38
601.536	96.38
601.745	89.38
601.953	101.38
602.162	102.38
602.371	103.38
602.58	94.38
602.789	106.38
602.997	91.38
603.206	111.38
603.415	102.38
603.623	91.38
603.832	100.38
604.041	111.38
604.249	86.38
604.458	99.38
604.666	105.38
604.875	91.38
605.084	90.38
605.292	93.38
605.501	103.38
605.709	97.38
605.918	118.38
606.126	105.38
606.334	110.38
606.543	94.38
606.751	104.38
606.96	97.38
607.168	107.38
607.376	92.38
607.585	89.38
607.793	91.38
608.001	98.38
608.21	98.38
608.418	94.38
608.626	99.38
608.834	94.38
609.043	116.38
609.251	95.38
609.459	98.38
609.667	104.38
609.875	88.38
610.083	96.38
610.291	88.38
610.499	94.38
610.707	103.38
610.916	95.38
611.124	110.38
611.332	89.38
611.54	106.38
611.748	105.38
611.955	115.38
612.163	110.38
612.371	106.38
612.579	112.38
612.787	116.38
612.995	93.38
613.203	102.38
613.411	108.38
613.618	90.38
613.826	90.38
614.034	104.38
614.242	121.38
614.449	96.38
614.657	109.38
614.865	100.38
615.072	98.38
615.28	103.38
615.488	98.38
615.695	102.38
615.903	93.38
616.111	92.38
616.318	105.38
616.526	103.38
616.733	83.38
616.941	88.38
617.148	98.38
617.356	90.38
617.563	100.38
617.771	93.38
617.978	88.38
618.185	88.38
618.393	89.38
618.6	101.38
618.807	92.38
619.015	95.38
619.222	100.38
619.429	101.38
619.637	93.38
619.844	93.38
620.051	109.38
620.258	112.38
620.466	91.38
620.673	101.38
620.88	101.38
621.087	97.38
621.294	104.38
621.501	96.38
621.708	87.38
621.915	102.38
622.122	78.38
622.329	98.38
622.536	94.38
622.743	105.38
622.95	96.38
623.157	93.38
623.364	93.38
623.571	102.38
623.778	97.38
623.985	95.38
624.192	112.38
624.399	99.38
624.606	94.38
624.812	90.38
625.019	92.38
625.226	107.38
625.433	96.38
625.639	83.38
625.846	87.38
626.053	84.38
626.259	102.38
626.466	75.38
626.673	88.38
626.879	103.38
627.086	95.38
627.293	87.38
627.499	98.38
627.706	86.38
627.912	99.38
628.119	95.38
628.325	100.38
628.532	76.38
628.738	93.38
628.945	99.38
629.151	98.38
629.357	83.38
629.564	106.38
629.77	93.38
629.976	87.38
630.183	102.38
630.389	97.38
630.595	95.38
630.802	92.38
631.008	85.38
631.214	87.38
631.42	87.38
631.627	111.38
631.833	94.38
632.039	99.38
632.245	100.38
632.451	98.38
632.657	104.38
632.863	94.38
633.069	89.38
633.275	87.38
633.481	109.38
633.688	106.38
633.893	96.38
634.099	93.38
634.305	87.38
634.511	103.38
634.717	96.38
634.923	89.38
635.129	78.38
635.335	95.38
635.541	100.38
635.747	103.38
635.952	71.38
636.158	91.38
636.364	99.38
636.57	89.38
636.775	94.38
636.981	93.38
637.187	87.38
637.392	71.38
637.598	102.38
637.804	96.38
638.009	92.38
638.215	91.38
638.421	84.38
638.626	91.38
638.832	92.38
639.037	81.38
639.243	87.38
639.448	83.38
639.654	107.38
639.859	101.38
640.065	88.38
640.27	89.38
640.475	82.38
640.681	95.38
640.886	97.38
641.091	88.38
641.297	98.38
641.502	98.38
641.707	78.38
641.913	82.38
642.118	90.38
642.323	90.38
642.528	94.38
642.733	90.38
642.939	91.38
643.144	86.38
643.349	88.38
643.554	99.38
643.759	107.38
643.964	98.38
644.169	99.38
644.374	95.38
644.579	98.38
644.784	93.38
644.989	88.38
645.194	99.38
645.399	93.38
645.604	90.38
645.809	88.38
646.014	84.38
646.219	90.38
646.423	102.38
646.628	98.38
646.833	89.38
647.038	88.38
647.243	97.38
647.447	91.38
647.652	95.38
647.857	85.38
648.062	95.38
648.266	91.38
648.471	82.38
648.676	87.38
648.88	87.38
649.085	93.38
649.289	100.38
649.494	73.38
649.698	108.38
649.903	105.38
650.107	96.38
650.312	97.38
650.516	80.38
650.721	97.38
650.925	94.38
651.13	86.38
651.334	95.38
651.539	96.38
651.743	92.38
651.947	86.38
652.152	96.38
652.356	102.38
652.56	85.38
652.764	93.38
652.969	91.38
653.173	83.38
653.377	82.38
653.581	92.38
653.785	85.38
653.99	84.38
654.194	99.38
654.398	88.38
654.602	91.38
654.806	87.38
655.01	96.38
655.214	86.38
655.418	74.38
655.622	75.38
655.826	90.38
656.03	104.38
656.234	106.38
656.438	91.38
656.642	88.38
656.846	99.38
657.049	94.38
657.253	86.38
657.457	99.38
657.661	103.38
657.865	93.38
658.068	82.38
658.272	85.38
658.476	84.38
658.68	92.38
658.883	100.38
659.087	96.38
659.291	79.38
659.494	80.38
659.698	84.38
659.901	84.38
660.105	77.38
660.309	79.38
660.512	90.38
660.716	82.38
660.919	94.38
661.123	83.38
661.326	84.38
661.53	78.38
661.733	87.38
661.936	94.38
662.14	82.38
662.343	75.38
662.546	88.38
662.75	91.38
662.953	93.38
663.156	85.38
663.36	87.38
663.563	81.38
663.766	98.38
663.969	97.38
664.173	92.38
664.376	80.38
664.579	86.38
664.782	71.38
664.985	85.38
665.188	85.38
665.391	89.38
665.594	88.38
665.797	84.38
666	90.38
666.203	77.38
666.406	89.38
666.609	76.38
666.812	89.38
667.015	83.38
667.218	82.38
667.421	95.38
667.624	71.38
667.827	78.38
668.03	81.38
668.232	75.38
668.435	94.38
668.638	81.38
668.841	93.38
669.043	73.38
669.246	78.38
669.449	95.38
669.651	86.38
669.854	77.38
670.057	84.38
670.259	76.38
670.462	77.38
670.665	81.38
670.867	82.38
671.07	81.38
671.272	82.38
671.475	98.38
671.677	86.38
671.88	103.38
672.082	80.38
672.284	69.38
672.487	72.38
672.689	79.38
672.892	95.38
