Data from StandardFe(NO3)3.TAE.3%Agarose.FlatLispGreen.Lamp.Energy10.07252019_HRD10591_11-53-52-440.txt Node
Date: Thu Jul 25 11:53:52 EDT 2019
User: cochatt
Spectrometer: HR+D1059
Trigger mode: 1
Integration Time (sec): 1.000000E-1
Scans to average: 1
Electric dark correction enabled: true
Nonlinearity correction enabled: false
Boxcar width: 0
XAxis mode: Wavelengths
Number of Pixels in Spectrum: 2048
>>>>>Begin Spectral Data<<<<<
223.165	-19.62
223.4	-19.62
223.635	-19.62
223.869	-17.62
224.104	-23.62
224.338	-23.62
224.573	-11.62
224.808	-15.62
225.042	-11.62
225.277	0.38
225.511	-7.62
225.746	4.38
225.98	13.38
226.215	16.38
226.449	19.38
226.683	29.38
226.918	12.38
227.152	35.38
227.387	51.38
227.621	49.38
227.856	39.38
228.09	53.38
228.324	47.38
228.559	57.38
228.793	80.38
229.027	62.38
229.262	84.38
229.496	75.38
229.73	70.38
229.964	66.38
230.199	68.38
230.433	78.38
230.667	77.38
230.901	89.38
231.136	91.38
231.37	67.38
231.604	91.38
231.838	91.38
232.072	72.38
232.306	72.38
232.541	84.38
232.775	80.38
233.009	88.38
233.243	107.38
233.477	100.38
233.711	93.38
233.945	87.38
234.179	88.38
234.413	78.38
234.647	80.38
234.881	89.38
235.115	74.38
235.349	86.38
235.583	70.38
235.817	87.38
236.051	79.38
236.285	71.38
236.519	81.38
236.753	80.38
236.987	64.38
237.221	77.38
237.455	80.38
237.689	89.38
237.922	84.38
238.156	77.38
238.39	82.38
238.624	68.38
238.858	77.38
239.091	77.38
239.325	80.38
239.559	99.38
239.793	95.38
240.027	67.38
240.26	79.38
240.494	69.38
240.728	84.38
240.961	78.38
241.195	70.38
241.429	79.38
241.662	79.38
241.896	75.38
242.13	63.38
242.363	72.38
242.597	66.38
242.83	83.38
243.064	77.38
243.298	83.38
243.531	73.38
243.765	86.38
243.998	83.38
244.232	76.38
244.465	83.38
244.699	80.38
244.932	74.38
245.166	76.38
245.399	76.38
245.633	74.38
245.866	87.38
246.099	87.38
246.333	79.38
246.566	83.38
246.8	80.38
247.033	89.38
247.266	92.38
247.5	87.38
247.733	88.38
247.966	93.38
248.2	85.38
248.433	77.38
248.666	81.38
248.899	69.38
249.133	73.38
249.366	85.38
249.599	87.38
249.832	87.38
250.066	80.38
250.299	90.38
250.532	70.38
250.765	78.38
250.998	80.38
251.231	87.38
251.465	102.38
251.698	75.38
251.931	77.38
252.164	85.38
252.397	86.38
252.63	90.38
252.863	89.38
253.096	88.38
253.329	75.38
253.562	69.38
253.795	79.38
254.028	87.38
254.261	82.38
254.494	81.38
254.727	91.38
254.96	66.38
255.193	94.38
255.426	90.38
255.659	74.38
255.892	84.38
256.124	88.38
256.357	94.38
256.59	89.38
256.823	84.38
257.056	78.38
257.289	98.38
257.521	79.38
257.754	85.38
257.987	97.38
258.22	94.38
258.452	94.38
258.685	85.38
258.918	83.38
259.151	85.38
259.383	88.38
259.616	101.38
259.849	72.38
260.081	93.38
260.314	86.38
260.547	85.38
260.779	84.38
261.012	70.38
261.244	79.38
261.477	89.38
261.71	91.38
261.942	93.38
262.175	95.38
262.407	79.38
262.64	85.38
262.872	90.38
263.105	87.38
263.337	86.38
263.57	79.38
263.802	94.38
264.035	78.38
264.267	65.38
264.499	85.38
264.732	97.38
264.964	81.38
265.197	75.38
265.429	82.38
265.661	78.38
265.894	83.38
266.126	90.38
266.358	92.38
266.591	110.38
266.823	81.38
267.055	90.38
267.287	82.38
267.52	79.38
267.752	96.38
267.984	84.38
268.216	89.38
268.448	84.38
268.681	82.38
268.913	78.38
269.145	79.38
269.377	81.38
269.609	81.38
269.841	87.38
270.073	79.38
270.306	79.38
270.538	83.38
270.77	94.38
271.002	83.38
271.234	86.38
271.466	88.38
271.698	92.38
271.93	65.38
272.162	76.38
272.394	72.38
272.626	98.38
272.858	93.38
273.09	81.38
273.322	87.38
273.553	77.38
273.785	90.38
274.017	80.38
274.249	84.38
274.481	94.38
274.713	95.38
274.945	77.38
275.176	86.38
275.408	80.38
275.64	85.38
275.872	90.38
276.104	73.38
276.335	93.38
276.567	79.38
276.799	78.38
277.031	91.38
277.262	90.38
277.494	81.38
277.726	95.38
277.957	77.38
278.189	88.38
278.421	90.38
278.652	84.38
278.884	90.38
279.115	79.38
279.347	76.38
279.579	101.38
279.81	90.38
280.042	93.38
280.273	83.38
280.505	82.38
280.736	82.38
280.968	101.38
281.199	86.38
281.431	78.38
281.662	80.38
281.894	91.38
282.125	88.38
282.356	85.38
282.588	97.38
282.819	94.38
283.051	94.38
283.282	86.38
283.513	94.38
283.745	81.38
283.976	74.38
284.207	78.38
284.439	89.38
284.67	88.38
284.901	86.38
285.132	86.38
285.364	91.38
285.595	79.38
285.826	79.38
286.057	98.38
286.288	86.38
286.52	93.38
286.751	90.38
286.982	85.38
287.213	93.38
287.444	79.38
287.675	85.38
287.906	95.38
288.138	86.38
288.369	81.38
288.6	83.38
288.831	81.38
289.062	90.38
289.293	78.38
289.524	81.38
289.755	79.38
289.986	87.38
290.217	72.38
290.448	80.38
290.679	95.38
290.91	95.38
291.141	95.38
291.371	78.38
291.602	89.38
291.833	86.38
292.064	84.38
292.295	77.38
292.526	72.38
292.757	85.38
292.987	91.38
293.218	91.38
293.449	88.38
293.68	88.38
293.91	100.38
294.141	87.38
294.372	86.38
294.603	87.38
294.833	102.38
295.064	75.38
295.295	92.38
295.525	87.38
295.756	81.38
295.987	72.38
296.217	86.38
296.448	77.38
296.679	91.38
296.909	96.38
297.14	104.38
297.37	102.38
297.601	87.38
297.831	82.38
298.062	88.38
298.292	94.38
298.523	94.38
298.753	93.38
298.984	80.38
299.214	93.38
299.445	101.38
299.675	97.38
299.905	79.38
300.136	81.38
300.366	86.38
300.597	77.38
300.827	83.38
301.057	90.38
301.288	90.38
301.518	103.38
301.748	84.38
301.979	87.38
302.209	90.38
302.439	86.38
302.669	72.38
302.9	74.38
303.13	73.38
303.36	79.38
303.59	79.38
303.82	94.38
304.051	80.38
304.281	102.38
304.511	84.38
304.741	86.38
304.971	76.38
305.201	82.38
305.431	89.38
305.661	89.38
305.891	77.38
306.121	81.38
306.352	97.38
306.582	88.38
306.812	92.38
307.042	97.38
307.272	79.38
307.502	84.38
307.731	94.38
307.961	86.38
308.191	99.38
308.421	90.38
308.651	86.38
308.881	81.38
309.111	86.38
309.341	89.38
309.571	97.38
309.8	85.38
310.03	81.38
310.26	79.38
310.49	81.38
310.72	75.38
310.949	94.38
311.179	84.38
311.409	84.38
311.639	78.38
311.868	97.38
312.098	81.38
312.328	103.38
312.557	85.38
312.787	102.38
313.017	99.38
313.246	86.38
313.476	75.38
313.706	89.38
313.935	88.38
314.165	102.38
314.394	79.38
314.624	75.38
314.853	79.38
315.083	76.38
315.312	84.38
315.542	87.38
315.771	83.38
316.001	97.38
316.23	88.38
316.46	74.38
316.689	89.38
316.919	83.38
317.148	79.38
317.377	95.38
317.607	84.38
317.836	86.38
318.065	75.38
318.295	101.38
318.524	79.38
318.753	89.38
318.983	78.38
319.212	85.38
319.441	85.38
319.67	79.38
319.9	85.38
320.129	100.38
320.358	79.38
320.587	72.38
320.816	87.38
321.046	84.38
321.275	83.38
321.504	84.38
321.733	85.38
321.962	106.38
322.191	84.38
322.42	90.38
322.649	82.38
322.878	90.38
323.108	91.38
323.337	81.38
323.566	84.38
323.795	90.38
324.024	88.38
324.253	89.38
324.482	100.38
324.71	80.38
324.939	86.38
325.168	82.38
325.397	86.38
325.626	76.38
325.855	74.38
326.084	85.38
326.313	95.38
326.542	79.38
326.77	93.38
326.999	96.38
327.228	97.38
327.457	86.38
327.686	90.38
327.914	80.38
328.143	103.38
328.372	80.38
328.6	99.38
328.829	89.38
329.058	90.38
329.287	102.38
329.515	79.38
329.744	80.38
329.972	87.38
330.201	91.38
330.43	79.38
330.658	91.38
330.887	91.38
331.115	98.38
331.344	95.38
331.572	105.38
331.801	91.38
332.03	88.38
332.258	85.38
332.486	81.38
332.715	84.38
332.943	91.38
333.172	87.38
333.4	88.38
333.629	77.38
333.857	84.38
334.085	86.38
334.314	87.38
334.542	85.38
334.771	88.38
334.999	98.38
335.227	83.38
335.455	86.38
335.684	89.38
335.912	93.38
336.14	89.38
336.369	87.38
336.597	86.38
336.825	91.38
337.053	89.38
337.281	85.38
337.51	83.38
337.738	95.38
337.966	90.38
338.194	86.38
338.422	93.38
338.65	90.38
338.878	91.38
339.106	88.38
339.334	75.38
339.562	85.38
339.79	97.38
340.018	92.38
340.246	86.38
340.474	102.38
340.702	77.38
340.93	83.38
341.158	89.38
341.386	88.38
341.614	88.38
341.842	88.38
342.07	93.38
342.298	96.38
342.526	79.38
342.754	96.38
342.981	86.38
343.209	84.38
343.437	85.38
343.665	95.38
343.893	85.38
344.12	100.38
344.348	88.38
344.576	86.38
344.804	79.38
345.031	78.38
345.259	106.38
345.487	85.38
345.714	89.38
345.942	91.38
346.17	76.38
346.397	84.38
346.625	99.38
346.853	83.38
347.08	76.38
347.308	82.38
347.535	90.38
347.763	96.38
347.99	94.38
348.218	84.38
348.445	85.38
348.673	91.38
348.9	83.38
349.128	93.38
349.355	88.38
349.583	87.38
349.81	82.38
350.037	88.38
350.265	92.38
350.492	83.38
350.72	100.38
350.947	88.38
351.174	92.38
351.402	86.38
351.629	82.38
351.856	91.38
352.083	98.38
352.311	106.38
352.538	89.38
352.765	86.38
352.992	79.38
353.22	87.38
353.447	99.38
353.674	88.38
353.901	76.38
354.128	94.38
354.355	90.38
354.583	89.38
354.81	87.38
355.037	86.38
355.264	95.38
355.491	95.38
355.718	89.38
355.945	92.38
356.172	94.38
356.399	95.38
356.626	82.38
356.853	73.38
357.08	84.38
357.307	88.38
357.534	92.38
357.761	87.38
357.988	85.38
358.215	79.38
358.441	71.38
358.668	75.38
358.895	89.38
359.122	92.38
359.349	82.38
359.576	95.38
359.802	100.38
360.029	87.38
360.256	95.38
360.483	81.38
360.709	83.38
360.936	94.38
361.163	87.38
361.39	84.38
361.616	94.38
361.843	80.38
362.07	104.38
362.296	89.38
362.523	86.38
362.749	76.38
362.976	89.38
363.203	90.38
363.429	79.38
363.656	98.38
363.882	84.38
364.109	90.38
364.335	98.38
364.562	108.38
364.788	98.38
365.015	95.38
365.241	90.38
365.468	84.38
365.694	92.38
365.92	95.38
366.147	84.38
366.373	86.38
366.599	76.38
366.826	80.38
367.052	95.38
367.278	81.38
367.505	88.38
367.731	94.38
367.957	82.38
368.184	86.38
368.41	86.38
368.636	77.38
368.862	76.38
369.089	90.38
369.315	81.38
369.541	89.38
369.767	88.38
369.993	93.38
370.219	88.38
370.445	82.38
370.672	103.38
370.898	72.38
371.124	101.38
371.35	94.38
371.576	92.38
371.802	87.38
372.028	76.38
372.254	87.38
372.48	88.38
372.706	97.38
372.932	87.38
373.158	103.38
373.384	100.38
373.61	102.38
373.835	108.38
374.061	96.38
374.287	87.38
374.513	88.38
374.739	101.38
374.965	85.38
375.191	81.38
375.416	98.38
375.642	104.38
375.868	88.38
376.094	98.38
376.319	86.38
376.545	85.38
376.771	93.38
376.997	92.38
377.222	95.38
377.448	103.38
377.674	93.38
377.899	101.38
378.125	97.38
378.35	104.38
378.576	92.38
378.802	89.38
379.027	98.38
379.253	85.38
379.478	94.38
379.704	107.38
379.929	102.38
380.155	92.38
380.38	75.38
380.606	92.38
380.831	104.38
381.057	100.38
381.282	91.38
381.507	96.38
381.733	88.38
381.958	92.38
382.184	91.38
382.409	106.38
382.634	103.38
382.86	103.38
383.085	97.38
383.31	80.38
383.535	92.38
383.761	93.38
383.986	91.38
384.211	101.38
384.436	95.38
384.662	85.38
384.887	93.38
385.112	87.38
385.337	99.38
385.562	95.38
385.787	90.38
386.013	105.38
386.238	109.38
386.463	106.38
386.688	87.38
386.913	104.38
387.138	93.38
387.363	94.38
387.588	107.38
387.813	84.38
388.038	105.38
388.263	100.38
388.488	100.38
388.713	110.38
388.938	99.38
389.163	99.38
389.387	88.38
389.612	105.38
389.837	99.38
390.062	107.38
390.287	93.38
390.512	98.38
390.736	97.38
390.961	99.38
391.186	96.38
391.411	107.38
391.636	89.38
391.86	99.38
392.085	107.38
392.31	102.38
392.534	105.38
392.759	107.38
392.984	104.38
393.208	79.38
393.433	98.38
393.658	96.38
393.882	103.38
394.107	109.38
394.331	99.38
394.556	88.38
394.78	103.38
395.005	100.38
395.229	97.38
395.454	106.38
395.678	96.38
395.903	111.38
396.127	95.38
396.352	102.38
396.576	98.38
396.801	110.38
397.025	98.38
397.249	102.38
397.474	104.38
397.698	102.38
397.922	108.38
398.147	103.38
398.371	102.38
398.595	105.38
398.82	103.38
399.044	103.38
399.268	114.38
399.492	124.38
399.717	126.38
399.941	119.38
400.165	121.38
400.389	109.38
400.613	115.38
400.837	100.38
401.062	123.38
401.286	99.38
401.51	106.38
401.734	111.38
401.958	101.38
402.182	95.38
402.406	110.38
402.63	114.38
402.854	111.38
403.078	106.38
403.302	109.38
403.526	112.38
403.75	115.38
403.974	111.38
404.198	104.38
404.422	133.38
404.645	123.38
404.869	115.38
405.093	104.38
405.317	108.38
405.541	108.38
405.765	102.38
405.988	106.38
406.212	110.38
406.436	112.38
406.66	132.38
406.883	127.38
407.107	120.38
407.331	122.38
407.555	109.38
407.778	114.38
408.002	124.38
408.226	119.38
408.449	110.38
408.673	126.38
408.896	99.38
409.12	103.38
409.344	107.38
409.567	102.38
409.791	123.38
410.014	109.38
410.238	105.38
410.461	111.38
410.685	109.38
410.908	110.38
411.132	133.38
411.355	110.38
411.578	108.38
411.802	101.38
412.025	98.38
412.249	107.38
412.472	108.38
412.695	121.38
412.919	120.38
413.142	109.38
413.365	111.38
413.589	101.38
413.812	105.38
414.035	112.38
414.258	110.38
414.482	107.38
414.705	119.38
414.928	108.38
415.151	107.38
415.374	124.38
415.597	106.38
415.821	101.38
416.044	119.38
416.267	123.38
416.49	118.38
416.713	111.38
416.936	124.38
417.159	110.38
417.382	109.38
417.605	123.38
417.828	125.38
418.051	120.38
418.274	118.38
418.497	110.38
418.72	123.38
418.943	120.38
419.166	113.38
419.389	128.38
419.611	96.38
419.834	115.38
420.057	120.38
420.28	111.38
420.503	110.38
420.726	127.38
420.948	124.38
421.171	125.38
421.394	118.38
421.617	123.38
421.839	133.38
422.062	132.38
422.285	106.38
422.507	120.38
422.73	116.38
422.953	115.38
423.175	120.38
423.398	122.38
423.621	120.38
423.843	113.38
424.066	131.38
424.288	125.38
424.511	109.38
424.733	123.38
424.956	129.38
425.178	107.38
425.401	134.38
425.623	127.38
425.846	124.38
426.068	115.38
426.291	118.38
426.513	111.38
426.735	117.38
426.958	114.38
427.18	100.38
427.402	124.38
427.625	132.38
427.847	115.38
428.069	116.38
428.292	125.38
428.514	113.38
428.736	103.38
428.958	107.38
429.181	106.38
429.403	127.38
429.625	100.38
429.847	110.38
430.069	101.38
430.292	130.38
430.514	99.38
430.736	116.38
430.958	113.38
431.18	122.38
431.402	122.38
431.624	105.38
431.846	103.38
432.068	110.38
432.29	101.38
432.512	115.38
432.734	122.38
432.956	107.38
433.178	130.38
433.4	122.38
433.622	124.38
433.844	123.38
434.066	123.38
434.287	114.38
434.509	95.38
434.731	106.38
434.953	118.38
435.175	126.38
435.397	123.38
435.618	116.38
435.84	113.38
436.062	108.38
436.284	109.38
436.505	115.38
436.727	106.38
436.949	120.38
437.17	118.38
437.392	123.38
437.614	108.38
437.835	124.38
438.057	118.38
438.278	110.38
438.5	122.38
438.721	114.38
438.943	124.38
439.165	128.38
439.386	123.38
439.608	116.38
439.829	119.38
440.05	120.38
440.272	119.38
440.493	125.38
440.715	135.38
440.936	127.38
441.158	130.38
441.379	119.38
441.6	124.38
441.822	116.38
442.043	114.38
442.264	110.38
442.486	111.38
442.707	132.38
442.928	122.38
443.149	117.38
443.371	122.38
443.592	119.38
443.813	131.38
444.034	123.38
444.255	126.38
444.476	118.38
444.698	122.38
444.919	126.38
445.14	229.38
445.361	180.38
445.582	132.38
445.803	141.38
446.024	136.38
446.245	117.38
446.466	106.38
446.687	121.38
446.908	129.38
447.129	127.38
447.35	122.38
447.571	120.38
447.792	123.38
448.013	122.38
448.234	124.38
448.455	113.38
448.675	127.38
448.896	116.38
449.117	115.38
449.338	114.38
449.559	120.38
449.779	117.38
450	106.38
450.221	111.38
450.442	120.38
450.662	118.38
450.883	116.38
451.104	130.38
451.324	118.38
451.545	127.38
451.766	135.38
451.986	102.38
452.207	124.38
452.428	94.38
452.648	118.38
452.869	112.38
453.089	111.38
453.31	101.38
453.53	96.38
453.751	116.38
453.971	118.38
454.192	111.38
454.412	99.38
454.633	116.38
454.853	108.38
455.073	103.38
455.294	107.38
455.514	120.38
455.734	106.38
455.955	88.38
456.175	105.38
456.395	96.38
456.616	110.38
456.836	123.38
457.056	108.38
457.276	104.38
457.497	124.38
457.717	106.38
457.937	108.38
458.157	104.38
458.377	99.38
458.598	117.38
458.818	107.38
459.038	103.38
459.258	115.38
459.478	102.38
459.698	114.38
459.918	111.38
460.138	110.38
460.358	122.38
460.578	113.38
460.798	126.38
461.018	107.38
461.238	126.38
461.458	104.38
461.678	117.38
461.898	117.38
462.118	119.38
462.338	116.38
462.558	111.38
462.777	124.38
462.997	128.38
463.217	126.38
463.437	128.38
463.657	128.38
463.876	123.38
464.096	136.38
464.316	125.38
464.536	124.38
464.755	126.38
464.975	127.38
465.195	119.38
465.414	110.38
465.634	105.38
465.854	111.38
466.073	107.38
466.293	127.38
466.512	134.38
466.732	108.38
466.951	122.38
467.171	124.38
467.391	114.38
467.61	106.38
467.829	128.38
468.049	142.38
468.268	118.38
468.488	119.38
468.707	129.38
468.927	123.38
469.146	103.38
469.365	120.38
469.585	126.38
469.804	123.38
470.023	114.38
470.243	119.38
470.462	135.38
470.681	138.38
470.901	116.38
471.12	116.38
471.339	131.38
471.558	109.38
471.777	118.38
471.997	114.38
472.216	107.38
472.435	128.38
472.654	114.38
472.873	112.38
473.092	119.38
473.311	113.38
473.53	123.38
473.749	102.38
473.968	113.38
474.187	119.38
474.406	124.38
474.625	107.38
474.844	118.38
475.063	133.38
475.282	127.38
475.501	110.38
475.72	109.38
475.939	110.38
476.158	121.38
476.377	117.38
476.596	127.38
476.814	119.38
477.033	117.38
477.252	106.38
477.471	121.38
477.69	121.38
477.908	120.38
478.127	126.38
478.346	130.38
478.564	112.38
478.783	130.38
479.002	132.38
479.22	121.38
479.439	126.38
479.658	126.38
479.876	121.38
480.095	121.38
480.313	133.38
480.532	130.38
480.751	126.38
480.969	120.38
481.188	103.38
481.406	118.38
481.624	119.38
481.843	118.38
482.061	136.38
482.28	110.38
482.498	116.38
482.717	112.38
482.935	128.38
483.153	128.38
483.372	127.38
483.59	132.38
483.808	136.38
484.027	134.38
484.245	141.38
484.463	146.38
484.681	134.38
484.9	125.38
485.118	120.38
485.336	115.38
485.554	121.38
485.772	112.38
485.99	114.38
486.209	126.38
486.427	125.38
486.645	122.38
486.863	123.38
487.081	127.38
487.299	130.38
487.517	140.38
487.735	128.38
487.953	151.38
488.171	155.38
488.389	147.38
488.607	131.38
488.825	130.38
489.043	115.38
489.261	139.38
489.479	135.38
489.696	128.38
489.914	126.38
490.132	122.38
490.35	139.38
490.568	147.38
490.786	134.38
491.003	154.38
491.221	152.38
491.439	147.38
491.657	148.38
491.874	163.38
492.092	151.38
492.31	171.38
492.527	168.38
492.745	158.38
492.963	156.38
493.18	151.38
493.398	142.38
493.615	152.38
493.833	154.38
494.05	142.38
494.268	129.38
494.485	141.38
494.703	155.38
494.92	136.38
495.138	159.38
495.355	157.38
495.573	147.38
495.79	154.38
496.008	144.38
496.225	140.38
496.442	144.38
496.66	147.38
496.877	143.38
497.094	150.38
497.312	147.38
497.529	146.38
497.746	156.38
497.963	147.38
498.181	136.38
498.398	145.38
498.615	130.38
498.832	142.38
499.049	156.38
499.267	155.38
499.484	168.38
499.701	167.38
499.918	178.38
500.135	206.38
500.352	221.38
500.569	221.38
500.786	217.38
501.003	219.38
501.22	195.38
501.437	180.38
501.654	156.38
501.871	168.38
502.088	152.38
502.305	143.38
502.522	153.38
502.739	144.38
502.956	149.38
503.172	134.38
503.389	151.38
503.606	133.38
503.823	141.38
504.04	126.38
504.256	142.38
504.473	127.38
504.69	143.38
504.907	144.38
505.123	137.38
505.34	138.38
505.557	133.38
505.773	130.38
505.99	135.38
506.207	130.38
506.423	116.38
506.64	124.38
506.856	123.38
507.073	124.38
507.289	122.38
507.506	121.38
507.722	126.38
507.939	127.38
508.155	134.38
508.372	122.38
508.588	111.38
508.805	120.38
509.021	120.38
509.238	120.38
509.454	137.38
509.67	119.38
509.887	107.38
510.103	116.38
510.319	121.38
510.536	108.38
510.752	102.38
510.968	106.38
511.184	120.38
511.401	127.38
511.617	106.38
511.833	124.38
512.049	114.38
512.265	109.38
512.481	116.38
512.698	107.38
512.914	108.38
513.13	115.38
513.346	111.38
513.562	116.38
513.778	118.38
513.994	94.38
514.21	114.38
514.426	115.38
514.642	130.38
514.858	133.38
515.074	117.38
515.29	122.38
515.506	120.38
515.721	117.38
515.937	110.38
516.153	120.38
516.369	120.38
516.585	123.38
516.801	120.38
517.016	132.38
517.232	122.38
517.448	134.38
517.664	139.38
517.879	116.38
518.095	137.38
518.311	124.38
518.527	134.38
518.742	123.38
518.958	132.38
519.173	120.38
519.389	133.38
519.605	118.38
519.82	129.38
520.036	143.38
520.251	136.38
520.467	127.38
520.682	103.38
520.898	130.38
521.113	119.38
521.329	116.38
521.544	111.38
521.76	119.38
521.975	126.38
522.19	115.38
522.406	103.38
522.621	125.38
522.836	129.38
523.052	117.38
523.267	105.38
523.482	128.38
523.698	122.38
523.913	106.38
524.128	110.38
524.343	137.38
524.559	136.38
524.774	116.38
524.989	120.38
525.204	135.38
525.419	129.38
525.634	124.38
525.849	118.38
526.064	122.38
526.28	110.38
526.495	104.38
526.71	118.38
526.925	107.38
527.14	94.38
527.355	116.38
527.57	107.38
527.785	107.38
527.999	111.38
528.214	124.38
528.429	122.38
528.644	135.38
528.859	137.38
529.074	135.38
529.289	145.38
529.503	118.38
529.718	139.38
529.933	119.38
530.148	115.38
530.363	112.38
530.577	114.38
530.792	103.38
531.007	100.38
531.221	117.38
531.436	106.38
531.651	122.38
531.865	119.38
532.08	100.38
532.295	103.38
532.509	115.38
532.724	112.38
532.938	107.38
533.153	121.38
533.367	106.38
533.582	122.38
533.796	122.38
534.011	126.38
534.225	114.38
534.44	120.38
534.654	116.38
534.868	123.38
535.083	111.38
535.297	118.38
535.511	119.38
535.726	115.38
535.94	118.38
536.154	118.38
536.369	114.38
536.583	109.38
536.797	97.38
537.011	118.38
537.225	101.38
537.44	104.38
537.654	105.38
537.868	114.38
538.082	116.38
538.296	110.38
538.51	124.38
538.724	117.38
538.938	126.38
539.153	126.38
539.367	110.38
539.581	117.38
539.795	124.38
540.009	108.38
540.222	122.38
540.436	118.38
540.65	107.38
540.864	118.38
541.078	127.38
541.292	126.38
541.506	141.38
541.72	132.38
541.934	141.38
542.147	157.38
542.361	153.38
542.575	140.38
542.789	127.38
543.002	121.38
543.216	113.38
543.43	107.38
543.644	116.38
543.857	120.38
544.071	138.38
544.285	136.38
544.498	145.38
544.712	133.38
544.925	140.38
545.139	142.38
545.352	136.38
545.566	147.38
545.779	143.38
545.993	148.38
546.206	136.38
546.42	149.38
546.633	158.38
546.847	155.38
547.06	146.38
547.274	146.38
547.487	150.38
547.7	131.38
547.914	135.38
548.127	140.38
548.34	134.38
548.554	148.38
548.767	148.38
548.98	133.38
549.193	130.38
549.407	142.38
549.62	141.38
549.833	134.38
550.046	140.38
550.259	127.38
550.473	119.38
550.686	137.38
550.899	141.38
551.112	126.38
551.325	123.38
551.538	117.38
551.751	120.38
551.964	126.38
552.177	131.38
552.39	124.38
552.603	137.38
552.816	116.38
553.029	140.38
553.242	117.38
553.455	132.38
553.667	144.38
553.88	151.38
554.093	136.38
554.306	125.38
554.519	126.38
554.732	120.38
554.944	132.38
555.157	135.38
555.37	124.38
555.583	119.38
555.795	127.38
556.008	117.38
556.221	127.38
556.433	118.38
556.646	122.38
556.859	129.38
557.071	128.38
557.284	117.38
557.496	123.38
557.709	123.38
557.921	126.38
558.134	124.38
558.346	116.38
558.559	123.38
558.771	123.38
558.984	118.38
559.196	110.38
559.409	118.38
559.621	107.38
559.833	105.38
560.046	123.38
560.258	128.38
560.47	117.38
560.683	121.38
560.895	130.38
561.107	108.38
561.32	121.38
561.532	136.38
561.744	119.38
561.956	112.38
562.168	132.38
562.381	120.38
562.593	104.38
562.805	115.38
563.017	120.38
563.229	98.38
563.441	124.38
563.653	105.38
563.865	109.38
564.077	119.38
564.289	116.38
564.501	119.38
564.713	115.38
564.925	103.38
565.137	119.38
565.349	113.38
565.561	111.38
565.773	116.38
565.985	118.38
566.197	109.38
566.408	107.38
566.62	117.38
566.832	127.38
567.044	93.38
567.255	124.38
567.467	127.38
567.679	125.38
567.891	118.38
568.102	131.38
568.314	119.38
568.526	119.38
568.737	116.38
568.949	109.38
569.161	108.38
569.372	114.38
569.584	105.38
569.795	111.38
570.007	106.38
570.218	109.38
570.43	104.38
570.641	103.38
570.853	101.38
571.064	107.38
571.276	92.38
571.487	106.38
571.698	123.38
571.91	109.38
572.121	100.38
572.333	120.38
572.544	90.38
572.755	108.38
572.966	108.38
573.178	95.38
573.389	118.38
573.6	101.38
573.811	98.38
574.023	100.38
574.234	90.38
574.445	103.38
574.656	108.38
574.867	97.38
575.078	104.38
575.289	116.38
575.501	109.38
575.712	103.38
575.923	104.38
576.134	94.38
576.345	109.38
576.556	98.38
576.767	110.38
576.978	94.38
577.188	110.38
577.399	93.38
577.61	99.38
577.821	88.38
578.032	100.38
578.243	107.38
578.454	107.38
578.665	107.38
578.875	90.38
579.086	106.38
579.297	90.38
579.508	103.38
579.718	105.38
579.929	100.38
580.14	100.38
580.35	102.38
580.561	111.38
580.772	92.38
580.982	94.38
581.193	90.38
581.403	87.38
581.614	97.38
581.825	98.38
582.035	100.38
582.246	104.38
582.456	90.38
582.667	88.38
582.877	91.38
583.087	86.38
583.298	92.38
583.508	104.38
583.719	95.38
583.929	101.38
584.139	101.38
584.35	99.38
584.56	89.38
584.77	101.38
584.981	96.38
585.191	100.38
585.401	101.38
585.611	101.38
585.821	83.38
586.032	88.38
586.242	90.38
586.452	100.38
586.662	102.38
586.872	83.38
587.082	91.38
587.292	87.38
587.502	93.38
587.713	100.38
587.923	95.38
588.133	91.38
588.343	96.38
588.553	89.38
588.762	114.38
588.972	92.38
589.182	92.38
589.392	96.38
589.602	90.38
589.812	93.38
590.022	94.38
590.232	114.38
590.441	99.38
590.651	85.38
590.861	92.38
591.071	113.38
591.281	92.38
591.49	89.38
591.7	102.38
591.91	101.38
592.119	108.38
592.329	108.38
592.539	94.38
592.748	112.38
592.958	107.38
593.167	88.38
593.377	92.38
593.587	98.38
593.796	100.38
594.006	102.38
594.215	104.38
594.424	100.38
594.634	103.38
594.843	98.38
595.053	105.38
595.262	108.38
595.472	88.38
595.681	102.38
595.89	98.38
596.1	103.38
596.309	110.38
596.518	100.38
596.727	100.38
596.937	103.38
597.146	105.38
597.355	97.38
597.564	92.38
597.774	86.38
597.983	102.38
598.192	109.38
598.401	88.38
598.61	89.38
598.819	95.38
599.028	105.38
599.237	86.38
599.446	101.38
599.655	95.38
599.864	99.38
600.073	95.38
600.282	101.38
600.491	101.38
600.7	99.38
600.909	90.38
601.118	113.38
601.327	93.38
601.536	104.38
601.745	86.38
601.953	103.38
602.162	108.38
602.371	104.38
602.58	96.38
602.789	103.38
602.997	100.38
603.206	108.38
603.415	102.38
603.623	101.38
603.832	107.38
604.041	105.38
604.249	92.38
604.458	109.38
604.666	99.38
604.875	90.38
605.084	94.38
605.292	97.38
605.501	89.38
605.709	103.38
605.918	111.38
606.126	107.38
606.334	98.38
606.543	102.38
606.751	90.38
606.96	90.38
607.168	99.38
607.376	99.38
607.585	98.38
607.793	94.38
608.001	96.38
608.21	96.38
608.418	105.38
608.626	98.38
608.834	113.38
609.043	104.38
609.251	99.38
609.459	102.38
609.667	102.38
609.875	105.38
610.083	97.38
610.291	99.38
610.499	92.38
610.707	98.38
610.916	99.38
611.124	108.38
611.332	92.38
611.54	96.38
611.748	104.38
611.955	102.38
612.163	103.38
612.371	118.38
612.579	98.38
612.787	94.38
612.995	100.38
613.203	106.38
613.411	108.38
613.618	98.38
613.826	97.38
614.034	91.38
614.242	96.38
614.449	102.38
614.657	105.38
614.865	92.38
615.072	101.38
615.28	83.38
615.488	101.38
615.695	99.38
615.903	101.38
616.111	111.38
616.318	105.38
616.526	92.38
616.733	100.38
616.941	97.38
617.148	94.38
617.356	87.38
617.563	102.38
617.771	90.38
617.978	94.38
618.185	90.38
618.393	110.38
618.6	98.38
618.807	104.38
619.015	84.38
619.222	104.38
619.429	95.38
619.637	106.38
619.844	101.38
620.051	96.38
620.258	105.38
620.466	101.38
620.673	94.38
620.88	86.38
621.087	117.38
621.294	98.38
621.501	100.38
621.708	101.38
621.915	95.38
622.122	101.38
622.329	101.38
622.536	100.38
622.743	92.38
622.95	101.38
623.157	100.38
623.364	99.38
623.571	100.38
623.778	90.38
623.985	101.38
624.192	100.38
624.399	95.38
624.606	107.38
624.812	115.38
625.019	104.38
625.226	103.38
625.433	98.38
625.639	106.38
625.846	108.38
626.053	96.38
626.259	101.38
626.466	102.38
626.673	84.38
626.879	92.38
627.086	94.38
627.293	109.38
627.499	98.38
627.706	99.38
627.912	103.38
628.119	111.38
628.325	108.38
628.532	79.38
628.738	93.38
628.945	96.38
629.151	101.38
629.357	114.38
629.564	101.38
629.77	104.38
629.976	100.38
630.183	94.38
630.389	90.38
630.595	98.38
630.802	106.38
631.008	103.38
631.214	87.38
631.42	92.38
631.627	103.38
631.833	90.38
632.039	88.38
632.245	91.38
632.451	90.38
632.657	106.38
632.863	98.38
633.069	98.38
633.275	96.38
633.481	88.38
633.688	91.38
633.893	96.38
634.099	100.38
634.305	83.38
634.511	80.38
634.717	104.38
634.923	76.38
635.129	84.38
635.335	88.38
635.541	80.38
635.747	90.38
635.952	81.38
636.158	99.38
636.364	98.38
636.57	86.38
636.775	86.38
636.981	91.38
637.187	93.38
637.392	95.38
637.598	99.38
637.804	87.38
638.009	100.38
638.215	93.38
638.421	93.38
638.626	95.38
638.832	92.38
639.037	86.38
639.243	88.38
639.448	85.38
639.654	90.38
639.859	100.38
640.065	102.38
640.27	106.38
640.475	81.38
640.681	94.38
640.886	101.38
641.091	91.38
641.297	89.38
641.502	88.38
641.707	99.38
641.913	90.38
642.118	101.38
642.323	90.38
642.528	92.38
642.733	79.38
642.939	100.38
643.144	95.38
643.349	96.38
643.554	96.38
643.759	92.38
643.964	90.38
644.169	94.38
644.374	98.38
644.579	82.38
644.784	89.38
644.989	89.38
645.194	87.38
645.399	93.38
645.604	90.38
645.809	100.38
646.014	84.38
646.219	82.38
646.423	76.38
646.628	98.38
646.833	84.38
647.038	98.38
647.243	99.38
647.447	92.38
647.652	87.38
647.857	98.38
648.062	77.38
648.266	81.38
648.471	88.38
648.676	99.38
648.88	91.38
649.085	88.38
649.289	94.38
649.494	98.38
649.698	88.38
649.903	78.38
650.107	94.38
650.312	91.38
650.516	94.38
650.721	100.38
650.925	96.38
651.13	81.38
651.334	88.38
651.539	88.38
651.743	86.38
651.947	87.38
652.152	88.38
652.356	99.38
652.56	98.38
652.764	93.38
652.969	86.38
653.173	91.38
653.377	92.38
653.581	92.38
653.785	79.38
653.99	99.38
654.194	90.38
654.398	83.38
654.602	86.38
654.806	90.38
655.01	90.38
655.214	71.38
655.418	74.38
655.622	91.38
655.826	102.38
656.03	102.38
656.234	93.38
656.438	87.38
656.642	83.38
656.846	94.38
657.049	94.38
657.253	118.38
657.457	92.38
657.661	93.38
657.865	94.38
658.068	75.38
658.272	76.38
658.476	90.38
658.68	92.38
658.883	88.38
659.087	82.38
659.291	86.38
659.494	92.38
659.698	79.38
659.901	84.38
660.105	78.38
660.309	77.38
660.512	84.38
660.716	93.38
660.919	72.38
661.123	91.38
661.326	81.38
661.53	90.38
661.733	87.38
661.936	85.38
662.14	97.38
662.343	102.38
662.546	92.38
662.75	92.38
662.953	94.38
663.156	74.38
663.36	75.38
663.563	84.38
663.766	91.38
663.969	82.38
664.173	84.38
664.376	80.38
664.579	78.38
664.782	78.38
664.985	85.38
665.188	84.38
665.391	97.38
665.594	93.38
665.797	92.38
666	79.38
666.203	88.38
666.406	80.38
666.609	83.38
666.812	96.38
667.015	81.38
667.218	88.38
667.421	84.38
667.624	89.38
667.827	89.38
668.03	81.38
668.232	86.38
668.435	88.38
668.638	80.38
668.841	97.38
669.043	83.38
669.246	85.38
669.449	90.38
669.651	87.38
669.854	78.38
670.057	84.38
670.259	89.38
670.462	83.38
670.665	91.38
670.867	76.38
671.07	94.38
671.272	91.38
671.475	105.38
671.677	87.38
671.88	98.38
672.082	89.38
672.284	77.38
672.487	85.38
672.689	80.38
672.892	85.38
