Data from StandardFe(NO3)3.TAE.3%Agarose.FlatLispGreen.Lamp.Energy10.07252019_HRD10591_11-55-45-441.txt Node
Date: Thu Jul 25 11:55:45 EDT 2019
User: cochatt
Spectrometer: HR+D1059
Trigger mode: 1
Integration Time (sec): 1.000000E-1
Scans to average: 1
Electric dark correction enabled: true
Nonlinearity correction enabled: false
Boxcar width: 0
XAxis mode: Wavelengths
Number of Pixels in Spectrum: 2048
>>>>>Begin Spectral Data<<<<<
223.165	-13.62
223.4	-13.62
223.635	-13.62
223.869	-8.62
224.104	-25.62
224.338	-19.62
224.573	-10.62
224.808	-9.62
225.042	2.38
225.277	-7.62
225.511	-15.62
225.746	-3.62
225.98	4.38
226.215	9.38
226.449	7.38
226.683	18.38
226.918	43.38
227.152	29.38
227.387	41.38
227.621	39.38
227.856	54.38
228.09	60.38
228.324	55.38
228.559	65.38
228.793	58.38
229.027	57.38
229.262	62.38
229.496	64.38
229.73	75.38
229.964	83.38
230.199	68.38
230.433	75.38
230.667	77.38
230.901	73.38
231.136	77.38
231.37	88.38
231.604	98.38
231.838	82.38
232.072	71.38
232.306	84.38
232.541	74.38
232.775	79.38
233.009	79.38
233.243	85.38
233.477	86.38
233.711	89.38
233.945	93.38
234.179	77.38
234.413	83.38
234.647	80.38
234.881	71.38
235.115	84.38
235.349	87.38
235.583	102.38
235.817	87.38
236.051	75.38
236.285	86.38
236.519	93.38
236.753	67.38
236.987	86.38
237.221	85.38
237.455	79.38
237.689	73.38
237.922	67.38
238.156	71.38
238.39	74.38
238.624	84.38
238.858	76.38
239.091	80.38
239.325	78.38
239.559	76.38
239.793	93.38
240.027	90.38
240.26	70.38
240.494	88.38
240.728	82.38
240.961	80.38
241.195	90.38
241.429	78.38
241.662	81.38
241.896	81.38
242.13	78.38
242.363	89.38
242.597	64.38
242.83	73.38
243.064	83.38
243.298	67.38
243.531	86.38
243.765	86.38
243.998	79.38
244.232	59.38
244.465	80.38
244.699	76.38
244.932	72.38
245.166	77.38
245.399	84.38
245.633	82.38
245.866	75.38
246.099	77.38
246.333	82.38
246.566	86.38
246.8	77.38
247.033	56.38
247.266	78.38
247.5	90.38
247.733	81.38
247.966	79.38
248.2	89.38
248.433	89.38
248.666	85.38
248.899	84.38
249.133	93.38
249.366	86.38
249.599	90.38
249.832	95.38
250.066	82.38
250.299	65.38
250.532	81.38
250.765	93.38
250.998	62.38
251.231	79.38
251.465	79.38
251.698	101.38
251.931	76.38
252.164	85.38
252.397	84.38
252.63	88.38
252.863	66.38
253.096	91.38
253.329	82.38
253.562	77.38
253.795	87.38
254.028	77.38
254.261	72.38
254.494	85.38
254.727	83.38
254.96	94.38
255.193	88.38
255.426	83.38
255.659	86.38
255.892	83.38
256.124	81.38
256.357	95.38
256.59	95.38
256.823	74.38
257.056	84.38
257.289	74.38
257.521	89.38
257.754	80.38
257.987	84.38
258.22	95.38
258.452	83.38
258.685	89.38
258.918	77.38
259.151	85.38
259.383	83.38
259.616	85.38
259.849	86.38
260.081	104.38
260.314	80.38
260.547	88.38
260.779	97.38
261.012	73.38
261.244	82.38
261.477	79.38
261.71	94.38
261.942	93.38
262.175	81.38
262.407	80.38
262.64	74.38
262.872	86.38
263.105	80.38
263.337	90.38
263.57	82.38
263.802	91.38
264.035	100.38
264.267	75.38
264.499	81.38
264.732	90.38
264.964	59.38
265.197	89.38
265.429	85.38
265.661	74.38
265.894	82.38
266.126	86.38
266.358	82.38
266.591	76.38
266.823	77.38
267.055	69.38
267.287	91.38
267.52	78.38
267.752	78.38
267.984	84.38
268.216	86.38
268.448	86.38
268.681	85.38
268.913	93.38
269.145	90.38
269.377	85.38
269.609	76.38
269.841	84.38
270.073	89.38
270.306	92.38
270.538	90.38
270.77	91.38
271.002	104.38
271.234	98.38
271.466	83.38
271.698	91.38
271.93	88.38
272.162	77.38
272.394	78.38
272.626	71.38
272.858	86.38
273.09	87.38
273.322	83.38
273.553	74.38
273.785	94.38
274.017	89.38
274.249	77.38
274.481	92.38
274.713	94.38
274.945	84.38
275.176	102.38
275.408	83.38
275.64	84.38
275.872	92.38
276.104	79.38
276.335	90.38
276.567	92.38
276.799	98.38
277.031	93.38
277.262	94.38
277.494	94.38
277.726	103.38
277.957	88.38
278.189	86.38
278.421	74.38
278.652	84.38
278.884	76.38
279.115	87.38
279.347	88.38
279.579	81.38
279.81	71.38
280.042	84.38
280.273	91.38
280.505	98.38
280.736	80.38
280.968	99.38
281.199	95.38
281.431	92.38
281.662	98.38
281.894	86.38
282.125	87.38
282.356	91.38
282.588	91.38
282.819	79.38
283.051	76.38
283.282	79.38
283.513	94.38
283.745	97.38
283.976	104.38
284.207	88.38
284.439	100.38
284.67	86.38
284.901	90.38
285.132	94.38
285.364	94.38
285.595	83.38
285.826	78.38
286.057	75.38
286.288	85.38
286.52	72.38
286.751	91.38
286.982	75.38
287.213	84.38
287.444	71.38
287.675	98.38
287.906	84.38
288.138	83.38
288.369	81.38
288.6	82.38
288.831	86.38
289.062	82.38
289.293	90.38
289.524	86.38
289.755	87.38
289.986	94.38
290.217	92.38
290.448	84.38
290.679	87.38
290.91	90.38
291.141	76.38
291.371	89.38
291.602	82.38
291.833	62.38
292.064	79.38
292.295	88.38
292.526	87.38
292.757	86.38
292.987	94.38
293.218	94.38
293.449	87.38
293.68	93.38
293.91	96.38
294.141	95.38
294.372	98.38
294.603	88.38
294.833	70.38
295.064	100.38
295.295	80.38
295.525	89.38
295.756	83.38
295.987	83.38
296.217	93.38
296.448	84.38
296.679	99.38
296.909	88.38
297.14	92.38
297.37	83.38
297.601	87.38
297.831	94.38
298.062	89.38
298.292	83.38
298.523	103.38
298.753	78.38
298.984	85.38
299.214	72.38
299.445	86.38
299.675	89.38
299.905	90.38
300.136	88.38
300.366	80.38
300.597	97.38
300.827	84.38
301.057	94.38
301.288	96.38
301.518	87.38
301.748	82.38
301.979	96.38
302.209	92.38
302.439	85.38
302.669	83.38
302.9	91.38
303.13	85.38
303.36	96.38
303.59	85.38
303.82	87.38
304.051	93.38
304.281	87.38
304.511	91.38
304.741	77.38
304.971	81.38
305.201	88.38
305.431	82.38
305.661	96.38
305.891	85.38
306.121	88.38
306.352	88.38
306.582	91.38
306.812	99.38
307.042	101.38
307.272	84.38
307.502	78.38
307.731	93.38
307.961	99.38
308.191	83.38
308.421	90.38
308.651	95.38
308.881	89.38
309.111	97.38
309.341	86.38
309.571	90.38
309.8	93.38
310.03	98.38
310.26	94.38
310.49	82.38
310.72	98.38
310.949	83.38
311.179	92.38
311.409	75.38
311.639	79.38
311.868	94.38
312.098	103.38
312.328	104.38
312.557	101.38
312.787	90.38
313.017	90.38
313.246	98.38
313.476	89.38
313.706	93.38
313.935	93.38
314.165	88.38
314.394	90.38
314.624	88.38
314.853	84.38
315.083	98.38
315.312	88.38
315.542	93.38
315.771	92.38
316.001	89.38
316.23	95.38
316.46	86.38
316.689	103.38
316.919	88.38
317.148	90.38
317.377	103.38
317.607	99.38
317.836	95.38
318.065	86.38
318.295	86.38
318.524	92.38
318.753	83.38
318.983	80.38
319.212	99.38
319.441	98.38
319.67	75.38
319.9	91.38
320.129	77.38
320.358	89.38
320.587	89.38
320.816	91.38
321.046	90.38
321.275	89.38
321.504	80.38
321.733	94.38
321.962	83.38
322.191	88.38
322.42	74.38
322.649	83.38
322.878	86.38
323.108	103.38
323.337	92.38
323.566	86.38
323.795	84.38
324.024	79.38
324.253	90.38
324.482	75.38
324.71	91.38
324.939	89.38
325.168	79.38
325.397	94.38
325.626	80.38
325.855	83.38
326.084	98.38
326.313	88.38
326.542	86.38
326.77	81.38
326.999	90.38
327.228	98.38
327.457	91.38
327.686	95.38
327.914	86.38
328.143	91.38
328.372	78.38
328.6	95.38
328.829	93.38
329.058	89.38
329.287	93.38
329.515	99.38
329.744	94.38
329.972	75.38
330.201	78.38
330.43	84.38
330.658	87.38
330.887	86.38
331.115	90.38
331.344	92.38
331.572	88.38
331.801	93.38
332.03	86.38
332.258	88.38
332.486	77.38
332.715	78.38
332.943	94.38
333.172	101.38
333.4	100.38
333.629	103.38
333.857	90.38
334.085	77.38
334.314	86.38
334.542	103.38
334.771	83.38
334.999	77.38
335.227	88.38
335.455	89.38
335.684	102.38
335.912	94.38
336.14	89.38
336.369	80.38
336.597	90.38
336.825	85.38
337.053	85.38
337.281	93.38
337.51	78.38
337.738	95.38
337.966	98.38
338.194	89.38
338.422	80.38
338.65	100.38
338.878	101.38
339.106	95.38
339.334	84.38
339.562	90.38
339.79	89.38
340.018	101.38
340.246	84.38
340.474	80.38
340.702	88.38
340.93	92.38
341.158	83.38
341.386	88.38
341.614	77.38
341.842	80.38
342.07	85.38
342.298	98.38
342.526	95.38
342.754	90.38
342.981	92.38
343.209	83.38
343.437	86.38
343.665	89.38
343.893	85.38
344.12	66.38
344.348	89.38
344.576	86.38
344.804	93.38
345.031	82.38
345.259	94.38
345.487	87.38
345.714	95.38
345.942	79.38
346.17	88.38
346.397	91.38
346.625	95.38
346.853	78.38
347.08	90.38
347.308	80.38
347.535	102.38
347.763	81.38
347.99	101.38
348.218	83.38
348.445	80.38
348.673	80.38
348.9	91.38
349.128	73.38
349.355	84.38
349.583	104.38
349.81	86.38
350.037	93.38
350.265	87.38
350.492	71.38
350.72	83.38
350.947	89.38
351.174	87.38
351.402	90.38
351.629	95.38
351.856	72.38
352.083	93.38
352.311	92.38
352.538	83.38
352.765	85.38
352.992	82.38
353.22	96.38
353.447	103.38
353.674	96.38
353.901	84.38
354.128	100.38
354.355	89.38
354.583	89.38
354.81	104.38
355.037	86.38
355.264	76.38
355.491	79.38
355.718	84.38
355.945	94.38
356.172	93.38
356.399	89.38
356.626	98.38
356.853	100.38
357.08	85.38
357.307	89.38
357.534	78.38
357.761	94.38
357.988	106.38
358.215	108.38
358.441	88.38
358.668	81.38
358.895	78.38
359.122	94.38
359.349	89.38
359.576	81.38
359.802	81.38
360.029	86.38
360.256	89.38
360.483	75.38
360.709	80.38
360.936	95.38
361.163	85.38
361.39	97.38
361.616	86.38
361.843	94.38
362.07	98.38
362.296	84.38
362.523	88.38
362.749	103.38
362.976	83.38
363.203	101.38
363.429	95.38
363.656	91.38
363.882	79.38
364.109	102.38
364.335	84.38
364.562	91.38
364.788	93.38
365.015	94.38
365.241	75.38
365.468	90.38
365.694	76.38
365.92	85.38
366.147	105.38
366.373	87.38
366.599	80.38
366.826	75.38
367.052	92.38
367.278	77.38
367.505	89.38
367.731	96.38
367.957	89.38
368.184	83.38
368.41	89.38
368.636	102.38
368.862	87.38
369.089	84.38
369.315	69.38
369.541	92.38
369.767	85.38
369.993	98.38
370.219	84.38
370.445	86.38
370.672	91.38
370.898	74.38
371.124	95.38
371.35	99.38
371.576	86.38
371.802	87.38
372.028	77.38
372.254	85.38
372.48	91.38
372.706	88.38
372.932	86.38
373.158	73.38
373.384	93.38
373.61	92.38
373.835	100.38
374.061	95.38
374.287	88.38
374.513	80.38
374.739	95.38
374.965	82.38
375.191	77.38
375.416	100.38
375.642	89.38
375.868	100.38
376.094	109.38
376.319	94.38
376.545	87.38
376.771	99.38
376.997	99.38
377.222	109.38
377.448	114.38
377.674	88.38
377.899	96.38
378.125	84.38
378.35	95.38
378.576	99.38
378.802	103.38
379.027	92.38
379.253	84.38
379.478	80.38
379.704	90.38
379.929	100.38
380.155	89.38
380.38	95.38
380.606	81.38
380.831	84.38
381.057	108.38
381.282	97.38
381.507	96.38
381.733	91.38
381.958	109.38
382.184	100.38
382.409	96.38
382.634	86.38
382.86	91.38
383.085	78.38
383.31	92.38
383.535	96.38
383.761	73.38
383.986	87.38
384.211	101.38
384.436	101.38
384.662	92.38
384.887	89.38
385.112	99.38
385.337	96.38
385.562	96.38
385.787	85.38
386.013	97.38
386.238	90.38
386.463	106.38
386.688	110.38
386.913	89.38
387.138	107.38
387.363	84.38
387.588	91.38
387.813	100.38
388.038	114.38
388.263	102.38
388.488	98.38
388.713	93.38
388.938	101.38
389.163	96.38
389.387	93.38
389.612	103.38
389.837	93.38
390.062	94.38
390.287	99.38
390.512	96.38
390.736	103.38
390.961	95.38
391.186	104.38
391.411	106.38
391.636	96.38
391.86	101.38
392.085	100.38
392.31	107.38
392.534	89.38
392.759	96.38
392.984	94.38
393.208	98.38
393.433	101.38
393.658	103.38
393.882	107.38
394.107	103.38
394.331	112.38
394.556	98.38
394.78	110.38
395.005	97.38
395.229	106.38
395.454	108.38
395.678	113.38
395.903	110.38
396.127	99.38
396.352	104.38
396.576	87.38
396.801	96.38
397.025	105.38
397.249	98.38
397.474	102.38
397.698	91.38
397.922	110.38
398.147	105.38
398.371	94.38
398.595	100.38
398.82	108.38
399.044	107.38
399.268	116.38
399.492	106.38
399.717	116.38
399.941	98.38
400.165	115.38
400.389	117.38
400.613	100.38
400.837	104.38
401.062	106.38
401.286	112.38
401.51	98.38
401.734	118.38
401.958	105.38
402.182	101.38
402.406	101.38
402.63	98.38
402.854	112.38
403.078	108.38
403.302	99.38
403.526	98.38
403.75	110.38
403.974	111.38
404.198	109.38
404.422	116.38
404.645	110.38
404.869	116.38
405.093	99.38
405.317	103.38
405.541	98.38
405.765	103.38
405.988	107.38
406.212	101.38
406.436	100.38
406.66	111.38
406.883	111.38
407.107	108.38
407.331	114.38
407.555	116.38
407.778	120.38
408.002	108.38
408.226	114.38
408.449	114.38
408.673	107.38
408.896	119.38
409.12	105.38
409.344	103.38
409.567	123.38
409.791	119.38
410.014	106.38
410.238	95.38
410.461	101.38
410.685	105.38
410.908	96.38
411.132	119.38
411.355	106.38
411.578	110.38
411.802	115.38
412.025	112.38
412.249	106.38
412.472	115.38
412.695	109.38
412.919	118.38
413.142	115.38
413.365	118.38
413.589	119.38
413.812	109.38
414.035	129.38
414.258	107.38
414.482	109.38
414.705	108.38
414.928	110.38
415.151	105.38
415.374	111.38
415.597	107.38
415.821	120.38
416.044	116.38
416.267	111.38
416.49	122.38
416.713	114.38
416.936	119.38
417.159	106.38
417.382	107.38
417.605	115.38
417.828	115.38
418.051	109.38
418.274	112.38
418.497	108.38
418.72	125.38
418.943	118.38
419.166	123.38
419.389	114.38
419.611	112.38
419.834	114.38
420.057	117.38
420.28	101.38
420.503	122.38
420.726	130.38
420.948	124.38
421.171	120.38
421.394	96.38
421.617	114.38
421.839	119.38
422.062	110.38
422.285	115.38
422.507	114.38
422.73	108.38
422.953	105.38
423.175	110.38
423.398	114.38
423.621	107.38
423.843	120.38
424.066	108.38
424.288	101.38
424.511	132.38
424.733	118.38
424.956	133.38
425.178	119.38
425.401	121.38
425.623	118.38
425.846	126.38
426.068	118.38
426.291	115.38
426.513	111.38
426.735	121.38
426.958	109.38
427.18	120.38
427.402	114.38
427.625	112.38
427.847	112.38
428.069	111.38
428.292	116.38
428.514	118.38
428.736	119.38
428.958	116.38
429.181	126.38
429.403	106.38
429.625	102.38
429.847	94.38
430.069	119.38
430.292	118.38
430.514	109.38
430.736	117.38
430.958	107.38
431.18	106.38
431.402	98.38
431.624	106.38
431.846	109.38
432.068	99.38
432.29	106.38
432.512	110.38
432.734	115.38
432.956	108.38
433.178	120.38
433.4	120.38
433.622	107.38
433.844	118.38
434.066	112.38
434.287	100.38
434.509	128.38
434.731	125.38
434.953	110.38
435.175	112.38
435.397	122.38
435.618	104.38
435.84	116.38
436.062	123.38
436.284	105.38
436.505	119.38
436.727	117.38
436.949	134.38
437.17	102.38
437.392	109.38
437.614	105.38
437.835	116.38
438.057	117.38
438.278	108.38
438.5	110.38
438.721	120.38
438.943	118.38
439.165	104.38
439.386	112.38
439.608	125.38
439.829	116.38
440.05	119.38
440.272	138.38
440.493	119.38
440.715	119.38
440.936	124.38
441.158	116.38
441.379	118.38
441.6	124.38
441.822	116.38
442.043	126.38
442.264	131.38
442.486	103.38
442.707	116.38
442.928	112.38
443.149	132.38
443.371	131.38
443.592	118.38
443.813	109.38
444.034	120.38
444.255	126.38
444.476	122.38
444.698	117.38
444.919	131.38
445.14	207.38
445.361	174.38
445.582	122.38
445.803	111.38
446.024	116.38
446.245	132.38
446.466	121.38
446.687	109.38
446.908	115.38
447.129	122.38
447.35	118.38
447.571	121.38
447.792	111.38
448.013	102.38
448.234	126.38
448.455	114.38
448.675	123.38
448.896	133.38
449.117	114.38
449.338	116.38
449.559	114.38
449.779	120.38
450	118.38
450.221	113.38
450.442	116.38
450.662	105.38
450.883	122.38
451.104	118.38
451.324	119.38
451.545	119.38
451.766	120.38
451.986	102.38
452.207	88.38
452.428	122.38
452.648	119.38
452.869	115.38
453.089	114.38
453.31	111.38
453.53	112.38
453.751	106.38
453.971	103.38
454.192	115.38
454.412	108.38
454.633	104.38
454.853	100.38
455.073	97.38
455.294	115.38
455.514	111.38
455.734	111.38
455.955	109.38
456.175	99.38
456.395	109.38
456.616	118.38
456.836	98.38
457.056	100.38
457.276	92.38
457.497	118.38
457.717	115.38
457.937	101.38
458.157	101.38
458.377	107.38
458.598	88.38
458.818	110.38
459.038	92.38
459.258	108.38
459.478	115.38
459.698	106.38
459.918	95.38
460.138	116.38
460.358	108.38
460.578	112.38
460.798	124.38
461.018	122.38
461.238	117.38
461.458	117.38
461.678	130.38
461.898	117.38
462.118	131.38
462.338	116.38
462.558	108.38
462.777	117.38
462.997	118.38
463.217	122.38
463.437	117.38
463.657	118.38
463.876	105.38
464.096	112.38
464.316	124.38
464.536	119.38
464.755	125.38
464.975	124.38
465.195	119.38
465.414	127.38
465.634	105.38
465.854	105.38
466.073	117.38
466.293	111.38
466.512	128.38
466.732	107.38
466.951	124.38
467.171	129.38
467.391	122.38
467.61	119.38
467.829	114.38
468.049	136.38
468.268	117.38
468.488	125.38
468.707	121.38
468.927	107.38
469.146	106.38
469.365	123.38
469.585	112.38
469.804	110.38
470.023	119.38
470.243	122.38
470.462	141.38
470.681	123.38
470.901	119.38
471.12	107.38
471.339	124.38
471.558	107.38
471.777	112.38
471.997	122.38
472.216	122.38
472.435	114.38
472.654	95.38
472.873	123.38
473.092	118.38
473.311	108.38
473.53	122.38
473.749	120.38
473.968	121.38
474.187	108.38
474.406	108.38
474.625	109.38
474.844	115.38
475.063	122.38
475.282	114.38
475.501	121.38
475.72	112.38
475.939	107.38
476.158	124.38
476.377	116.38
476.596	102.38
476.814	106.38
477.033	105.38
477.252	108.38
477.471	128.38
477.69	123.38
477.908	112.38
478.127	114.38
478.346	118.38
478.564	116.38
478.783	124.38
479.002	138.38
479.22	120.38
479.439	140.38
479.658	123.38
479.876	110.38
480.095	118.38
480.313	124.38
480.532	143.38
480.751	119.38
480.969	117.38
481.188	122.38
481.406	120.38
481.624	115.38
481.843	116.38
482.061	130.38
482.28	110.38
482.498	124.38
482.717	121.38
482.935	125.38
483.153	127.38
483.372	132.38
483.59	118.38
483.808	134.38
484.027	121.38
484.245	116.38
484.463	117.38
484.681	127.38
484.9	139.38
485.118	124.38
485.336	125.38
485.554	114.38
485.772	107.38
485.99	130.38
486.209	126.38
486.427	99.38
486.645	126.38
486.863	116.38
487.081	120.38
487.299	121.38
487.517	138.38
487.735	140.38
487.953	132.38
488.171	144.38
488.389	132.38
488.607	138.38
488.825	126.38
489.043	114.38
489.261	114.38
489.479	132.38
489.696	119.38
489.914	130.38
490.132	130.38
490.35	118.38
490.568	140.38
490.786	138.38
491.003	148.38
491.221	147.38
491.439	144.38
491.657	153.38
491.874	148.38
492.092	162.38
492.31	161.38
492.527	176.38
492.745	164.38
492.963	143.38
493.18	153.38
493.398	148.38
493.615	136.38
493.833	143.38
494.05	163.38
494.268	138.38
494.485	150.38
494.703	143.38
494.92	186.38
495.138	153.38
495.355	157.38
495.573	137.38
495.79	154.38
496.008	150.38
496.225	156.38
496.442	145.38
496.66	162.38
496.877	151.38
497.094	151.38
497.312	141.38
497.529	125.38
497.746	151.38
497.963	146.38
498.181	138.38
498.398	144.38
498.615	143.38
498.832	128.38
499.049	164.38
499.267	157.38
499.484	164.38
499.701	169.38
499.918	192.38
500.135	202.38
500.352	208.38
500.569	216.38
500.786	207.38
501.003	214.38
501.22	193.38
501.437	183.38
501.654	160.38
501.871	161.38
502.088	148.38
502.305	143.38
502.522	151.38
502.739	163.38
502.956	143.38
503.172	134.38
503.389	119.38
503.606	121.38
503.823	114.38
504.04	130.38
504.256	153.38
504.473	137.38
504.69	138.38
504.907	133.38
505.123	140.38
505.34	132.38
505.557	137.38
505.773	152.38
505.99	140.38
506.207	129.38
506.423	130.38
506.64	128.38
506.856	119.38
507.073	125.38
507.289	129.38
507.506	107.38
507.722	115.38
507.939	130.38
508.155	135.38
508.372	136.38
508.588	119.38
508.805	111.38
509.021	126.38
509.238	122.38
509.454	123.38
509.67	126.38
509.887	122.38
510.103	103.38
510.319	124.38
510.536	120.38
510.752	120.38
510.968	116.38
511.184	116.38
511.401	108.38
511.617	110.38
511.833	110.38
512.049	115.38
512.265	111.38
512.481	116.38
512.698	106.38
512.914	114.38
513.13	119.38
513.346	99.38
513.562	124.38
513.778	129.38
513.994	108.38
514.21	124.38
514.426	111.38
514.642	115.38
514.858	118.38
515.074	118.38
515.29	116.38
515.506	113.38
515.721	117.38
515.937	125.38
516.153	122.38
516.369	119.38
516.585	112.38
516.801	116.38
517.016	144.38
517.232	130.38
517.448	126.38
517.664	123.38
517.879	124.38
518.095	124.38
518.311	120.38
518.527	122.38
518.742	101.38
518.958	127.38
519.173	115.38
519.389	118.38
519.605	123.38
519.82	120.38
520.036	124.38
520.251	126.38
520.467	126.38
520.682	112.38
520.898	119.38
521.113	122.38
521.329	118.38
521.544	124.38
521.76	126.38
521.975	123.38
522.19	126.38
522.406	122.38
522.621	121.38
522.836	122.38
523.052	117.38
523.267	131.38
523.482	118.38
523.698	111.38
523.913	114.38
524.128	130.38
524.343	120.38
524.559	134.38
524.774	114.38
524.989	137.38
525.204	122.38
525.419	130.38
525.634	100.38
525.849	121.38
526.064	123.38
526.28	115.38
526.495	112.38
526.71	116.38
526.925	105.38
527.14	109.38
527.355	108.38
527.57	108.38
527.785	106.38
527.999	111.38
528.214	111.38
528.429	117.38
528.644	116.38
528.859	135.38
529.074	130.38
529.289	132.38
529.503	137.38
529.718	114.38
529.933	111.38
530.148	125.38
530.363	106.38
530.577	105.38
530.792	114.38
531.007	109.38
531.221	120.38
531.436	109.38
531.651	109.38
531.865	117.38
532.08	107.38
532.295	114.38
532.509	107.38
532.724	120.38
532.938	104.38
533.153	109.38
533.367	122.38
533.582	108.38
533.796	112.38
534.011	113.38
534.225	110.38
534.44	120.38
534.654	117.38
534.868	108.38
535.083	105.38
535.297	90.38
535.511	124.38
535.726	114.38
535.94	135.38
536.154	118.38
536.369	114.38
536.583	109.38
536.797	110.38
537.011	107.38
537.225	108.38
537.44	118.38
537.654	128.38
537.868	105.38
538.082	116.38
538.296	114.38
538.51	119.38
538.724	119.38
538.938	132.38
539.153	110.38
539.367	112.38
539.581	106.38
539.795	118.38
540.009	105.38
540.222	123.38
540.436	114.38
540.65	115.38
540.864	110.38
541.078	126.38
541.292	130.38
541.506	121.38
541.72	142.38
541.934	153.38
542.147	147.38
542.361	138.38
542.575	141.38
542.789	131.38
543.002	111.38
543.216	119.38
543.43	118.38
543.644	115.38
543.857	135.38
544.071	132.38
544.285	123.38
544.498	131.38
544.712	137.38
544.925	134.38
545.139	137.38
545.352	130.38
545.566	138.38
545.779	116.38
545.993	125.38
546.206	140.38
546.42	150.38
546.633	134.38
546.847	134.38
547.06	136.38
547.274	147.38
547.487	142.38
547.7	127.38
547.914	145.38
548.127	136.38
548.34	131.38
548.554	139.38
548.767	134.38
548.98	124.38
549.193	132.38
549.407	143.38
549.62	140.38
549.833	135.38
550.046	119.38
550.259	119.38
550.473	129.38
550.686	131.38
550.899	142.38
551.112	124.38
551.325	111.38
551.538	135.38
551.751	118.38
551.964	123.38
552.177	131.38
552.39	118.38
552.603	136.38
552.816	138.38
553.029	130.38
553.242	122.38
553.455	128.38
553.667	130.38
553.88	143.38
554.093	131.38
554.306	125.38
554.519	140.38
554.732	130.38
554.944	148.38
555.157	128.38
555.37	130.38
555.583	128.38
555.795	118.38
556.008	123.38
556.221	124.38
556.433	118.38
556.646	117.38
556.859	104.38
557.071	129.38
557.284	110.38
557.496	122.38
557.709	120.38
557.921	130.38
558.134	124.38
558.346	120.38
558.559	119.38
558.771	117.38
558.984	119.38
559.196	112.38
559.409	116.38
559.621	120.38
559.833	109.38
560.046	112.38
560.258	112.38
560.47	129.38
560.683	86.38
560.895	112.38
561.107	116.38
561.32	116.38
561.532	129.38
561.744	122.38
561.956	112.38
562.168	118.38
562.381	113.38
562.593	107.38
562.805	124.38
563.017	115.38
563.229	111.38
563.441	124.38
563.653	117.38
563.865	106.38
564.077	118.38
564.289	120.38
564.501	114.38
564.713	103.38
564.925	102.38
565.137	104.38
565.349	122.38
565.561	112.38
565.773	114.38
565.985	116.38
566.197	105.38
566.408	111.38
566.62	112.38
566.832	118.38
567.044	120.38
567.255	124.38
567.467	128.38
567.679	121.38
567.891	123.38
568.102	124.38
568.314	118.38
568.526	122.38
568.737	112.38
568.949	105.38
569.161	103.38
569.372	102.38
569.584	83.38
569.795	97.38
570.007	94.38
570.218	91.38
570.43	125.38
570.641	94.38
570.853	106.38
571.064	111.38
571.276	122.38
571.487	104.38
571.698	98.38
571.91	120.38
572.121	94.38
572.333	91.38
572.544	103.38
572.755	89.38
572.966	108.38
573.178	101.38
573.389	101.38
573.6	107.38
573.811	107.38
574.023	99.38
574.234	79.38
574.445	96.38
574.656	97.38
574.867	104.38
575.078	98.38
575.289	93.38
575.501	93.38
575.712	115.38
575.923	101.38
576.134	93.38
576.345	110.38
576.556	100.38
576.767	107.38
576.978	104.38
577.188	84.38
577.399	104.38
577.61	91.38
577.821	95.38
578.032	103.38
578.243	94.38
578.454	100.38
578.665	104.38
578.875	96.38
579.086	105.38
579.297	84.38
579.508	100.38
579.718	82.38
579.929	102.38
580.14	100.38
580.35	95.38
580.561	92.38
580.772	107.38
580.982	98.38
581.193	97.38
581.403	102.38
581.614	110.38
581.825	100.38
582.035	101.38
582.246	97.38
582.456	103.38
582.667	86.38
582.877	103.38
583.087	94.38
583.298	101.38
583.508	110.38
583.719	104.38
583.929	95.38
584.139	104.38
584.35	98.38
584.56	91.38
584.77	107.38
584.981	91.38
585.191	103.38
585.401	91.38
585.611	79.38
585.821	96.38
586.032	100.38
586.242	89.38
586.452	111.38
586.662	87.38
586.872	92.38
587.082	108.38
587.292	93.38
587.502	93.38
587.713	93.38
587.923	106.38
588.133	88.38
588.343	82.38
588.553	100.38
588.762	105.38
588.972	102.38
589.182	108.38
589.392	102.38
589.602	102.38
589.812	104.38
590.022	107.38
590.232	98.38
590.441	91.38
590.651	92.38
590.861	93.38
591.071	104.38
591.281	96.38
591.49	96.38
591.7	87.38
591.91	79.38
592.119	106.38
592.329	91.38
592.539	70.38
592.748	98.38
592.958	109.38
593.167	95.38
593.377	104.38
593.587	122.38
593.796	102.38
594.006	90.38
594.215	98.38
594.424	90.38
594.634	108.38
594.843	104.38
595.053	90.38
595.262	112.38
595.472	96.38
595.681	93.38
595.89	95.38
596.1	93.38
596.309	91.38
596.518	86.38
596.727	101.38
596.937	101.38
597.146	100.38
597.355	96.38
597.564	98.38
597.774	90.38
597.983	95.38
598.192	84.38
598.401	87.38
598.61	102.38
598.819	101.38
599.028	89.38
599.237	94.38
599.446	103.38
599.655	95.38
599.864	92.38
600.073	94.38
600.282	102.38
600.491	94.38
600.7	99.38
600.909	108.38
601.118	98.38
601.327	79.38
601.536	85.38
601.745	105.38
601.953	96.38
602.162	105.38
602.371	99.38
602.58	96.38
602.789	87.38
602.997	88.38
603.206	95.38
603.415	101.38
603.623	98.38
603.832	95.38
604.041	94.38
604.249	98.38
604.458	92.38
604.666	93.38
604.875	90.38
605.084	108.38
605.292	84.38
605.501	110.38
605.709	100.38
605.918	96.38
606.126	103.38
606.334	111.38
606.543	101.38
606.751	91.38
606.96	106.38
607.168	94.38
607.376	111.38
607.585	95.38
607.793	93.38
608.001	100.38
608.21	97.38
608.418	94.38
608.626	99.38
608.834	109.38
609.043	102.38
609.251	95.38
609.459	103.38
609.667	98.38
609.875	103.38
610.083	102.38
610.291	92.38
610.499	94.38
610.707	105.38
610.916	93.38
611.124	94.38
611.332	100.38
611.54	91.38
611.748	93.38
611.955	100.38
612.163	110.38
612.371	90.38
612.579	103.38
612.787	90.38
612.995	93.38
613.203	100.38
613.411	84.38
613.618	98.38
613.826	98.38
614.034	108.38
614.242	90.38
614.449	111.38
614.657	103.38
614.865	91.38
615.072	100.38
615.28	95.38
615.488	99.38
615.695	108.38
615.903	94.38
616.111	91.38
616.318	88.38
616.526	90.38
616.733	103.38
616.941	103.38
617.148	90.38
617.356	94.38
617.563	90.38
617.771	90.38
617.978	91.38
618.185	87.38
618.393	89.38
618.6	95.38
618.807	95.38
619.015	100.38
619.222	88.38
619.429	78.38
619.637	97.38
619.844	98.38
620.051	95.38
620.258	97.38
620.466	111.38
620.673	91.38
620.88	101.38
621.087	98.38
621.294	93.38
621.501	84.38
621.708	90.38
621.915	82.38
622.122	95.38
622.329	103.38
622.536	91.38
622.743	95.38
622.95	92.38
623.157	98.38
623.364	82.38
623.571	97.38
623.778	95.38
623.985	101.38
624.192	104.38
624.399	106.38
624.606	107.38
624.812	105.38
625.019	106.38
625.226	96.38
625.433	79.38
625.639	89.38
625.846	114.38
626.053	95.38
626.259	97.38
626.466	97.38
626.673	88.38
626.879	93.38
627.086	98.38
627.293	95.38
627.499	98.38
627.706	86.38
627.912	89.38
628.119	108.38
628.325	101.38
628.532	95.38
628.738	102.38
628.945	110.38
629.151	83.38
629.357	97.38
629.564	90.38
629.77	80.38
629.976	89.38
630.183	87.38
630.389	98.38
630.595	79.38
630.802	109.38
631.008	88.38
631.214	103.38
631.42	90.38
631.627	92.38
631.833	92.38
632.039	83.38
632.245	78.38
632.451	91.38
632.657	101.38
632.863	83.38
633.069	96.38
633.275	92.38
633.481	93.38
633.688	92.38
633.893	95.38
634.099	95.38
634.305	96.38
634.511	108.38
634.717	97.38
634.923	100.38
635.129	86.38
635.335	91.38
635.541	85.38
635.747	93.38
635.952	88.38
636.158	98.38
636.364	92.38
636.57	85.38
636.775	90.38
636.981	98.38
637.187	97.38
637.392	88.38
637.598	110.38
637.804	93.38
638.009	77.38
638.215	94.38
638.421	80.38
638.626	100.38
638.832	96.38
639.037	95.38
639.243	97.38
639.448	97.38
639.654	94.38
639.859	95.38
640.065	79.38
640.27	92.38
640.475	86.38
640.681	93.38
640.886	89.38
641.091	93.38
641.297	100.38
641.502	87.38
641.707	85.38
641.913	74.38
642.118	93.38
642.323	96.38
642.528	90.38
642.733	104.38
642.939	85.38
643.144	80.38
643.349	85.38
643.554	84.38
643.759	93.38
643.964	92.38
644.169	100.38
644.374	99.38
644.579	99.38
644.784	97.38
644.989	98.38
645.194	95.38
645.399	83.38
645.604	95.38
645.809	98.38
646.014	86.38
646.219	103.38
646.423	89.38
646.628	77.38
646.833	106.38
647.038	90.38
647.243	86.38
647.447	80.38
647.652	90.38
647.857	86.38
648.062	99.38
648.266	102.38
648.471	87.38
648.676	88.38
648.88	93.38
649.085	96.38
649.289	85.38
649.494	103.38
649.698	90.38
649.903	98.38
650.107	96.38
650.312	97.38
650.516	90.38
650.721	88.38
650.925	96.38
651.13	95.38
651.334	81.38
651.539	83.38
651.743	94.38
651.947	99.38
652.152	103.38
652.356	93.38
652.56	88.38
652.764	101.38
652.969	88.38
653.173	85.38
653.377	84.38
653.581	87.38
653.785	89.38
653.99	98.38
654.194	91.38
654.398	92.38
654.602	91.38
654.806	90.38
655.01	78.38
655.214	86.38
655.418	88.38
655.622	89.38
655.826	103.38
656.03	95.38
656.234	97.38
656.438	89.38
656.642	78.38
656.846	107.38
657.049	84.38
657.253	92.38
657.457	87.38
657.661	73.38
657.865	74.38
658.068	86.38
658.272	91.38
658.476	79.38
658.68	85.38
658.883	98.38
659.087	77.38
659.291	78.38
659.494	75.38
659.698	93.38
659.901	93.38
660.105	86.38
660.309	95.38
660.512	83.38
660.716	84.38
660.919	92.38
661.123	97.38
661.326	75.38
661.53	77.38
661.733	98.38
661.936	80.38
662.14	84.38
662.343	88.38
662.546	110.38
662.75	96.38
662.953	94.38
663.156	83.38
663.36	99.38
663.563	92.38
663.766	83.38
663.969	82.38
664.173	93.38
664.376	96.38
664.579	97.38
664.782	80.38
664.985	84.38
665.188	81.38
665.391	78.38
665.594	87.38
665.797	88.38
666	81.38
666.203	88.38
666.406	98.38
666.609	77.38
666.812	98.38
667.015	94.38
667.218	85.38
667.421	99.38
667.624	84.38
667.827	89.38
668.03	78.38
668.232	81.38
668.435	85.38
668.638	77.38
668.841	78.38
669.043	74.38
669.246	95.38
669.449	90.38
669.651	89.38
669.854	80.38
670.057	88.38
670.259	100.38
670.462	78.38
670.665	84.38
670.867	81.38
671.07	95.38
671.272	87.38
671.475	100.38
671.677	74.38
671.88	76.38
672.082	82.38
672.284	96.38
672.487	84.38
672.689	93.38
672.892	98.38
