Data from StandardFe(NO3)3.TAE.3%Agarose.FlatLispGreen.Lamp.Energy10.07252019_HRD10591_11-56-03-441.txt Node
Date: Thu Jul 25 11:56:03 EDT 2019
User: cochatt
Spectrometer: HR+D1059
Trigger mode: 1
Integration Time (sec): 1.000000E-1
Scans to average: 1
Electric dark correction enabled: true
Nonlinearity correction enabled: false
Boxcar width: 0
XAxis mode: Wavelengths
Number of Pixels in Spectrum: 2048
>>>>>Begin Spectral Data<<<<<
223.165	-15.31
223.4	-15.31
223.635	-15.31
223.869	-18.31
224.104	-28.31
224.338	-18.31
224.573	-16.31
224.808	-8.31
225.042	-5.31
225.277	-1.31
225.511	9.69
225.746	15.69
225.98	-7.31
226.215	3.69
226.449	16.69
226.683	28.69
226.918	17.69
227.152	26.69
227.387	34.69
227.621	29.69
227.856	46.69
228.09	53.69
228.324	54.69
228.559	52.69
228.793	67.69
229.027	53.69
229.262	72.69
229.496	64.69
229.73	71.69
229.964	58.69
230.199	75.69
230.433	62.69
230.667	89.69
230.901	81.69
231.136	78.69
231.37	85.69
231.604	92.69
231.838	68.69
232.072	92.69
232.306	78.69
232.541	80.69
232.775	80.69
233.009	73.69
233.243	90.69
233.477	80.69
233.711	74.69
233.945	102.69
234.179	80.69
234.413	89.69
234.647	90.69
234.881	89.69
235.115	79.69
235.349	82.69
235.583	91.69
235.817	88.69
236.051	86.69
236.285	80.69
236.519	87.69
236.753	65.69
236.987	64.69
237.221	83.69
237.455	81.69
237.689	82.69
237.922	76.69
238.156	90.69
238.39	86.69
238.624	76.69
238.858	89.69
239.091	87.69
239.325	85.69
239.559	80.69
239.793	75.69
240.027	95.69
240.26	92.69
240.494	87.69
240.728	85.69
240.961	79.69
241.195	72.69
241.429	80.69
241.662	80.69
241.896	67.69
242.13	69.69
242.363	76.69
242.597	78.69
242.83	88.69
243.064	77.69
243.298	80.69
243.531	77.69
243.765	73.69
243.998	88.69
244.232	76.69
244.465	93.69
244.699	76.69
244.932	89.69
245.166	88.69
245.399	79.69
245.633	76.69
245.866	75.69
246.099	81.69
246.333	78.69
246.566	67.69
246.8	76.69
247.033	73.69
247.266	75.69
247.5	96.69
247.733	93.69
247.966	70.69
248.2	91.69
248.433	77.69
248.666	85.69
248.899	72.69
249.133	88.69
249.366	76.69
249.599	81.69
249.832	84.69
250.066	79.69
250.299	67.69
250.532	96.69
250.765	84.69
250.998	77.69
251.231	83.69
251.465	88.69
251.698	85.69
251.931	94.69
252.164	100.69
252.397	82.69
252.63	87.69
252.863	88.69
253.096	70.69
253.329	82.69
253.562	78.69
253.795	89.69
254.028	88.69
254.261	86.69
254.494	73.69
254.727	84.69
254.96	72.69
255.193	75.69
255.426	94.69
255.659	88.69
255.892	98.69
256.124	102.69
256.357	79.69
256.59	86.69
256.823	95.69
257.056	86.69
257.289	78.69
257.521	81.69
257.754	76.69
257.987	81.69
258.22	85.69
258.452	82.69
258.685	68.69
258.918	84.69
259.151	92.69
259.383	90.69
259.616	80.69
259.849	93.69
260.081	83.69
260.314	86.69
260.547	86.69
260.779	86.69
261.012	85.69
261.244	87.69
261.477	77.69
261.71	90.69
261.942	89.69
262.175	96.69
262.407	74.69
262.64	87.69
262.872	78.69
263.105	81.69
263.337	74.69
263.57	80.69
263.802	92.69
264.035	89.69
264.267	86.69
264.499	73.69
264.732	88.69
264.964	93.69
265.197	84.69
265.429	86.69
265.661	68.69
265.894	96.69
266.126	79.69
266.358	96.69
266.591	87.69
266.823	89.69
267.055	88.69
267.287	96.69
267.52	92.69
267.752	72.69
267.984	88.69
268.216	99.69
268.448	92.69
268.681	79.69
268.913	88.69
269.145	100.69
269.377	88.69
269.609	88.69
269.841	77.69
270.073	86.69
270.306	74.69
270.538	80.69
270.77	76.69
271.002	93.69
271.234	86.69
271.466	74.69
271.698	92.69
271.93	97.69
272.162	96.69
272.394	85.69
272.626	101.69
272.858	94.69
273.09	97.69
273.322	84.69
273.553	107.69
273.785	95.69
274.017	92.69
274.249	93.69
274.481	83.69
274.713	94.69
274.945	84.69
275.176	90.69
275.408	80.69
275.64	79.69
275.872	77.69
276.104	92.69
276.335	92.69
276.567	88.69
276.799	81.69
277.031	88.69
277.262	88.69
277.494	84.69
277.726	88.69
277.957	92.69
278.189	84.69
278.421	94.69
278.652	102.69
278.884	94.69
279.115	98.69
279.347	104.69
279.579	94.69
279.81	71.69
280.042	85.69
280.273	81.69
280.505	94.69
280.736	85.69
280.968	85.69
281.199	87.69
281.431	93.69
281.662	89.69
281.894	86.69
282.125	93.69
282.356	94.69
282.588	77.69
282.819	85.69
283.051	100.69
283.282	89.69
283.513	92.69
283.745	78.69
283.976	73.69
284.207	90.69
284.439	76.69
284.67	82.69
284.901	89.69
285.132	92.69
285.364	74.69
285.595	94.69
285.826	94.69
286.057	88.69
286.288	93.69
286.52	96.69
286.751	95.69
286.982	81.69
287.213	86.69
287.444	92.69
287.675	88.69
287.906	97.69
288.138	97.69
288.369	81.69
288.6	88.69
288.831	90.69
289.062	93.69
289.293	89.69
289.524	86.69
289.755	84.69
289.986	81.69
290.217	86.69
290.448	87.69
290.679	98.69
290.91	94.69
291.141	90.69
291.371	93.69
291.602	92.69
291.833	88.69
292.064	96.69
292.295	80.69
292.526	84.69
292.757	91.69
292.987	83.69
293.218	79.69
293.449	93.69
293.68	78.69
293.91	69.69
294.141	76.69
294.372	88.69
294.603	82.69
294.833	95.69
295.064	86.69
295.295	93.69
295.525	96.69
295.756	86.69
295.987	91.69
296.217	77.69
296.448	72.69
296.679	92.69
296.909	75.69
297.14	100.69
297.37	86.69
297.601	83.69
297.831	95.69
298.062	81.69
298.292	80.69
298.523	87.69
298.753	81.69
298.984	93.69
299.214	93.69
299.445	99.69
299.675	101.69
299.905	100.69
300.136	88.69
300.366	86.69
300.597	92.69
300.827	100.69
301.057	98.69
301.288	86.69
301.518	101.69
301.748	99.69
301.979	86.69
302.209	76.69
302.439	83.69
302.669	94.69
302.9	91.69
303.13	82.69
303.36	93.69
303.59	85.69
303.82	93.69
304.051	92.69
304.281	94.69
304.511	85.69
304.741	79.69
304.971	97.69
305.201	96.69
305.431	91.69
305.661	100.69
305.891	90.69
306.121	100.69
306.352	95.69
306.582	86.69
306.812	92.69
307.042	102.69
307.272	107.69
307.502	88.69
307.731	93.69
307.961	92.69
308.191	86.69
308.421	83.69
308.651	86.69
308.881	87.69
309.111	84.69
309.341	93.69
309.571	73.69
309.8	85.69
310.03	91.69
310.26	87.69
310.49	77.69
310.72	88.69
310.949	95.69
311.179	89.69
311.409	97.69
311.639	87.69
311.868	91.69
312.098	96.69
312.328	82.69
312.557	82.69
312.787	94.69
313.017	93.69
313.246	81.69
313.476	83.69
313.706	95.69
313.935	92.69
314.165	96.69
314.394	93.69
314.624	84.69
314.853	90.69
315.083	85.69
315.312	92.69
315.542	89.69
315.771	87.69
316.001	85.69
316.23	92.69
316.46	78.69
316.689	85.69
316.919	76.69
317.148	94.69
317.377	90.69
317.607	84.69
317.836	91.69
318.065	88.69
318.295	96.69
318.524	80.69
318.753	83.69
318.983	99.69
319.212	84.69
319.441	88.69
319.67	83.69
319.9	92.69
320.129	84.69
320.358	81.69
320.587	84.69
320.816	79.69
321.046	87.69
321.275	96.69
321.504	87.69
321.733	80.69
321.962	79.69
322.191	100.69
322.42	85.69
322.649	87.69
322.878	94.69
323.108	86.69
323.337	101.69
323.566	98.69
323.795	88.69
324.024	113.69
324.253	82.69
324.482	85.69
324.71	80.69
324.939	83.69
325.168	79.69
325.397	87.69
325.626	83.69
325.855	88.69
326.084	79.69
326.313	94.69
326.542	88.69
326.77	96.69
326.999	84.69
327.228	96.69
327.457	88.69
327.686	77.69
327.914	97.69
328.143	94.69
328.372	81.69
328.6	90.69
328.829	98.69
329.058	100.69
329.287	93.69
329.515	91.69
329.744	96.69
329.972	83.69
330.201	85.69
330.43	87.69
330.658	86.69
330.887	93.69
331.115	105.69
331.344	88.69
331.572	100.69
331.801	95.69
332.03	91.69
332.258	86.69
332.486	93.69
332.715	98.69
332.943	78.69
333.172	75.69
333.4	100.69
333.629	97.69
333.857	97.69
334.085	96.69
334.314	95.69
334.542	91.69
334.771	90.69
334.999	84.69
335.227	89.69
335.455	94.69
335.684	91.69
335.912	95.69
336.14	99.69
336.369	87.69
336.597	106.69
336.825	85.69
337.053	84.69
337.281	85.69
337.51	95.69
337.738	80.69
337.966	89.69
338.194	84.69
338.422	95.69
338.65	83.69
338.878	99.69
339.106	90.69
339.334	100.69
339.562	87.69
339.79	85.69
340.018	81.69
340.246	91.69
340.474	95.69
340.702	81.69
340.93	109.69
341.158	96.69
341.386	72.69
341.614	81.69
341.842	101.69
342.07	88.69
342.298	84.69
342.526	89.69
342.754	84.69
342.981	71.69
343.209	87.69
343.437	94.69
343.665	77.69
343.893	92.69
344.12	94.69
344.348	88.69
344.576	89.69
344.804	84.69
345.031	83.69
345.259	98.69
345.487	95.69
345.714	95.69
345.942	86.69
346.17	84.69
346.397	78.69
346.625	77.69
346.853	81.69
347.08	77.69
347.308	93.69
347.535	96.69
347.763	87.69
347.99	85.69
348.218	98.69
348.445	97.69
348.673	100.69
348.9	104.69
349.128	78.69
349.355	92.69
349.583	80.69
349.81	80.69
350.037	77.69
350.265	97.69
350.492	89.69
350.72	67.69
350.947	80.69
351.174	91.69
351.402	87.69
351.629	95.69
351.856	84.69
352.083	87.69
352.311	79.69
352.538	92.69
352.765	97.69
352.992	90.69
353.22	78.69
353.447	92.69
353.674	90.69
353.901	91.69
354.128	93.69
354.355	97.69
354.583	78.69
354.81	83.69
355.037	103.69
355.264	78.69
355.491	96.69
355.718	94.69
355.945	89.69
356.172	85.69
356.399	88.69
356.626	80.69
356.853	87.69
357.08	102.69
357.307	88.69
357.534	89.69
357.761	90.69
357.988	104.69
358.215	97.69
358.441	88.69
358.668	80.69
358.895	77.69
359.122	74.69
359.349	84.69
359.576	94.69
359.802	92.69
360.029	95.69
360.256	80.69
360.483	93.69
360.709	78.69
360.936	85.69
361.163	83.69
361.39	79.69
361.616	79.69
361.843	87.69
362.07	85.69
362.296	90.69
362.523	93.69
362.749	99.69
362.976	75.69
363.203	91.69
363.429	75.69
363.656	95.69
363.882	78.69
364.109	95.69
364.335	99.69
364.562	96.69
364.788	86.69
365.015	92.69
365.241	89.69
365.468	108.69
365.694	88.69
365.92	78.69
366.147	88.69
366.373	104.69
366.599	80.69
366.826	80.69
367.052	85.69
367.278	89.69
367.505	95.69
367.731	88.69
367.957	104.69
368.184	104.69
368.41	94.69
368.636	86.69
368.862	84.69
369.089	88.69
369.315	79.69
369.541	84.69
369.767	91.69
369.993	94.69
370.219	94.69
370.445	90.69
370.672	88.69
370.898	79.69
371.124	84.69
371.35	100.69
371.576	103.69
371.802	96.69
372.028	89.69
372.254	98.69
372.48	90.69
372.706	87.69
372.932	104.69
373.158	102.69
373.384	97.69
373.61	109.69
373.835	94.69
374.061	91.69
374.287	104.69
374.513	88.69
374.739	93.69
374.965	97.69
375.191	94.69
375.416	93.69
375.642	99.69
375.868	104.69
376.094	98.69
376.319	102.69
376.545	102.69
376.771	97.69
376.997	90.69
377.222	101.69
377.448	92.69
377.674	93.69
377.899	99.69
378.125	86.69
378.35	105.69
378.576	94.69
378.802	108.69
379.027	88.69
379.253	105.69
379.478	84.69
379.704	96.69
379.929	92.69
380.155	97.69
380.38	102.69
380.606	96.69
380.831	78.69
381.057	106.69
381.282	80.69
381.507	95.69
381.733	104.69
381.958	102.69
382.184	99.69
382.409	107.69
382.634	96.69
382.86	100.69
383.085	98.69
383.31	112.69
383.535	116.69
383.761	104.69
383.986	108.69
384.211	87.69
384.436	84.69
384.662	89.69
384.887	92.69
385.112	106.69
385.337	101.69
385.562	95.69
385.787	99.69
386.013	104.69
386.238	89.69
386.463	95.69
386.688	97.69
386.913	93.69
387.138	84.69
387.363	103.69
387.588	101.69
387.813	100.69
388.038	107.69
388.263	105.69
388.488	89.69
388.713	106.69
388.938	93.69
389.163	98.69
389.387	95.69
389.612	118.69
389.837	101.69
390.062	112.69
390.287	104.69
390.512	102.69
390.736	100.69
390.961	80.69
391.186	97.69
391.411	107.69
391.636	99.69
391.86	108.69
392.085	101.69
392.31	103.69
392.534	95.69
392.759	96.69
392.984	122.69
393.208	96.69
393.433	118.69
393.658	99.69
393.882	95.69
394.107	117.69
394.331	100.69
394.556	101.69
394.78	104.69
395.005	104.69
395.229	105.69
395.454	112.69
395.678	97.69
395.903	105.69
396.127	104.69
396.352	98.69
396.576	115.69
396.801	122.69
397.025	101.69
397.249	106.69
397.474	112.69
397.698	111.69
397.922	108.69
398.147	101.69
398.371	106.69
398.595	110.69
398.82	115.69
399.044	105.69
399.268	103.69
399.492	115.69
399.717	115.69
399.941	123.69
400.165	137.69
400.389	108.69
400.613	93.69
400.837	121.69
401.062	91.69
401.286	85.69
401.51	103.69
401.734	112.69
401.958	113.69
402.182	124.69
402.406	103.69
402.63	101.69
402.854	100.69
403.078	102.69
403.302	108.69
403.526	107.69
403.75	102.69
403.974	114.69
404.198	122.69
404.422	110.69
404.645	110.69
404.869	112.69
405.093	117.69
405.317	117.69
405.541	117.69
405.765	119.69
405.988	103.69
406.212	112.69
406.436	104.69
406.66	112.69
406.883	123.69
407.107	120.69
407.331	104.69
407.555	110.69
407.778	127.69
408.002	127.69
408.226	118.69
408.449	118.69
408.673	116.69
408.896	102.69
409.12	124.69
409.344	112.69
409.567	117.69
409.791	121.69
410.014	119.69
410.238	132.69
410.461	118.69
410.685	119.69
410.908	97.69
411.132	103.69
411.355	113.69
411.578	118.69
411.802	109.69
412.025	118.69
412.249	105.69
412.472	112.69
412.695	111.69
412.919	109.69
413.142	110.69
413.365	116.69
413.589	104.69
413.812	119.69
414.035	128.69
414.258	118.69
414.482	112.69
414.705	104.69
414.928	104.69
415.151	105.69
415.374	112.69
415.597	118.69
415.821	121.69
416.044	108.69
416.267	105.69
416.49	121.69
416.713	116.69
416.936	120.69
417.159	120.69
417.382	117.69
417.605	123.69
417.828	119.69
418.051	118.69
418.274	118.69
418.497	123.69
418.72	117.69
418.943	117.69
419.166	126.69
419.389	124.69
419.611	125.69
419.834	132.69
420.057	116.69
420.28	125.69
420.503	123.69
420.726	114.69
420.948	104.69
421.171	117.69
421.394	127.69
421.617	118.69
421.839	133.69
422.062	115.69
422.285	112.69
422.507	115.69
422.73	113.69
422.953	115.69
423.175	124.69
423.398	120.69
423.621	119.69
423.843	131.69
424.066	130.69
424.288	122.69
424.511	110.69
424.733	115.69
424.956	121.69
425.178	113.69
425.401	107.69
425.623	125.69
425.846	125.69
426.068	118.69
426.291	131.69
426.513	109.69
426.735	120.69
426.958	115.69
427.18	120.69
427.402	116.69
427.625	113.69
427.847	129.69
428.069	123.69
428.292	114.69
428.514	123.69
428.736	117.69
428.958	121.69
429.181	118.69
429.403	125.69
429.625	113.69
429.847	122.69
430.069	108.69
430.292	119.69
430.514	115.69
430.736	125.69
430.958	119.69
431.18	124.69
431.402	105.69
431.624	108.69
431.846	107.69
432.068	109.69
432.29	104.69
432.512	106.69
432.734	104.69
432.956	125.69
433.178	119.69
433.4	116.69
433.622	109.69
433.844	133.69
434.066	109.69
434.287	89.69
434.509	104.69
434.731	131.69
434.953	117.69
435.175	120.69
435.397	116.69
435.618	127.69
435.84	115.69
436.062	108.69
436.284	114.69
436.505	121.69
436.727	119.69
436.949	116.69
437.17	122.69
437.392	126.69
437.614	111.69
437.835	92.69
438.057	102.69
438.278	107.69
438.5	132.69
438.721	126.69
438.943	115.69
439.165	113.69
439.386	113.69
439.608	121.69
439.829	129.69
440.05	126.69
440.272	116.69
440.493	110.69
440.715	135.69
440.936	128.69
441.158	119.69
441.379	127.69
441.6	123.69
441.822	119.69
442.043	119.69
442.264	137.69
442.486	113.69
442.707	124.69
442.928	113.69
443.149	105.69
443.371	116.69
443.592	112.69
443.813	119.69
444.034	117.69
444.255	127.69
444.476	130.69
444.698	124.69
444.919	132.69
445.14	251.69
445.361	191.69
445.582	125.69
445.803	122.69
446.024	120.69
446.245	115.69
446.466	125.69
446.687	133.69
446.908	120.69
447.129	118.69
447.35	127.69
447.571	124.69
447.792	116.69
448.013	121.69
448.234	120.69
448.455	109.69
448.675	125.69
448.896	113.69
449.117	117.69
449.338	120.69
449.559	120.69
449.779	101.69
450	115.69
450.221	107.69
450.442	113.69
450.662	121.69
450.883	99.69
451.104	123.69
451.324	125.69
451.545	109.69
451.766	115.69
451.986	123.69
452.207	123.69
452.428	119.69
452.648	121.69
452.869	99.69
453.089	100.69
453.31	104.69
453.53	111.69
453.751	81.69
453.971	103.69
454.192	104.69
454.412	127.69
454.633	121.69
454.853	123.69
455.073	102.69
455.294	108.69
455.514	108.69
455.734	109.69
455.955	101.69
456.175	115.69
456.395	109.69
456.616	107.69
456.836	112.69
457.056	100.69
457.276	105.69
457.497	111.69
457.717	118.69
457.937	123.69
458.157	106.69
458.377	96.69
458.598	105.69
458.818	120.69
459.038	122.69
459.258	103.69
459.478	115.69
459.698	91.69
459.918	105.69
460.138	121.69
460.358	112.69
460.578	123.69
460.798	115.69
461.018	112.69
461.238	108.69
461.458	125.69
461.678	115.69
461.898	108.69
462.118	128.69
462.338	114.69
462.558	118.69
462.777	129.69
462.997	117.69
463.217	134.69
463.437	131.69
463.657	120.69
463.876	127.69
464.096	121.69
464.316	120.69
464.536	116.69
464.755	131.69
464.975	116.69
465.195	124.69
465.414	124.69
465.634	122.69
465.854	116.69
466.073	129.69
466.293	124.69
466.512	122.69
466.732	118.69
466.951	120.69
467.171	116.69
467.391	131.69
467.61	116.69
467.829	126.69
468.049	121.69
468.268	120.69
468.488	117.69
468.707	115.69
468.927	118.69
469.146	124.69
469.365	122.69
469.585	119.69
469.804	120.69
470.023	121.69
470.243	119.69
470.462	119.69
470.681	114.69
470.901	118.69
471.12	113.69
471.339	125.69
471.558	131.69
471.777	124.69
471.997	126.69
472.216	109.69
472.435	119.69
472.654	121.69
472.873	109.69
473.092	119.69
473.311	122.69
473.53	111.69
473.749	117.69
473.968	122.69
474.187	105.69
474.406	107.69
474.625	110.69
474.844	119.69
475.063	110.69
475.282	128.69
475.501	99.69
475.72	113.69
475.939	116.69
476.158	117.69
476.377	117.69
476.596	123.69
476.814	119.69
477.033	116.69
477.252	118.69
477.471	111.69
477.69	128.69
477.908	133.69
478.127	134.69
478.346	128.69
478.564	124.69
478.783	119.69
479.002	135.69
479.22	134.69
479.439	141.69
479.658	131.69
479.876	129.69
480.095	127.69
480.313	120.69
480.532	125.69
480.751	122.69
480.969	126.69
481.188	114.69
481.406	99.69
481.624	108.69
481.843	112.69
482.061	126.69
482.28	125.69
482.498	126.69
482.717	125.69
482.935	97.69
483.153	127.69
483.372	124.69
483.59	133.69
483.808	134.69
484.027	136.69
484.245	119.69
484.463	127.69
484.681	132.69
484.9	145.69
485.118	121.69
485.336	141.69
485.554	115.69
485.772	120.69
485.99	119.69
486.209	117.69
486.427	116.69
486.645	128.69
486.863	115.69
487.081	136.69
487.299	127.69
487.517	127.69
487.735	139.69
487.953	140.69
488.171	133.69
488.389	141.69
488.607	133.69
488.825	123.69
489.043	121.69
489.261	120.69
489.479	129.69
489.696	131.69
489.914	131.69
490.132	141.69
490.35	138.69
490.568	150.69
490.786	138.69
491.003	141.69
491.221	148.69
491.439	152.69
491.657	151.69
491.874	152.69
492.092	158.69
492.31	179.69
492.527	162.69
492.745	164.69
492.963	164.69
493.18	170.69
493.398	156.69
493.615	151.69
493.833	134.69
494.05	144.69
494.268	150.69
494.485	152.69
494.703	155.69
494.92	163.69
495.138	153.69
495.355	151.69
495.573	151.69
495.79	154.69
496.008	151.69
496.225	153.69
496.442	162.69
496.66	158.69
496.877	145.69
497.094	152.69
497.312	162.69
497.529	145.69
497.746	161.69
497.963	148.69
498.181	125.69
498.398	153.69
498.615	145.69
498.832	150.69
499.049	145.69
499.267	162.69
499.484	165.69
499.701	173.69
499.918	185.69
500.135	200.69
500.352	214.69
500.569	211.69
500.786	234.69
501.003	196.69
501.22	192.69
501.437	178.69
501.654	187.69
501.871	165.69
502.088	149.69
502.305	149.69
502.522	139.69
502.739	135.69
502.956	150.69
503.172	141.69
503.389	141.69
503.606	140.69
503.823	137.69
504.04	129.69
504.256	135.69
504.473	132.69
504.69	151.69
504.907	135.69
505.123	133.69
505.34	153.69
505.557	129.69
505.773	138.69
505.99	139.69
506.207	120.69
506.423	125.69
506.64	122.69
506.856	112.69
507.073	123.69
507.289	140.69
507.506	139.69
507.722	129.69
507.939	111.69
508.155	131.69
508.372	125.69
508.588	121.69
508.805	117.69
509.021	125.69
509.238	127.69
509.454	134.69
509.67	120.69
509.887	121.69
510.103	115.69
510.319	118.69
510.536	124.69
510.752	116.69
510.968	108.69
511.184	122.69
511.401	125.69
511.617	134.69
511.833	110.69
512.049	116.69
512.265	113.69
512.481	137.69
512.698	107.69
512.914	121.69
513.13	125.69
513.346	112.69
513.562	123.69
513.778	119.69
513.994	119.69
514.21	129.69
514.426	106.69
514.642	123.69
514.858	122.69
515.074	122.69
515.29	101.69
515.506	108.69
515.721	127.69
515.937	128.69
516.153	129.69
516.369	128.69
516.585	108.69
516.801	127.69
517.016	131.69
517.232	129.69
517.448	133.69
517.664	123.69
517.879	128.69
518.095	135.69
518.311	134.69
518.527	128.69
518.742	135.69
518.958	141.69
519.173	129.69
519.389	131.69
519.605	119.69
519.82	125.69
520.036	113.69
520.251	118.69
520.467	123.69
520.682	117.69
520.898	123.69
521.113	120.69
521.329	118.69
521.544	127.69
521.76	117.69
521.975	127.69
522.19	112.69
522.406	112.69
522.621	117.69
522.836	119.69
523.052	129.69
523.267	124.69
523.482	123.69
523.698	112.69
523.913	125.69
524.128	115.69
524.343	134.69
524.559	140.69
524.774	120.69
524.989	141.69
525.204	138.69
525.419	121.69
525.634	109.69
525.849	119.69
526.064	124.69
526.28	128.69
526.495	119.69
526.71	104.69
526.925	100.69
527.14	113.69
527.355	117.69
527.57	119.69
527.785	121.69
527.999	128.69
528.214	118.69
528.429	130.69
528.644	113.69
528.859	130.69
529.074	127.69
529.289	138.69
529.503	129.69
529.718	135.69
529.933	124.69
530.148	125.69
530.363	115.69
530.577	113.69
530.792	107.69
531.007	89.69
531.221	119.69
531.436	112.69
531.651	125.69
531.865	118.69
532.08	117.69
532.295	111.69
532.509	115.69
532.724	119.69
532.938	112.69
533.153	106.69
533.367	112.69
533.582	134.69
533.796	117.69
534.011	119.69
534.225	104.69
534.44	118.69
534.654	112.69
534.868	106.69
535.083	115.69
535.297	99.69
535.511	104.69
535.726	103.69
535.94	115.69
536.154	113.69
536.369	116.69
536.583	120.69
536.797	118.69
537.011	110.69
537.225	104.69
537.44	125.69
537.654	131.69
537.868	120.69
538.082	104.69
538.296	113.69
538.51	115.69
538.724	113.69
538.938	109.69
539.153	125.69
539.367	121.69
539.581	120.69
539.795	122.69
540.009	112.69
540.222	127.69
540.436	117.69
540.65	123.69
540.864	135.69
541.078	126.69
541.292	115.69
541.506	144.69
541.72	143.69
541.934	128.69
542.147	128.69
542.361	141.69
542.575	130.69
542.789	127.69
543.002	114.69
543.216	132.69
543.43	107.69
543.644	127.69
543.857	128.69
544.071	149.69
544.285	139.69
544.498	128.69
544.712	133.69
544.925	128.69
545.139	138.69
545.352	147.69
545.566	131.69
545.779	131.69
545.993	134.69
546.206	150.69
546.42	145.69
546.633	121.69
546.847	142.69
547.06	150.69
547.274	119.69
547.487	151.69
547.7	131.69
547.914	152.69
548.127	139.69
548.34	124.69
548.554	140.69
548.767	139.69
548.98	132.69
549.193	127.69
549.407	145.69
549.62	138.69
549.833	134.69
550.046	137.69
550.259	137.69
550.473	146.69
550.686	116.69
550.899	132.69
551.112	136.69
551.325	134.69
551.538	131.69
551.751	118.69
551.964	110.69
552.177	115.69
552.39	127.69
552.603	135.69
552.816	146.69
553.029	137.69
553.242	138.69
553.455	115.69
553.667	130.69
553.88	134.69
554.093	141.69
554.306	134.69
554.519	128.69
554.732	115.69
554.944	125.69
555.157	125.69
555.37	132.69
555.583	112.69
555.795	113.69
556.008	119.69
556.221	125.69
556.433	120.69
556.646	132.69
556.859	125.69
557.071	116.69
557.284	116.69
557.496	117.69
557.709	130.69
557.921	127.69
558.134	122.69
558.346	126.69
558.559	116.69
558.771	118.69
558.984	126.69
559.196	126.69
559.409	128.69
559.621	122.69
559.833	129.69
560.046	127.69
560.258	121.69
560.47	121.69
560.683	126.69
560.895	104.69
561.107	111.69
561.32	116.69
561.532	121.69
561.744	111.69
561.956	115.69
562.168	117.69
562.381	112.69
562.593	112.69
562.805	123.69
563.017	104.69
563.229	117.69
563.441	108.69
563.653	113.69
563.865	122.69
564.077	108.69
564.289	109.69
564.501	105.69
564.713	122.69
564.925	108.69
565.137	114.69
565.349	110.69
565.561	123.69
565.773	117.69
565.985	112.69
566.197	119.69
566.408	122.69
566.62	113.69
566.832	126.69
567.044	111.69
567.255	110.69
567.467	119.69
567.679	126.69
567.891	141.69
568.102	137.69
568.314	120.69
568.526	125.69
568.737	113.69
568.949	123.69
569.161	118.69
569.372	99.69
569.584	96.69
569.795	104.69
570.007	116.69
570.218	107.69
570.43	97.69
570.641	111.69
570.853	109.69
571.064	103.69
571.276	112.69
571.487	105.69
571.698	114.69
571.91	113.69
572.121	104.69
572.333	107.69
572.544	99.69
572.755	116.69
572.966	111.69
573.178	117.69
573.389	89.69
573.6	105.69
573.811	107.69
574.023	101.69
574.234	86.69
574.445	102.69
574.656	91.69
574.867	104.69
575.078	99.69
575.289	108.69
575.501	100.69
575.712	103.69
575.923	99.69
576.134	102.69
576.345	105.69
576.556	94.69
576.767	104.69
576.978	89.69
577.188	108.69
577.399	107.69
577.61	94.69
577.821	97.69
578.032	108.69
578.243	105.69
578.454	111.69
578.665	119.69
578.875	104.69
579.086	85.69
579.297	91.69
579.508	104.69
579.718	114.69
579.929	94.69
580.14	103.69
580.35	105.69
580.561	110.69
580.772	93.69
580.982	111.69
581.193	100.69
581.403	105.69
581.614	100.69
581.825	105.69
582.035	95.69
582.246	104.69
582.456	105.69
582.667	104.69
582.877	107.69
583.087	96.69
583.298	100.69
583.508	100.69
583.719	84.69
583.929	92.69
584.139	104.69
584.35	95.69
584.56	89.69
584.77	101.69
584.981	112.69
585.191	98.69
585.401	113.69
585.611	91.69
585.821	91.69
586.032	86.69
586.242	84.69
586.452	99.69
586.662	101.69
586.872	95.69
587.082	107.69
587.292	94.69
587.502	101.69
587.713	90.69
587.923	95.69
588.133	102.69
588.343	109.69
588.553	103.69
588.762	92.69
588.972	95.69
589.182	113.69
589.392	115.69
589.602	84.69
589.812	91.69
590.022	99.69
590.232	118.69
590.441	89.69
590.651	103.69
590.861	101.69
591.071	105.69
591.281	99.69
591.49	75.69
591.7	110.69
591.91	104.69
592.119	96.69
592.329	105.69
592.539	98.69
592.748	107.69
592.958	89.69
593.167	104.69
593.377	102.69
593.587	110.69
593.796	99.69
594.006	101.69
594.215	103.69
594.424	99.69
594.634	113.69
594.843	111.69
595.053	96.69
595.262	111.69
595.472	103.69
595.681	94.69
595.89	100.69
596.1	108.69
596.309	110.69
596.518	114.69
596.727	101.69
596.937	108.69
597.146	108.69
597.355	100.69
597.564	83.69
597.774	104.69
597.983	112.69
598.192	85.69
598.401	85.69
598.61	101.69
598.819	108.69
599.028	100.69
599.237	87.69
599.446	85.69
599.655	94.69
599.864	102.69
600.073	105.69
600.282	94.69
600.491	88.69
600.7	100.69
600.909	101.69
601.118	106.69
601.327	112.69
601.536	102.69
601.745	92.69
601.953	92.69
602.162	92.69
602.371	84.69
602.58	100.69
602.789	108.69
602.997	94.69
603.206	103.69
603.415	104.69
603.623	93.69
603.832	97.69
604.041	103.69
604.249	112.69
604.458	95.69
604.666	97.69
604.875	89.69
605.084	103.69
605.292	94.69
605.501	85.69
605.709	99.69
605.918	89.69
606.126	97.69
606.334	95.69
606.543	103.69
606.751	96.69
606.96	91.69
607.168	103.69
607.376	94.69
607.585	97.69
607.793	103.69
608.001	100.69
608.21	101.69
608.418	105.69
608.626	104.69
608.834	122.69
609.043	109.69
609.251	104.69
609.459	97.69
609.667	112.69
609.875	78.69
610.083	97.69
610.291	99.69
610.499	108.69
610.707	96.69
610.916	89.69
611.124	80.69
611.332	88.69
611.54	107.69
611.748	99.69
611.955	102.69
612.163	99.69
612.371	101.69
612.579	107.69
612.787	102.69
612.995	99.69
613.203	96.69
613.411	92.69
613.618	97.69
613.826	96.69
614.034	96.69
614.242	93.69
614.449	89.69
614.657	86.69
614.865	85.69
615.072	96.69
615.28	82.69
615.488	110.69
615.695	94.69
615.903	101.69
616.111	81.69
616.318	113.69
616.526	105.69
616.733	103.69
616.941	101.69
617.148	104.69
617.356	121.69
617.563	102.69
617.771	102.69
617.978	89.69
618.185	97.69
618.393	80.69
618.6	100.69
618.807	101.69
619.015	100.69
619.222	84.69
619.429	93.69
619.637	107.69
619.844	107.69
620.051	105.69
620.258	83.69
620.466	108.69
620.673	101.69
620.88	97.69
621.087	98.69
621.294	106.69
621.501	87.69
621.708	95.69
621.915	93.69
622.122	92.69
622.329	90.69
622.536	100.69
622.743	104.69
622.95	98.69
623.157	92.69
623.364	81.69
623.571	89.69
623.778	99.69
623.985	92.69
624.192	93.69
624.399	102.69
624.606	93.69
624.812	91.69
625.019	82.69
625.226	101.69
625.433	86.69
625.639	92.69
625.846	86.69
626.053	84.69
626.259	90.69
626.466	100.69
626.673	84.69
626.879	95.69
627.086	95.69
627.293	98.69
627.499	87.69
627.706	99.69
627.912	101.69
628.119	107.69
628.325	90.69
628.532	92.69
628.738	84.69
628.945	108.69
629.151	97.69
629.357	84.69
629.564	99.69
629.77	97.69
629.976	85.69
630.183	91.69
630.389	96.69
630.595	110.69
630.802	88.69
631.008	98.69
631.214	92.69
631.42	92.69
631.627	89.69
631.833	83.69
632.039	97.69
632.245	90.69
632.451	103.69
632.657	104.69
632.863	99.69
633.069	93.69
633.275	88.69
633.481	75.69
633.688	91.69
633.893	112.69
634.099	100.69
634.305	97.69
634.511	96.69
634.717	82.69
634.923	94.69
635.129	89.69
635.335	83.69
635.541	91.69
635.747	94.69
635.952	105.69
636.158	99.69
636.364	104.69
636.57	90.69
636.775	103.69
636.981	92.69
637.187	96.69
637.392	102.69
637.598	92.69
637.804	103.69
638.009	84.69
638.215	99.69
638.421	84.69
638.626	99.69
638.832	79.69
639.037	102.69
639.243	74.69
639.448	85.69
639.654	99.69
639.859	104.69
640.065	93.69
640.27	93.69
640.475	95.69
640.681	89.69
640.886	100.69
641.091	106.69
641.297	116.69
641.502	103.69
641.707	100.69
641.913	87.69
642.118	90.69
642.323	103.69
642.528	92.69
642.733	93.69
642.939	90.69
643.144	113.69
643.349	94.69
643.554	97.69
643.759	93.69
643.964	93.69
644.169	102.69
644.374	88.69
644.579	99.69
644.784	104.69
644.989	105.69
645.194	91.69
645.399	106.69
645.604	89.69
645.809	87.69
646.014	99.69
646.219	92.69
646.423	96.69
646.628	91.69
646.833	103.69
647.038	95.69
647.243	81.69
647.447	103.69
647.652	95.69
647.857	92.69
648.062	88.69
648.266	93.69
648.471	81.69
648.676	95.69
648.88	99.69
649.085	88.69
649.289	89.69
649.494	91.69
649.698	89.69
649.903	102.69
650.107	91.69
650.312	93.69
650.516	87.69
650.721	96.69
650.925	90.69
651.13	94.69
651.334	78.69
651.539	90.69
651.743	83.69
651.947	84.69
652.152	92.69
652.356	96.69
652.56	85.69
652.764	83.69
652.969	89.69
653.173	92.69
653.377	93.69
653.581	77.69
653.785	91.69
653.99	104.69
654.194	93.69
654.398	92.69
654.602	106.69
654.806	100.69
655.01	76.69
655.214	81.69
655.418	90.69
655.622	82.69
655.826	103.69
656.03	102.69
656.234	96.69
656.438	87.69
656.642	99.69
656.846	75.69
657.049	77.69
657.253	97.69
657.457	92.69
657.661	86.69
657.865	94.69
658.068	89.69
658.272	93.69
658.476	90.69
658.68	93.69
658.883	103.69
659.087	87.69
659.291	96.69
659.494	83.69
659.698	82.69
659.901	87.69
660.105	80.69
660.309	77.69
660.512	83.69
660.716	68.69
660.919	88.69
661.123	87.69
661.326	110.69
661.53	78.69
661.733	79.69
661.936	68.69
662.14	87.69
662.343	92.69
662.546	78.69
662.75	88.69
662.953	80.69
663.156	84.69
663.36	101.69
663.563	99.69
663.766	78.69
663.969	94.69
664.173	78.69
664.376	78.69
664.579	81.69
664.782	103.69
664.985	83.69
665.188	97.69
665.391	100.69
665.594	72.69
665.797	79.69
666	87.69
666.203	84.69
666.406	97.69
666.609	83.69
666.812	81.69
667.015	91.69
667.218	86.69
667.421	87.69
667.624	80.69
667.827	100.69
668.03	83.69
668.232	95.69
668.435	92.69
668.638	78.69
668.841	84.69
669.043	89.69
669.246	64.69
669.449	86.69
669.651	89.69
669.854	89.69
670.057	80.69
670.259	94.69
670.462	76.69
670.665	85.69
670.867	95.69
671.07	86.69
671.272	101.69
671.475	108.69
671.677	94.69
671.88	98.69
672.082	86.69
672.284	99.69
672.487	96.69
672.689	89.69
672.892	97.69
