Data from StandardFe(NO3)3.TAE.3%Agarose.FlatLispGreen.Lamp.Energy10.07252019_HRD10591_11-54-45-441.txt Node
Date: Thu Jul 25 11:54:45 EDT 2019
User: cochatt
Spectrometer: HR+D1059
Trigger mode: 1
Integration Time (sec): 1.000000E-1
Scans to average: 1
Electric dark correction enabled: true
Nonlinearity correction enabled: false
Boxcar width: 0
XAxis mode: Wavelengths
Number of Pixels in Spectrum: 2048
>>>>>Begin Spectral Data<<<<<
223.165	-8.12
223.4	-8.12
223.635	-8.12
223.869	-18.12
224.104	-7.12
224.338	-13.12
224.573	-12.12
224.808	-15.12
225.042	-12.12
225.277	-3.12
225.511	-2.12
225.746	-0.12
225.98	0.88
226.215	14.88
226.449	11.88
226.683	16.88
226.918	21.88
227.152	24.88
227.387	45.88
227.621	46.88
227.856	45.88
228.09	55.88
228.324	60.88
228.559	68.88
228.793	60.88
229.027	60.88
229.262	69.88
229.496	65.88
229.73	74.88
229.964	73.88
230.199	84.88
230.433	82.88
230.667	83.88
230.901	74.88
231.136	80.88
231.37	90.88
231.604	72.88
231.838	83.88
232.072	95.88
232.306	74.88
232.541	85.88
232.775	80.88
233.009	83.88
233.243	78.88
233.477	77.88
233.711	78.88
233.945	74.88
234.179	85.88
234.413	78.88
234.647	92.88
234.881	74.88
235.115	90.88
235.349	69.88
235.583	67.88
235.817	79.88
236.051	79.88
236.285	84.88
236.519	85.88
236.753	83.88
236.987	99.88
237.221	80.88
237.455	83.88
237.689	90.88
237.922	68.88
238.156	69.88
238.39	70.88
238.624	72.88
238.858	87.88
239.091	81.88
239.325	76.88
239.559	76.88
239.793	72.88
240.027	64.88
240.26	63.88
240.494	82.88
240.728	75.88
240.961	68.88
241.195	89.88
241.429	72.88
241.662	78.88
241.896	80.88
242.13	76.88
242.363	68.88
242.597	70.88
242.83	87.88
243.064	78.88
243.298	84.88
243.531	83.88
243.765	84.88
243.998	71.88
244.232	76.88
244.465	69.88
244.699	83.88
244.932	70.88
245.166	81.88
245.399	64.88
245.633	84.88
245.866	86.88
246.099	73.88
246.333	78.88
246.566	81.88
246.8	78.88
247.033	75.88
247.266	85.88
247.5	73.88
247.733	84.88
247.966	84.88
248.2	86.88
248.433	81.88
248.666	74.88
248.899	79.88
249.133	84.88
249.366	84.88
249.599	96.88
249.832	86.88
250.066	84.88
250.299	82.88
250.532	82.88
250.765	71.88
250.998	75.88
251.231	72.88
251.465	93.88
251.698	72.88
251.931	79.88
252.164	90.88
252.397	73.88
252.63	82.88
252.863	71.88
253.096	75.88
253.329	76.88
253.562	90.88
253.795	76.88
254.028	84.88
254.261	80.88
254.494	92.88
254.727	86.88
254.96	76.88
255.193	88.88
255.426	78.88
255.659	90.88
255.892	80.88
256.124	96.88
256.357	72.88
256.59	98.88
256.823	75.88
257.056	70.88
257.289	64.88
257.521	86.88
257.754	71.88
257.987	73.88
258.22	75.88
258.452	69.88
258.685	87.88
258.918	76.88
259.151	78.88
259.383	85.88
259.616	84.88
259.849	88.88
260.081	83.88
260.314	86.88
260.547	91.88
260.779	87.88
261.012	74.88
261.244	84.88
261.477	75.88
261.71	84.88
261.942	75.88
262.175	80.88
262.407	79.88
262.64	85.88
262.872	87.88
263.105	84.88
263.337	72.88
263.57	77.88
263.802	88.88
264.035	90.88
264.267	85.88
264.499	84.88
264.732	101.88
264.964	92.88
265.197	85.88
265.429	77.88
265.661	85.88
265.894	74.88
266.126	86.88
266.358	81.88
266.591	79.88
266.823	80.88
267.055	75.88
267.287	86.88
267.52	89.88
267.752	67.88
267.984	88.88
268.216	98.88
268.448	79.88
268.681	78.88
268.913	74.88
269.145	68.88
269.377	78.88
269.609	79.88
269.841	75.88
270.073	83.88
270.306	87.88
270.538	84.88
270.77	83.88
271.002	72.88
271.234	98.88
271.466	87.88
271.698	95.88
271.93	92.88
272.162	77.88
272.394	92.88
272.626	102.88
272.858	87.88
273.09	86.88
273.322	77.88
273.553	96.88
273.785	84.88
274.017	84.88
274.249	87.88
274.481	88.88
274.713	78.88
274.945	85.88
275.176	85.88
275.408	83.88
275.64	94.88
275.872	87.88
276.104	62.88
276.335	94.88
276.567	81.88
276.799	89.88
277.031	87.88
277.262	93.88
277.494	84.88
277.726	80.88
277.957	77.88
278.189	82.88
278.421	97.88
278.652	78.88
278.884	90.88
279.115	89.88
279.347	89.88
279.579	91.88
279.81	84.88
280.042	85.88
280.273	77.88
280.505	68.88
280.736	94.88
280.968	85.88
281.199	83.88
281.431	74.88
281.662	74.88
281.894	83.88
282.125	81.88
282.356	71.88
282.588	89.88
282.819	93.88
283.051	89.88
283.282	100.88
283.513	90.88
283.745	92.88
283.976	96.88
284.207	95.88
284.439	84.88
284.67	70.88
284.901	83.88
285.132	92.88
285.364	93.88
285.595	84.88
285.826	83.88
286.057	87.88
286.288	75.88
286.52	84.88
286.751	87.88
286.982	91.88
287.213	74.88
287.444	84.88
287.675	96.88
287.906	87.88
288.138	85.88
288.369	98.88
288.6	91.88
288.831	90.88
289.062	92.88
289.293	93.88
289.524	73.88
289.755	88.88
289.986	73.88
290.217	69.88
290.448	77.88
290.679	91.88
290.91	84.88
291.141	94.88
291.371	86.88
291.602	87.88
291.833	92.88
292.064	74.88
292.295	97.88
292.526	77.88
292.757	90.88
292.987	91.88
293.218	91.88
293.449	84.88
293.68	86.88
293.91	96.88
294.141	96.88
294.372	91.88
294.603	91.88
294.833	83.88
295.064	86.88
295.295	89.88
295.525	82.88
295.756	75.88
295.987	78.88
296.217	79.88
296.448	80.88
296.679	98.88
296.909	92.88
297.14	79.88
297.37	87.88
297.601	73.88
297.831	92.88
298.062	98.88
298.292	80.88
298.523	82.88
298.753	88.88
298.984	77.88
299.214	85.88
299.445	88.88
299.675	88.88
299.905	73.88
300.136	91.88
300.366	89.88
300.597	102.88
300.827	97.88
301.057	74.88
301.288	86.88
301.518	89.88
301.748	73.88
301.979	73.88
302.209	88.88
302.439	85.88
302.669	86.88
302.9	75.88
303.13	84.88
303.36	94.88
303.59	83.88
303.82	99.88
304.051	81.88
304.281	76.88
304.511	84.88
304.741	74.88
304.971	73.88
305.201	83.88
305.431	83.88
305.661	84.88
305.891	84.88
306.121	94.88
306.352	88.88
306.582	88.88
306.812	80.88
307.042	89.88
307.272	84.88
307.502	85.88
307.731	84.88
307.961	104.88
308.191	91.88
308.421	96.88
308.651	99.88
308.881	87.88
309.111	99.88
309.341	76.88
309.571	92.88
309.8	92.88
310.03	81.88
310.26	79.88
310.49	85.88
310.72	81.88
310.949	77.88
311.179	73.88
311.409	79.88
311.639	81.88
311.868	82.88
312.098	77.88
312.328	82.88
312.557	79.88
312.787	76.88
313.017	84.88
313.246	93.88
313.476	95.88
313.706	78.88
313.935	64.88
314.165	88.88
314.394	86.88
314.624	85.88
314.853	89.88
315.083	78.88
315.312	89.88
315.542	99.88
315.771	102.88
316.001	98.88
316.23	84.88
316.46	100.88
316.689	77.88
316.919	94.88
317.148	81.88
317.377	90.88
317.607	93.88
317.836	88.88
318.065	90.88
318.295	87.88
318.524	101.88
318.753	87.88
318.983	92.88
319.212	78.88
319.441	84.88
319.67	93.88
319.9	85.88
320.129	79.88
320.358	80.88
320.587	80.88
320.816	84.88
321.046	69.88
321.275	91.88
321.504	96.88
321.733	81.88
321.962	73.88
322.191	80.88
322.42	99.88
322.649	86.88
322.878	104.88
323.108	85.88
323.337	83.88
323.566	94.88
323.795	100.88
324.024	83.88
324.253	76.88
324.482	75.88
324.71	94.88
324.939	88.88
325.168	85.88
325.397	88.88
325.626	83.88
325.855	89.88
326.084	92.88
326.313	89.88
326.542	97.88
326.77	81.88
326.999	80.88
327.228	86.88
327.457	108.88
327.686	83.88
327.914	90.88
328.143	69.88
328.372	89.88
328.6	86.88
328.829	69.88
329.058	96.88
329.287	82.88
329.515	89.88
329.744	89.88
329.972	90.88
330.201	93.88
330.43	63.88
330.658	86.88
330.887	76.88
331.115	79.88
331.344	91.88
331.572	81.88
331.801	78.88
332.03	83.88
332.258	81.88
332.486	84.88
332.715	85.88
332.943	84.88
333.172	89.88
333.4	87.88
333.629	88.88
333.857	78.88
334.085	87.88
334.314	81.88
334.542	70.88
334.771	80.88
334.999	86.88
335.227	81.88
335.455	85.88
335.684	91.88
335.912	79.88
336.14	86.88
336.369	97.88
336.597	83.88
336.825	100.88
337.053	77.88
337.281	76.88
337.51	87.88
337.738	84.88
337.966	94.88
338.194	86.88
338.422	89.88
338.65	80.88
338.878	92.88
339.106	76.88
339.334	85.88
339.562	80.88
339.79	90.88
340.018	81.88
340.246	91.88
340.474	93.88
340.702	93.88
340.93	82.88
341.158	100.88
341.386	90.88
341.614	88.88
341.842	93.88
342.07	86.88
342.298	76.88
342.526	83.88
342.754	79.88
342.981	87.88
343.209	90.88
343.437	95.88
343.665	99.88
343.893	85.88
344.12	96.88
344.348	76.88
344.576	94.88
344.804	90.88
345.031	76.88
345.259	91.88
345.487	99.88
345.714	83.88
345.942	87.88
346.17	82.88
346.397	101.88
346.625	82.88
346.853	86.88
347.08	89.88
347.308	91.88
347.535	95.88
347.763	88.88
347.99	86.88
348.218	87.88
348.445	82.88
348.673	85.88
348.9	89.88
349.128	100.88
349.355	71.88
349.583	91.88
349.81	84.88
350.037	88.88
350.265	92.88
350.492	77.88
350.72	80.88
350.947	85.88
351.174	88.88
351.402	79.88
351.629	87.88
351.856	84.88
352.083	81.88
352.311	86.88
352.538	92.88
352.765	82.88
352.992	92.88
353.22	87.88
353.447	91.88
353.674	89.88
353.901	89.88
354.128	76.88
354.355	101.88
354.583	77.88
354.81	86.88
355.037	77.88
355.264	82.88
355.491	73.88
355.718	86.88
355.945	84.88
356.172	92.88
356.399	81.88
356.626	88.88
356.853	96.88
357.08	78.88
357.307	82.88
357.534	89.88
357.761	85.88
357.988	92.88
358.215	82.88
358.441	100.88
358.668	87.88
358.895	81.88
359.122	81.88
359.349	88.88
359.576	88.88
359.802	92.88
360.029	99.88
360.256	98.88
360.483	92.88
360.709	78.88
360.936	93.88
361.163	89.88
361.39	75.88
361.616	85.88
361.843	109.88
362.07	77.88
362.296	96.88
362.523	89.88
362.749	85.88
362.976	89.88
363.203	104.88
363.429	91.88
363.656	82.88
363.882	89.88
364.109	92.88
364.335	95.88
364.562	83.88
364.788	89.88
365.015	72.88
365.241	83.88
365.468	94.88
365.694	98.88
365.92	100.88
366.147	85.88
366.373	77.88
366.599	90.88
366.826	85.88
367.052	88.88
367.278	85.88
367.505	98.88
367.731	78.88
367.957	88.88
368.184	86.88
368.41	68.88
368.636	88.88
368.862	77.88
369.089	88.88
369.315	87.88
369.541	88.88
369.767	88.88
369.993	91.88
370.219	91.88
370.445	93.88
370.672	99.88
370.898	84.88
371.124	87.88
371.35	89.88
371.576	86.88
371.802	92.88
372.028	81.88
372.254	100.88
372.48	105.88
372.706	98.88
372.932	70.88
373.158	83.88
373.384	88.88
373.61	93.88
373.835	86.88
374.061	84.88
374.287	91.88
374.513	92.88
374.739	101.88
374.965	84.88
375.191	82.88
375.416	89.88
375.642	86.88
375.868	91.88
376.094	101.88
376.319	81.88
376.545	88.88
376.771	91.88
376.997	94.88
377.222	103.88
377.448	93.88
377.674	91.88
377.899	98.88
378.125	85.88
378.35	101.88
378.576	107.88
378.802	96.88
379.027	101.88
379.253	99.88
379.478	91.88
379.704	89.88
379.929	97.88
380.155	82.88
380.38	90.88
380.606	98.88
380.831	104.88
381.057	97.88
381.282	98.88
381.507	92.88
381.733	96.88
381.958	116.88
382.184	93.88
382.409	91.88
382.634	96.88
382.86	92.88
383.085	78.88
383.31	102.88
383.535	90.88
383.761	86.88
383.986	96.88
384.211	98.88
384.436	100.88
384.662	93.88
384.887	98.88
385.112	99.88
385.337	96.88
385.562	104.88
385.787	96.88
386.013	109.88
386.238	85.88
386.463	97.88
386.688	92.88
386.913	94.88
387.138	106.88
387.363	97.88
387.588	94.88
387.813	91.88
388.038	99.88
388.263	98.88
388.488	100.88
388.713	105.88
388.938	106.88
389.163	89.88
389.387	96.88
389.612	82.88
389.837	104.88
390.062	99.88
390.287	91.88
390.512	109.88
390.736	93.88
390.961	95.88
391.186	91.88
391.411	107.88
391.636	93.88
391.86	112.88
392.085	98.88
392.31	97.88
392.534	84.88
392.759	85.88
392.984	84.88
393.208	94.88
393.433	91.88
393.658	107.88
393.882	92.88
394.107	107.88
394.331	99.88
394.556	87.88
394.78	90.88
395.005	108.88
395.229	89.88
395.454	106.88
395.678	103.88
395.903	119.88
396.127	99.88
396.352	92.88
396.576	105.88
396.801	78.88
397.025	91.88
397.249	116.88
397.474	106.88
397.698	109.88
397.922	104.88
398.147	110.88
398.371	113.88
398.595	98.88
398.82	76.88
399.044	116.88
399.268	102.88
399.492	116.88
399.717	108.88
399.941	115.88
400.165	110.88
400.389	109.88
400.613	113.88
400.837	94.88
401.062	114.88
401.286	118.88
401.51	113.88
401.734	101.88
401.958	99.88
402.182	107.88
402.406	118.88
402.63	98.88
402.854	112.88
403.078	116.88
403.302	112.88
403.526	122.88
403.75	110.88
403.974	102.88
404.198	102.88
404.422	112.88
404.645	103.88
404.869	108.88
405.093	93.88
405.317	122.88
405.541	101.88
405.765	101.88
405.988	134.88
406.212	107.88
406.436	92.88
406.66	117.88
406.883	114.88
407.107	112.88
407.331	123.88
407.555	120.88
407.778	105.88
408.002	112.88
408.226	121.88
408.449	104.88
408.673	107.88
408.896	103.88
409.12	119.88
409.344	113.88
409.567	113.88
409.791	121.88
410.014	107.88
410.238	118.88
410.461	124.88
410.685	111.88
410.908	119.88
411.132	100.88
411.355	104.88
411.578	115.88
411.802	101.88
412.025	100.88
412.249	100.88
412.472	119.88
412.695	114.88
412.919	113.88
413.142	105.88
413.365	114.88
413.589	108.88
413.812	96.88
414.035	107.88
414.258	115.88
414.482	108.88
414.705	114.88
414.928	103.88
415.151	103.88
415.374	125.88
415.597	117.88
415.821	114.88
416.044	128.88
416.267	113.88
416.49	102.88
416.713	113.88
416.936	110.88
417.159	112.88
417.382	107.88
417.605	114.88
417.828	121.88
418.051	108.88
418.274	130.88
418.497	103.88
418.72	103.88
418.943	125.88
419.166	120.88
419.389	120.88
419.611	126.88
419.834	115.88
420.057	121.88
420.28	120.88
420.503	116.88
420.726	92.88
420.948	118.88
421.171	128.88
421.394	106.88
421.617	115.88
421.839	114.88
422.062	113.88
422.285	117.88
422.507	125.88
422.73	118.88
422.953	112.88
423.175	114.88
423.398	127.88
423.621	122.88
423.843	109.88
424.066	118.88
424.288	127.88
424.511	115.88
424.733	127.88
424.956	105.88
425.178	116.88
425.401	120.88
425.623	114.88
425.846	113.88
426.068	104.88
426.291	115.88
426.513	109.88
426.735	105.88
426.958	125.88
427.18	120.88
427.402	118.88
427.625	121.88
427.847	122.88
428.069	120.88
428.292	120.88
428.514	109.88
428.736	105.88
428.958	109.88
429.181	104.88
429.403	111.88
429.625	114.88
429.847	118.88
430.069	97.88
430.292	120.88
430.514	112.88
430.736	115.88
430.958	118.88
431.18	119.88
431.402	115.88
431.624	110.88
431.846	116.88
432.068	102.88
432.29	116.88
432.512	105.88
432.734	117.88
432.956	120.88
433.178	112.88
433.4	117.88
433.622	122.88
433.844	116.88
434.066	126.88
434.287	99.88
434.509	111.88
434.731	126.88
434.953	107.88
435.175	120.88
435.397	113.88
435.618	125.88
435.84	102.88
436.062	101.88
436.284	123.88
436.505	121.88
436.727	124.88
436.949	119.88
437.17	137.88
437.392	117.88
437.614	108.88
437.835	115.88
438.057	119.88
438.278	105.88
438.5	124.88
438.721	111.88
438.943	118.88
439.165	115.88
439.386	106.88
439.608	128.88
439.829	124.88
440.05	126.88
440.272	119.88
440.493	114.88
440.715	98.88
440.936	114.88
441.158	130.88
441.379	138.88
441.6	136.88
441.822	129.88
442.043	125.88
442.264	132.88
442.486	103.88
442.707	116.88
442.928	114.88
443.149	128.88
443.371	122.88
443.592	133.88
443.813	123.88
444.034	125.88
444.255	126.88
444.476	114.88
444.698	146.88
444.919	150.88
445.14	265.88
445.361	178.88
445.582	124.88
445.803	109.88
446.024	134.88
446.245	116.88
446.466	114.88
446.687	117.88
446.908	125.88
447.129	134.88
447.35	102.88
447.571	122.88
447.792	122.88
448.013	114.88
448.234	104.88
448.455	118.88
448.675	124.88
448.896	110.88
449.117	113.88
449.338	98.88
449.559	125.88
449.779	97.88
450	113.88
450.221	122.88
450.442	107.88
450.662	118.88
450.883	116.88
451.104	100.88
451.324	98.88
451.545	115.88
451.766	116.88
451.986	103.88
452.207	115.88
452.428	123.88
452.648	106.88
452.869	105.88
453.089	127.88
453.31	114.88
453.53	102.88
453.751	109.88
453.971	117.88
454.192	94.88
454.412	112.88
454.633	114.88
454.853	98.88
455.073	98.88
455.294	110.88
455.514	104.88
455.734	120.88
455.955	105.88
456.175	101.88
456.395	107.88
456.616	120.88
456.836	116.88
457.056	114.88
457.276	107.88
457.497	101.88
457.717	101.88
457.937	97.88
458.157	105.88
458.377	102.88
458.598	114.88
458.818	101.88
459.038	106.88
459.258	100.88
459.478	112.88
459.698	108.88
459.918	117.88
460.138	104.88
460.358	132.88
460.578	137.88
460.798	115.88
461.018	116.88
461.238	119.88
461.458	109.88
461.678	126.88
461.898	101.88
462.118	124.88
462.338	131.88
462.558	108.88
462.777	117.88
462.997	120.88
463.217	115.88
463.437	135.88
463.657	120.88
463.876	122.88
464.096	116.88
464.316	120.88
464.536	129.88
464.755	116.88
464.975	136.88
465.195	118.88
465.414	123.88
465.634	122.88
465.854	117.88
466.073	108.88
466.293	117.88
466.512	124.88
466.732	124.88
466.951	132.88
467.171	109.88
467.391	121.88
467.61	106.88
467.829	120.88
468.049	122.88
468.268	116.88
468.488	124.88
468.707	117.88
468.927	122.88
469.146	140.88
469.365	121.88
469.585	128.88
469.804	132.88
470.023	115.88
470.243	113.88
470.462	123.88
470.681	108.88
470.901	134.88
471.12	132.88
471.339	124.88
471.558	115.88
471.777	125.88
471.997	128.88
472.216	115.88
472.435	115.88
472.654	112.88
472.873	101.88
473.092	119.88
473.311	107.88
473.53	118.88
473.749	124.88
473.968	120.88
474.187	117.88
474.406	112.88
474.625	126.88
474.844	130.88
475.063	117.88
475.282	115.88
475.501	129.88
475.72	129.88
475.939	117.88
476.158	109.88
476.377	105.88
476.596	119.88
476.814	109.88
477.033	128.88
477.252	122.88
477.471	120.88
477.69	121.88
477.908	121.88
478.127	132.88
478.346	118.88
478.564	134.88
478.783	126.88
479.002	125.88
479.22	131.88
479.439	126.88
479.658	112.88
479.876	109.88
480.095	128.88
480.313	122.88
480.532	126.88
480.751	125.88
480.969	118.88
481.188	123.88
481.406	114.88
481.624	111.88
481.843	119.88
482.061	121.88
482.28	108.88
482.498	124.88
482.717	132.88
482.935	133.88
483.153	124.88
483.372	133.88
483.59	139.88
483.808	128.88
484.027	120.88
484.245	104.88
484.463	142.88
484.681	133.88
484.9	136.88
485.118	122.88
485.336	141.88
485.554	121.88
485.772	126.88
485.99	132.88
486.209	125.88
486.427	118.88
486.645	120.88
486.863	128.88
487.081	139.88
487.299	129.88
487.517	124.88
487.735	141.88
487.953	157.88
488.171	150.88
488.389	142.88
488.607	145.88
488.825	125.88
489.043	120.88
489.261	123.88
489.479	131.88
489.696	126.88
489.914	136.88
490.132	137.88
490.35	136.88
490.568	154.88
490.786	156.88
491.003	144.88
491.221	146.88
491.439	149.88
491.657	149.88
491.874	169.88
492.092	169.88
492.31	159.88
492.527	164.88
492.745	158.88
492.963	157.88
493.18	153.88
493.398	162.88
493.615	148.88
493.833	157.88
494.05	155.88
494.268	162.88
494.485	146.88
494.703	160.88
494.92	157.88
495.138	161.88
495.355	149.88
495.573	149.88
495.79	150.88
496.008	134.88
496.225	143.88
496.442	154.88
496.66	159.88
496.877	155.88
497.094	154.88
497.312	148.88
497.529	131.88
497.746	153.88
497.963	159.88
498.181	148.88
498.398	156.88
498.615	158.88
498.832	139.88
499.049	148.88
499.267	161.88
499.484	168.88
499.701	182.88
499.918	198.88
500.135	191.88
500.352	214.88
500.569	220.88
500.786	227.88
501.003	206.88
501.22	182.88
501.437	185.88
501.654	172.88
501.871	172.88
502.088	161.88
502.305	155.88
502.522	136.88
502.739	160.88
502.956	153.88
503.172	152.88
503.389	133.88
503.606	141.88
503.823	155.88
504.04	123.88
504.256	108.88
504.473	126.88
504.69	147.88
504.907	129.88
505.123	121.88
505.34	144.88
505.557	123.88
505.773	126.88
505.99	134.88
506.207	132.88
506.423	138.88
506.64	131.88
506.856	121.88
507.073	125.88
507.289	113.88
507.506	128.88
507.722	128.88
507.939	116.88
508.155	118.88
508.372	130.88
508.588	130.88
508.805	114.88
509.021	138.88
509.238	128.88
509.454	120.88
509.67	128.88
509.887	110.88
510.103	116.88
510.319	120.88
510.536	125.88
510.752	102.88
510.968	116.88
511.184	113.88
511.401	113.88
511.617	124.88
511.833	116.88
512.049	115.88
512.265	109.88
512.481	120.88
512.698	108.88
512.914	111.88
513.13	120.88
513.346	125.88
513.562	107.88
513.778	117.88
513.994	126.88
514.21	112.88
514.426	120.88
514.642	117.88
514.858	115.88
515.074	117.88
515.29	133.88
515.506	113.88
515.721	105.88
515.937	116.88
516.153	122.88
516.369	118.88
516.585	112.88
516.801	126.88
517.016	118.88
517.232	120.88
517.448	130.88
517.664	133.88
517.879	136.88
518.095	130.88
518.311	116.88
518.527	116.88
518.742	125.88
518.958	138.88
519.173	120.88
519.389	120.88
519.605	130.88
519.82	118.88
520.036	126.88
520.251	113.88
520.467	113.88
520.682	123.88
520.898	106.88
521.113	96.88
521.329	112.88
521.544	120.88
521.76	131.88
521.975	117.88
522.19	113.88
522.406	115.88
522.621	115.88
522.836	125.88
523.052	113.88
523.267	128.88
523.482	116.88
523.698	109.88
523.913	114.88
524.128	115.88
524.343	124.88
524.559	121.88
524.774	132.88
524.989	128.88
525.204	140.88
525.419	125.88
525.634	114.88
525.849	129.88
526.064	119.88
526.28	114.88
526.495	116.88
526.71	123.88
526.925	102.88
527.14	121.88
527.355	117.88
527.57	115.88
527.785	107.88
527.999	118.88
528.214	126.88
528.429	133.88
528.644	119.88
528.859	129.88
529.074	122.88
529.289	129.88
529.503	124.88
529.718	136.88
529.933	117.88
530.148	113.88
530.363	115.88
530.577	114.88
530.792	116.88
531.007	103.88
531.221	116.88
531.436	117.88
531.651	115.88
531.865	113.88
532.08	105.88
532.295	116.88
532.509	124.88
532.724	115.88
532.938	113.88
533.153	119.88
533.367	102.88
533.582	116.88
533.796	126.88
534.011	117.88
534.225	111.88
534.44	103.88
534.654	108.88
534.868	101.88
535.083	122.88
535.297	120.88
535.511	125.88
535.726	98.88
535.94	112.88
536.154	124.88
536.369	125.88
536.583	115.88
536.797	96.88
537.011	120.88
537.225	109.88
537.44	110.88
537.654	126.88
537.868	113.88
538.082	108.88
538.296	108.88
538.51	122.88
538.724	120.88
538.938	116.88
539.153	121.88
539.367	112.88
539.581	114.88
539.795	112.88
540.009	112.88
540.222	115.88
540.436	109.88
540.65	122.88
540.864	114.88
541.078	116.88
541.292	140.88
541.506	138.88
541.72	147.88
541.934	139.88
542.147	138.88
542.361	137.88
542.575	121.88
542.789	135.88
543.002	114.88
543.216	134.88
543.43	124.88
543.644	115.88
543.857	126.88
544.071	113.88
544.285	143.88
544.498	123.88
544.712	125.88
544.925	136.88
545.139	134.88
545.352	143.88
545.566	140.88
545.779	144.88
545.993	149.88
546.206	126.88
546.42	133.88
546.633	142.88
546.847	134.88
547.06	127.88
547.274	132.88
547.487	138.88
547.7	123.88
547.914	133.88
548.127	140.88
548.34	106.88
548.554	136.88
548.767	122.88
548.98	132.88
549.193	141.88
549.407	139.88
549.62	137.88
549.833	139.88
550.046	139.88
550.259	127.88
550.473	136.88
550.686	130.88
550.899	136.88
551.112	136.88
551.325	128.88
551.538	127.88
551.751	131.88
551.964	133.88
552.177	115.88
552.39	121.88
552.603	143.88
552.816	123.88
553.029	135.88
553.242	139.88
553.455	130.88
553.667	132.88
553.88	126.88
554.093	132.88
554.306	134.88
554.519	134.88
554.732	139.88
554.944	117.88
555.157	110.88
555.37	123.88
555.583	119.88
555.795	129.88
556.008	130.88
556.221	118.88
556.433	120.88
556.646	113.88
556.859	116.88
557.071	121.88
557.284	118.88
557.496	128.88
557.709	126.88
557.921	120.88
558.134	124.88
558.346	122.88
558.559	114.88
558.771	113.88
558.984	124.88
559.196	128.88
559.409	132.88
559.621	112.88
559.833	98.88
560.046	113.88
560.258	128.88
560.47	125.88
560.683	114.88
560.895	124.88
561.107	121.88
561.32	121.88
561.532	120.88
561.744	105.88
561.956	114.88
562.168	120.88
562.381	122.88
562.593	115.88
562.805	108.88
563.017	123.88
563.229	109.88
563.441	108.88
563.653	120.88
563.865	110.88
564.077	104.88
564.289	118.88
564.501	124.88
564.713	106.88
564.925	121.88
565.137	100.88
565.349	120.88
565.561	101.88
565.773	109.88
565.985	117.88
566.197	118.88
566.408	113.88
566.62	116.88
566.832	129.88
567.044	122.88
567.255	130.88
567.467	123.88
567.679	111.88
567.891	123.88
568.102	123.88
568.314	125.88
568.526	129.88
568.737	104.88
568.949	106.88
569.161	93.88
569.372	108.88
569.584	85.88
569.795	103.88
570.007	89.88
570.218	99.88
570.43	99.88
570.641	91.88
570.853	95.88
571.064	91.88
571.276	109.88
571.487	102.88
571.698	122.88
571.91	114.88
572.121	107.88
572.333	118.88
572.544	110.88
572.755	100.88
572.966	105.88
573.178	93.88
573.389	113.88
573.6	99.88
573.811	99.88
574.023	108.88
574.234	105.88
574.445	103.88
574.656	90.88
574.867	98.88
575.078	98.88
575.289	100.88
575.501	118.88
575.712	95.88
575.923	91.88
576.134	98.88
576.345	92.88
576.556	107.88
576.767	94.88
576.978	102.88
577.188	103.88
577.399	103.88
577.61	94.88
577.821	92.88
578.032	92.88
578.243	108.88
578.454	107.88
578.665	99.88
578.875	92.88
579.086	96.88
579.297	94.88
579.508	89.88
579.718	97.88
579.929	98.88
580.14	91.88
580.35	77.88
580.561	88.88
580.772	96.88
580.982	89.88
581.193	96.88
581.403	111.88
581.614	95.88
581.825	88.88
582.035	99.88
582.246	95.88
582.456	105.88
582.667	105.88
582.877	85.88
583.087	103.88
583.298	98.88
583.508	83.88
583.719	101.88
583.929	108.88
584.139	96.88
584.35	87.88
584.56	98.88
584.77	92.88
584.981	98.88
585.191	101.88
585.401	101.88
585.611	89.88
585.821	95.88
586.032	87.88
586.242	93.88
586.452	83.88
586.662	100.88
586.872	89.88
587.082	114.88
587.292	109.88
587.502	102.88
587.713	90.88
587.923	88.88
588.133	100.88
588.343	93.88
588.553	81.88
588.762	105.88
588.972	104.88
589.182	97.88
589.392	97.88
589.602	99.88
589.812	97.88
590.022	91.88
590.232	94.88
590.441	101.88
590.651	95.88
590.861	106.88
591.071	87.88
591.281	96.88
591.49	100.88
591.7	103.88
591.91	106.88
592.119	88.88
592.329	99.88
592.539	100.88
592.748	82.88
592.958	97.88
593.167	96.88
593.377	96.88
593.587	103.88
593.796	90.88
594.006	112.88
594.215	98.88
594.424	91.88
594.634	82.88
594.843	105.88
595.053	91.88
595.262	103.88
595.472	94.88
595.681	93.88
595.89	100.88
596.1	101.88
596.309	98.88
596.518	85.88
596.727	111.88
596.937	100.88
597.146	93.88
597.355	100.88
597.564	104.88
597.774	94.88
597.983	90.88
598.192	80.88
598.401	89.88
598.61	109.88
598.819	102.88
599.028	103.88
599.237	105.88
599.446	98.88
599.655	106.88
599.864	80.88
600.073	93.88
600.282	109.88
600.491	86.88
600.7	98.88
600.909	100.88
601.118	98.88
601.327	98.88
601.536	91.88
601.745	92.88
601.953	89.88
602.162	107.88
602.371	104.88
602.58	89.88
602.789	105.88
602.997	90.88
603.206	93.88
603.415	101.88
603.623	108.88
603.832	110.88
604.041	108.88
604.249	88.88
604.458	96.88
604.666	87.88
604.875	104.88
605.084	89.88
605.292	97.88
605.501	106.88
605.709	96.88
605.918	98.88
606.126	113.88
606.334	102.88
606.543	112.88
606.751	91.88
606.96	89.88
607.168	98.88
607.376	110.88
607.585	113.88
607.793	90.88
608.001	89.88
608.21	84.88
608.418	92.88
608.626	96.88
608.834	103.88
609.043	90.88
609.251	92.88
609.459	104.88
609.667	105.88
609.875	97.88
610.083	81.88
610.291	101.88
610.499	90.88
610.707	92.88
610.916	101.88
611.124	95.88
611.332	86.88
611.54	99.88
611.748	100.88
611.955	99.88
612.163	103.88
612.371	100.88
612.579	115.88
612.787	102.88
612.995	82.88
613.203	95.88
613.411	86.88
613.618	110.88
613.826	95.88
614.034	109.88
614.242	94.88
614.449	80.88
614.657	93.88
614.865	82.88
615.072	91.88
615.28	97.88
615.488	97.88
615.695	94.88
615.903	100.88
616.111	94.88
616.318	97.88
616.526	104.88
616.733	106.88
616.941	88.88
617.148	100.88
617.356	91.88
617.563	78.88
617.771	101.88
617.978	99.88
618.185	104.88
618.393	109.88
618.6	104.88
618.807	97.88
619.015	92.88
619.222	94.88
619.429	96.88
619.637	91.88
619.844	99.88
620.051	104.88
620.258	91.88
620.466	103.88
620.673	100.88
620.88	96.88
621.087	85.88
621.294	93.88
621.501	102.88
621.708	109.88
621.915	90.88
622.122	91.88
622.329	112.88
622.536	91.88
622.743	86.88
622.95	84.88
623.157	88.88
623.364	102.88
623.571	104.88
623.778	93.88
623.985	104.88
624.192	92.88
624.399	85.88
624.606	108.88
624.812	99.88
625.019	81.88
625.226	106.88
625.433	92.88
625.639	90.88
625.846	101.88
626.053	108.88
626.259	94.88
626.466	90.88
626.673	75.88
626.879	100.88
627.086	97.88
627.293	92.88
627.499	93.88
627.706	86.88
627.912	88.88
628.119	86.88
628.325	104.88
628.532	92.88
628.738	92.88
628.945	100.88
629.151	89.88
629.357	86.88
629.564	90.88
629.77	103.88
629.976	100.88
630.183	102.88
630.389	94.88
630.595	90.88
630.802	103.88
631.008	101.88
631.214	109.88
631.42	89.88
631.627	105.88
631.833	96.88
632.039	80.88
632.245	97.88
632.451	88.88
632.657	91.88
632.863	86.88
633.069	89.88
633.275	88.88
633.481	91.88
633.688	99.88
633.893	102.88
634.099	93.88
634.305	91.88
634.511	89.88
634.717	101.88
634.923	83.88
635.129	91.88
635.335	95.88
635.541	82.88
635.747	86.88
635.952	92.88
636.158	99.88
636.364	84.88
636.57	90.88
636.775	85.88
636.981	69.88
637.187	91.88
637.392	90.88
637.598	92.88
637.804	103.88
638.009	85.88
638.215	87.88
638.421	82.88
638.626	100.88
638.832	91.88
639.037	94.88
639.243	98.88
639.448	102.88
639.654	85.88
639.859	101.88
640.065	104.88
640.27	100.88
640.475	92.88
640.681	91.88
640.886	92.88
641.091	101.88
641.297	101.88
641.502	103.88
641.707	77.88
641.913	95.88
642.118	94.88
642.323	93.88
642.528	93.88
642.733	70.88
642.939	83.88
643.144	93.88
643.349	85.88
643.554	93.88
643.759	93.88
643.964	81.88
644.169	86.88
644.374	98.88
644.579	96.88
644.784	107.88
644.989	80.88
645.194	83.88
645.399	97.88
645.604	76.88
645.809	86.88
646.014	95.88
646.219	91.88
646.423	90.88
646.628	84.88
646.833	80.88
647.038	91.88
647.243	95.88
647.447	89.88
647.652	91.88
647.857	83.88
648.062	84.88
648.266	106.88
648.471	77.88
648.676	78.88
648.88	89.88
649.085	93.88
649.289	98.88
649.494	81.88
649.698	103.88
649.903	88.88
650.107	94.88
650.312	87.88
650.516	102.88
650.721	98.88
650.925	85.88
651.13	84.88
651.334	89.88
651.539	96.88
651.743	91.88
651.947	94.88
652.152	96.88
652.356	88.88
652.56	108.88
652.764	89.88
652.969	80.88
653.173	100.88
653.377	92.88
653.581	96.88
653.785	79.88
653.99	90.88
654.194	97.88
654.398	96.88
654.602	89.88
654.806	98.88
655.01	96.88
655.214	105.88
655.418	87.88
655.622	98.88
655.826	79.88
656.03	95.88
656.234	96.88
656.438	92.88
656.642	80.88
656.846	84.88
657.049	91.88
657.253	101.88
657.457	88.88
657.661	94.88
657.865	91.88
658.068	83.88
658.272	83.88
658.476	89.88
658.68	92.88
658.883	86.88
659.087	85.88
659.291	90.88
659.494	92.88
659.698	82.88
659.901	95.88
660.105	96.88
660.309	88.88
660.512	78.88
660.716	81.88
660.919	93.88
661.123	82.88
661.326	90.88
661.53	86.88
661.733	93.88
661.936	85.88
662.14	78.88
662.343	91.88
662.546	82.88
662.75	84.88
662.953	75.88
663.156	78.88
663.36	86.88
663.563	83.88
663.766	92.88
663.969	82.88
664.173	93.88
664.376	91.88
664.579	85.88
664.782	89.88
664.985	92.88
665.188	81.88
665.391	93.88
665.594	81.88
665.797	88.88
666	104.88
666.203	101.88
666.406	91.88
666.609	82.88
666.812	85.88
667.015	78.88
667.218	99.88
667.421	86.88
667.624	76.88
667.827	81.88
668.03	89.88
668.232	79.88
668.435	101.88
668.638	90.88
668.841	84.88
669.043	85.88
669.246	84.88
669.449	83.88
669.651	95.88
669.854	84.88
670.057	83.88
670.259	85.88
670.462	90.88
670.665	84.88
670.867	73.88
671.07	86.88
671.272	89.88
671.475	85.88
671.677	81.88
671.88	74.88
672.082	80.88
672.284	76.88
672.487	81.88
672.689	70.88
672.892	76.88
