Data from StandardFe(NO3)3.TAE.3%Agarose.FlatLispGreen.Lamp.Energy10.07252019_HRD10591_11-53-51-439.txt Node
Date: Thu Jul 25 11:53:51 EDT 2019
User: cochatt
Spectrometer: HR+D1059
Trigger mode: 1
Integration Time (sec): 1.000000E-1
Scans to average: 1
Electric dark correction enabled: true
Nonlinearity correction enabled: false
Boxcar width: 0
XAxis mode: Wavelengths
Number of Pixels in Spectrum: 2048
>>>>>Begin Spectral Data<<<<<
223.165	-13.31
223.4	-13.31
223.635	-13.31
223.869	-20.31
224.104	-14.31
224.338	-15.31
224.573	-10.31
224.808	2.69
225.042	-9.31
225.277	-1.31
225.511	-9.31
225.746	-1.31
225.98	-0.31
226.215	13.69
226.449	12.69
226.683	10.69
226.918	15.69
227.152	39.69
227.387	45.69
227.621	32.69
227.856	50.69
228.09	50.69
228.324	54.69
228.559	67.69
228.793	59.69
229.027	66.69
229.262	57.69
229.496	54.69
229.73	74.69
229.964	53.69
230.199	61.69
230.433	82.69
230.667	76.69
230.901	74.69
231.136	75.69
231.37	83.69
231.604	66.69
231.838	84.69
232.072	78.69
232.306	75.69
232.541	68.69
232.775	79.69
233.009	73.69
233.243	90.69
233.477	80.69
233.711	80.69
233.945	95.69
234.179	79.69
234.413	87.69
234.647	83.69
234.881	82.69
235.115	86.69
235.349	79.69
235.583	70.69
235.817	90.69
236.051	80.69
236.285	87.69
236.519	86.69
236.753	91.69
236.987	90.69
237.221	78.69
237.455	71.69
237.689	90.69
237.922	72.69
238.156	69.69
238.39	71.69
238.624	82.69
238.858	64.69
239.091	74.69
239.325	75.69
239.559	67.69
239.793	82.69
240.027	81.69
240.26	80.69
240.494	83.69
240.728	82.69
240.961	73.69
241.195	94.69
241.429	59.69
241.662	78.69
241.896	75.69
242.13	78.69
242.363	63.69
242.597	80.69
242.83	77.69
243.064	63.69
243.298	69.69
243.531	59.69
243.765	72.69
243.998	73.69
244.232	82.69
244.465	82.69
244.699	88.69
244.932	81.69
245.166	83.69
245.399	69.69
245.633	74.69
245.866	65.69
246.099	66.69
246.333	82.69
246.566	89.69
246.8	67.69
247.033	85.69
247.266	86.69
247.5	66.69
247.733	67.69
247.966	59.69
248.2	87.69
248.433	79.69
248.666	71.69
248.899	80.69
249.133	75.69
249.366	78.69
249.599	82.69
249.832	87.69
250.066	77.69
250.299	84.69
250.532	75.69
250.765	73.69
250.998	72.69
251.231	78.69
251.465	76.69
251.698	73.69
251.931	75.69
252.164	85.69
252.397	88.69
252.63	80.69
252.863	68.69
253.096	84.69
253.329	82.69
253.562	70.69
253.795	72.69
254.028	84.69
254.261	63.69
254.494	85.69
254.727	84.69
254.96	89.69
255.193	86.69
255.426	68.69
255.659	77.69
255.892	75.69
256.124	77.69
256.357	59.69
256.59	90.69
256.823	66.69
257.056	62.69
257.289	73.69
257.521	74.69
257.754	97.69
257.987	80.69
258.22	87.69
258.452	84.69
258.685	96.69
258.918	84.69
259.151	74.69
259.383	74.69
259.616	81.69
259.849	75.69
260.081	78.69
260.314	69.69
260.547	77.69
260.779	88.69
261.012	80.69
261.244	83.69
261.477	84.69
261.71	88.69
261.942	85.69
262.175	104.69
262.407	73.69
262.64	88.69
262.872	87.69
263.105	72.69
263.337	83.69
263.57	72.69
263.802	80.69
264.035	86.69
264.267	65.69
264.499	79.69
264.732	74.69
264.964	78.69
265.197	88.69
265.429	86.69
265.661	79.69
265.894	75.69
266.126	82.69
266.358	77.69
266.591	78.69
266.823	83.69
267.055	73.69
267.287	75.69
267.52	86.69
267.752	82.69
267.984	70.69
268.216	88.69
268.448	78.69
268.681	76.69
268.913	80.69
269.145	76.69
269.377	71.69
269.609	79.69
269.841	85.69
270.073	71.69
270.306	80.69
270.538	87.69
270.77	75.69
271.002	75.69
271.234	80.69
271.466	94.69
271.698	83.69
271.93	82.69
272.162	83.69
272.394	74.69
272.626	76.69
272.858	76.69
273.09	78.69
273.322	91.69
273.553	90.69
273.785	86.69
274.017	81.69
274.249	67.69
274.481	83.69
274.713	75.69
274.945	77.69
275.176	80.69
275.408	75.69
275.64	83.69
275.872	86.69
276.104	79.69
276.335	89.69
276.567	93.69
276.799	75.69
277.031	72.69
277.262	74.69
277.494	87.69
277.726	75.69
277.957	69.69
278.189	79.69
278.421	83.69
278.652	88.69
278.884	74.69
279.115	81.69
279.347	76.69
279.579	77.69
279.81	86.69
280.042	76.69
280.273	75.69
280.505	79.69
280.736	55.69
280.968	71.69
281.199	74.69
281.431	85.69
281.662	74.69
281.894	80.69
282.125	94.69
282.356	86.69
282.588	63.69
282.819	78.69
283.051	69.69
283.282	96.69
283.513	84.69
283.745	69.69
283.976	80.69
284.207	86.69
284.439	85.69
284.67	89.69
284.901	88.69
285.132	92.69
285.364	73.69
285.595	89.69
285.826	89.69
286.057	86.69
286.288	76.69
286.52	72.69
286.751	87.69
286.982	70.69
287.213	70.69
287.444	88.69
287.675	82.69
287.906	91.69
288.138	74.69
288.369	91.69
288.6	77.69
288.831	83.69
289.062	88.69
289.293	86.69
289.524	87.69
289.755	90.69
289.986	89.69
290.217	86.69
290.448	87.69
290.679	84.69
290.91	78.69
291.141	93.69
291.371	86.69
291.602	76.69
291.833	83.69
292.064	86.69
292.295	74.69
292.526	88.69
292.757	91.69
292.987	76.69
293.218	73.69
293.449	85.69
293.68	78.69
293.91	80.69
294.141	72.69
294.372	87.69
294.603	88.69
294.833	83.69
295.064	80.69
295.295	90.69
295.525	81.69
295.756	87.69
295.987	84.69
296.217	77.69
296.448	80.69
296.679	96.69
296.909	85.69
297.14	85.69
297.37	87.69
297.601	80.69
297.831	92.69
298.062	74.69
298.292	82.69
298.523	83.69
298.753	82.69
298.984	86.69
299.214	83.69
299.445	62.69
299.675	90.69
299.905	91.69
300.136	88.69
300.366	93.69
300.597	94.69
300.827	81.69
301.057	87.69
301.288	77.69
301.518	80.69
301.748	83.69
301.979	82.69
302.209	83.69
302.439	78.69
302.669	82.69
302.9	85.69
303.13	72.69
303.36	99.69
303.59	79.69
303.82	75.69
304.051	84.69
304.281	80.69
304.511	91.69
304.741	84.69
304.971	78.69
305.201	77.69
305.431	89.69
305.661	71.69
305.891	89.69
306.121	73.69
306.352	87.69
306.582	86.69
306.812	72.69
307.042	89.69
307.272	86.69
307.502	89.69
307.731	67.69
307.961	82.69
308.191	85.69
308.421	82.69
308.651	88.69
308.881	99.69
309.111	80.69
309.341	71.69
309.571	91.69
309.8	84.69
310.03	80.69
310.26	84.69
310.49	73.69
310.72	86.69
310.949	89.69
311.179	84.69
311.409	94.69
311.639	85.69
311.868	85.69
312.098	76.69
312.328	89.69
312.557	80.69
312.787	87.69
313.017	94.69
313.246	71.69
313.476	92.69
313.706	79.69
313.935	87.69
314.165	86.69
314.394	84.69
314.624	89.69
314.853	77.69
315.083	81.69
315.312	86.69
315.542	84.69
315.771	87.69
316.001	81.69
316.23	98.69
316.46	73.69
316.689	73.69
316.919	88.69
317.148	81.69
317.377	75.69
317.607	89.69
317.836	73.69
318.065	81.69
318.295	77.69
318.524	81.69
318.753	79.69
318.983	100.69
319.212	93.69
319.441	77.69
319.67	83.69
319.9	72.69
320.129	86.69
320.358	95.69
320.587	87.69
320.816	75.69
321.046	90.69
321.275	74.69
321.504	79.69
321.733	96.69
321.962	89.69
322.191	79.69
322.42	80.69
322.649	85.69
322.878	90.69
323.108	89.69
323.337	88.69
323.566	83.69
323.795	73.69
324.024	83.69
324.253	72.69
324.482	77.69
324.71	86.69
324.939	80.69
325.168	77.69
325.397	92.69
325.626	85.69
325.855	85.69
326.084	78.69
326.313	83.69
326.542	81.69
326.77	96.69
326.999	90.69
327.228	82.69
327.457	87.69
327.686	92.69
327.914	96.69
328.143	71.69
328.372	80.69
328.6	90.69
328.829	65.69
329.058	84.69
329.287	86.69
329.515	111.69
329.744	86.69
329.972	84.69
330.201	84.69
330.43	70.69
330.658	99.69
330.887	94.69
331.115	83.69
331.344	68.69
331.572	82.69
331.801	91.69
332.03	84.69
332.258	75.69
332.486	83.69
332.715	79.69
332.943	102.69
333.172	75.69
333.4	96.69
333.629	77.69
333.857	79.69
334.085	72.69
334.314	66.69
334.542	75.69
334.771	71.69
334.999	100.69
335.227	85.69
335.455	91.69
335.684	86.69
335.912	89.69
336.14	75.69
336.369	86.69
336.597	92.69
336.825	88.69
337.053	86.69
337.281	82.69
337.51	78.69
337.738	91.69
337.966	94.69
338.194	79.69
338.422	91.69
338.65	80.69
338.878	75.69
339.106	88.69
339.334	91.69
339.562	68.69
339.79	82.69
340.018	77.69
340.246	88.69
340.474	86.69
340.702	85.69
340.93	83.69
341.158	78.69
341.386	75.69
341.614	72.69
341.842	92.69
342.07	84.69
342.298	88.69
342.526	79.69
342.754	88.69
342.981	85.69
343.209	74.69
343.437	95.69
343.665	68.69
343.893	74.69
344.12	85.69
344.348	75.69
344.576	77.69
344.804	76.69
345.031	88.69
345.259	79.69
345.487	83.69
345.714	79.69
345.942	89.69
346.17	96.69
346.397	85.69
346.625	86.69
346.853	82.69
347.08	82.69
347.308	86.69
347.535	86.69
347.763	91.69
347.99	87.69
348.218	89.69
348.445	84.69
348.673	85.69
348.9	71.69
349.128	76.69
349.355	82.69
349.583	84.69
349.81	94.69
350.037	89.69
350.265	78.69
350.492	87.69
350.72	80.69
350.947	83.69
351.174	90.69
351.402	74.69
351.629	82.69
351.856	66.69
352.083	86.69
352.311	82.69
352.538	90.69
352.765	92.69
352.992	84.69
353.22	76.69
353.447	70.69
353.674	86.69
353.901	84.69
354.128	93.69
354.355	85.69
354.583	78.69
354.81	81.69
355.037	94.69
355.264	80.69
355.491	102.69
355.718	86.69
355.945	77.69
356.172	78.69
356.399	89.69
356.626	68.69
356.853	81.69
357.08	80.69
357.307	73.69
357.534	78.69
357.761	66.69
357.988	86.69
358.215	84.69
358.441	81.69
358.668	82.69
358.895	80.69
359.122	85.69
359.349	89.69
359.576	91.69
359.802	81.69
360.029	96.69
360.256	94.69
360.483	82.69
360.709	103.69
360.936	82.69
361.163	76.69
361.39	84.69
361.616	66.69
361.843	85.69
362.07	85.69
362.296	80.69
362.523	76.69
362.749	83.69
362.976	78.69
363.203	91.69
363.429	82.69
363.656	75.69
363.882	81.69
364.109	98.69
364.335	87.69
364.562	86.69
364.788	87.69
365.015	89.69
365.241	80.69
365.468	84.69
365.694	95.69
365.92	81.69
366.147	88.69
366.373	90.69
366.599	83.69
366.826	84.69
367.052	75.69
367.278	82.69
367.505	90.69
367.731	93.69
367.957	94.69
368.184	99.69
368.41	74.69
368.636	91.69
368.862	82.69
369.089	80.69
369.315	79.69
369.541	88.69
369.767	99.69
369.993	95.69
370.219	83.69
370.445	70.69
370.672	90.69
370.898	91.69
371.124	77.69
371.35	79.69
371.576	77.69
371.802	92.69
372.028	84.69
372.254	94.69
372.48	93.69
372.706	85.69
372.932	91.69
373.158	103.69
373.384	93.69
373.61	90.69
373.835	87.69
374.061	102.69
374.287	100.69
374.513	96.69
374.739	81.69
374.965	92.69
375.191	76.69
375.416	94.69
375.642	87.69
375.868	92.69
376.094	91.69
376.319	80.69
376.545	78.69
376.771	79.69
376.997	84.69
377.222	92.69
377.448	87.69
377.674	74.69
377.899	94.69
378.125	98.69
378.35	94.69
378.576	84.69
378.802	81.69
379.027	87.69
379.253	86.69
379.478	94.69
379.704	92.69
379.929	91.69
380.155	83.69
380.38	101.69
380.606	91.69
380.831	92.69
381.057	91.69
381.282	102.69
381.507	64.69
381.733	82.69
381.958	100.69
382.184	89.69
382.409	87.69
382.634	102.69
382.86	82.69
383.085	83.69
383.31	80.69
383.535	79.69
383.761	85.69
383.986	97.69
384.211	90.69
384.436	79.69
384.662	99.69
384.887	89.69
385.112	81.69
385.337	97.69
385.562	101.69
385.787	100.69
386.013	97.69
386.238	84.69
386.463	86.69
386.688	82.69
386.913	89.69
387.138	83.69
387.363	86.69
387.588	81.69
387.813	102.69
388.038	90.69
388.263	92.69
388.488	95.69
388.713	87.69
388.938	97.69
389.163	98.69
389.387	93.69
389.612	87.69
389.837	87.69
390.062	100.69
390.287	92.69
390.512	99.69
390.736	106.69
390.961	91.69
391.186	95.69
391.411	99.69
391.636	95.69
391.86	106.69
392.085	90.69
392.31	88.69
392.534	92.69
392.759	88.69
392.984	105.69
393.208	100.69
393.433	121.69
393.658	90.69
393.882	95.69
394.107	98.69
394.331	102.69
394.556	82.69
394.78	95.69
395.005	82.69
395.229	107.69
395.454	103.69
395.678	99.69
395.903	107.69
396.127	100.69
396.352	101.69
396.576	99.69
396.801	80.69
397.025	97.69
397.249	106.69
397.474	96.69
397.698	108.69
397.922	88.69
398.147	96.69
398.371	105.69
398.595	103.69
398.82	103.69
399.044	87.69
399.268	111.69
399.492	97.69
399.717	130.69
399.941	128.69
400.165	92.69
400.389	101.69
400.613	110.69
400.837	94.69
401.062	104.69
401.286	100.69
401.51	105.69
401.734	102.69
401.958	110.69
402.182	106.69
402.406	92.69
402.63	95.69
402.854	97.69
403.078	103.69
403.302	97.69
403.526	102.69
403.75	100.69
403.974	103.69
404.198	102.69
404.422	110.69
404.645	105.69
404.869	120.69
405.093	98.69
405.317	107.69
405.541	97.69
405.765	113.69
405.988	102.69
406.212	100.69
406.436	111.69
406.66	102.69
406.883	96.69
407.107	100.69
407.331	106.69
407.555	98.69
407.778	110.69
408.002	116.69
408.226	98.69
408.449	122.69
408.673	99.69
408.896	121.69
409.12	116.69
409.344	105.69
409.567	113.69
409.791	112.69
410.014	115.69
410.238	115.69
410.461	119.69
410.685	116.69
410.908	115.69
411.132	120.69
411.355	120.69
411.578	113.69
411.802	111.69
412.025	105.69
412.249	118.69
412.472	108.69
412.695	97.69
412.919	106.69
413.142	113.69
413.365	92.69
413.589	116.69
413.812	110.69
414.035	121.69
414.258	108.69
414.482	107.69
414.705	119.69
414.928	117.69
415.151	107.69
415.374	98.69
415.597	122.69
415.821	112.69
416.044	119.69
416.267	111.69
416.49	114.69
416.713	118.69
416.936	102.69
417.159	114.69
417.382	97.69
417.605	110.69
417.828	122.69
418.051	103.69
418.274	104.69
418.497	105.69
418.72	107.69
418.943	115.69
419.166	121.69
419.389	123.69
419.611	125.69
419.834	119.69
420.057	117.69
420.28	115.69
420.503	108.69
420.726	122.69
420.948	107.69
421.171	112.69
421.394	108.69
421.617	114.69
421.839	130.69
422.062	114.69
422.285	108.69
422.507	114.69
422.73	113.69
422.953	100.69
423.175	104.69
423.398	124.69
423.621	118.69
423.843	114.69
424.066	131.69
424.288	116.69
424.511	126.69
424.733	122.69
424.956	119.69
425.178	111.69
425.401	122.69
425.623	112.69
425.846	115.69
426.068	95.69
426.291	106.69
426.513	106.69
426.735	120.69
426.958	123.69
427.18	115.69
427.402	131.69
427.625	107.69
427.847	105.69
428.069	111.69
428.292	106.69
428.514	109.69
428.736	101.69
428.958	112.69
429.181	112.69
429.403	117.69
429.625	112.69
429.847	112.69
430.069	110.69
430.292	117.69
430.514	108.69
430.736	104.69
430.958	114.69
431.18	120.69
431.402	117.69
431.624	111.69
431.846	119.69
432.068	106.69
432.29	99.69
432.512	106.69
432.734	103.69
432.956	105.69
433.178	122.69
433.4	108.69
433.622	118.69
433.844	122.69
434.066	121.69
434.287	100.69
434.509	106.69
434.731	114.69
434.953	101.69
435.175	114.69
435.397	110.69
435.618	109.69
435.84	114.69
436.062	116.69
436.284	90.69
436.505	98.69
436.727	107.69
436.949	102.69
437.17	103.69
437.392	117.69
437.614	108.69
437.835	90.69
438.057	91.69
438.278	86.69
438.5	123.69
438.721	110.69
438.943	119.69
439.165	117.69
439.386	116.69
439.608	124.69
439.829	120.69
440.05	115.69
440.272	107.69
440.493	119.69
440.715	124.69
440.936	121.69
441.158	126.69
441.379	112.69
441.6	134.69
441.822	116.69
442.043	121.69
442.264	108.69
442.486	122.69
442.707	102.69
442.928	128.69
443.149	99.69
443.371	116.69
443.592	110.69
443.813	119.69
444.034	123.69
444.255	122.69
444.476	126.69
444.698	130.69
444.919	111.69
445.14	245.69
445.361	172.69
445.582	124.69
445.803	112.69
446.024	126.69
446.245	129.69
446.466	119.69
446.687	113.69
446.908	121.69
447.129	109.69
447.35	119.69
447.571	118.69
447.792	116.69
448.013	111.69
448.234	119.69
448.455	121.69
448.675	104.69
448.896	107.69
449.117	93.69
449.338	111.69
449.559	113.69
449.779	110.69
450	118.69
450.221	112.69
450.442	105.69
450.662	109.69
450.883	105.69
451.104	118.69
451.324	106.69
451.545	99.69
451.766	116.69
451.986	110.69
452.207	117.69
452.428	120.69
452.648	119.69
452.869	100.69
453.089	103.69
453.31	95.69
453.53	99.69
453.751	88.69
453.971	110.69
454.192	90.69
454.412	98.69
454.633	110.69
454.853	104.69
455.073	114.69
455.294	90.69
455.514	103.69
455.734	110.69
455.955	121.69
456.175	106.69
456.395	113.69
456.616	106.69
456.836	102.69
457.056	110.69
457.276	114.69
457.497	118.69
457.717	111.69
457.937	101.69
458.157	103.69
458.377	100.69
458.598	95.69
458.818	112.69
459.038	110.69
459.258	101.69
459.478	97.69
459.698	100.69
459.918	113.69
460.138	102.69
460.358	112.69
460.578	123.69
460.798	127.69
461.018	121.69
461.238	109.69
461.458	107.69
461.678	112.69
461.898	100.69
462.118	123.69
462.338	107.69
462.558	124.69
462.777	118.69
462.997	118.69
463.217	122.69
463.437	125.69
463.657	114.69
463.876	123.69
464.096	116.69
464.316	110.69
464.536	132.69
464.755	137.69
464.975	112.69
465.195	123.69
465.414	112.69
465.634	113.69
465.854	103.69
466.073	125.69
466.293	116.69
466.512	108.69
466.732	120.69
466.951	122.69
467.171	114.69
467.391	122.69
467.61	119.69
467.829	107.69
468.049	122.69
468.268	116.69
468.488	114.69
468.707	113.69
468.927	126.69
469.146	111.69
469.365	112.69
469.585	111.69
469.804	131.69
470.023	120.69
470.243	127.69
470.462	132.69
470.681	134.69
470.901	122.69
471.12	116.69
471.339	102.69
471.558	115.69
471.777	110.69
471.997	114.69
472.216	112.69
472.435	116.69
472.654	114.69
472.873	123.69
473.092	108.69
473.311	102.69
473.53	102.69
473.749	122.69
473.968	121.69
474.187	128.69
474.406	114.69
474.625	107.69
474.844	101.69
475.063	113.69
475.282	115.69
475.501	99.69
475.72	119.69
475.939	118.69
476.158	107.69
476.377	114.69
476.596	112.69
476.814	121.69
477.033	103.69
477.252	112.69
477.471	117.69
477.69	110.69
477.908	134.69
478.127	129.69
478.346	139.69
478.564	126.69
478.783	146.69
479.002	116.69
479.22	128.69
479.439	132.69
479.658	120.69
479.876	116.69
480.095	112.69
480.313	119.69
480.532	123.69
480.751	116.69
480.969	119.69
481.188	107.69
481.406	104.69
481.624	103.69
481.843	95.69
482.061	121.69
482.28	112.69
482.498	116.69
482.717	117.69
482.935	119.69
483.153	127.69
483.372	123.69
483.59	123.69
483.808	124.69
484.027	122.69
484.245	119.69
484.463	127.69
484.681	139.69
484.9	133.69
485.118	119.69
485.336	122.69
485.554	128.69
485.772	116.69
485.99	96.69
486.209	111.69
486.427	115.69
486.645	124.69
486.863	125.69
487.081	128.69
487.299	126.69
487.517	138.69
487.735	130.69
487.953	143.69
488.171	146.69
488.389	132.69
488.607	123.69
488.825	126.69
489.043	121.69
489.261	116.69
489.479	122.69
489.696	117.69
489.914	123.69
490.132	133.69
490.35	134.69
490.568	134.69
490.786	139.69
491.003	139.69
491.221	132.69
491.439	141.69
491.657	150.69
491.874	145.69
492.092	141.69
492.31	184.69
492.527	164.69
492.745	154.69
492.963	156.69
493.18	139.69
493.398	154.69
493.615	138.69
493.833	153.69
494.05	148.69
494.268	139.69
494.485	152.69
494.703	142.69
494.92	151.69
495.138	138.69
495.355	150.69
495.573	137.69
495.79	144.69
496.008	148.69
496.225	144.69
496.442	146.69
496.66	150.69
496.877	141.69
497.094	153.69
497.312	149.69
497.529	143.69
497.746	124.69
497.963	145.69
498.181	155.69
498.398	132.69
498.615	122.69
498.832	130.69
499.049	146.69
499.267	164.69
499.484	160.69
499.701	163.69
499.918	186.69
500.135	202.69
500.352	211.69
500.569	231.69
500.786	227.69
501.003	196.69
501.22	196.69
501.437	178.69
501.654	180.69
501.871	165.69
502.088	160.69
502.305	144.69
502.522	160.69
502.739	160.69
502.956	146.69
503.172	154.69
503.389	144.69
503.606	124.69
503.823	122.69
504.04	132.69
504.256	130.69
504.473	130.69
504.69	127.69
504.907	138.69
505.123	126.69
505.34	126.69
505.557	137.69
505.773	132.69
505.99	128.69
506.207	132.69
506.423	117.69
506.64	128.69
506.856	120.69
507.073	120.69
507.289	127.69
507.506	131.69
507.722	126.69
507.939	120.69
508.155	131.69
508.372	113.69
508.588	116.69
508.805	111.69
509.021	122.69
509.238	107.69
509.454	118.69
509.67	113.69
509.887	118.69
510.103	106.69
510.319	119.69
510.536	116.69
510.752	100.69
510.968	110.69
511.184	125.69
511.401	126.69
511.617	101.69
511.833	112.69
512.049	111.69
512.265	118.69
512.481	106.69
512.698	115.69
512.914	107.69
513.13	118.69
513.346	104.69
513.562	84.69
513.778	92.69
513.994	115.69
514.21	115.69
514.426	123.69
514.642	132.69
514.858	106.69
515.074	105.69
515.29	125.69
515.506	119.69
515.721	105.69
515.937	106.69
516.153	95.69
516.369	116.69
516.585	104.69
516.801	120.69
517.016	133.69
517.232	122.69
517.448	124.69
517.664	128.69
517.879	128.69
518.095	132.69
518.311	120.69
518.527	111.69
518.742	110.69
518.958	123.69
519.173	126.69
519.389	115.69
519.605	128.69
519.82	115.69
520.036	120.69
520.251	115.69
520.467	99.69
520.682	105.69
520.898	118.69
521.113	100.69
521.329	87.69
521.544	111.69
521.76	107.69
521.975	105.69
522.19	105.69
522.406	117.69
522.621	113.69
522.836	113.69
523.052	120.69
523.267	119.69
523.482	125.69
523.698	127.69
523.913	129.69
524.128	107.69
524.343	119.69
524.559	118.69
524.774	114.69
524.989	104.69
525.204	120.69
525.419	112.69
525.634	108.69
525.849	111.69
526.064	117.69
526.28	107.69
526.495	110.69
526.71	112.69
526.925	112.69
527.14	106.69
527.355	106.69
527.57	106.69
527.785	117.69
527.999	108.69
528.214	99.69
528.429	103.69
528.644	128.69
528.859	120.69
529.074	118.69
529.289	123.69
529.503	127.69
529.718	122.69
529.933	111.69
530.148	92.69
530.363	95.69
530.577	107.69
530.792	103.69
531.007	102.69
531.221	112.69
531.436	98.69
531.651	103.69
531.865	102.69
532.08	103.69
532.295	99.69
532.509	108.69
532.724	106.69
532.938	119.69
533.153	121.69
533.367	123.69
533.582	118.69
533.796	116.69
534.011	109.69
534.225	115.69
534.44	107.69
534.654	119.69
534.868	118.69
535.083	114.69
535.297	124.69
535.511	115.69
535.726	125.69
535.94	116.69
536.154	105.69
536.369	106.69
536.583	105.69
536.797	119.69
537.011	101.69
537.225	105.69
537.44	94.69
537.654	101.69
537.868	105.69
538.082	102.69
538.296	111.69
538.51	115.69
538.724	116.69
538.938	117.69
539.153	124.69
539.367	111.69
539.581	103.69
539.795	96.69
540.009	99.69
540.222	98.69
540.436	95.69
540.65	111.69
540.864	106.69
541.078	130.69
541.292	121.69
541.506	134.69
541.72	129.69
541.934	141.69
542.147	127.69
542.361	140.69
542.575	125.69
542.789	118.69
543.002	116.69
543.216	110.69
543.43	111.69
543.644	110.69
543.857	105.69
544.071	128.69
544.285	122.69
544.498	123.69
544.712	123.69
544.925	124.69
545.139	133.69
545.352	140.69
545.566	132.69
545.779	141.69
545.993	112.69
546.206	127.69
546.42	130.69
546.633	138.69
546.847	130.69
547.06	140.69
547.274	115.69
547.487	114.69
547.7	132.69
547.914	145.69
548.127	134.69
548.34	138.69
548.554	134.69
548.767	132.69
548.98	130.69
549.193	124.69
549.407	126.69
549.62	118.69
549.833	128.69
550.046	140.69
550.259	140.69
550.473	134.69
550.686	123.69
550.899	120.69
551.112	121.69
551.325	117.69
551.538	112.69
551.751	128.69
551.964	111.69
552.177	122.69
552.39	118.69
552.603	107.69
552.816	140.69
553.029	126.69
553.242	131.69
553.455	131.69
553.667	151.69
553.88	117.69
554.093	117.69
554.306	129.69
554.519	129.69
554.732	118.69
554.944	112.69
555.157	119.69
555.37	107.69
555.583	111.69
555.795	122.69
556.008	119.69
556.221	122.69
556.433	111.69
556.646	124.69
556.859	119.69
557.071	120.69
557.284	133.69
557.496	111.69
557.709	114.69
557.921	131.69
558.134	120.69
558.346	118.69
558.559	106.69
558.771	111.69
558.984	106.69
559.196	112.69
559.409	96.69
559.621	120.69
559.833	110.69
560.046	123.69
560.258	111.69
560.47	111.69
560.683	122.69
560.895	118.69
561.107	110.69
561.32	116.69
561.532	103.69
561.744	115.69
561.956	104.69
562.168	116.69
562.381	123.69
562.593	118.69
562.805	83.69
563.017	105.69
563.229	111.69
563.441	102.69
563.653	114.69
563.865	90.69
564.077	104.69
564.289	105.69
564.501	118.69
564.713	104.69
564.925	111.69
565.137	108.69
565.349	114.69
565.561	103.69
565.773	114.69
565.985	107.69
566.197	110.69
566.408	112.69
566.62	114.69
566.832	138.69
567.044	117.69
567.255	125.69
567.467	123.69
567.679	117.69
567.891	111.69
568.102	123.69
568.314	116.69
568.526	121.69
568.737	113.69
568.949	121.69
569.161	98.69
569.372	94.69
569.584	98.69
569.795	102.69
570.007	97.69
570.218	96.69
570.43	98.69
570.641	96.69
570.853	100.69
571.064	102.69
571.276	94.69
571.487	99.69
571.698	104.69
571.91	91.69
572.121	100.69
572.333	102.69
572.544	91.69
572.755	96.69
572.966	105.69
573.178	91.69
573.389	89.69
573.6	94.69
573.811	95.69
574.023	104.69
574.234	90.69
574.445	85.69
574.656	87.69
574.867	104.69
575.078	87.69
575.289	98.69
575.501	105.69
575.712	105.69
575.923	90.69
576.134	94.69
576.345	93.69
576.556	111.69
576.767	101.69
576.978	81.69
577.188	90.69
577.399	98.69
577.61	110.69
577.821	105.69
578.032	110.69
578.243	100.69
578.454	96.69
578.665	94.69
578.875	107.69
579.086	91.69
579.297	90.69
579.508	82.69
579.718	89.69
579.929	97.69
580.14	87.69
580.35	110.69
580.561	98.69
580.772	90.69
580.982	93.69
581.193	87.69
581.403	101.69
581.614	90.69
581.825	103.69
582.035	101.69
582.246	95.69
582.456	98.69
582.667	99.69
582.877	102.69
583.087	95.69
583.298	97.69
583.508	92.69
583.719	94.69
583.929	91.69
584.139	95.69
584.35	82.69
584.56	93.69
584.77	81.69
584.981	83.69
585.191	99.69
585.401	85.69
585.611	69.69
585.821	78.69
586.032	91.69
586.242	100.69
586.452	82.69
586.662	96.69
586.872	82.69
587.082	86.69
587.292	75.69
587.502	74.69
587.713	92.69
587.923	104.69
588.133	95.69
588.343	97.69
588.553	85.69
588.762	86.69
588.972	85.69
589.182	102.69
589.392	82.69
589.602	90.69
589.812	69.69
590.022	95.69
590.232	88.69
590.441	98.69
590.651	82.69
590.861	97.69
591.071	95.69
591.281	102.69
591.49	105.69
591.7	95.69
591.91	80.69
592.119	86.69
592.329	90.69
592.539	89.69
592.748	99.69
592.958	107.69
593.167	104.69
593.377	78.69
593.587	89.69
593.796	89.69
594.006	90.69
594.215	89.69
594.424	94.69
594.634	95.69
594.843	94.69
595.053	105.69
595.262	86.69
595.472	98.69
595.681	92.69
595.89	103.69
596.1	71.69
596.309	79.69
596.518	87.69
596.727	96.69
596.937	96.69
597.146	89.69
597.355	81.69
597.564	92.69
597.774	81.69
597.983	94.69
598.192	103.69
598.401	94.69
598.61	87.69
598.819	91.69
599.028	88.69
599.237	92.69
599.446	98.69
599.655	91.69
599.864	80.69
600.073	84.69
600.282	82.69
600.491	95.69
600.7	89.69
600.909	91.69
601.118	84.69
601.327	81.69
601.536	97.69
601.745	88.69
601.953	90.69
602.162	94.69
602.371	90.69
602.58	90.69
602.789	96.69
602.997	87.69
603.206	100.69
603.415	103.69
603.623	86.69
603.832	97.69
604.041	102.69
604.249	91.69
604.458	107.69
604.666	92.69
604.875	83.69
605.084	94.69
605.292	83.69
605.501	87.69
605.709	99.69
605.918	97.69
606.126	97.69
606.334	90.69
606.543	96.69
606.751	85.69
606.96	90.69
607.168	93.69
607.376	84.69
607.585	90.69
607.793	92.69
608.001	100.69
608.21	97.69
608.418	96.69
608.626	105.69
608.834	95.69
609.043	98.69
609.251	98.69
609.459	90.69
609.667	95.69
609.875	96.69
610.083	95.69
610.291	88.69
610.499	88.69
610.707	99.69
610.916	95.69
611.124	102.69
611.332	101.69
611.54	99.69
611.748	98.69
611.955	98.69
612.163	90.69
612.371	90.69
612.579	83.69
612.787	98.69
612.995	82.69
613.203	93.69
613.411	85.69
613.618	90.69
613.826	104.69
614.034	101.69
614.242	92.69
614.449	82.69
614.657	86.69
614.865	99.69
615.072	89.69
615.28	94.69
615.488	88.69
615.695	98.69
615.903	101.69
616.111	89.69
616.318	85.69
616.526	88.69
616.733	104.69
616.941	98.69
617.148	87.69
617.356	99.69
617.563	93.69
617.771	99.69
617.978	101.69
618.185	91.69
618.393	97.69
618.6	96.69
618.807	88.69
619.015	91.69
619.222	81.69
619.429	91.69
619.637	89.69
619.844	97.69
620.051	97.69
620.258	87.69
620.466	88.69
620.673	83.69
620.88	80.69
621.087	95.69
621.294	92.69
621.501	92.69
621.708	92.69
621.915	91.69
622.122	91.69
622.329	87.69
622.536	88.69
622.743	103.69
622.95	100.69
623.157	91.69
623.364	87.69
623.571	81.69
623.778	87.69
623.985	98.69
624.192	83.69
624.399	79.69
624.606	92.69
624.812	86.69
625.019	86.69
625.226	92.69
625.433	80.69
625.639	86.69
625.846	86.69
626.053	94.69
626.259	102.69
626.466	96.69
626.673	88.69
626.879	82.69
627.086	90.69
627.293	86.69
627.499	80.69
627.706	80.69
627.912	104.69
628.119	101.69
628.325	84.69
628.532	100.69
628.738	97.69
628.945	96.69
629.151	94.69
629.357	70.69
629.564	102.69
629.77	102.69
629.976	94.69
630.183	81.69
630.389	99.69
630.595	80.69
630.802	91.69
631.008	83.69
631.214	99.69
631.42	84.69
631.627	78.69
631.833	86.69
632.039	85.69
632.245	81.69
632.451	90.69
632.657	78.69
632.863	84.69
633.069	72.69
633.275	90.69
633.481	99.69
633.688	91.69
633.893	76.69
634.099	91.69
634.305	83.69
634.511	88.69
634.717	78.69
634.923	84.69
635.129	83.69
635.335	82.69
635.541	94.69
635.747	77.69
635.952	83.69
636.158	89.69
636.364	68.69
636.57	94.69
636.775	80.69
636.981	76.69
637.187	86.69
637.392	93.69
637.598	92.69
637.804	84.69
638.009	86.69
638.215	90.69
638.421	80.69
638.626	91.69
638.832	85.69
639.037	90.69
639.243	98.69
639.448	89.69
639.654	79.69
639.859	84.69
640.065	79.69
640.27	79.69
640.475	88.69
640.681	80.69
640.886	83.69
641.091	90.69
641.297	80.69
641.502	68.69
641.707	70.69
641.913	89.69
642.118	99.69
642.323	99.69
642.528	92.69
642.733	82.69
642.939	93.69
643.144	74.69
643.349	84.69
643.554	95.69
643.759	91.69
643.964	96.69
644.169	86.69
644.374	91.69
644.579	85.69
644.784	105.69
644.989	87.69
645.194	97.69
645.399	96.69
645.604	70.69
645.809	92.69
646.014	87.69
646.219	83.69
646.423	86.69
646.628	86.69
646.833	98.69
647.038	83.69
647.243	99.69
647.447	96.69
647.652	77.69
647.857	82.69
648.062	98.69
648.266	89.69
648.471	99.69
648.676	83.69
648.88	73.69
649.085	83.69
649.289	87.69
649.494	82.69
649.698	83.69
649.903	72.69
650.107	64.69
650.312	83.69
650.516	79.69
650.721	80.69
650.925	89.69
651.13	85.69
651.334	83.69
651.539	77.69
651.743	105.69
651.947	85.69
652.152	102.69
652.356	87.69
652.56	88.69
652.764	72.69
652.969	92.69
653.173	82.69
653.377	96.69
653.581	81.69
653.785	80.69
653.99	87.69
654.194	82.69
654.398	85.69
654.602	88.69
654.806	82.69
655.01	105.69
655.214	87.69
655.418	88.69
655.622	74.69
655.826	84.69
656.03	80.69
656.234	80.69
656.438	74.69
656.642	90.69
656.846	80.69
657.049	88.69
657.253	84.69
657.457	81.69
657.661	85.69
657.865	93.69
658.068	84.69
658.272	74.69
658.476	78.69
658.68	78.69
658.883	87.69
659.087	83.69
659.291	79.69
659.494	63.69
659.698	81.69
659.901	70.69
660.105	76.69
660.309	74.69
660.512	71.69
660.716	83.69
660.919	78.69
661.123	73.69
661.326	80.69
661.53	80.69
661.733	81.69
661.936	82.69
662.14	77.69
662.343	70.69
662.546	91.69
662.75	77.69
662.953	83.69
663.156	75.69
663.36	88.69
663.563	77.69
663.766	71.69
663.969	82.69
664.173	82.69
664.376	89.69
664.579	88.69
664.782	88.69
664.985	85.69
665.188	83.69
665.391	76.69
665.594	83.69
665.797	67.69
666	79.69
666.203	73.69
666.406	81.69
666.609	80.69
666.812	90.69
667.015	82.69
667.218	83.69
667.421	64.69
667.624	83.69
667.827	85.69
668.03	72.69
668.232	84.69
668.435	81.69
668.638	79.69
668.841	92.69
669.043	74.69
669.246	82.69
669.449	98.69
669.651	83.69
669.854	74.69
670.057	78.69
670.259	84.69
670.462	87.69
670.665	76.69
670.867	74.69
671.07	88.69
671.272	82.69
671.475	86.69
671.677	73.69
671.88	80.69
672.082	82.69
672.284	81.69
672.487	82.69
672.689	70.69
672.892	89.69
