Data from StandardFe(NO3)3.TAE.3%Agarose.FlatLispGreen.Lamp.Energy10.07252019_HRD10591_11-55-20-441.txt Node
Date: Thu Jul 25 11:55:20 EDT 2019
User: cochatt
Spectrometer: HR+D1059
Trigger mode: 1
Integration Time (sec): 1.000000E-1
Scans to average: 1
Electric dark correction enabled: true
Nonlinearity correction enabled: false
Boxcar width: 0
XAxis mode: Wavelengths
Number of Pixels in Spectrum: 2048
>>>>>Begin Spectral Data<<<<<
223.165	-24.31
223.4	-24.31
223.635	-24.31
223.869	-18.31
224.104	-26.31
224.338	-11.31
224.573	-12.31
224.808	-6.31
225.042	-1.31
225.277	-9.31
225.511	-14.31
225.746	1.69
225.98	-3.31
226.215	13.69
226.449	21.69
226.683	30.69
226.918	28.69
227.152	30.69
227.387	20.69
227.621	41.69
227.856	49.69
228.09	49.69
228.324	50.69
228.559	61.69
228.793	58.69
229.027	82.69
229.262	78.69
229.496	73.69
229.73	62.69
229.964	74.69
230.199	57.69
230.433	70.69
230.667	77.69
230.901	73.69
231.136	86.69
231.37	89.69
231.604	87.69
231.838	97.69
232.072	87.69
232.306	86.69
232.541	79.69
232.775	97.69
233.009	94.69
233.243	85.69
233.477	83.69
233.711	86.69
233.945	91.69
234.179	85.69
234.413	79.69
234.647	91.69
234.881	87.69
235.115	82.69
235.349	84.69
235.583	90.69
235.817	79.69
236.051	83.69
236.285	66.69
236.519	69.69
236.753	70.69
236.987	89.69
237.221	76.69
237.455	80.69
237.689	78.69
237.922	64.69
238.156	88.69
238.39	90.69
238.624	79.69
238.858	80.69
239.091	73.69
239.325	73.69
239.559	88.69
239.793	84.69
240.027	72.69
240.26	74.69
240.494	83.69
240.728	77.69
240.961	83.69
241.195	90.69
241.429	88.69
241.662	83.69
241.896	71.69
242.13	87.69
242.363	74.69
242.597	69.69
242.83	73.69
243.064	82.69
243.298	83.69
243.531	76.69
243.765	79.69
243.998	97.69
244.232	82.69
244.465	82.69
244.699	69.69
244.932	79.69
245.166	89.69
245.399	99.69
245.633	90.69
245.866	87.69
246.099	87.69
246.333	77.69
246.566	75.69
246.8	65.69
247.033	70.69
247.266	77.69
247.5	71.69
247.733	81.69
247.966	92.69
248.2	82.69
248.433	87.69
248.666	78.69
248.899	89.69
249.133	70.69
249.366	89.69
249.599	76.69
249.832	75.69
250.066	86.69
250.299	78.69
250.532	76.69
250.765	69.69
250.998	69.69
251.231	86.69
251.465	89.69
251.698	93.69
251.931	84.69
252.164	74.69
252.397	90.69
252.63	78.69
252.863	79.69
253.096	74.69
253.329	78.69
253.562	81.69
253.795	59.69
254.028	84.69
254.261	78.69
254.494	85.69
254.727	83.69
254.96	78.69
255.193	72.69
255.426	66.69
255.659	78.69
255.892	91.69
256.124	88.69
256.357	86.69
256.59	85.69
256.823	71.69
257.056	77.69
257.289	90.69
257.521	96.69
257.754	91.69
257.987	83.69
258.22	101.69
258.452	91.69
258.685	83.69
258.918	88.69
259.151	88.69
259.383	72.69
259.616	80.69
259.849	72.69
260.081	84.69
260.314	82.69
260.547	91.69
260.779	80.69
261.012	98.69
261.244	65.69
261.477	86.69
261.71	87.69
261.942	87.69
262.175	86.69
262.407	76.69
262.64	68.69
262.872	98.69
263.105	92.69
263.337	84.69
263.57	87.69
263.802	78.69
264.035	75.69
264.267	94.69
264.499	83.69
264.732	86.69
264.964	86.69
265.197	78.69
265.429	90.69
265.661	88.69
265.894	75.69
266.126	69.69
266.358	91.69
266.591	79.69
266.823	83.69
267.055	86.69
267.287	92.69
267.52	73.69
267.752	93.69
267.984	108.69
268.216	93.69
268.448	90.69
268.681	90.69
268.913	86.69
269.145	94.69
269.377	83.69
269.609	85.69
269.841	83.69
270.073	82.69
270.306	91.69
270.538	86.69
270.77	78.69
271.002	76.69
271.234	81.69
271.466	70.69
271.698	100.69
271.93	91.69
272.162	92.69
272.394	87.69
272.626	81.69
272.858	79.69
273.09	78.69
273.322	73.69
273.553	75.69
273.785	73.69
274.017	93.69
274.249	89.69
274.481	89.69
274.713	87.69
274.945	87.69
275.176	90.69
275.408	82.69
275.64	82.69
275.872	86.69
276.104	73.69
276.335	89.69
276.567	92.69
276.799	79.69
277.031	84.69
277.262	81.69
277.494	84.69
277.726	84.69
277.957	89.69
278.189	104.69
278.421	84.69
278.652	94.69
278.884	87.69
279.115	92.69
279.347	91.69
279.579	84.69
279.81	81.69
280.042	89.69
280.273	92.69
280.505	79.69
280.736	75.69
280.968	78.69
281.199	77.69
281.431	75.69
281.662	92.69
281.894	71.69
282.125	89.69
282.356	79.69
282.588	80.69
282.819	85.69
283.051	83.69
283.282	98.69
283.513	93.69
283.745	89.69
283.976	93.69
284.207	85.69
284.439	75.69
284.67	90.69
284.901	79.69
285.132	101.69
285.364	85.69
285.595	78.69
285.826	79.69
286.057	86.69
286.288	96.69
286.52	83.69
286.751	93.69
286.982	104.69
287.213	81.69
287.444	82.69
287.675	83.69
287.906	88.69
288.138	83.69
288.369	90.69
288.6	92.69
288.831	96.69
289.062	91.69
289.293	80.69
289.524	81.69
289.755	95.69
289.986	91.69
290.217	94.69
290.448	74.69
290.679	79.69
290.91	82.69
291.141	90.69
291.371	82.69
291.602	89.69
291.833	89.69
292.064	83.69
292.295	80.69
292.526	87.69
292.757	68.69
292.987	78.69
293.218	78.69
293.449	82.69
293.68	93.69
293.91	92.69
294.141	91.69
294.372	77.69
294.603	91.69
294.833	86.69
295.064	102.69
295.295	89.69
295.525	78.69
295.756	83.69
295.987	93.69
296.217	75.69
296.448	91.69
296.679	94.69
296.909	79.69
297.14	102.69
297.37	93.69
297.601	85.69
297.831	79.69
298.062	82.69
298.292	100.69
298.523	80.69
298.753	94.69
298.984	107.69
299.214	74.69
299.445	84.69
299.675	91.69
299.905	99.69
300.136	91.69
300.366	84.69
300.597	90.69
300.827	91.69
301.057	86.69
301.288	85.69
301.518	83.69
301.748	84.69
301.979	71.69
302.209	84.69
302.439	86.69
302.669	86.69
302.9	103.69
303.13	85.69
303.36	77.69
303.59	94.69
303.82	97.69
304.051	73.69
304.281	75.69
304.511	79.69
304.741	93.69
304.971	85.69
305.201	90.69
305.431	97.69
305.661	88.69
305.891	94.69
306.121	96.69
306.352	78.69
306.582	98.69
306.812	82.69
307.042	92.69
307.272	79.69
307.502	82.69
307.731	74.69
307.961	103.69
308.191	77.69
308.421	84.69
308.651	91.69
308.881	89.69
309.111	91.69
309.341	79.69
309.571	80.69
309.8	78.69
310.03	84.69
310.26	100.69
310.49	92.69
310.72	94.69
310.949	94.69
311.179	92.69
311.409	100.69
311.639	70.69
311.868	84.69
312.098	100.69
312.328	100.69
312.557	82.69
312.787	80.69
313.017	92.69
313.246	84.69
313.476	78.69
313.706	84.69
313.935	77.69
314.165	82.69
314.394	82.69
314.624	84.69
314.853	76.69
315.083	77.69
315.312	85.69
315.542	100.69
315.771	83.69
316.001	86.69
316.23	79.69
316.46	88.69
316.689	92.69
316.919	95.69
317.148	98.69
317.377	98.69
317.607	85.69
317.836	80.69
318.065	89.69
318.295	93.69
318.524	99.69
318.753	69.69
318.983	87.69
319.212	78.69
319.441	75.69
319.67	84.69
319.9	86.69
320.129	91.69
320.358	102.69
320.587	83.69
320.816	87.69
321.046	91.69
321.275	95.69
321.504	93.69
321.733	91.69
321.962	95.69
322.191	84.69
322.42	83.69
322.649	96.69
322.878	99.69
323.108	94.69
323.337	77.69
323.566	87.69
323.795	93.69
324.024	89.69
324.253	96.69
324.482	85.69
324.71	82.69
324.939	91.69
325.168	94.69
325.397	80.69
325.626	86.69
325.855	94.69
326.084	86.69
326.313	77.69
326.542	95.69
326.77	108.69
326.999	93.69
327.228	111.69
327.457	92.69
327.686	73.69
327.914	88.69
328.143	96.69
328.372	96.69
328.6	83.69
328.829	97.69
329.058	83.69
329.287	91.69
329.515	106.69
329.744	82.69
329.972	85.69
330.201	89.69
330.43	90.69
330.658	94.69
330.887	80.69
331.115	87.69
331.344	93.69
331.572	83.69
331.801	90.69
332.03	69.69
332.258	89.69
332.486	89.69
332.715	86.69
332.943	96.69
333.172	79.69
333.4	88.69
333.629	95.69
333.857	93.69
334.085	85.69
334.314	84.69
334.542	96.69
334.771	83.69
334.999	92.69
335.227	88.69
335.455	72.69
335.684	103.69
335.912	103.69
336.14	92.69
336.369	73.69
336.597	78.69
336.825	92.69
337.053	90.69
337.281	88.69
337.51	90.69
337.738	70.69
337.966	85.69
338.194	85.69
338.422	90.69
338.65	85.69
338.878	82.69
339.106	90.69
339.334	79.69
339.562	95.69
339.79	82.69
340.018	88.69
340.246	83.69
340.474	79.69
340.702	93.69
340.93	90.69
341.158	79.69
341.386	78.69
341.614	93.69
341.842	75.69
342.07	90.69
342.298	81.69
342.526	75.69
342.754	75.69
342.981	97.69
343.209	71.69
343.437	85.69
343.665	83.69
343.893	93.69
344.12	99.69
344.348	87.69
344.576	80.69
344.804	78.69
345.031	92.69
345.259	90.69
345.487	90.69
345.714	92.69
345.942	78.69
346.17	89.69
346.397	87.69
346.625	97.69
346.853	78.69
347.08	87.69
347.308	86.69
347.535	78.69
347.763	97.69
347.99	92.69
348.218	88.69
348.445	79.69
348.673	87.69
348.9	78.69
349.128	84.69
349.355	79.69
349.583	75.69
349.81	88.69
350.037	100.69
350.265	94.69
350.492	83.69
350.72	82.69
350.947	84.69
351.174	86.69
351.402	89.69
351.629	89.69
351.856	84.69
352.083	82.69
352.311	83.69
352.538	94.69
352.765	103.69
352.992	90.69
353.22	69.69
353.447	85.69
353.674	92.69
353.901	86.69
354.128	96.69
354.355	97.69
354.583	77.69
354.81	90.69
355.037	79.69
355.264	91.69
355.491	94.69
355.718	90.69
355.945	84.69
356.172	103.69
356.399	78.69
356.626	66.69
356.853	81.69
357.08	90.69
357.307	99.69
357.534	85.69
357.761	90.69
357.988	98.69
358.215	89.69
358.441	85.69
358.668	94.69
358.895	84.69
359.122	91.69
359.349	78.69
359.576	110.69
359.802	85.69
360.029	92.69
360.256	85.69
360.483	94.69
360.709	65.69
360.936	95.69
361.163	94.69
361.39	93.69
361.616	89.69
361.843	89.69
362.07	86.69
362.296	97.69
362.523	89.69
362.749	89.69
362.976	87.69
363.203	96.69
363.429	78.69
363.656	97.69
363.882	101.69
364.109	98.69
364.335	87.69
364.562	80.69
364.788	75.69
365.015	93.69
365.241	85.69
365.468	87.69
365.694	87.69
365.92	99.69
366.147	85.69
366.373	88.69
366.599	101.69
366.826	94.69
367.052	88.69
367.278	91.69
367.505	95.69
367.731	94.69
367.957	84.69
368.184	83.69
368.41	87.69
368.636	74.69
368.862	88.69
369.089	100.69
369.315	87.69
369.541	78.69
369.767	97.69
369.993	96.69
370.219	90.69
370.445	88.69
370.672	88.69
370.898	89.69
371.124	95.69
371.35	86.69
371.576	90.69
371.802	83.69
372.028	89.69
372.254	94.69
372.48	94.69
372.706	100.69
372.932	87.69
373.158	99.69
373.384	83.69
373.61	102.69
373.835	100.69
374.061	100.69
374.287	94.69
374.513	76.69
374.739	87.69
374.965	94.69
375.191	84.69
375.416	92.69
375.642	89.69
375.868	94.69
376.094	95.69
376.319	77.69
376.545	89.69
376.771	98.69
376.997	102.69
377.222	94.69
377.448	78.69
377.674	102.69
377.899	100.69
378.125	90.69
378.35	79.69
378.576	90.69
378.802	92.69
379.027	85.69
379.253	105.69
379.478	98.69
379.704	69.69
379.929	86.69
380.155	84.69
380.38	92.69
380.606	83.69
380.831	89.69
381.057	85.69
381.282	92.69
381.507	98.69
381.733	89.69
381.958	92.69
382.184	82.69
382.409	98.69
382.634	88.69
382.86	107.69
383.085	96.69
383.31	93.69
383.535	90.69
383.761	99.69
383.986	91.69
384.211	92.69
384.436	98.69
384.662	89.69
384.887	107.69
385.112	92.69
385.337	81.69
385.562	92.69
385.787	92.69
386.013	111.69
386.238	98.69
386.463	97.69
386.688	78.69
386.913	98.69
387.138	96.69
387.363	108.69
387.588	105.69
387.813	116.69
388.038	84.69
388.263	98.69
388.488	106.69
388.713	92.69
388.938	99.69
389.163	105.69
389.387	91.69
389.612	98.69
389.837	105.69
390.062	93.69
390.287	101.69
390.512	98.69
390.736	94.69
390.961	89.69
391.186	87.69
391.411	106.69
391.636	101.69
391.86	120.69
392.085	90.69
392.31	103.69
392.534	84.69
392.759	99.69
392.984	106.69
393.208	112.69
393.433	103.69
393.658	94.69
393.882	100.69
394.107	104.69
394.331	99.69
394.556	93.69
394.78	100.69
395.005	109.69
395.229	99.69
395.454	105.69
395.678	100.69
395.903	105.69
396.127	113.69
396.352	106.69
396.576	105.69
396.801	94.69
397.025	99.69
397.249	117.69
397.474	103.69
397.698	101.69
397.922	126.69
398.147	91.69
398.371	89.69
398.595	103.69
398.82	109.69
399.044	113.69
399.268	107.69
399.492	102.69
399.717	103.69
399.941	108.69
400.165	119.69
400.389	107.69
400.613	108.69
400.837	100.69
401.062	117.69
401.286	100.69
401.51	107.69
401.734	114.69
401.958	112.69
402.182	97.69
402.406	98.69
402.63	94.69
402.854	107.69
403.078	113.69
403.302	107.69
403.526	106.69
403.75	110.69
403.974	117.69
404.198	123.69
404.422	106.69
404.645	119.69
404.869	105.69
405.093	110.69
405.317	124.69
405.541	101.69
405.765	113.69
405.988	118.69
406.212	113.69
406.436	106.69
406.66	102.69
406.883	122.69
407.107	113.69
407.331	115.69
407.555	114.69
407.778	109.69
408.002	115.69
408.226	109.69
408.449	102.69
408.673	122.69
408.896	109.69
409.12	100.69
409.344	113.69
409.567	117.69
409.791	116.69
410.014	110.69
410.238	115.69
410.461	114.69
410.685	116.69
410.908	117.69
411.132	103.69
411.355	115.69
411.578	108.69
411.802	123.69
412.025	113.69
412.249	103.69
412.472	93.69
412.695	105.69
412.919	108.69
413.142	103.69
413.365	109.69
413.589	107.69
413.812	98.69
414.035	105.69
414.258	114.69
414.482	107.69
414.705	103.69
414.928	107.69
415.151	110.69
415.374	110.69
415.597	105.69
415.821	105.69
416.044	100.69
416.267	100.69
416.49	111.69
416.713	128.69
416.936	96.69
417.159	116.69
417.382	105.69
417.605	115.69
417.828	117.69
418.051	120.69
418.274	119.69
418.497	109.69
418.72	119.69
418.943	117.69
419.166	126.69
419.389	108.69
419.611	125.69
419.834	97.69
420.057	112.69
420.28	122.69
420.503	114.69
420.726	117.69
420.948	112.69
421.171	105.69
421.394	115.69
421.617	117.69
421.839	103.69
422.062	108.69
422.285	104.69
422.507	108.69
422.73	108.69
422.953	130.69
423.175	123.69
423.398	113.69
423.621	124.69
423.843	127.69
424.066	117.69
424.288	116.69
424.511	108.69
424.733	123.69
424.956	108.69
425.178	113.69
425.401	116.69
425.623	122.69
425.846	114.69
426.068	110.69
426.291	104.69
426.513	119.69
426.735	121.69
426.958	108.69
427.18	118.69
427.402	113.69
427.625	119.69
427.847	117.69
428.069	122.69
428.292	115.69
428.514	122.69
428.736	100.69
428.958	108.69
429.181	105.69
429.403	124.69
429.625	113.69
429.847	93.69
430.069	107.69
430.292	129.69
430.514	108.69
430.736	125.69
430.958	117.69
431.18	115.69
431.402	113.69
431.624	110.69
431.846	115.69
432.068	111.69
432.29	121.69
432.512	106.69
432.734	109.69
432.956	113.69
433.178	123.69
433.4	117.69
433.622	120.69
433.844	124.69
434.066	102.69
434.287	116.69
434.509	105.69
434.731	108.69
434.953	109.69
435.175	108.69
435.397	111.69
435.618	103.69
435.84	113.69
436.062	119.69
436.284	110.69
436.505	122.69
436.727	126.69
436.949	119.69
437.17	118.69
437.392	106.69
437.614	110.69
437.835	107.69
438.057	105.69
438.278	104.69
438.5	110.69
438.721	107.69
438.943	113.69
439.165	114.69
439.386	112.69
439.608	131.69
439.829	115.69
440.05	104.69
440.272	113.69
440.493	113.69
440.715	111.69
440.936	125.69
441.158	116.69
441.379	134.69
441.6	119.69
441.822	107.69
442.043	111.69
442.264	118.69
442.486	128.69
442.707	119.69
442.928	119.69
443.149	121.69
443.371	128.69
443.592	129.69
443.813	123.69
444.034	118.69
444.255	122.69
444.476	127.69
444.698	133.69
444.919	118.69
445.14	246.69
445.361	166.69
445.582	111.69
445.803	117.69
446.024	118.69
446.245	125.69
446.466	130.69
446.687	117.69
446.908	129.69
447.129	109.69
447.35	110.69
447.571	116.69
447.792	125.69
448.013	104.69
448.234	125.69
448.455	108.69
448.675	121.69
448.896	114.69
449.117	115.69
449.338	110.69
449.559	115.69
449.779	123.69
450	103.69
450.221	101.69
450.442	130.69
450.662	113.69
450.883	111.69
451.104	107.69
451.324	102.69
451.545	111.69
451.766	127.69
451.986	111.69
452.207	110.69
452.428	106.69
452.648	101.69
452.869	112.69
453.089	103.69
453.31	104.69
453.53	108.69
453.751	104.69
453.971	102.69
454.192	113.69
454.412	103.69
454.633	102.69
454.853	106.69
455.073	116.69
455.294	111.69
455.514	103.69
455.734	102.69
455.955	105.69
456.175	106.69
456.395	113.69
456.616	107.69
456.836	99.69
457.056	103.69
457.276	104.69
457.497	107.69
457.717	104.69
457.937	90.69
458.157	106.69
458.377	114.69
458.598	120.69
458.818	100.69
459.038	102.69
459.258	103.69
459.478	98.69
459.698	102.69
459.918	104.69
460.138	110.69
460.358	115.69
460.578	126.69
460.798	120.69
461.018	130.69
461.238	112.69
461.458	125.69
461.678	123.69
461.898	117.69
462.118	133.69
462.338	127.69
462.558	117.69
462.777	114.69
462.997	122.69
463.217	113.69
463.437	109.69
463.657	115.69
463.876	125.69
464.096	115.69
464.316	107.69
464.536	121.69
464.755	115.69
464.975	120.69
465.195	117.69
465.414	102.69
465.634	100.69
465.854	113.69
466.073	121.69
466.293	123.69
466.512	111.69
466.732	129.69
466.951	129.69
467.171	122.69
467.391	101.69
467.61	115.69
467.829	116.69
468.049	118.69
468.268	99.69
468.488	125.69
468.707	110.69
468.927	115.69
469.146	116.69
469.365	114.69
469.585	123.69
469.804	134.69
470.023	121.69
470.243	127.69
470.462	129.69
470.681	135.69
470.901	123.69
471.12	140.69
471.339	118.69
471.558	123.69
471.777	134.69
471.997	137.69
472.216	121.69
472.435	108.69
472.654	108.69
472.873	122.69
473.092	109.69
473.311	109.69
473.53	126.69
473.749	130.69
473.968	116.69
474.187	110.69
474.406	115.69
474.625	115.69
474.844	120.69
475.063	93.69
475.282	111.69
475.501	112.69
475.72	123.69
475.939	104.69
476.158	113.69
476.377	121.69
476.596	122.69
476.814	120.69
477.033	121.69
477.252	118.69
477.471	126.69
477.69	125.69
477.908	131.69
478.127	131.69
478.346	133.69
478.564	116.69
478.783	105.69
479.002	129.69
479.22	123.69
479.439	110.69
479.658	137.69
479.876	123.69
480.095	125.69
480.313	121.69
480.532	127.69
480.751	127.69
480.969	125.69
481.188	116.69
481.406	113.69
481.624	101.69
481.843	125.69
482.061	117.69
482.28	120.69
482.498	112.69
482.717	115.69
482.935	124.69
483.153	137.69
483.372	123.69
483.59	136.69
483.808	131.69
484.027	127.69
484.245	125.69
484.463	109.69
484.681	125.69
484.9	127.69
485.118	120.69
485.336	120.69
485.554	124.69
485.772	118.69
485.99	126.69
486.209	120.69
486.427	127.69
486.645	113.69
486.863	129.69
487.081	129.69
487.299	130.69
487.517	144.69
487.735	143.69
487.953	137.69
488.171	150.69
488.389	147.69
488.607	142.69
488.825	134.69
489.043	134.69
489.261	122.69
489.479	128.69
489.696	132.69
489.914	143.69
490.132	138.69
490.35	129.69
490.568	147.69
490.786	146.69
491.003	131.69
491.221	130.69
491.439	148.69
491.657	145.69
491.874	169.69
492.092	169.69
492.31	140.69
492.527	172.69
492.745	166.69
492.963	140.69
493.18	147.69
493.398	140.69
493.615	153.69
493.833	133.69
494.05	134.69
494.268	158.69
494.485	148.69
494.703	133.69
494.92	147.69
495.138	147.69
495.355	136.69
495.573	158.69
495.79	132.69
496.008	143.69
496.225	148.69
496.442	129.69
496.66	166.69
496.877	139.69
497.094	147.69
497.312	150.69
497.529	153.69
497.746	147.69
497.963	141.69
498.181	139.69
498.398	142.69
498.615	140.69
498.832	153.69
499.049	139.69
499.267	165.69
499.484	172.69
499.701	177.69
499.918	194.69
500.135	191.69
500.352	202.69
500.569	232.69
500.786	218.69
501.003	198.69
501.22	186.69
501.437	183.69
501.654	174.69
501.871	167.69
502.088	163.69
502.305	147.69
502.522	156.69
502.739	136.69
502.956	137.69
503.172	150.69
503.389	151.69
503.606	136.69
503.823	137.69
504.04	146.69
504.256	151.69
504.473	140.69
504.69	124.69
504.907	132.69
505.123	143.69
505.34	137.69
505.557	123.69
505.773	142.69
505.99	129.69
506.207	110.69
506.423	121.69
506.64	113.69
506.856	123.69
507.073	125.69
507.289	130.69
507.506	124.69
507.722	115.69
507.939	125.69
508.155	136.69
508.372	106.69
508.588	118.69
508.805	125.69
509.021	115.69
509.238	124.69
509.454	129.69
509.67	113.69
509.887	99.69
510.103	124.69
510.319	108.69
510.536	109.69
510.752	116.69
510.968	130.69
511.184	129.69
511.401	125.69
511.617	106.69
511.833	118.69
512.049	115.69
512.265	121.69
512.481	114.69
512.698	135.69
512.914	121.69
513.13	115.69
513.346	110.69
513.562	121.69
513.778	125.69
513.994	101.69
514.21	118.69
514.426	109.69
514.642	121.69
514.858	115.69
515.074	117.69
515.29	119.69
515.506	109.69
515.721	113.69
515.937	116.69
516.153	113.69
516.369	114.69
516.585	105.69
516.801	122.69
517.016	115.69
517.232	123.69
517.448	116.69
517.664	143.69
517.879	124.69
518.095	123.69
518.311	130.69
518.527	125.69
518.742	125.69
518.958	110.69
519.173	117.69
519.389	105.69
519.605	129.69
519.82	142.69
520.036	125.69
520.251	115.69
520.467	123.69
520.682	115.69
520.898	119.69
521.113	132.69
521.329	109.69
521.544	114.69
521.76	119.69
521.975	117.69
522.19	115.69
522.406	123.69
522.621	115.69
522.836	117.69
523.052	129.69
523.267	127.69
523.482	123.69
523.698	133.69
523.913	121.69
524.128	129.69
524.343	128.69
524.559	118.69
524.774	101.69
524.989	131.69
525.204	115.69
525.419	127.69
525.634	124.69
525.849	129.69
526.064	123.69
526.28	108.69
526.495	111.69
526.71	110.69
526.925	113.69
527.14	112.69
527.355	115.69
527.57	116.69
527.785	119.69
527.999	116.69
528.214	118.69
528.429	115.69
528.644	107.69
528.859	123.69
529.074	126.69
529.289	127.69
529.503	126.69
529.718	129.69
529.933	121.69
530.148	116.69
530.363	110.69
530.577	110.69
530.792	114.69
531.007	127.69
531.221	112.69
531.436	117.69
531.651	104.69
531.865	115.69
532.08	118.69
532.295	118.69
532.509	87.69
532.724	106.69
532.938	103.69
533.153	104.69
533.367	125.69
533.582	112.69
533.796	133.69
534.011	129.69
534.225	124.69
534.44	92.69
534.654	125.69
534.868	125.69
535.083	126.69
535.297	104.69
535.511	113.69
535.726	103.69
535.94	123.69
536.154	127.69
536.369	114.69
536.583	117.69
536.797	107.69
537.011	102.69
537.225	116.69
537.44	89.69
537.654	111.69
537.868	118.69
538.082	97.69
538.296	114.69
538.51	119.69
538.724	123.69
538.938	115.69
539.153	120.69
539.367	126.69
539.581	105.69
539.795	121.69
540.009	110.69
540.222	108.69
540.436	120.69
540.65	116.69
540.864	134.69
541.078	125.69
541.292	131.69
541.506	154.69
541.72	131.69
541.934	133.69
542.147	136.69
542.361	134.69
542.575	130.69
542.789	130.69
543.002	132.69
543.216	126.69
543.43	124.69
543.644	118.69
543.857	137.69
544.071	127.69
544.285	144.69
544.498	125.69
544.712	123.69
544.925	131.69
545.139	123.69
545.352	140.69
545.566	147.69
545.779	153.69
545.993	130.69
546.206	123.69
546.42	128.69
546.633	142.69
546.847	131.69
547.06	133.69
547.274	120.69
547.487	136.69
547.7	135.69
547.914	152.69
548.127	139.69
548.34	133.69
548.554	123.69
548.767	140.69
548.98	138.69
549.193	147.69
549.407	142.69
549.62	134.69
549.833	117.69
550.046	141.69
550.259	144.69
550.473	129.69
550.686	133.69
550.899	124.69
551.112	125.69
551.325	130.69
551.538	139.69
551.751	107.69
551.964	118.69
552.177	137.69
552.39	131.69
552.603	128.69
552.816	123.69
553.029	131.69
553.242	130.69
553.455	131.69
553.667	132.69
553.88	126.69
554.093	121.69
554.306	125.69
554.519	125.69
554.732	129.69
554.944	119.69
555.157	130.69
555.37	113.69
555.583	129.69
555.795	134.69
556.008	114.69
556.221	125.69
556.433	120.69
556.646	121.69
556.859	128.69
557.071	113.69
557.284	99.69
557.496	121.69
557.709	131.69
557.921	120.69
558.134	129.69
558.346	123.69
558.559	121.69
558.771	111.69
558.984	117.69
559.196	121.69
559.409	114.69
559.621	121.69
559.833	117.69
560.046	118.69
560.258	116.69
560.47	124.69
560.683	117.69
560.895	116.69
561.107	119.69
561.32	101.69
561.532	97.69
561.744	120.69
561.956	118.69
562.168	118.69
562.381	107.69
562.593	109.69
562.805	116.69
563.017	124.69
563.229	119.69
563.441	118.69
563.653	109.69
563.865	117.69
564.077	114.69
564.289	106.69
564.501	114.69
564.713	102.69
564.925	113.69
565.137	114.69
565.349	108.69
565.561	116.69
565.773	131.69
565.985	124.69
566.197	114.69
566.408	121.69
566.62	118.69
566.832	129.69
567.044	135.69
567.255	118.69
567.467	134.69
567.679	117.69
567.891	128.69
568.102	118.69
568.314	117.69
568.526	116.69
568.737	101.69
568.949	108.69
569.161	104.69
569.372	116.69
569.584	102.69
569.795	102.69
570.007	99.69
570.218	99.69
570.43	94.69
570.641	93.69
570.853	99.69
571.064	114.69
571.276	111.69
571.487	107.69
571.698	126.69
571.91	110.69
572.121	94.69
572.333	97.69
572.544	103.69
572.755	118.69
572.966	97.69
573.178	108.69
573.389	96.69
573.6	91.69
573.811	106.69
574.023	102.69
574.234	99.69
574.445	89.69
574.656	101.69
574.867	120.69
575.078	111.69
575.289	90.69
575.501	107.69
575.712	94.69
575.923	103.69
576.134	103.69
576.345	87.69
576.556	95.69
576.767	95.69
576.978	115.69
577.188	97.69
577.399	97.69
577.61	105.69
577.821	109.69
578.032	89.69
578.243	98.69
578.454	102.69
578.665	102.69
578.875	98.69
579.086	91.69
579.297	93.69
579.508	91.69
579.718	102.69
579.929	107.69
580.14	107.69
580.35	108.69
580.561	85.69
580.772	109.69
580.982	104.69
581.193	110.69
581.403	107.69
581.614	102.69
581.825	85.69
582.035	95.69
582.246	99.69
582.456	97.69
582.667	99.69
582.877	105.69
583.087	83.69
583.298	101.69
583.508	74.69
583.719	88.69
583.929	95.69
584.139	94.69
584.35	92.69
584.56	93.69
584.77	88.69
584.981	81.69
585.191	99.69
585.401	100.69
585.611	89.69
585.821	103.69
586.032	78.69
586.242	94.69
586.452	94.69
586.662	105.69
586.872	91.69
587.082	82.69
587.292	93.69
587.502	79.69
587.713	77.69
587.923	92.69
588.133	108.69
588.343	96.69
588.553	97.69
588.762	107.69
588.972	109.69
589.182	110.69
589.392	103.69
589.602	98.69
589.812	93.69
590.022	87.69
590.232	97.69
590.441	98.69
590.651	98.69
590.861	88.69
591.071	114.69
591.281	95.69
591.49	91.69
591.7	102.69
591.91	105.69
592.119	104.69
592.329	98.69
592.539	98.69
592.748	86.69
592.958	108.69
593.167	98.69
593.377	93.69
593.587	99.69
593.796	91.69
594.006	91.69
594.215	101.69
594.424	110.69
594.634	85.69
594.843	101.69
595.053	100.69
595.262	111.69
595.472	98.69
595.681	101.69
595.89	101.69
596.1	97.69
596.309	79.69
596.518	88.69
596.727	89.69
596.937	81.69
597.146	82.69
597.355	117.69
597.564	94.69
597.774	95.69
597.983	84.69
598.192	87.69
598.401	89.69
598.61	104.69
598.819	90.69
599.028	83.69
599.237	89.69
599.446	92.69
599.655	111.69
599.864	89.69
600.073	95.69
600.282	97.69
600.491	90.69
600.7	82.69
600.909	83.69
601.118	100.69
601.327	83.69
601.536	106.69
601.745	99.69
601.953	100.69
602.162	94.69
602.371	103.69
602.58	90.69
602.789	102.69
602.997	108.69
603.206	96.69
603.415	92.69
603.623	78.69
603.832	97.69
604.041	103.69
604.249	103.69
604.458	98.69
604.666	103.69
604.875	91.69
605.084	101.69
605.292	97.69
605.501	99.69
605.709	109.69
605.918	101.69
606.126	113.69
606.334	104.69
606.543	86.69
606.751	99.69
606.96	100.69
607.168	101.69
607.376	103.69
607.585	92.69
607.793	84.69
608.001	94.69
608.21	97.69
608.418	94.69
608.626	83.69
608.834	105.69
609.043	107.69
609.251	98.69
609.459	99.69
609.667	95.69
609.875	102.69
610.083	105.69
610.291	93.69
610.499	98.69
610.707	119.69
610.916	100.69
611.124	86.69
611.332	98.69
611.54	101.69
611.748	116.69
611.955	109.69
612.163	99.69
612.371	100.69
612.579	106.69
612.787	99.69
612.995	96.69
613.203	108.69
613.411	92.69
613.618	101.69
613.826	86.69
614.034	95.69
614.242	99.69
614.449	91.69
614.657	90.69
614.865	101.69
615.072	84.69
615.28	95.69
615.488	100.69
615.695	105.69
615.903	82.69
616.111	94.69
616.318	104.69
616.526	91.69
616.733	95.69
616.941	102.69
617.148	105.69
617.356	92.69
617.563	92.69
617.771	100.69
617.978	103.69
618.185	100.69
618.393	97.69
618.6	104.69
618.807	85.69
619.015	87.69
619.222	102.69
619.429	104.69
619.637	91.69
619.844	92.69
620.051	84.69
620.258	89.69
620.466	102.69
620.673	95.69
620.88	93.69
621.087	107.69
621.294	87.69
621.501	98.69
621.708	99.69
621.915	105.69
622.122	86.69
622.329	93.69
622.536	98.69
622.743	94.69
622.95	107.69
623.157	94.69
623.364	97.69
623.571	86.69
623.778	98.69
623.985	85.69
624.192	86.69
624.399	108.69
624.606	94.69
624.812	77.69
625.019	90.69
625.226	106.69
625.433	90.69
625.639	82.69
625.846	88.69
626.053	89.69
626.259	99.69
626.466	94.69
626.673	98.69
626.879	89.69
627.086	94.69
627.293	92.69
627.499	95.69
627.706	87.69
627.912	87.69
628.119	92.69
628.325	89.69
628.532	100.69
628.738	99.69
628.945	89.69
629.151	101.69
629.357	72.69
629.564	94.69
629.77	97.69
629.976	98.69
630.183	75.69
630.389	85.69
630.595	82.69
630.802	85.69
631.008	95.69
631.214	84.69
631.42	105.69
631.627	98.69
631.833	102.69
632.039	77.69
632.245	75.69
632.451	97.69
632.657	100.69
632.863	98.69
633.069	101.69
633.275	90.69
633.481	88.69
633.688	90.69
633.893	94.69
634.099	100.69
634.305	95.69
634.511	101.69
634.717	95.69
634.923	94.69
635.129	83.69
635.335	93.69
635.541	95.69
635.747	99.69
635.952	86.69
636.158	85.69
636.364	97.69
636.57	93.69
636.775	90.69
636.981	91.69
637.187	73.69
637.392	84.69
637.598	94.69
637.804	91.69
638.009	93.69
638.215	97.69
638.421	72.69
638.626	86.69
638.832	81.69
639.037	92.69
639.243	90.69
639.448	93.69
639.654	92.69
639.859	95.69
640.065	94.69
640.27	104.69
640.475	89.69
640.681	77.69
640.886	86.69
641.091	83.69
641.297	95.69
641.502	93.69
641.707	89.69
641.913	95.69
642.118	92.69
642.323	89.69
642.528	83.69
642.733	77.69
642.939	86.69
643.144	91.69
643.349	87.69
643.554	82.69
643.759	89.69
643.964	91.69
644.169	88.69
644.374	85.69
644.579	86.69
644.784	83.69
644.989	92.69
645.194	91.69
645.399	81.69
645.604	105.69
645.809	94.69
646.014	98.69
646.219	74.69
646.423	81.69
646.628	90.69
646.833	109.69
647.038	76.69
647.243	90.69
647.447	93.69
647.652	85.69
647.857	94.69
648.062	106.69
648.266	96.69
648.471	80.69
648.676	72.69
648.88	87.69
649.085	104.69
649.289	101.69
649.494	88.69
649.698	97.69
649.903	91.69
650.107	81.69
650.312	87.69
650.516	85.69
650.721	83.69
650.925	82.69
651.13	99.69
651.334	77.69
651.539	89.69
651.743	104.69
651.947	105.69
652.152	94.69
652.356	76.69
652.56	96.69
652.764	101.69
652.969	86.69
653.173	84.69
653.377	85.69
653.581	87.69
653.785	93.69
653.99	86.69
654.194	88.69
654.398	89.69
654.602	104.69
654.806	83.69
655.01	85.69
655.214	93.69
655.418	90.69
655.622	85.69
655.826	92.69
656.03	102.69
656.234	92.69
656.438	91.69
656.642	85.69
656.846	89.69
657.049	73.69
657.253	92.69
657.457	90.69
657.661	72.69
657.865	104.69
658.068	103.69
658.272	97.69
658.476	91.69
658.68	65.69
658.883	87.69
659.087	89.69
659.291	91.69
659.494	73.69
659.698	93.69
659.901	79.69
660.105	91.69
660.309	95.69
660.512	84.69
660.716	82.69
660.919	91.69
661.123	77.69
661.326	91.69
661.53	94.69
661.733	94.69
661.936	75.69
662.14	76.69
662.343	83.69
662.546	86.69
662.75	85.69
662.953	90.69
663.156	78.69
663.36	94.69
663.563	97.69
663.766	87.69
663.969	92.69
664.173	78.69
664.376	74.69
664.579	87.69
664.782	92.69
664.985	93.69
665.188	89.69
665.391	86.69
665.594	85.69
665.797	87.69
666	80.69
666.203	78.69
666.406	78.69
666.609	82.69
666.812	87.69
667.015	78.69
667.218	89.69
667.421	76.69
667.624	85.69
667.827	85.69
668.03	93.69
668.232	80.69
668.435	83.69
668.638	85.69
668.841	88.69
669.043	70.69
669.246	101.69
669.449	88.69
669.651	79.69
669.854	66.69
670.057	77.69
670.259	83.69
670.462	81.69
670.665	89.69
670.867	78.69
671.07	92.69
671.272	86.69
671.475	92.69
671.677	83.69
671.88	80.69
672.082	86.69
672.284	86.69
672.487	92.69
672.689	96.69
672.892	86.69
