Data from StandardFe(NO3)3.TAE.3%Agarose.FlatLispGreen.Lamp.Energy10.07252019_HRD10591_11-54-10-440.txt Node
Date: Thu Jul 25 11:54:10 EDT 2019
User: cochatt
Spectrometer: HR+D1059
Trigger mode: 1
Integration Time (sec): 1.000000E-1
Scans to average: 1
Electric dark correction enabled: true
Nonlinearity correction enabled: false
Boxcar width: 0
XAxis mode: Wavelengths
Number of Pixels in Spectrum: 2048
>>>>>Begin Spectral Data<<<<<
223.165	-25.62
223.4	-25.62
223.635	-25.62
223.869	-8.62
224.104	-20.62
224.338	-5.62
224.573	-15.62
224.808	-5.62
225.042	-11.62
225.277	-7.62
225.511	-1.62
225.746	-1.62
225.98	16.38
226.215	0.38
226.449	15.38
226.683	17.38
226.918	22.38
227.152	32.38
227.387	40.38
227.621	33.38
227.856	29.38
228.09	53.38
228.324	47.38
228.559	55.38
228.793	51.38
229.027	58.38
229.262	61.38
229.496	51.38
229.73	72.38
229.964	83.38
230.199	71.38
230.433	76.38
230.667	75.38
230.901	81.38
231.136	87.38
231.37	86.38
231.604	78.38
231.838	89.38
232.072	74.38
232.306	83.38
232.541	73.38
232.775	76.38
233.009	75.38
233.243	96.38
233.477	73.38
233.711	87.38
233.945	79.38
234.179	82.38
234.413	79.38
234.647	81.38
234.881	69.38
235.115	73.38
235.349	83.38
235.583	78.38
235.817	71.38
236.051	80.38
236.285	83.38
236.519	68.38
236.753	80.38
236.987	81.38
237.221	82.38
237.455	93.38
237.689	68.38
237.922	80.38
238.156	71.38
238.39	83.38
238.624	81.38
238.858	83.38
239.091	78.38
239.325	68.38
239.559	89.38
239.793	81.38
240.027	67.38
240.26	78.38
240.494	81.38
240.728	69.38
240.961	71.38
241.195	80.38
241.429	82.38
241.662	67.38
241.896	76.38
242.13	72.38
242.363	72.38
242.597	84.38
242.83	77.38
243.064	73.38
243.298	76.38
243.531	84.38
243.765	70.38
243.998	88.38
244.232	69.38
244.465	86.38
244.699	64.38
244.932	65.38
245.166	69.38
245.399	71.38
245.633	68.38
245.866	88.38
246.099	80.38
246.333	75.38
246.566	75.38
246.8	75.38
247.033	83.38
247.266	83.38
247.5	89.38
247.733	81.38
247.966	87.38
248.2	90.38
248.433	90.38
248.666	67.38
248.899	75.38
249.133	73.38
249.366	83.38
249.599	79.38
249.832	71.38
250.066	77.38
250.299	94.38
250.532	76.38
250.765	74.38
250.998	90.38
251.231	75.38
251.465	82.38
251.698	94.38
251.931	85.38
252.164	76.38
252.397	81.38
252.63	75.38
252.863	77.38
253.096	93.38
253.329	83.38
253.562	86.38
253.795	82.38
254.028	69.38
254.261	77.38
254.494	79.38
254.727	77.38
254.96	68.38
255.193	104.38
255.426	80.38
255.659	87.38
255.892	83.38
256.124	72.38
256.357	97.38
256.59	88.38
256.823	74.38
257.056	78.38
257.289	72.38
257.521	83.38
257.754	88.38
257.987	84.38
258.22	87.38
258.452	93.38
258.685	81.38
258.918	91.38
259.151	77.38
259.383	82.38
259.616	71.38
259.849	70.38
260.081	70.38
260.314	83.38
260.547	76.38
260.779	76.38
261.012	72.38
261.244	88.38
261.477	83.38
261.71	69.38
261.942	76.38
262.175	75.38
262.407	85.38
262.64	83.38
262.872	84.38
263.105	93.38
263.337	85.38
263.57	84.38
263.802	90.38
264.035	84.38
264.267	80.38
264.499	66.38
264.732	78.38
264.964	92.38
265.197	81.38
265.429	83.38
265.661	75.38
265.894	88.38
266.126	87.38
266.358	83.38
266.591	79.38
266.823	89.38
267.055	95.38
267.287	87.38
267.52	86.38
267.752	90.38
267.984	87.38
268.216	81.38
268.448	97.38
268.681	89.38
268.913	77.38
269.145	93.38
269.377	89.38
269.609	62.38
269.841	83.38
270.073	74.38
270.306	86.38
270.538	84.38
270.77	72.38
271.002	83.38
271.234	76.38
271.466	91.38
271.698	82.38
271.93	87.38
272.162	95.38
272.394	90.38
272.626	86.38
272.858	89.38
273.09	90.38
273.322	70.38
273.553	88.38
273.785	88.38
274.017	89.38
274.249	77.38
274.481	91.38
274.713	76.38
274.945	80.38
275.176	70.38
275.408	79.38
275.64	83.38
275.872	93.38
276.104	81.38
276.335	90.38
276.567	87.38
276.799	77.38
277.031	81.38
277.262	71.38
277.494	69.38
277.726	72.38
277.957	77.38
278.189	87.38
278.421	90.38
278.652	87.38
278.884	77.38
279.115	74.38
279.347	95.38
279.579	70.38
279.81	79.38
280.042	79.38
280.273	89.38
280.505	76.38
280.736	81.38
280.968	85.38
281.199	80.38
281.431	87.38
281.662	85.38
281.894	100.38
282.125	95.38
282.356	98.38
282.588	83.38
282.819	81.38
283.051	90.38
283.282	100.38
283.513	79.38
283.745	88.38
283.976	79.38
284.207	82.38
284.439	81.38
284.67	76.38
284.901	85.38
285.132	78.38
285.364	98.38
285.595	82.38
285.826	72.38
286.057	83.38
286.288	81.38
286.52	99.38
286.751	84.38
286.982	91.38
287.213	76.38
287.444	75.38
287.675	67.38
287.906	89.38
288.138	85.38
288.369	82.38
288.6	77.38
288.831	63.38
289.062	82.38
289.293	80.38
289.524	76.38
289.755	83.38
289.986	83.38
290.217	77.38
290.448	74.38
290.679	91.38
290.91	78.38
291.141	87.38
291.371	93.38
291.602	81.38
291.833	91.38
292.064	97.38
292.295	76.38
292.526	85.38
292.757	95.38
292.987	93.38
293.218	76.38
293.449	97.38
293.68	83.38
293.91	81.38
294.141	87.38
294.372	91.38
294.603	102.38
294.833	98.38
295.064	83.38
295.295	76.38
295.525	87.38
295.756	67.38
295.987	89.38
296.217	86.38
296.448	87.38
296.679	85.38
296.909	89.38
297.14	82.38
297.37	87.38
297.601	88.38
297.831	83.38
298.062	76.38
298.292	83.38
298.523	86.38
298.753	94.38
298.984	86.38
299.214	90.38
299.445	75.38
299.675	74.38
299.905	84.38
300.136	88.38
300.366	79.38
300.597	74.38
300.827	85.38
301.057	86.38
301.288	87.38
301.518	92.38
301.748	74.38
301.979	88.38
302.209	82.38
302.439	81.38
302.669	97.38
302.9	87.38
303.13	90.38
303.36	77.38
303.59	75.38
303.82	84.38
304.051	88.38
304.281	92.38
304.511	84.38
304.741	88.38
304.971	90.38
305.201	92.38
305.431	78.38
305.661	85.38
305.891	65.38
306.121	85.38
306.352	89.38
306.582	75.38
306.812	84.38
307.042	75.38
307.272	91.38
307.502	85.38
307.731	85.38
307.961	91.38
308.191	84.38
308.421	91.38
308.651	86.38
308.881	90.38
309.111	92.38
309.341	89.38
309.571	90.38
309.8	79.38
310.03	82.38
310.26	80.38
310.49	87.38
310.72	97.38
310.949	86.38
311.179	94.38
311.409	79.38
311.639	86.38
311.868	100.38
312.098	96.38
312.328	82.38
312.557	84.38
312.787	99.38
313.017	79.38
313.246	78.38
313.476	78.38
313.706	92.38
313.935	83.38
314.165	85.38
314.394	84.38
314.624	90.38
314.853	86.38
315.083	77.38
315.312	96.38
315.542	83.38
315.771	94.38
316.001	82.38
316.23	79.38
316.46	75.38
316.689	69.38
316.919	90.38
317.148	79.38
317.377	92.38
317.607	77.38
317.836	88.38
318.065	87.38
318.295	83.38
318.524	93.38
318.753	80.38
318.983	96.38
319.212	94.38
319.441	96.38
319.67	88.38
319.9	80.38
320.129	73.38
320.358	81.38
320.587	72.38
320.816	83.38
321.046	87.38
321.275	79.38
321.504	87.38
321.733	87.38
321.962	75.38
322.191	89.38
322.42	89.38
322.649	98.38
322.878	92.38
323.108	84.38
323.337	81.38
323.566	71.38
323.795	88.38
324.024	87.38
324.253	79.38
324.482	90.38
324.71	87.38
324.939	67.38
325.168	78.38
325.397	81.38
325.626	76.38
325.855	84.38
326.084	84.38
326.313	103.38
326.542	85.38
326.77	81.38
326.999	86.38
327.228	78.38
327.457	92.38
327.686	84.38
327.914	90.38
328.143	85.38
328.372	84.38
328.6	103.38
328.829	86.38
329.058	85.38
329.287	69.38
329.515	73.38
329.744	86.38
329.972	81.38
330.201	77.38
330.43	96.38
330.658	81.38
330.887	95.38
331.115	87.38
331.344	85.38
331.572	97.38
331.801	86.38
332.03	61.38
332.258	89.38
332.486	104.38
332.715	77.38
332.943	90.38
333.172	91.38
333.4	70.38
333.629	85.38
333.857	81.38
334.085	76.38
334.314	76.38
334.542	85.38
334.771	77.38
334.999	88.38
335.227	100.38
335.455	76.38
335.684	92.38
335.912	77.38
336.14	90.38
336.369	80.38
336.597	87.38
336.825	91.38
337.053	72.38
337.281	94.38
337.51	85.38
337.738	74.38
337.966	83.38
338.194	84.38
338.422	81.38
338.65	95.38
338.878	89.38
339.106	92.38
339.334	96.38
339.562	95.38
339.79	85.38
340.018	89.38
340.246	91.38
340.474	88.38
340.702	92.38
340.93	103.38
341.158	90.38
341.386	82.38
341.614	90.38
341.842	86.38
342.07	96.38
342.298	90.38
342.526	93.38
342.754	84.38
342.981	93.38
343.209	84.38
343.437	98.38
343.665	81.38
343.893	100.38
344.12	95.38
344.348	90.38
344.576	82.38
344.804	81.38
345.031	82.38
345.259	96.38
345.487	77.38
345.714	82.38
345.942	75.38
346.17	83.38
346.397	93.38
346.625	89.38
346.853	88.38
347.08	92.38
347.308	84.38
347.535	83.38
347.763	82.38
347.99	82.38
348.218	92.38
348.445	89.38
348.673	95.38
348.9	76.38
349.128	95.38
349.355	81.38
349.583	87.38
349.81	100.38
350.037	89.38
350.265	74.38
350.492	85.38
350.72	89.38
350.947	78.38
351.174	90.38
351.402	78.38
351.629	96.38
351.856	87.38
352.083	93.38
352.311	84.38
352.538	86.38
352.765	82.38
352.992	91.38
353.22	90.38
353.447	89.38
353.674	84.38
353.901	87.38
354.128	86.38
354.355	93.38
354.583	82.38
354.81	93.38
355.037	84.38
355.264	87.38
355.491	79.38
355.718	84.38
355.945	79.38
356.172	89.38
356.399	76.38
356.626	69.38
356.853	86.38
357.08	88.38
357.307	72.38
357.534	90.38
357.761	76.38
357.988	79.38
358.215	92.38
358.441	92.38
358.668	79.38
358.895	85.38
359.122	85.38
359.349	89.38
359.576	99.38
359.802	76.38
360.029	96.38
360.256	93.38
360.483	83.38
360.709	82.38
360.936	93.38
361.163	73.38
361.39	78.38
361.616	103.38
361.843	82.38
362.07	88.38
362.296	84.38
362.523	89.38
362.749	84.38
362.976	82.38
363.203	97.38
363.429	94.38
363.656	83.38
363.882	78.38
364.109	88.38
364.335	70.38
364.562	89.38
364.788	86.38
365.015	95.38
365.241	98.38
365.468	79.38
365.694	93.38
365.92	88.38
366.147	74.38
366.373	82.38
366.599	89.38
366.826	88.38
367.052	97.38
367.278	76.38
367.505	76.38
367.731	97.38
367.957	90.38
368.184	76.38
368.41	102.38
368.636	99.38
368.862	96.38
369.089	95.38
369.315	85.38
369.541	85.38
369.767	98.38
369.993	86.38
370.219	97.38
370.445	80.38
370.672	83.38
370.898	95.38
371.124	95.38
371.35	80.38
371.576	80.38
371.802	81.38
372.028	91.38
372.254	92.38
372.48	93.38
372.706	95.38
372.932	83.38
373.158	85.38
373.384	93.38
373.61	102.38
373.835	76.38
374.061	88.38
374.287	90.38
374.513	80.38
374.739	89.38
374.965	87.38
375.191	72.38
375.416	89.38
375.642	97.38
375.868	82.38
376.094	81.38
376.319	88.38
376.545	97.38
376.771	89.38
376.997	101.38
377.222	92.38
377.448	81.38
377.674	92.38
377.899	95.38
378.125	114.38
378.35	81.38
378.576	84.38
378.802	89.38
379.027	93.38
379.253	80.38
379.478	94.38
379.704	76.38
379.929	88.38
380.155	84.38
380.38	85.38
380.606	97.38
380.831	90.38
381.057	88.38
381.282	100.38
381.507	94.38
381.733	96.38
381.958	81.38
382.184	95.38
382.409	83.38
382.634	87.38
382.86	90.38
383.085	104.38
383.31	94.38
383.535	101.38
383.761	90.38
383.986	85.38
384.211	97.38
384.436	79.38
384.662	83.38
384.887	92.38
385.112	98.38
385.337	96.38
385.562	92.38
385.787	95.38
386.013	97.38
386.238	108.38
386.463	98.38
386.688	97.38
386.913	107.38
387.138	88.38
387.363	89.38
387.588	91.38
387.813	89.38
388.038	90.38
388.263	106.38
388.488	97.38
388.713	102.38
388.938	95.38
389.163	87.38
389.387	91.38
389.612	101.38
389.837	99.38
390.062	89.38
390.287	96.38
390.512	103.38
390.736	96.38
390.961	90.38
391.186	85.38
391.411	84.38
391.636	94.38
391.86	97.38
392.085	99.38
392.31	106.38
392.534	100.38
392.759	100.38
392.984	93.38
393.208	90.38
393.433	96.38
393.658	95.38
393.882	92.38
394.107	95.38
394.331	89.38
394.556	95.38
394.78	103.38
395.005	91.38
395.229	98.38
395.454	103.38
395.678	96.38
395.903	102.38
396.127	90.38
396.352	100.38
396.576	102.38
396.801	92.38
397.025	109.38
397.249	111.38
397.474	103.38
397.698	118.38
397.922	108.38
398.147	106.38
398.371	103.38
398.595	106.38
398.82	102.38
399.044	96.38
399.268	91.38
399.492	111.38
399.717	101.38
399.941	109.38
400.165	124.38
400.389	108.38
400.613	111.38
400.837	101.38
401.062	86.38
401.286	116.38
401.51	99.38
401.734	105.38
401.958	111.38
402.182	113.38
402.406	112.38
402.63	112.38
402.854	117.38
403.078	106.38
403.302	105.38
403.526	114.38
403.75	95.38
403.974	105.38
404.198	115.38
404.422	112.38
404.645	115.38
404.869	111.38
405.093	99.38
405.317	118.38
405.541	105.38
405.765	104.38
405.988	109.38
406.212	118.38
406.436	95.38
406.66	117.38
406.883	102.38
407.107	110.38
407.331	111.38
407.555	103.38
407.778	121.38
408.002	113.38
408.226	121.38
408.449	111.38
408.673	104.38
408.896	113.38
409.12	110.38
409.344	106.38
409.567	106.38
409.791	107.38
410.014	113.38
410.238	100.38
410.461	109.38
410.685	106.38
410.908	123.38
411.132	106.38
411.355	123.38
411.578	109.38
411.802	107.38
412.025	107.38
412.249	111.38
412.472	114.38
412.695	123.38
412.919	116.38
413.142	108.38
413.365	107.38
413.589	104.38
413.812	106.38
414.035	108.38
414.258	116.38
414.482	113.38
414.705	103.38
414.928	121.38
415.151	109.38
415.374	105.38
415.597	130.38
415.821	123.38
416.044	99.38
416.267	108.38
416.49	118.38
416.713	106.38
416.936	107.38
417.159	127.38
417.382	113.38
417.605	111.38
417.828	118.38
418.051	121.38
418.274	120.38
418.497	102.38
418.72	100.38
418.943	98.38
419.166	119.38
419.389	117.38
419.611	113.38
419.834	105.38
420.057	109.38
420.28	119.38
420.503	111.38
420.726	120.38
420.948	119.38
421.171	125.38
421.394	119.38
421.617	104.38
421.839	125.38
422.062	125.38
422.285	129.38
422.507	121.38
422.73	118.38
422.953	113.38
423.175	120.38
423.398	107.38
423.621	111.38
423.843	137.38
424.066	125.38
424.288	116.38
424.511	117.38
424.733	121.38
424.956	116.38
425.178	120.38
425.401	113.38
425.623	112.38
425.846	122.38
426.068	106.38
426.291	107.38
426.513	107.38
426.735	113.38
426.958	120.38
427.18	108.38
427.402	120.38
427.625	117.38
427.847	89.38
428.069	103.38
428.292	111.38
428.514	115.38
428.736	107.38
428.958	116.38
429.181	127.38
429.403	108.38
429.625	127.38
429.847	130.38
430.069	128.38
430.292	120.38
430.514	112.38
430.736	103.38
430.958	125.38
431.18	114.38
431.402	122.38
431.624	108.38
431.846	106.38
432.068	95.38
432.29	101.38
432.512	119.38
432.734	107.38
432.956	135.38
433.178	124.38
433.4	111.38
433.622	102.38
433.844	109.38
434.066	119.38
434.287	115.38
434.509	102.38
434.731	99.38
434.953	113.38
435.175	129.38
435.397	129.38
435.618	113.38
435.84	116.38
436.062	109.38
436.284	94.38
436.505	107.38
436.727	103.38
436.949	112.38
437.17	101.38
437.392	111.38
437.614	109.38
437.835	99.38
438.057	88.38
438.278	105.38
438.5	103.38
438.721	108.38
438.943	108.38
439.165	105.38
439.386	123.38
439.608	104.38
439.829	124.38
440.05	135.38
440.272	106.38
440.493	106.38
440.715	106.38
440.936	121.38
441.158	114.38
441.379	120.38
441.6	128.38
441.822	129.38
442.043	124.38
442.264	117.38
442.486	121.38
442.707	116.38
442.928	122.38
443.149	124.38
443.371	131.38
443.592	122.38
443.813	116.38
444.034	107.38
444.255	121.38
444.476	120.38
444.698	124.38
444.919	120.38
445.14	249.38
445.361	191.38
445.582	120.38
445.803	125.38
446.024	117.38
446.245	128.38
446.466	124.38
446.687	140.38
446.908	132.38
447.129	113.38
447.35	114.38
447.571	111.38
447.792	129.38
448.013	103.38
448.234	112.38
448.455	117.38
448.675	120.38
448.896	109.38
449.117	111.38
449.338	100.38
449.559	105.38
449.779	95.38
450	106.38
450.221	112.38
450.442	126.38
450.662	115.38
450.883	106.38
451.104	109.38
451.324	119.38
451.545	104.38
451.766	99.38
451.986	114.38
452.207	127.38
452.428	101.38
452.648	98.38
452.869	114.38
453.089	101.38
453.31	97.38
453.53	107.38
453.751	107.38
453.971	108.38
454.192	96.38
454.412	114.38
454.633	117.38
454.853	107.38
455.073	93.38
455.294	120.38
455.514	112.38
455.734	114.38
455.955	106.38
456.175	112.38
456.395	88.38
456.616	107.38
456.836	113.38
457.056	115.38
457.276	106.38
457.497	112.38
457.717	115.38
457.937	108.38
458.157	103.38
458.377	113.38
458.598	113.38
458.818	97.38
459.038	104.38
459.258	112.38
459.478	101.38
459.698	111.38
459.918	102.38
460.138	102.38
460.358	115.38
460.578	103.38
460.798	117.38
461.018	104.38
461.238	103.38
461.458	120.38
461.678	89.38
461.898	109.38
462.118	122.38
462.338	113.38
462.558	114.38
462.777	130.38
462.997	130.38
463.217	115.38
463.437	139.38
463.657	109.38
463.876	107.38
464.096	113.38
464.316	105.38
464.536	115.38
464.755	122.38
464.975	120.38
465.195	117.38
465.414	122.38
465.634	128.38
465.854	99.38
466.073	116.38
466.293	105.38
466.512	117.38
466.732	124.38
466.951	128.38
467.171	104.38
467.391	111.38
467.61	127.38
467.829	117.38
468.049	120.38
468.268	123.38
468.488	121.38
468.707	111.38
468.927	113.38
469.146	115.38
469.365	109.38
469.585	117.38
469.804	115.38
470.023	141.38
470.243	123.38
470.462	131.38
470.681	125.38
470.901	128.38
471.12	135.38
471.339	125.38
471.558	111.38
471.777	113.38
471.997	124.38
472.216	122.38
472.435	110.38
472.654	99.38
472.873	118.38
473.092	105.38
473.311	118.38
473.53	123.38
473.749	113.38
473.968	115.38
474.187	114.38
474.406	113.38
474.625	113.38
474.844	117.38
475.063	113.38
475.282	113.38
475.501	103.38
475.72	126.38
475.939	123.38
476.158	132.38
476.377	108.38
476.596	100.38
476.814	99.38
477.033	106.38
477.252	111.38
477.471	104.38
477.69	124.38
477.908	123.38
478.127	132.38
478.346	124.38
478.564	107.38
478.783	130.38
479.002	125.38
479.22	119.38
479.439	135.38
479.658	109.38
479.876	127.38
480.095	114.38
480.313	124.38
480.532	111.38
480.751	121.38
480.969	109.38
481.188	124.38
481.406	122.38
481.624	101.38
481.843	119.38
482.061	119.38
482.28	115.38
482.498	117.38
482.717	102.38
482.935	133.38
483.153	129.38
483.372	127.38
483.59	137.38
483.808	120.38
484.027	127.38
484.245	128.38
484.463	115.38
484.681	141.38
484.9	135.38
485.118	136.38
485.336	132.38
485.554	123.38
485.772	120.38
485.99	113.38
486.209	107.38
486.427	116.38
486.645	116.38
486.863	124.38
487.081	120.38
487.299	137.38
487.517	138.38
487.735	134.38
487.953	139.38
488.171	148.38
488.389	127.38
488.607	120.38
488.825	125.38
489.043	112.38
489.261	129.38
489.479	136.38
489.696	136.38
489.914	133.38
490.132	130.38
490.35	142.38
490.568	145.38
490.786	138.38
491.003	153.38
491.221	149.38
491.439	139.38
491.657	148.38
491.874	160.38
492.092	169.38
492.31	173.38
492.527	164.38
492.745	166.38
492.963	163.38
493.18	155.38
493.398	149.38
493.615	152.38
493.833	160.38
494.05	158.38
494.268	150.38
494.485	141.38
494.703	165.38
494.92	149.38
495.138	147.38
495.355	144.38
495.573	162.38
495.79	142.38
496.008	146.38
496.225	137.38
496.442	139.38
496.66	146.38
496.877	169.38
497.094	151.38
497.312	142.38
497.529	142.38
497.746	134.38
497.963	145.38
498.181	123.38
498.398	147.38
498.615	145.38
498.832	147.38
499.049	154.38
499.267	147.38
499.484	170.38
499.701	153.38
499.918	180.38
500.135	193.38
500.352	211.38
500.569	231.38
500.786	227.38
501.003	213.38
501.22	207.38
501.437	181.38
501.654	170.38
501.871	151.38
502.088	165.38
502.305	159.38
502.522	170.38
502.739	160.38
502.956	155.38
503.172	131.38
503.389	127.38
503.606	125.38
503.823	135.38
504.04	137.38
504.256	125.38
504.473	124.38
504.69	138.38
504.907	151.38
505.123	130.38
505.34	145.38
505.557	115.38
505.773	132.38
505.99	128.38
506.207	133.38
506.423	122.38
506.64	119.38
506.856	124.38
507.073	134.38
507.289	137.38
507.506	134.38
507.722	130.38
507.939	125.38
508.155	117.38
508.372	119.38
508.588	116.38
508.805	137.38
509.021	127.38
509.238	130.38
509.454	117.38
509.67	113.38
509.887	128.38
510.103	124.38
510.319	117.38
510.536	120.38
510.752	109.38
510.968	123.38
511.184	114.38
511.401	115.38
511.617	102.38
511.833	110.38
512.049	112.38
512.265	100.38
512.481	117.38
512.698	117.38
512.914	100.38
513.13	104.38
513.346	117.38
513.562	116.38
513.778	104.38
513.994	119.38
514.21	108.38
514.426	119.38
514.642	103.38
514.858	103.38
515.074	119.38
515.29	123.38
515.506	115.38
515.721	119.38
515.937	117.38
516.153	111.38
516.369	125.38
516.585	125.38
516.801	122.38
517.016	141.38
517.232	127.38
517.448	131.38
517.664	127.38
517.879	126.38
518.095	128.38
518.311	126.38
518.527	132.38
518.742	125.38
518.958	131.38
519.173	129.38
519.389	108.38
519.605	134.38
519.82	124.38
520.036	144.38
520.251	130.38
520.467	131.38
520.682	104.38
520.898	113.38
521.113	120.38
521.329	107.38
521.544	111.38
521.76	116.38
521.975	112.38
522.19	104.38
522.406	117.38
522.621	121.38
522.836	103.38
523.052	101.38
523.267	119.38
523.482	124.38
523.698	114.38
523.913	119.38
524.128	106.38
524.343	111.38
524.559	111.38
524.774	124.38
524.989	123.38
525.204	128.38
525.419	119.38
525.634	121.38
525.849	119.38
526.064	101.38
526.28	115.38
526.495	123.38
526.71	122.38
526.925	132.38
527.14	131.38
527.355	119.38
527.57	111.38
527.785	101.38
527.999	111.38
528.214	115.38
528.429	110.38
528.644	119.38
528.859	125.38
529.074	122.38
529.289	129.38
529.503	134.38
529.718	119.38
529.933	115.38
530.148	124.38
530.363	114.38
530.577	104.38
530.792	113.38
531.007	109.38
531.221	112.38
531.436	103.38
531.651	111.38
531.865	102.38
532.08	113.38
532.295	106.38
532.509	112.38
532.724	115.38
532.938	105.38
533.153	106.38
533.367	109.38
533.582	128.38
533.796	117.38
534.011	139.38
534.225	99.38
534.44	103.38
534.654	122.38
534.868	111.38
535.083	106.38
535.297	113.38
535.511	117.38
535.726	100.38
535.94	107.38
536.154	96.38
536.369	105.38
536.583	97.38
536.797	117.38
537.011	113.38
537.225	95.38
537.44	111.38
537.654	111.38
537.868	111.38
538.082	111.38
538.296	87.38
538.51	108.38
538.724	132.38
538.938	126.38
539.153	127.38
539.367	122.38
539.581	124.38
539.795	112.38
540.009	118.38
540.222	112.38
540.436	123.38
540.65	114.38
540.864	125.38
541.078	121.38
541.292	126.38
541.506	124.38
541.72	140.38
541.934	149.38
542.147	141.38
542.361	136.38
542.575	125.38
542.789	124.38
543.002	122.38
543.216	113.38
543.43	114.38
543.644	119.38
543.857	129.38
544.071	125.38
544.285	138.38
544.498	128.38
544.712	126.38
544.925	121.38
545.139	129.38
545.352	137.38
545.566	121.38
545.779	163.38
545.993	133.38
546.206	124.38
546.42	142.38
546.633	151.38
546.847	135.38
547.06	137.38
547.274	158.38
547.487	131.38
547.7	140.38
547.914	127.38
548.127	137.38
548.34	137.38
548.554	137.38
548.767	123.38
548.98	125.38
549.193	118.38
549.407	134.38
549.62	125.38
549.833	116.38
550.046	141.38
550.259	129.38
550.473	122.38
550.686	140.38
550.899	119.38
551.112	116.38
551.325	118.38
551.538	121.38
551.751	115.38
551.964	125.38
552.177	126.38
552.39	123.38
552.603	127.38
552.816	131.38
553.029	142.38
553.242	139.38
553.455	139.38
553.667	138.38
553.88	131.38
554.093	130.38
554.306	141.38
554.519	118.38
554.732	121.38
554.944	128.38
555.157	126.38
555.37	124.38
555.583	132.38
555.795	124.38
556.008	131.38
556.221	133.38
556.433	130.38
556.646	128.38
556.859	120.38
557.071	135.38
557.284	113.38
557.496	122.38
557.709	130.38
557.921	124.38
558.134	134.38
558.346	116.38
558.559	118.38
558.771	112.38
558.984	123.38
559.196	119.38
559.409	113.38
559.621	104.38
559.833	115.38
560.046	125.38
560.258	127.38
560.47	105.38
560.683	115.38
560.895	112.38
561.107	128.38
561.32	115.38
561.532	103.38
561.744	110.38
561.956	122.38
562.168	118.38
562.381	120.38
562.593	123.38
562.805	120.38
563.017	113.38
563.229	118.38
563.441	113.38
563.653	122.38
563.865	109.38
564.077	111.38
564.289	107.38
564.501	108.38
564.713	110.38
564.925	116.38
565.137	112.38
565.349	120.38
565.561	113.38
565.773	112.38
565.985	127.38
566.197	99.38
566.408	112.38
566.62	132.38
566.832	108.38
567.044	127.38
567.255	129.38
567.467	113.38
567.679	113.38
567.891	122.38
568.102	121.38
568.314	132.38
568.526	93.38
568.737	120.38
568.949	102.38
569.161	100.38
569.372	95.38
569.584	113.38
569.795	95.38
570.007	100.38
570.218	101.38
570.43	117.38
570.641	107.38
570.853	105.38
571.064	109.38
571.276	95.38
571.487	99.38
571.698	96.38
571.91	79.38
572.121	97.38
572.333	92.38
572.544	120.38
572.755	99.38
572.966	93.38
573.178	98.38
573.389	89.38
573.6	113.38
573.811	98.38
574.023	105.38
574.234	111.38
574.445	98.38
574.656	100.38
574.867	103.38
575.078	99.38
575.289	104.38
575.501	108.38
575.712	97.38
575.923	98.38
576.134	96.38
576.345	100.38
576.556	101.38
576.767	109.38
576.978	97.38
577.188	99.38
577.399	100.38
577.61	97.38
577.821	99.38
578.032	109.38
578.243	103.38
578.454	104.38
578.665	81.38
578.875	92.38
579.086	93.38
579.297	91.38
579.508	96.38
579.718	85.38
579.929	98.38
580.14	83.38
580.35	97.38
580.561	89.38
580.772	92.38
580.982	95.38
581.193	88.38
581.403	96.38
581.614	100.38
581.825	106.38
582.035	114.38
582.246	98.38
582.456	97.38
582.667	86.38
582.877	95.38
583.087	108.38
583.298	105.38
583.508	96.38
583.719	84.38
583.929	98.38
584.139	77.38
584.35	90.38
584.56	83.38
584.77	106.38
584.981	94.38
585.191	108.38
585.401	91.38
585.611	108.38
585.821	100.38
586.032	103.38
586.242	108.38
586.452	89.38
586.662	95.38
586.872	105.38
587.082	96.38
587.292	100.38
587.502	94.38
587.713	98.38
587.923	82.38
588.133	101.38
588.343	80.38
588.553	88.38
588.762	98.38
588.972	96.38
589.182	89.38
589.392	88.38
589.602	84.38
589.812	86.38
590.022	94.38
590.232	88.38
590.441	99.38
590.651	96.38
590.861	84.38
591.071	92.38
591.281	78.38
591.49	86.38
591.7	85.38
591.91	95.38
592.119	96.38
592.329	93.38
592.539	100.38
592.748	107.38
592.958	79.38
593.167	93.38
593.377	88.38
593.587	102.38
593.796	102.38
594.006	86.38
594.215	91.38
594.424	100.38
594.634	96.38
594.843	99.38
595.053	116.38
595.262	85.38
595.472	106.38
595.681	99.38
595.89	102.38
596.1	102.38
596.309	102.38
596.518	82.38
596.727	106.38
596.937	105.38
597.146	89.38
597.355	91.38
597.564	92.38
597.774	106.38
597.983	88.38
598.192	90.38
598.401	100.38
598.61	99.38
598.819	80.38
599.028	109.38
599.237	100.38
599.446	89.38
599.655	94.38
599.864	94.38
600.073	89.38
600.282	92.38
600.491	100.38
600.7	95.38
600.909	107.38
601.118	88.38
601.327	95.38
601.536	92.38
601.745	88.38
601.953	92.38
602.162	102.38
602.371	87.38
602.58	91.38
602.789	99.38
602.997	100.38
603.206	105.38
603.415	108.38
603.623	96.38
603.832	90.38
604.041	89.38
604.249	102.38
604.458	85.38
604.666	91.38
604.875	83.38
605.084	89.38
605.292	90.38
605.501	96.38
605.709	114.38
605.918	95.38
606.126	96.38
606.334	101.38
606.543	96.38
606.751	98.38
606.96	96.38
607.168	102.38
607.376	90.38
607.585	111.38
607.793	99.38
608.001	76.38
608.21	89.38
608.418	103.38
608.626	89.38
608.834	81.38
609.043	93.38
609.251	102.38
609.459	98.38
609.667	98.38
609.875	95.38
610.083	96.38
610.291	93.38
610.499	97.38
610.707	104.38
610.916	98.38
611.124	97.38
611.332	107.38
611.54	116.38
611.748	92.38
611.955	102.38
612.163	108.38
612.371	101.38
612.579	93.38
612.787	112.38
612.995	99.38
613.203	100.38
613.411	103.38
613.618	106.38
613.826	96.38
614.034	96.38
614.242	96.38
614.449	104.38
614.657	103.38
614.865	85.38
615.072	96.38
615.28	102.38
615.488	99.38
615.695	109.38
615.903	93.38
616.111	99.38
616.318	111.38
616.526	103.38
616.733	79.38
616.941	103.38
617.148	94.38
617.356	92.38
617.563	98.38
617.771	99.38
617.978	92.38
618.185	98.38
618.393	94.38
618.6	93.38
618.807	92.38
619.015	98.38
619.222	91.38
619.429	100.38
619.637	108.38
619.844	104.38
620.051	103.38
620.258	92.38
620.466	79.38
620.673	95.38
620.88	86.38
621.087	80.38
621.294	90.38
621.501	103.38
621.708	106.38
621.915	94.38
622.122	92.38
622.329	105.38
622.536	100.38
622.743	99.38
622.95	87.38
623.157	98.38
623.364	91.38
623.571	84.38
623.778	94.38
623.985	94.38
624.192	95.38
624.399	96.38
624.606	95.38
624.812	83.38
625.019	102.38
625.226	97.38
625.433	96.38
625.639	96.38
625.846	91.38
626.053	99.38
626.259	92.38
626.466	87.38
626.673	85.38
626.879	87.38
627.086	96.38
627.293	90.38
627.499	86.38
627.706	86.38
627.912	95.38
628.119	85.38
628.325	90.38
628.532	89.38
628.738	84.38
628.945	96.38
629.151	87.38
629.357	93.38
629.564	87.38
629.77	76.38
629.976	87.38
630.183	74.38
630.389	93.38
630.595	83.38
630.802	80.38
631.008	80.38
631.214	88.38
631.42	83.38
631.627	94.38
631.833	83.38
632.039	87.38
632.245	83.38
632.451	93.38
632.657	84.38
632.863	95.38
633.069	79.38
633.275	101.38
633.481	84.38
633.688	91.38
633.893	99.38
634.099	84.38
634.305	76.38
634.511	95.38
634.717	81.38
634.923	102.38
635.129	87.38
635.335	91.38
635.541	85.38
635.747	85.38
635.952	83.38
636.158	93.38
636.364	103.38
636.57	86.38
636.775	85.38
636.981	97.38
637.187	83.38
637.392	86.38
637.598	83.38
637.804	90.38
638.009	88.38
638.215	95.38
638.421	88.38
638.626	92.38
638.832	88.38
639.037	97.38
639.243	92.38
639.448	84.38
639.654	102.38
639.859	92.38
640.065	80.38
640.27	95.38
640.475	81.38
640.681	100.38
640.886	88.38
641.091	89.38
641.297	95.38
641.502	113.38
641.707	86.38
641.913	81.38
642.118	73.38
642.323	86.38
642.528	80.38
642.733	102.38
642.939	87.38
643.144	89.38
643.349	100.38
643.554	93.38
643.759	68.38
643.964	83.38
644.169	91.38
644.374	89.38
644.579	82.38
644.784	95.38
644.989	86.38
645.194	88.38
645.399	75.38
645.604	92.38
645.809	102.38
646.014	85.38
646.219	90.38
646.423	84.38
646.628	98.38
646.833	98.38
647.038	102.38
647.243	91.38
647.447	92.38
647.652	76.38
647.857	86.38
648.062	98.38
648.266	90.38
648.471	103.38
648.676	99.38
648.88	90.38
649.085	90.38
649.289	85.38
649.494	86.38
649.698	93.38
649.903	98.38
650.107	93.38
650.312	88.38
650.516	84.38
650.721	77.38
650.925	91.38
651.13	67.38
651.334	79.38
651.539	99.38
651.743	92.38
651.947	84.38
652.152	102.38
652.356	74.38
652.56	92.38
652.764	88.38
652.969	76.38
653.173	76.38
653.377	89.38
653.581	86.38
653.785	106.38
653.99	97.38
654.194	93.38
654.398	95.38
654.602	94.38
654.806	87.38
655.01	92.38
655.214	91.38
655.418	102.38
655.622	86.38
655.826	90.38
656.03	97.38
656.234	89.38
656.438	87.38
656.642	95.38
656.846	86.38
657.049	77.38
657.253	104.38
657.457	81.38
657.661	61.38
657.865	77.38
658.068	70.38
658.272	83.38
658.476	84.38
658.68	74.38
658.883	90.38
659.087	80.38
659.291	76.38
659.494	92.38
659.698	103.38
659.901	77.38
660.105	73.38
660.309	70.38
660.512	81.38
660.716	90.38
660.919	85.38
661.123	73.38
661.326	77.38
661.53	75.38
661.733	68.38
661.936	96.38
662.14	92.38
662.343	108.38
662.546	76.38
662.75	81.38
662.953	83.38
663.156	88.38
663.36	75.38
663.563	81.38
663.766	74.38
663.969	91.38
664.173	62.38
664.376	67.38
664.579	80.38
664.782	97.38
664.985	89.38
665.188	83.38
665.391	79.38
665.594	80.38
665.797	83.38
666	79.38
666.203	85.38
666.406	103.38
666.609	75.38
666.812	82.38
667.015	85.38
667.218	89.38
667.421	84.38
667.624	83.38
667.827	83.38
668.03	75.38
668.232	79.38
668.435	79.38
668.638	97.38
668.841	86.38
669.043	76.38
669.246	89.38
669.449	81.38
669.651	80.38
669.854	82.38
670.057	90.38
670.259	79.38
670.462	73.38
670.665	84.38
670.867	70.38
671.07	89.38
671.272	82.38
671.475	85.38
671.677	76.38
671.88	86.38
672.082	79.38
672.284	76.38
672.487	88.38
672.689	82.38
672.892	87.38
