Data from StandardFe(NO3)3.TAE.3%Agarose.FlatLispGreen.Lamp.Energy10.07252019_HRD10591_11-54-37-441.txt Node
Date: Thu Jul 25 11:54:37 EDT 2019
User: cochatt
Spectrometer: HR+D1059
Trigger mode: 1
Integration Time (sec): 1.000000E-1
Scans to average: 1
Electric dark correction enabled: true
Nonlinearity correction enabled: false
Boxcar width: 0
XAxis mode: Wavelengths
Number of Pixels in Spectrum: 2048
>>>>>Begin Spectral Data<<<<<
223.165	-27.25
223.4	-27.25
223.635	-27.25
223.869	-26.25
224.104	-26.25
224.338	-16.25
224.573	-18.25
224.808	-4.25
225.042	-2.25
225.277	-7.25
225.511	-3.25
225.746	7.75
225.98	-0.25
226.215	6.75
226.449	14.75
226.683	41.75
226.918	23.75
227.152	36.75
227.387	43.75
227.621	42.75
227.856	39.75
228.09	43.75
228.324	58.75
228.559	59.75
228.793	57.75
229.027	63.75
229.262	75.75
229.496	70.75
229.73	56.75
229.964	65.75
230.199	68.75
230.433	67.75
230.667	92.75
230.901	86.75
231.136	73.75
231.37	81.75
231.604	84.75
231.838	78.75
232.072	82.75
232.306	77.75
232.541	71.75
232.775	87.75
233.009	88.75
233.243	93.75
233.477	89.75
233.711	83.75
233.945	75.75
234.179	85.75
234.413	99.75
234.647	88.75
234.881	80.75
235.115	88.75
235.349	80.75
235.583	77.75
235.817	75.75
236.051	75.75
236.285	77.75
236.519	74.75
236.753	77.75
236.987	77.75
237.221	87.75
237.455	82.75
237.689	80.75
237.922	83.75
238.156	74.75
238.39	87.75
238.624	78.75
238.858	57.75
239.091	81.75
239.325	85.75
239.559	79.75
239.793	82.75
240.027	77.75
240.26	73.75
240.494	72.75
240.728	87.75
240.961	76.75
241.195	76.75
241.429	80.75
241.662	90.75
241.896	76.75
242.13	86.75
242.363	75.75
242.597	89.75
242.83	73.75
243.064	84.75
243.298	86.75
243.531	83.75
243.765	87.75
243.998	96.75
244.232	88.75
244.465	74.75
244.699	77.75
244.932	79.75
245.166	77.75
245.399	86.75
245.633	76.75
245.866	69.75
246.099	80.75
246.333	75.75
246.566	74.75
246.8	79.75
247.033	77.75
247.266	75.75
247.5	72.75
247.733	66.75
247.966	93.75
248.2	83.75
248.433	71.75
248.666	85.75
248.899	85.75
249.133	87.75
249.366	95.75
249.599	79.75
249.832	75.75
250.066	88.75
250.299	69.75
250.532	89.75
250.765	81.75
250.998	89.75
251.231	65.75
251.465	72.75
251.698	78.75
251.931	85.75
252.164	83.75
252.397	77.75
252.63	85.75
252.863	79.75
253.096	71.75
253.329	84.75
253.562	87.75
253.795	74.75
254.028	82.75
254.261	77.75
254.494	80.75
254.727	94.75
254.96	64.75
255.193	73.75
255.426	82.75
255.659	83.75
255.892	91.75
256.124	81.75
256.357	85.75
256.59	71.75
256.823	82.75
257.056	84.75
257.289	87.75
257.521	100.75
257.754	82.75
257.987	65.75
258.22	80.75
258.452	90.75
258.685	96.75
258.918	80.75
259.151	77.75
259.383	78.75
259.616	86.75
259.849	80.75
260.081	78.75
260.314	83.75
260.547	93.75
260.779	87.75
261.012	78.75
261.244	73.75
261.477	75.75
261.71	80.75
261.942	82.75
262.175	69.75
262.407	66.75
262.64	86.75
262.872	83.75
263.105	88.75
263.337	85.75
263.57	90.75
263.802	89.75
264.035	85.75
264.267	90.75
264.499	106.75
264.732	83.75
264.964	69.75
265.197	83.75
265.429	87.75
265.661	75.75
265.894	83.75
266.126	85.75
266.358	87.75
266.591	84.75
266.823	87.75
267.055	81.75
267.287	89.75
267.52	79.75
267.752	80.75
267.984	71.75
268.216	92.75
268.448	88.75
268.681	80.75
268.913	90.75
269.145	74.75
269.377	91.75
269.609	78.75
269.841	73.75
270.073	89.75
270.306	90.75
270.538	82.75
270.77	87.75
271.002	95.75
271.234	90.75
271.466	86.75
271.698	78.75
271.93	90.75
272.162	87.75
272.394	92.75
272.626	90.75
272.858	85.75
273.09	92.75
273.322	83.75
273.553	86.75
273.785	98.75
274.017	82.75
274.249	79.75
274.481	71.75
274.713	84.75
274.945	93.75
275.176	86.75
275.408	89.75
275.64	92.75
275.872	82.75
276.104	92.75
276.335	87.75
276.567	91.75
276.799	92.75
277.031	91.75
277.262	77.75
277.494	77.75
277.726	92.75
277.957	80.75
278.189	89.75
278.421	90.75
278.652	76.75
278.884	84.75
279.115	84.75
279.347	89.75
279.579	60.75
279.81	81.75
280.042	87.75
280.273	91.75
280.505	86.75
280.736	96.75
280.968	91.75
281.199	93.75
281.431	89.75
281.662	78.75
281.894	80.75
282.125	78.75
282.356	100.75
282.588	83.75
282.819	91.75
283.051	93.75
283.282	84.75
283.513	87.75
283.745	89.75
283.976	82.75
284.207	78.75
284.439	97.75
284.67	87.75
284.901	99.75
285.132	79.75
285.364	80.75
285.595	98.75
285.826	89.75
286.057	86.75
286.288	87.75
286.52	89.75
286.751	94.75
286.982	97.75
287.213	91.75
287.444	73.75
287.675	87.75
287.906	65.75
288.138	77.75
288.369	84.75
288.6	79.75
288.831	69.75
289.062	83.75
289.293	89.75
289.524	93.75
289.755	83.75
289.986	96.75
290.217	86.75
290.448	85.75
290.679	84.75
290.91	90.75
291.141	93.75
291.371	96.75
291.602	86.75
291.833	88.75
292.064	86.75
292.295	83.75
292.526	93.75
292.757	86.75
292.987	88.75
293.218	98.75
293.449	97.75
293.68	88.75
293.91	88.75
294.141	92.75
294.372	93.75
294.603	94.75
294.833	82.75
295.064	91.75
295.295	81.75
295.525	76.75
295.756	91.75
295.987	89.75
296.217	90.75
296.448	93.75
296.679	99.75
296.909	87.75
297.14	88.75
297.37	86.75
297.601	94.75
297.831	96.75
298.062	94.75
298.292	81.75
298.523	104.75
298.753	78.75
298.984	98.75
299.214	99.75
299.445	101.75
299.675	77.75
299.905	75.75
300.136	107.75
300.366	98.75
300.597	90.75
300.827	84.75
301.057	84.75
301.288	99.75
301.518	84.75
301.748	62.75
301.979	87.75
302.209	79.75
302.439	76.75
302.669	76.75
302.9	91.75
303.13	76.75
303.36	83.75
303.59	89.75
303.82	83.75
304.051	97.75
304.281	84.75
304.511	97.75
304.741	75.75
304.971	90.75
305.201	87.75
305.431	84.75
305.661	91.75
305.891	87.75
306.121	83.75
306.352	76.75
306.582	82.75
306.812	87.75
307.042	98.75
307.272	95.75
307.502	79.75
307.731	80.75
307.961	80.75
308.191	80.75
308.421	77.75
308.651	85.75
308.881	84.75
309.111	91.75
309.341	79.75
309.571	91.75
309.8	100.75
310.03	93.75
310.26	89.75
310.49	98.75
310.72	94.75
310.949	81.75
311.179	97.75
311.409	106.75
311.639	75.75
311.868	78.75
312.098	96.75
312.328	89.75
312.557	85.75
312.787	83.75
313.017	82.75
313.246	75.75
313.476	78.75
313.706	86.75
313.935	86.75
314.165	95.75
314.394	85.75
314.624	79.75
314.853	79.75
315.083	91.75
315.312	89.75
315.542	84.75
315.771	82.75
316.001	90.75
316.23	83.75
316.46	90.75
316.689	104.75
316.919	90.75
317.148	74.75
317.377	100.75
317.607	94.75
317.836	74.75
318.065	91.75
318.295	85.75
318.524	88.75
318.753	83.75
318.983	89.75
319.212	94.75
319.441	83.75
319.67	81.75
319.9	73.75
320.129	89.75
320.358	89.75
320.587	86.75
320.816	72.75
321.046	82.75
321.275	94.75
321.504	91.75
321.733	94.75
321.962	95.75
322.191	101.75
322.42	100.75
322.649	85.75
322.878	95.75
323.108	85.75
323.337	91.75
323.566	84.75
323.795	90.75
324.024	90.75
324.253	95.75
324.482	91.75
324.71	90.75
324.939	81.75
325.168	88.75
325.397	93.75
325.626	102.75
325.855	84.75
326.084	76.75
326.313	83.75
326.542	75.75
326.77	89.75
326.999	88.75
327.228	86.75
327.457	85.75
327.686	82.75
327.914	74.75
328.143	89.75
328.372	73.75
328.6	97.75
328.829	88.75
329.058	79.75
329.287	84.75
329.515	82.75
329.744	101.75
329.972	100.75
330.201	86.75
330.43	89.75
330.658	91.75
330.887	99.75
331.115	105.75
331.344	98.75
331.572	81.75
331.801	79.75
332.03	92.75
332.258	87.75
332.486	95.75
332.715	78.75
332.943	93.75
333.172	90.75
333.4	90.75
333.629	88.75
333.857	94.75
334.085	81.75
334.314	86.75
334.542	88.75
334.771	85.75
334.999	85.75
335.227	93.75
335.455	80.75
335.684	94.75
335.912	99.75
336.14	106.75
336.369	83.75
336.597	90.75
336.825	89.75
337.053	102.75
337.281	88.75
337.51	87.75
337.738	98.75
337.966	86.75
338.194	91.75
338.422	85.75
338.65	75.75
338.878	82.75
339.106	89.75
339.334	101.75
339.562	86.75
339.79	86.75
340.018	74.75
340.246	88.75
340.474	92.75
340.702	86.75
340.93	91.75
341.158	83.75
341.386	93.75
341.614	99.75
341.842	96.75
342.07	91.75
342.298	93.75
342.526	88.75
342.754	82.75
342.981	94.75
343.209	76.75
343.437	90.75
343.665	89.75
343.893	79.75
344.12	97.75
344.348	89.75
344.576	78.75
344.804	80.75
345.031	79.75
345.259	106.75
345.487	77.75
345.714	87.75
345.942	84.75
346.17	85.75
346.397	91.75
346.625	83.75
346.853	83.75
347.08	90.75
347.308	102.75
347.535	85.75
347.763	81.75
347.99	92.75
348.218	86.75
348.445	91.75
348.673	90.75
348.9	88.75
349.128	85.75
349.355	83.75
349.583	89.75
349.81	93.75
350.037	100.75
350.265	92.75
350.492	86.75
350.72	96.75
350.947	87.75
351.174	99.75
351.402	97.75
351.629	74.75
351.856	84.75
352.083	84.75
352.311	75.75
352.538	101.75
352.765	101.75
352.992	98.75
353.22	81.75
353.447	102.75
353.674	93.75
353.901	83.75
354.128	101.75
354.355	92.75
354.583	79.75
354.81	88.75
355.037	90.75
355.264	99.75
355.491	98.75
355.718	89.75
355.945	85.75
356.172	81.75
356.399	93.75
356.626	85.75
356.853	94.75
357.08	95.75
357.307	94.75
357.534	95.75
357.761	91.75
357.988	91.75
358.215	90.75
358.441	95.75
358.668	85.75
358.895	80.75
359.122	91.75
359.349	89.75
359.576	85.75
359.802	86.75
360.029	86.75
360.256	90.75
360.483	87.75
360.709	79.75
360.936	79.75
361.163	87.75
361.39	94.75
361.616	91.75
361.843	92.75
362.07	89.75
362.296	88.75
362.523	86.75
362.749	85.75
362.976	101.75
363.203	102.75
363.429	82.75
363.656	95.75
363.882	90.75
364.109	93.75
364.335	86.75
364.562	92.75
364.788	93.75
365.015	92.75
365.241	81.75
365.468	80.75
365.694	89.75
365.92	104.75
366.147	92.75
366.373	73.75
366.599	71.75
366.826	87.75
367.052	99.75
367.278	88.75
367.505	84.75
367.731	95.75
367.957	90.75
368.184	98.75
368.41	80.75
368.636	92.75
368.862	101.75
369.089	73.75
369.315	83.75
369.541	99.75
369.767	79.75
369.993	100.75
370.219	90.75
370.445	90.75
370.672	84.75
370.898	85.75
371.124	86.75
371.35	81.75
371.576	85.75
371.802	93.75
372.028	93.75
372.254	88.75
372.48	101.75
372.706	92.75
372.932	91.75
373.158	87.75
373.384	102.75
373.61	99.75
373.835	84.75
374.061	89.75
374.287	97.75
374.513	97.75
374.739	91.75
374.965	89.75
375.191	92.75
375.416	101.75
375.642	81.75
375.868	91.75
376.094	106.75
376.319	92.75
376.545	83.75
376.771	80.75
376.997	83.75
377.222	100.75
377.448	91.75
377.674	86.75
377.899	85.75
378.125	96.75
378.35	83.75
378.576	93.75
378.802	85.75
379.027	92.75
379.253	87.75
379.478	97.75
379.704	85.75
379.929	88.75
380.155	95.75
380.38	100.75
380.606	89.75
380.831	96.75
381.057	106.75
381.282	93.75
381.507	93.75
381.733	89.75
381.958	87.75
382.184	93.75
382.409	99.75
382.634	88.75
382.86	85.75
383.085	92.75
383.31	94.75
383.535	95.75
383.761	92.75
383.986	90.75
384.211	87.75
384.436	85.75
384.662	99.75
384.887	87.75
385.112	97.75
385.337	83.75
385.562	97.75
385.787	102.75
386.013	103.75
386.238	95.75
386.463	106.75
386.688	90.75
386.913	100.75
387.138	96.75
387.363	106.75
387.588	86.75
387.813	102.75
388.038	93.75
388.263	92.75
388.488	87.75
388.713	87.75
388.938	96.75
389.163	109.75
389.387	99.75
389.612	94.75
389.837	83.75
390.062	103.75
390.287	99.75
390.512	105.75
390.736	83.75
390.961	92.75
391.186	94.75
391.411	99.75
391.636	120.75
391.86	97.75
392.085	101.75
392.31	97.75
392.534	109.75
392.759	114.75
392.984	106.75
393.208	104.75
393.433	104.75
393.658	93.75
393.882	94.75
394.107	80.75
394.331	92.75
394.556	91.75
394.78	90.75
395.005	91.75
395.229	104.75
395.454	99.75
395.678	97.75
395.903	93.75
396.127	95.75
396.352	107.75
396.576	99.75
396.801	114.75
397.025	97.75
397.249	111.75
397.474	96.75
397.698	92.75
397.922	97.75
398.147	90.75
398.371	95.75
398.595	111.75
398.82	104.75
399.044	97.75
399.268	100.75
399.492	116.75
399.717	108.75
399.941	107.75
400.165	103.75
400.389	125.75
400.613	124.75
400.837	105.75
401.062	115.75
401.286	99.75
401.51	109.75
401.734	98.75
401.958	97.75
402.182	101.75
402.406	99.75
402.63	108.75
402.854	107.75
403.078	97.75
403.302	116.75
403.526	110.75
403.75	105.75
403.974	114.75
404.198	121.75
404.422	108.75
404.645	112.75
404.869	103.75
405.093	116.75
405.317	117.75
405.541	114.75
405.765	99.75
405.988	111.75
406.212	117.75
406.436	104.75
406.66	129.75
406.883	124.75
407.107	110.75
407.331	95.75
407.555	116.75
407.778	107.75
408.002	116.75
408.226	119.75
408.449	121.75
408.673	129.75
408.896	111.75
409.12	106.75
409.344	113.75
409.567	125.75
409.791	131.75
410.014	116.75
410.238	109.75
410.461	121.75
410.685	118.75
410.908	97.75
411.132	103.75
411.355	129.75
411.578	114.75
411.802	134.75
412.025	117.75
412.249	120.75
412.472	95.75
412.695	108.75
412.919	101.75
413.142	118.75
413.365	129.75
413.589	107.75
413.812	98.75
414.035	115.75
414.258	111.75
414.482	118.75
414.705	110.75
414.928	109.75
415.151	103.75
415.374	101.75
415.597	127.75
415.821	104.75
416.044	121.75
416.267	107.75
416.49	107.75
416.713	121.75
416.936	118.75
417.159	124.75
417.382	113.75
417.605	109.75
417.828	122.75
418.051	117.75
418.274	122.75
418.497	127.75
418.72	110.75
418.943	118.75
419.166	114.75
419.389	109.75
419.611	136.75
419.834	120.75
420.057	117.75
420.28	99.75
420.503	114.75
420.726	115.75
420.948	114.75
421.171	121.75
421.394	105.75
421.617	121.75
421.839	98.75
422.062	99.75
422.285	113.75
422.507	111.75
422.73	119.75
422.953	105.75
423.175	108.75
423.398	127.75
423.621	121.75
423.843	126.75
424.066	113.75
424.288	113.75
424.511	105.75
424.733	122.75
424.956	114.75
425.178	108.75
425.401	112.75
425.623	115.75
425.846	110.75
426.068	124.75
426.291	120.75
426.513	115.75
426.735	119.75
426.958	118.75
427.18	107.75
427.402	131.75
427.625	105.75
427.847	104.75
428.069	116.75
428.292	121.75
428.514	93.75
428.736	117.75
428.958	108.75
429.181	105.75
429.403	102.75
429.625	112.75
429.847	121.75
430.069	106.75
430.292	102.75
430.514	110.75
430.736	104.75
430.958	118.75
431.18	121.75
431.402	123.75
431.624	109.75
431.846	106.75
432.068	111.75
432.29	118.75
432.512	109.75
432.734	113.75
432.956	121.75
433.178	110.75
433.4	113.75
433.622	113.75
433.844	100.75
434.066	114.75
434.287	113.75
434.509	105.75
434.731	102.75
434.953	107.75
435.175	101.75
435.397	114.75
435.618	120.75
435.84	99.75
436.062	99.75
436.284	105.75
436.505	116.75
436.727	121.75
436.949	109.75
437.17	123.75
437.392	125.75
437.614	117.75
437.835	104.75
438.057	124.75
438.278	103.75
438.5	116.75
438.721	110.75
438.943	106.75
439.165	114.75
439.386	123.75
439.608	117.75
439.829	113.75
440.05	125.75
440.272	127.75
440.493	135.75
440.715	117.75
440.936	117.75
441.158	124.75
441.379	124.75
441.6	123.75
441.822	129.75
442.043	126.75
442.264	113.75
442.486	122.75
442.707	125.75
442.928	121.75
443.149	129.75
443.371	128.75
443.592	118.75
443.813	119.75
444.034	127.75
444.255	133.75
444.476	117.75
444.698	122.75
444.919	131.75
445.14	267.75
445.361	170.75
445.582	109.75
445.803	107.75
446.024	121.75
446.245	125.75
446.466	120.75
446.687	116.75
446.908	119.75
447.129	120.75
447.35	116.75
447.571	116.75
447.792	121.75
448.013	132.75
448.234	121.75
448.455	119.75
448.675	119.75
448.896	120.75
449.117	116.75
449.338	114.75
449.559	125.75
449.779	110.75
450	105.75
450.221	120.75
450.442	106.75
450.662	109.75
450.883	100.75
451.104	102.75
451.324	128.75
451.545	115.75
451.766	134.75
451.986	106.75
452.207	108.75
452.428	109.75
452.648	121.75
452.869	113.75
453.089	101.75
453.31	115.75
453.53	113.75
453.751	100.75
453.971	102.75
454.192	102.75
454.412	90.75
454.633	106.75
454.853	115.75
455.073	113.75
455.294	111.75
455.514	101.75
455.734	119.75
455.955	106.75
456.175	111.75
456.395	103.75
456.616	101.75
456.836	100.75
457.056	129.75
457.276	106.75
457.497	124.75
457.717	102.75
457.937	95.75
458.157	105.75
458.377	103.75
458.598	117.75
458.818	111.75
459.038	98.75
459.258	98.75
459.478	105.75
459.698	106.75
459.918	102.75
460.138	121.75
460.358	126.75
460.578	121.75
460.798	120.75
461.018	113.75
461.238	116.75
461.458	107.75
461.678	108.75
461.898	110.75
462.118	98.75
462.338	118.75
462.558	132.75
462.777	118.75
462.997	123.75
463.217	130.75
463.437	144.75
463.657	119.75
463.876	116.75
464.096	119.75
464.316	124.75
464.536	119.75
464.755	119.75
464.975	128.75
465.195	113.75
465.414	108.75
465.634	125.75
465.854	103.75
466.073	94.75
466.293	115.75
466.512	115.75
466.732	124.75
466.951	113.75
467.171	121.75
467.391	122.75
467.61	112.75
467.829	118.75
468.049	116.75
468.268	120.75
468.488	118.75
468.707	126.75
468.927	105.75
469.146	123.75
469.365	101.75
469.585	116.75
469.804	126.75
470.023	138.75
470.243	123.75
470.462	126.75
470.681	133.75
470.901	132.75
471.12	133.75
471.339	116.75
471.558	124.75
471.777	114.75
471.997	117.75
472.216	94.75
472.435	115.75
472.654	103.75
472.873	111.75
473.092	110.75
473.311	133.75
473.53	121.75
473.749	111.75
473.968	107.75
474.187	114.75
474.406	107.75
474.625	113.75
474.844	137.75
475.063	114.75
475.282	125.75
475.501	121.75
475.72	125.75
475.939	109.75
476.158	101.75
476.377	100.75
476.596	113.75
476.814	114.75
477.033	113.75
477.252	113.75
477.471	117.75
477.69	135.75
477.908	135.75
478.127	131.75
478.346	135.75
478.564	128.75
478.783	124.75
479.002	142.75
479.22	130.75
479.439	120.75
479.658	113.75
479.876	117.75
480.095	124.75
480.313	127.75
480.532	123.75
480.751	123.75
480.969	127.75
481.188	117.75
481.406	115.75
481.624	126.75
481.843	110.75
482.061	116.75
482.28	124.75
482.498	133.75
482.717	123.75
482.935	137.75
483.153	131.75
483.372	133.75
483.59	127.75
483.808	141.75
484.027	135.75
484.245	122.75
484.463	123.75
484.681	141.75
484.9	130.75
485.118	126.75
485.336	132.75
485.554	105.75
485.772	111.75
485.99	130.75
486.209	110.75
486.427	122.75
486.645	103.75
486.863	133.75
487.081	122.75
487.299	129.75
487.517	139.75
487.735	140.75
487.953	121.75
488.171	154.75
488.389	147.75
488.607	127.75
488.825	128.75
489.043	128.75
489.261	146.75
489.479	128.75
489.696	144.75
489.914	125.75
490.132	150.75
490.35	138.75
490.568	127.75
490.786	134.75
491.003	139.75
491.221	151.75
491.439	138.75
491.657	163.75
491.874	161.75
492.092	163.75
492.31	165.75
492.527	171.75
492.745	170.75
492.963	150.75
493.18	152.75
493.398	144.75
493.615	157.75
493.833	151.75
494.05	153.75
494.268	130.75
494.485	154.75
494.703	151.75
494.92	155.75
495.138	165.75
495.355	129.75
495.573	154.75
495.79	145.75
496.008	157.75
496.225	155.75
496.442	134.75
496.66	153.75
496.877	133.75
497.094	138.75
497.312	159.75
497.529	148.75
497.746	139.75
497.963	141.75
498.181	134.75
498.398	134.75
498.615	146.75
498.832	158.75
499.049	147.75
499.267	154.75
499.484	163.75
499.701	182.75
499.918	193.75
500.135	203.75
500.352	210.75
500.569	221.75
500.786	224.75
501.003	218.75
501.22	209.75
501.437	168.75
501.654	163.75
501.871	172.75
502.088	159.75
502.305	158.75
502.522	160.75
502.739	143.75
502.956	145.75
503.172	132.75
503.389	132.75
503.606	133.75
503.823	143.75
504.04	127.75
504.256	152.75
504.473	141.75
504.69	139.75
504.907	144.75
505.123	137.75
505.34	137.75
505.557	139.75
505.773	136.75
505.99	130.75
506.207	131.75
506.423	125.75
506.64	132.75
506.856	129.75
507.073	108.75
507.289	117.75
507.506	141.75
507.722	131.75
507.939	133.75
508.155	113.75
508.372	125.75
508.588	117.75
508.805	126.75
509.021	120.75
509.238	124.75
509.454	121.75
509.67	109.75
509.887	122.75
510.103	100.75
510.319	99.75
510.536	116.75
510.752	121.75
510.968	117.75
511.184	133.75
511.401	100.75
511.617	117.75
511.833	109.75
512.049	104.75
512.265	129.75
512.481	123.75
512.698	117.75
512.914	110.75
513.13	103.75
513.346	121.75
513.562	109.75
513.778	102.75
513.994	115.75
514.21	117.75
514.426	114.75
514.642	112.75
514.858	127.75
515.074	115.75
515.29	111.75
515.506	115.75
515.721	130.75
515.937	107.75
516.153	105.75
516.369	111.75
516.585	117.75
516.801	118.75
517.016	128.75
517.232	123.75
517.448	126.75
517.664	125.75
517.879	139.75
518.095	127.75
518.311	134.75
518.527	119.75
518.742	125.75
518.958	132.75
519.173	127.75
519.389	132.75
519.605	123.75
519.82	117.75
520.036	125.75
520.251	118.75
520.467	131.75
520.682	109.75
520.898	107.75
521.113	127.75
521.329	144.75
521.544	120.75
521.76	105.75
521.975	105.75
522.19	110.75
522.406	121.75
522.621	108.75
522.836	126.75
523.052	114.75
523.267	113.75
523.482	118.75
523.698	105.75
523.913	109.75
524.128	118.75
524.343	114.75
524.559	119.75
524.774	125.75
524.989	129.75
525.204	127.75
525.419	118.75
525.634	117.75
525.849	130.75
526.064	116.75
526.28	122.75
526.495	113.75
526.71	125.75
526.925	112.75
527.14	108.75
527.355	107.75
527.57	110.75
527.785	96.75
527.999	113.75
528.214	115.75
528.429	105.75
528.644	127.75
528.859	116.75
529.074	127.75
529.289	134.75
529.503	126.75
529.718	131.75
529.933	119.75
530.148	118.75
530.363	117.75
530.577	115.75
530.792	107.75
531.007	130.75
531.221	115.75
531.436	99.75
531.651	110.75
531.865	109.75
532.08	102.75
532.295	115.75
532.509	113.75
532.724	119.75
532.938	113.75
533.153	117.75
533.367	123.75
533.582	117.75
533.796	122.75
534.011	115.75
534.225	109.75
534.44	113.75
534.654	127.75
534.868	119.75
535.083	115.75
535.297	113.75
535.511	126.75
535.726	128.75
535.94	133.75
536.154	93.75
536.369	116.75
536.583	109.75
536.797	106.75
537.011	114.75
537.225	114.75
537.44	122.75
537.654	107.75
537.868	98.75
538.082	124.75
538.296	108.75
538.51	107.75
538.724	118.75
538.938	121.75
539.153	123.75
539.367	131.75
539.581	122.75
539.795	129.75
540.009	104.75
540.222	121.75
540.436	123.75
540.65	116.75
540.864	129.75
541.078	133.75
541.292	127.75
541.506	163.75
541.72	155.75
541.934	133.75
542.147	151.75
542.361	153.75
542.575	135.75
542.789	129.75
543.002	125.75
543.216	137.75
543.43	129.75
543.644	126.75
543.857	144.75
544.071	125.75
544.285	137.75
544.498	134.75
544.712	135.75
544.925	135.75
545.139	146.75
545.352	140.75
545.566	129.75
545.779	129.75
545.993	139.75
546.206	134.75
546.42	140.75
546.633	140.75
546.847	131.75
547.06	133.75
547.274	147.75
547.487	137.75
547.7	135.75
547.914	137.75
548.127	128.75
548.34	147.75
548.554	134.75
548.767	142.75
548.98	141.75
549.193	129.75
549.407	133.75
549.62	139.75
549.833	129.75
550.046	124.75
550.259	129.75
550.473	123.75
550.686	129.75
550.899	143.75
551.112	138.75
551.325	124.75
551.538	129.75
551.751	129.75
551.964	124.75
552.177	126.75
552.39	134.75
552.603	142.75
552.816	129.75
553.029	124.75
553.242	133.75
553.455	140.75
553.667	134.75
553.88	142.75
554.093	122.75
554.306	132.75
554.519	142.75
554.732	144.75
554.944	124.75
555.157	133.75
555.37	129.75
555.583	125.75
555.795	125.75
556.008	125.75
556.221	125.75
556.433	118.75
556.646	115.75
556.859	128.75
557.071	127.75
557.284	124.75
557.496	126.75
557.709	132.75
557.921	130.75
558.134	124.75
558.346	115.75
558.559	122.75
558.771	121.75
558.984	118.75
559.196	113.75
559.409	114.75
559.621	125.75
559.833	115.75
560.046	110.75
560.258	110.75
560.47	122.75
560.683	125.75
560.895	130.75
561.107	115.75
561.32	110.75
561.532	111.75
561.744	107.75
561.956	124.75
562.168	115.75
562.381	115.75
562.593	131.75
562.805	121.75
563.017	121.75
563.229	122.75
563.441	113.75
563.653	125.75
563.865	106.75
564.077	113.75
564.289	110.75
564.501	120.75
564.713	109.75
564.925	101.75
565.137	124.75
565.349	111.75
565.561	130.75
565.773	121.75
565.985	114.75
566.197	121.75
566.408	129.75
566.62	121.75
566.832	134.75
567.044	124.75
567.255	141.75
567.467	129.75
567.679	109.75
567.891	135.75
568.102	121.75
568.314	112.75
568.526	107.75
568.737	127.75
568.949	104.75
569.161	117.75
569.372	127.75
569.584	117.75
569.795	115.75
570.007	100.75
570.218	98.75
570.43	105.75
570.641	114.75
570.853	100.75
571.064	115.75
571.276	97.75
571.487	118.75
571.698	113.75
571.91	115.75
572.121	95.75
572.333	91.75
572.544	94.75
572.755	107.75
572.966	100.75
573.178	113.75
573.389	98.75
573.6	110.75
573.811	97.75
574.023	97.75
574.234	116.75
574.445	101.75
574.656	106.75
574.867	108.75
575.078	96.75
575.289	102.75
575.501	107.75
575.712	90.75
575.923	121.75
576.134	107.75
576.345	101.75
576.556	87.75
576.767	108.75
576.978	104.75
577.188	95.75
577.399	102.75
577.61	113.75
577.821	99.75
578.032	94.75
578.243	90.75
578.454	97.75
578.665	100.75
578.875	107.75
579.086	87.75
579.297	95.75
579.508	90.75
579.718	101.75
579.929	97.75
580.14	91.75
580.35	79.75
580.561	93.75
580.772	99.75
580.982	95.75
581.193	92.75
581.403	97.75
581.614	92.75
581.825	108.75
582.035	94.75
582.246	98.75
582.456	94.75
582.667	92.75
582.877	102.75
583.087	92.75
583.298	99.75
583.508	109.75
583.719	97.75
583.929	104.75
584.139	97.75
584.35	82.75
584.56	99.75
584.77	103.75
584.981	98.75
585.191	89.75
585.401	98.75
585.611	103.75
585.821	95.75
586.032	101.75
586.242	105.75
586.452	103.75
586.662	89.75
586.872	89.75
587.082	116.75
587.292	98.75
587.502	86.75
587.713	102.75
587.923	89.75
588.133	98.75
588.343	92.75
588.553	109.75
588.762	103.75
588.972	102.75
589.182	96.75
589.392	92.75
589.602	101.75
589.812	93.75
590.022	97.75
590.232	90.75
590.441	91.75
590.651	108.75
590.861	97.75
591.071	97.75
591.281	99.75
591.49	94.75
591.7	85.75
591.91	93.75
592.119	91.75
592.329	91.75
592.539	101.75
592.748	97.75
592.958	107.75
593.167	108.75
593.377	101.75
593.587	104.75
593.796	104.75
594.006	99.75
594.215	96.75
594.424	106.75
594.634	97.75
594.843	109.75
595.053	108.75
595.262	107.75
595.472	102.75
595.681	91.75
595.89	90.75
596.1	101.75
596.309	107.75
596.518	106.75
596.727	101.75
596.937	85.75
597.146	95.75
597.355	94.75
597.564	94.75
597.774	106.75
597.983	101.75
598.192	100.75
598.401	96.75
598.61	104.75
598.819	102.75
599.028	86.75
599.237	79.75
599.446	82.75
599.655	108.75
599.864	100.75
600.073	102.75
600.282	93.75
600.491	91.75
600.7	92.75
600.909	94.75
601.118	103.75
601.327	95.75
601.536	114.75
601.745	99.75
601.953	114.75
602.162	107.75
602.371	99.75
602.58	93.75
602.789	110.75
602.997	107.75
603.206	106.75
603.415	102.75
603.623	109.75
603.832	104.75
604.041	96.75
604.249	91.75
604.458	77.75
604.666	89.75
604.875	99.75
605.084	92.75
605.292	94.75
605.501	90.75
605.709	89.75
605.918	91.75
606.126	84.75
606.334	94.75
606.543	105.75
606.751	106.75
606.96	98.75
607.168	100.75
607.376	93.75
607.585	102.75
607.793	93.75
608.001	97.75
608.21	97.75
608.418	102.75
608.626	96.75
608.834	105.75
609.043	106.75
609.251	96.75
609.459	84.75
609.667	93.75
609.875	109.75
610.083	91.75
610.291	98.75
610.499	102.75
610.707	101.75
610.916	101.75
611.124	115.75
611.332	108.75
611.54	93.75
611.748	102.75
611.955	89.75
612.163	99.75
612.371	97.75
612.579	101.75
612.787	102.75
612.995	101.75
613.203	97.75
613.411	99.75
613.618	101.75
613.826	92.75
614.034	93.75
614.242	109.75
614.449	85.75
614.657	105.75
614.865	90.75
615.072	115.75
615.28	87.75
615.488	90.75
615.695	91.75
615.903	83.75
616.111	101.75
616.318	107.75
616.526	101.75
616.733	99.75
616.941	92.75
617.148	98.75
617.356	83.75
617.563	102.75
617.771	95.75
617.978	113.75
618.185	110.75
618.393	104.75
618.6	94.75
618.807	85.75
619.015	79.75
619.222	78.75
619.429	95.75
619.637	93.75
619.844	92.75
620.051	94.75
620.258	93.75
620.466	91.75
620.673	102.75
620.88	91.75
621.087	112.75
621.294	95.75
621.501	110.75
621.708	99.75
621.915	89.75
622.122	90.75
622.329	92.75
622.536	89.75
622.743	83.75
622.95	87.75
623.157	82.75
623.364	87.75
623.571	101.75
623.778	111.75
623.985	102.75
624.192	97.75
624.399	91.75
624.606	100.75
624.812	87.75
625.019	101.75
625.226	73.75
625.433	88.75
625.639	90.75
625.846	98.75
626.053	94.75
626.259	95.75
626.466	90.75
626.673	84.75
626.879	89.75
627.086	91.75
627.293	101.75
627.499	92.75
627.706	100.75
627.912	86.75
628.119	93.75
628.325	94.75
628.532	95.75
628.738	96.75
628.945	104.75
629.151	95.75
629.357	91.75
629.564	86.75
629.77	97.75
629.976	85.75
630.183	80.75
630.389	99.75
630.595	91.75
630.802	90.75
631.008	82.75
631.214	95.75
631.42	83.75
631.627	89.75
631.833	95.75
632.039	93.75
632.245	98.75
632.451	95.75
632.657	89.75
632.863	98.75
633.069	98.75
633.275	101.75
633.481	91.75
633.688	82.75
633.893	102.75
634.099	84.75
634.305	92.75
634.511	93.75
634.717	98.75
634.923	75.75
635.129	88.75
635.335	101.75
635.541	96.75
635.747	91.75
635.952	90.75
636.158	100.75
636.364	97.75
636.57	107.75
636.775	93.75
636.981	89.75
637.187	99.75
637.392	101.75
637.598	89.75
637.804	102.75
638.009	95.75
638.215	94.75
638.421	101.75
638.626	108.75
638.832	98.75
639.037	75.75
639.243	83.75
639.448	93.75
639.654	89.75
639.859	97.75
640.065	97.75
640.27	105.75
640.475	98.75
640.681	76.75
640.886	97.75
641.091	84.75
641.297	101.75
641.502	101.75
641.707	91.75
641.913	91.75
642.118	100.75
642.323	93.75
642.528	89.75
642.733	90.75
642.939	101.75
643.144	88.75
643.349	95.75
643.554	101.75
643.759	90.75
643.964	89.75
644.169	99.75
644.374	89.75
644.579	93.75
644.784	91.75
644.989	97.75
645.194	95.75
645.399	87.75
645.604	113.75
645.809	100.75
646.014	105.75
646.219	100.75
646.423	99.75
646.628	88.75
646.833	76.75
647.038	105.75
647.243	97.75
647.447	88.75
647.652	99.75
647.857	96.75
648.062	83.75
648.266	106.75
648.471	95.75
648.676	75.75
648.88	79.75
649.085	90.75
649.289	82.75
649.494	105.75
649.698	98.75
649.903	89.75
650.107	89.75
650.312	90.75
650.516	91.75
650.721	94.75
650.925	86.75
651.13	89.75
651.334	90.75
651.539	99.75
651.743	94.75
651.947	94.75
652.152	76.75
652.356	90.75
652.56	78.75
652.764	79.75
652.969	85.75
653.173	92.75
653.377	94.75
653.581	97.75
653.785	83.75
653.99	93.75
654.194	97.75
654.398	91.75
654.602	95.75
654.806	82.75
655.01	84.75
655.214	99.75
655.418	94.75
655.622	100.75
655.826	84.75
656.03	83.75
656.234	90.75
656.438	91.75
656.642	85.75
656.846	80.75
657.049	94.75
657.253	89.75
657.457	82.75
657.661	94.75
657.865	86.75
658.068	84.75
658.272	89.75
658.476	82.75
658.68	96.75
658.883	88.75
659.087	89.75
659.291	73.75
659.494	73.75
659.698	84.75
659.901	91.75
660.105	85.75
660.309	87.75
660.512	100.75
660.716	81.75
660.919	77.75
661.123	90.75
661.326	84.75
661.53	91.75
661.733	81.75
661.936	86.75
662.14	76.75
662.343	87.75
662.546	89.75
662.75	79.75
662.953	97.75
663.156	76.75
663.36	84.75
663.563	81.75
663.766	83.75
663.969	86.75
664.173	93.75
664.376	90.75
664.579	80.75
664.782	90.75
664.985	89.75
665.188	94.75
665.391	85.75
665.594	84.75
665.797	93.75
666	91.75
666.203	102.75
666.406	92.75
666.609	86.75
666.812	87.75
667.015	87.75
667.218	93.75
667.421	97.75
667.624	80.75
667.827	75.75
668.03	75.75
668.232	96.75
668.435	85.75
668.638	83.75
668.841	84.75
669.043	77.75
669.246	77.75
669.449	81.75
669.651	93.75
669.854	83.75
670.057	76.75
670.259	79.75
670.462	92.75
670.665	83.75
670.867	80.75
671.07	81.75
671.272	89.75
671.475	86.75
671.677	87.75
671.88	86.75
672.082	86.75
672.284	90.75
672.487	86.75
672.689	73.75
672.892	89.75
