Data from StandardFe(NO3)3.TAE.3%Agarose.FlatLispGreen.Lamp.Energy10.07252019_HRD10591_11-55-17-441.txt Node
Date: Thu Jul 25 11:55:17 EDT 2019
User: cochatt
Spectrometer: HR+D1059
Trigger mode: 1
Integration Time (sec): 1.000000E-1
Scans to average: 1
Electric dark correction enabled: true
Nonlinearity correction enabled: false
Boxcar width: 0
XAxis mode: Wavelengths
Number of Pixels in Spectrum: 2048
>>>>>Begin Spectral Data<<<<<
223.165	-7.62
223.4	-7.62
223.635	-7.62
223.869	-21.62
224.104	-24.62
224.338	-23.62
224.573	-14.62
224.808	0.38
225.042	-10.62
225.277	-1.62
225.511	-6.62
225.746	12.38
225.98	12.38
226.215	17.38
226.449	22.38
226.683	16.38
226.918	18.38
227.152	11.38
227.387	23.38
227.621	45.38
227.856	45.38
228.09	58.38
228.324	50.38
228.559	62.38
228.793	70.38
229.027	61.38
229.262	60.38
229.496	75.38
229.73	69.38
229.964	66.38
230.199	81.38
230.433	80.38
230.667	78.38
230.901	66.38
231.136	80.38
231.37	64.38
231.604	77.38
231.838	71.38
232.072	90.38
232.306	98.38
232.541	82.38
232.775	77.38
233.009	86.38
233.243	93.38
233.477	87.38
233.711	87.38
233.945	95.38
234.179	81.38
234.413	82.38
234.647	93.38
234.881	98.38
235.115	90.38
235.349	87.38
235.583	93.38
235.817	93.38
236.051	90.38
236.285	90.38
236.519	86.38
236.753	78.38
236.987	80.38
237.221	86.38
237.455	92.38
237.689	78.38
237.922	85.38
238.156	82.38
238.39	81.38
238.624	74.38
238.858	83.38
239.091	86.38
239.325	86.38
239.559	74.38
239.793	86.38
240.027	87.38
240.26	88.38
240.494	88.38
240.728	87.38
240.961	85.38
241.195	72.38
241.429	87.38
241.662	91.38
241.896	80.38
242.13	72.38
242.363	76.38
242.597	94.38
242.83	77.38
243.064	81.38
243.298	85.38
243.531	88.38
243.765	83.38
243.998	87.38
244.232	80.38
244.465	94.38
244.699	88.38
244.932	73.38
245.166	82.38
245.399	79.38
245.633	78.38
245.866	97.38
246.099	85.38
246.333	77.38
246.566	78.38
246.8	89.38
247.033	84.38
247.266	72.38
247.5	87.38
247.733	65.38
247.966	72.38
248.2	85.38
248.433	76.38
248.666	101.38
248.899	86.38
249.133	82.38
249.366	86.38
249.599	79.38
249.832	76.38
250.066	86.38
250.299	88.38
250.532	80.38
250.765	98.38
250.998	85.38
251.231	76.38
251.465	85.38
251.698	105.38
251.931	58.38
252.164	71.38
252.397	82.38
252.63	84.38
252.863	84.38
253.096	80.38
253.329	86.38
253.562	86.38
253.795	67.38
254.028	92.38
254.261	72.38
254.494	80.38
254.727	83.38
254.96	81.38
255.193	82.38
255.426	94.38
255.659	71.38
255.892	81.38
256.124	74.38
256.357	76.38
256.59	71.38
256.823	80.38
257.056	92.38
257.289	82.38
257.521	95.38
257.754	97.38
257.987	89.38
258.22	97.38
258.452	96.38
258.685	88.38
258.918	98.38
259.151	91.38
259.383	85.38
259.616	84.38
259.849	93.38
260.081	87.38
260.314	86.38
260.547	77.38
260.779	56.38
261.012	82.38
261.244	79.38
261.477	78.38
261.71	76.38
261.942	97.38
262.175	92.38
262.407	87.38
262.64	84.38
262.872	77.38
263.105	85.38
263.337	85.38
263.57	85.38
263.802	83.38
264.035	91.38
264.267	89.38
264.499	78.38
264.732	92.38
264.964	78.38
265.197	96.38
265.429	82.38
265.661	80.38
265.894	82.38
266.126	88.38
266.358	82.38
266.591	79.38
266.823	99.38
267.055	88.38
267.287	87.38
267.52	81.38
267.752	80.38
267.984	82.38
268.216	93.38
268.448	96.38
268.681	93.38
268.913	82.38
269.145	82.38
269.377	86.38
269.609	88.38
269.841	98.38
270.073	106.38
270.306	65.38
270.538	79.38
270.77	91.38
271.002	95.38
271.234	89.38
271.466	88.38
271.698	88.38
271.93	76.38
272.162	83.38
272.394	83.38
272.626	84.38
272.858	85.38
273.09	90.38
273.322	85.38
273.553	97.38
273.785	85.38
274.017	85.38
274.249	92.38
274.481	85.38
274.713	85.38
274.945	86.38
275.176	89.38
275.408	86.38
275.64	78.38
275.872	94.38
276.104	99.38
276.335	91.38
276.567	87.38
276.799	82.38
277.031	94.38
277.262	88.38
277.494	84.38
277.726	96.38
277.957	81.38
278.189	83.38
278.421	87.38
278.652	95.38
278.884	79.38
279.115	84.38
279.347	83.38
279.579	99.38
279.81	80.38
280.042	103.38
280.273	88.38
280.505	82.38
280.736	100.38
280.968	106.38
281.199	82.38
281.431	89.38
281.662	86.38
281.894	85.38
282.125	77.38
282.356	81.38
282.588	85.38
282.819	80.38
283.051	90.38
283.282	90.38
283.513	95.38
283.745	95.38
283.976	84.38
284.207	94.38
284.439	96.38
284.67	93.38
284.901	88.38
285.132	77.38
285.364	93.38
285.595	88.38
285.826	85.38
286.057	83.38
286.288	98.38
286.52	90.38
286.751	99.38
286.982	84.38
287.213	99.38
287.444	90.38
287.675	103.38
287.906	92.38
288.138	80.38
288.369	93.38
288.6	84.38
288.831	76.38
289.062	106.38
289.293	96.38
289.524	100.38
289.755	94.38
289.986	75.38
290.217	84.38
290.448	98.38
290.679	74.38
290.91	85.38
291.141	78.38
291.371	91.38
291.602	69.38
291.833	87.38
292.064	80.38
292.295	74.38
292.526	94.38
292.757	94.38
292.987	86.38
293.218	93.38
293.449	90.38
293.68	73.38
293.91	93.38
294.141	86.38
294.372	87.38
294.603	86.38
294.833	87.38
295.064	97.38
295.295	101.38
295.525	100.38
295.756	73.38
295.987	76.38
296.217	86.38
296.448	74.38
296.679	92.38
296.909	92.38
297.14	103.38
297.37	104.38
297.601	81.38
297.831	95.38
298.062	92.38
298.292	78.38
298.523	80.38
298.753	92.38
298.984	90.38
299.214	90.38
299.445	83.38
299.675	90.38
299.905	89.38
300.136	73.38
300.366	98.38
300.597	89.38
300.827	82.38
301.057	97.38
301.288	81.38
301.518	96.38
301.748	86.38
301.979	82.38
302.209	89.38
302.439	91.38
302.669	87.38
302.9	84.38
303.13	93.38
303.36	92.38
303.59	97.38
303.82	97.38
304.051	84.38
304.281	100.38
304.511	83.38
304.741	83.38
304.971	82.38
305.201	101.38
305.431	90.38
305.661	107.38
305.891	85.38
306.121	85.38
306.352	93.38
306.582	96.38
306.812	81.38
307.042	81.38
307.272	100.38
307.502	68.38
307.731	88.38
307.961	86.38
308.191	78.38
308.421	105.38
308.651	82.38
308.881	88.38
309.111	95.38
309.341	80.38
309.571	91.38
309.8	106.38
310.03	80.38
310.26	86.38
310.49	104.38
310.72	89.38
310.949	97.38
311.179	98.38
311.409	87.38
311.639	91.38
311.868	91.38
312.098	86.38
312.328	74.38
312.557	103.38
312.787	89.38
313.017	78.38
313.246	81.38
313.476	77.38
313.706	92.38
313.935	92.38
314.165	89.38
314.394	79.38
314.624	100.38
314.853	98.38
315.083	88.38
315.312	106.38
315.542	80.38
315.771	76.38
316.001	90.38
316.23	83.38
316.46	79.38
316.689	91.38
316.919	87.38
317.148	94.38
317.377	96.38
317.607	93.38
317.836	97.38
318.065	92.38
318.295	85.38
318.524	96.38
318.753	82.38
318.983	96.38
319.212	89.38
319.441	77.38
319.67	95.38
319.9	82.38
320.129	86.38
320.358	96.38
320.587	82.38
320.816	84.38
321.046	108.38
321.275	104.38
321.504	77.38
321.733	95.38
321.962	75.38
322.191	81.38
322.42	87.38
322.649	103.38
322.878	93.38
323.108	88.38
323.337	102.38
323.566	86.38
323.795	97.38
324.024	93.38
324.253	92.38
324.482	93.38
324.71	93.38
324.939	94.38
325.168	93.38
325.397	93.38
325.626	85.38
325.855	93.38
326.084	92.38
326.313	91.38
326.542	85.38
326.77	82.38
326.999	87.38
327.228	90.38
327.457	100.38
327.686	84.38
327.914	84.38
328.143	88.38
328.372	79.38
328.6	104.38
328.829	85.38
329.058	94.38
329.287	92.38
329.515	92.38
329.744	103.38
329.972	85.38
330.201	91.38
330.43	80.38
330.658	101.38
330.887	110.38
331.115	84.38
331.344	95.38
331.572	91.38
331.801	99.38
332.03	91.38
332.258	97.38
332.486	91.38
332.715	106.38
332.943	88.38
333.172	76.38
333.4	80.38
333.629	84.38
333.857	82.38
334.085	83.38
334.314	97.38
334.542	105.38
334.771	87.38
334.999	81.38
335.227	78.38
335.455	93.38
335.684	91.38
335.912	90.38
336.14	88.38
336.369	82.38
336.597	80.38
336.825	77.38
337.053	85.38
337.281	79.38
337.51	97.38
337.738	97.38
337.966	68.38
338.194	87.38
338.422	87.38
338.65	85.38
338.878	89.38
339.106	96.38
339.334	97.38
339.562	76.38
339.79	89.38
340.018	84.38
340.246	94.38
340.474	96.38
340.702	90.38
340.93	94.38
341.158	87.38
341.386	83.38
341.614	82.38
341.842	88.38
342.07	86.38
342.298	79.38
342.526	82.38
342.754	85.38
342.981	83.38
343.209	99.38
343.437	93.38
343.665	103.38
343.893	87.38
344.12	81.38
344.348	75.38
344.576	86.38
344.804	111.38
345.031	81.38
345.259	86.38
345.487	90.38
345.714	91.38
345.942	96.38
346.17	96.38
346.397	95.38
346.625	94.38
346.853	107.38
347.08	94.38
347.308	88.38
347.535	88.38
347.763	100.38
347.99	88.38
348.218	97.38
348.445	82.38
348.673	88.38
348.9	73.38
349.128	91.38
349.355	103.38
349.583	90.38
349.81	82.38
350.037	91.38
350.265	86.38
350.492	77.38
350.72	89.38
350.947	86.38
351.174	87.38
351.402	103.38
351.629	96.38
351.856	83.38
352.083	89.38
352.311	88.38
352.538	88.38
352.765	86.38
352.992	97.38
353.22	88.38
353.447	90.38
353.674	105.38
353.901	92.38
354.128	89.38
354.355	83.38
354.583	89.38
354.81	92.38
355.037	82.38
355.264	89.38
355.491	89.38
355.718	98.38
355.945	100.38
356.172	87.38
356.399	79.38
356.626	80.38
356.853	101.38
357.08	94.38
357.307	102.38
357.534	79.38
357.761	87.38
357.988	88.38
358.215	99.38
358.441	103.38
358.668	94.38
358.895	90.38
359.122	96.38
359.349	85.38
359.576	87.38
359.802	76.38
360.029	79.38
360.256	89.38
360.483	79.38
360.709	76.38
360.936	108.38
361.163	80.38
361.39	93.38
361.616	92.38
361.843	95.38
362.07	82.38
362.296	94.38
362.523	89.38
362.749	101.38
362.976	92.38
363.203	110.38
363.429	106.38
363.656	83.38
363.882	92.38
364.109	90.38
364.335	105.38
364.562	92.38
364.788	88.38
365.015	91.38
365.241	88.38
365.468	95.38
365.694	100.38
365.92	90.38
366.147	67.38
366.373	90.38
366.599	93.38
366.826	93.38
367.052	90.38
367.278	94.38
367.505	83.38
367.731	91.38
367.957	89.38
368.184	95.38
368.41	94.38
368.636	91.38
368.862	97.38
369.089	101.38
369.315	84.38
369.541	95.38
369.767	92.38
369.993	78.38
370.219	87.38
370.445	93.38
370.672	96.38
370.898	98.38
371.124	100.38
371.35	87.38
371.576	97.38
371.802	103.38
372.028	92.38
372.254	107.38
372.48	97.38
372.706	105.38
372.932	93.38
373.158	93.38
373.384	88.38
373.61	81.38
373.835	92.38
374.061	91.38
374.287	84.38
374.513	93.38
374.739	95.38
374.965	104.38
375.191	106.38
375.416	80.38
375.642	99.38
375.868	94.38
376.094	92.38
376.319	96.38
376.545	98.38
376.771	101.38
376.997	89.38
377.222	85.38
377.448	108.38
377.674	97.38
377.899	88.38
378.125	105.38
378.35	92.38
378.576	82.38
378.802	91.38
379.027	98.38
379.253	92.38
379.478	100.38
379.704	88.38
379.929	96.38
380.155	99.38
380.38	92.38
380.606	95.38
380.831	101.38
381.057	96.38
381.282	87.38
381.507	99.38
381.733	107.38
381.958	91.38
382.184	103.38
382.409	88.38
382.634	96.38
382.86	82.38
383.085	82.38
383.31	95.38
383.535	89.38
383.761	91.38
383.986	96.38
384.211	99.38
384.436	94.38
384.662	99.38
384.887	95.38
385.112	86.38
385.337	92.38
385.562	92.38
385.787	95.38
386.013	97.38
386.238	95.38
386.463	92.38
386.688	96.38
386.913	97.38
387.138	93.38
387.363	94.38
387.588	91.38
387.813	107.38
388.038	106.38
388.263	102.38
388.488	97.38
388.713	96.38
388.938	86.38
389.163	105.38
389.387	111.38
389.612	87.38
389.837	113.38
390.062	107.38
390.287	109.38
390.512	97.38
390.736	80.38
390.961	96.38
391.186	100.38
391.411	91.38
391.636	88.38
391.86	94.38
392.085	117.38
392.31	106.38
392.534	101.38
392.759	104.38
392.984	114.38
393.208	108.38
393.433	116.38
393.658	104.38
393.882	108.38
394.107	109.38
394.331	110.38
394.556	100.38
394.78	96.38
395.005	98.38
395.229	105.38
395.454	109.38
395.678	111.38
395.903	109.38
396.127	95.38
396.352	116.38
396.576	108.38
396.801	74.38
397.025	97.38
397.249	105.38
397.474	110.38
397.698	113.38
397.922	98.38
398.147	100.38
398.371	96.38
398.595	104.38
398.82	87.38
399.044	115.38
399.268	106.38
399.492	122.38
399.717	129.38
399.941	126.38
400.165	109.38
400.389	101.38
400.613	108.38
400.837	100.38
401.062	105.38
401.286	106.38
401.51	109.38
401.734	110.38
401.958	107.38
402.182	120.38
402.406	109.38
402.63	114.38
402.854	98.38
403.078	109.38
403.302	114.38
403.526	114.38
403.75	107.38
403.974	108.38
404.198	116.38
404.422	113.38
404.645	116.38
404.869	104.38
405.093	113.38
405.317	114.38
405.541	99.38
405.765	113.38
405.988	104.38
406.212	118.38
406.436	103.38
406.66	120.38
406.883	110.38
407.107	116.38
407.331	108.38
407.555	119.38
407.778	120.38
408.002	110.38
408.226	109.38
408.449	113.38
408.673	120.38
408.896	107.38
409.12	130.38
409.344	116.38
409.567	100.38
409.791	109.38
410.014	130.38
410.238	109.38
410.461	120.38
410.685	127.38
410.908	97.38
411.132	106.38
411.355	110.38
411.578	117.38
411.802	113.38
412.025	126.38
412.249	105.38
412.472	108.38
412.695	113.38
412.919	119.38
413.142	111.38
413.365	106.38
413.589	105.38
413.812	109.38
414.035	109.38
414.258	119.38
414.482	106.38
414.705	126.38
414.928	109.38
415.151	119.38
415.374	121.38
415.597	131.38
415.821	108.38
416.044	111.38
416.267	112.38
416.49	98.38
416.713	114.38
416.936	100.38
417.159	109.38
417.382	119.38
417.605	112.38
417.828	105.38
418.051	115.38
418.274	122.38
418.497	134.38
418.72	125.38
418.943	116.38
419.166	116.38
419.389	120.38
419.611	118.38
419.834	119.38
420.057	107.38
420.28	130.38
420.503	108.38
420.726	134.38
420.948	118.38
421.171	112.38
421.394	122.38
421.617	116.38
421.839	116.38
422.062	120.38
422.285	112.38
422.507	112.38
422.73	124.38
422.953	108.38
423.175	123.38
423.398	105.38
423.621	112.38
423.843	120.38
424.066	118.38
424.288	116.38
424.511	121.38
424.733	128.38
424.956	120.38
425.178	122.38
425.401	122.38
425.623	121.38
425.846	120.38
426.068	118.38
426.291	112.38
426.513	121.38
426.735	130.38
426.958	111.38
427.18	117.38
427.402	124.38
427.625	124.38
427.847	116.38
428.069	110.38
428.292	109.38
428.514	123.38
428.736	98.38
428.958	110.38
429.181	116.38
429.403	112.38
429.625	134.38
429.847	110.38
430.069	117.38
430.292	128.38
430.514	120.38
430.736	117.38
430.958	125.38
431.18	120.38
431.402	105.38
431.624	112.38
431.846	93.38
432.068	95.38
432.29	107.38
432.512	99.38
432.734	118.38
432.956	116.38
433.178	134.38
433.4	129.38
433.622	127.38
433.844	120.38
434.066	112.38
434.287	110.38
434.509	102.38
434.731	127.38
434.953	118.38
435.175	118.38
435.397	133.38
435.618	114.38
435.84	107.38
436.062	120.38
436.284	126.38
436.505	109.38
436.727	113.38
436.949	107.38
437.17	130.38
437.392	128.38
437.614	108.38
437.835	108.38
438.057	102.38
438.278	104.38
438.5	105.38
438.721	118.38
438.943	112.38
439.165	120.38
439.386	118.38
439.608	104.38
439.829	114.38
440.05	109.38
440.272	119.38
440.493	119.38
440.715	129.38
440.936	127.38
441.158	130.38
441.379	125.38
441.6	127.38
441.822	120.38
442.043	116.38
442.264	116.38
442.486	113.38
442.707	135.38
442.928	133.38
443.149	110.38
443.371	138.38
443.592	124.38
443.813	118.38
444.034	113.38
444.255	112.38
444.476	132.38
444.698	106.38
444.919	128.38
445.14	244.38
445.361	164.38
445.582	126.38
445.803	116.38
446.024	118.38
446.245	122.38
446.466	119.38
446.687	109.38
446.908	117.38
447.129	118.38
447.35	122.38
447.571	122.38
447.792	121.38
448.013	118.38
448.234	119.38
448.455	112.38
448.675	100.38
448.896	117.38
449.117	110.38
449.338	105.38
449.559	121.38
449.779	109.38
450	109.38
450.221	117.38
450.442	124.38
450.662	105.38
450.883	105.38
451.104	111.38
451.324	125.38
451.545	113.38
451.766	120.38
451.986	112.38
452.207	111.38
452.428	109.38
452.648	109.38
452.869	124.38
453.089	104.38
453.31	110.38
453.53	121.38
453.751	113.38
453.971	102.38
454.192	107.38
454.412	106.38
454.633	123.38
454.853	117.38
455.073	107.38
455.294	112.38
455.514	98.38
455.734	112.38
455.955	108.38
456.175	100.38
456.395	122.38
456.616	114.38
456.836	111.38
457.056	108.38
457.276	117.38
457.497	122.38
457.717	107.38
457.937	87.38
458.157	100.38
458.377	78.38
458.598	93.38
458.818	90.38
459.038	117.38
459.258	103.38
459.478	87.38
459.698	106.38
459.918	104.38
460.138	98.38
460.358	116.38
460.578	122.38
460.798	125.38
461.018	130.38
461.238	121.38
461.458	129.38
461.678	132.38
461.898	87.38
462.118	101.38
462.338	126.38
462.558	125.38
462.777	129.38
462.997	132.38
463.217	125.38
463.437	131.38
463.657	120.38
463.876	126.38
464.096	128.38
464.316	112.38
464.536	125.38
464.755	130.38
464.975	114.38
465.195	116.38
465.414	116.38
465.634	115.38
465.854	107.38
466.073	114.38
466.293	122.38
466.512	121.38
466.732	118.38
466.951	119.38
467.171	111.38
467.391	119.38
467.61	109.38
467.829	118.38
468.049	118.38
468.268	117.38
468.488	119.38
468.707	110.38
468.927	127.38
469.146	136.38
469.365	127.38
469.585	121.38
469.804	126.38
470.023	132.38
470.243	129.38
470.462	127.38
470.681	133.38
470.901	120.38
471.12	121.38
471.339	128.38
471.558	106.38
471.777	122.38
471.997	123.38
472.216	102.38
472.435	114.38
472.654	117.38
472.873	124.38
473.092	106.38
473.311	122.38
473.53	126.38
473.749	101.38
473.968	118.38
474.187	125.38
474.406	116.38
474.625	116.38
474.844	125.38
475.063	116.38
475.282	107.38
475.501	130.38
475.72	128.38
475.939	122.38
476.158	127.38
476.377	124.38
476.596	128.38
476.814	105.38
477.033	113.38
477.252	99.38
477.471	111.38
477.69	122.38
477.908	120.38
478.127	130.38
478.346	130.38
478.564	129.38
478.783	122.38
479.002	141.38
479.22	120.38
479.439	121.38
479.658	133.38
479.876	126.38
480.095	121.38
480.313	127.38
480.532	141.38
480.751	122.38
480.969	136.38
481.188	106.38
481.406	116.38
481.624	96.38
481.843	110.38
482.061	106.38
482.28	128.38
482.498	110.38
482.717	107.38
482.935	127.38
483.153	138.38
483.372	130.38
483.59	132.38
483.808	138.38
484.027	128.38
484.245	120.38
484.463	128.38
484.681	136.38
484.9	134.38
485.118	138.38
485.336	129.38
485.554	121.38
485.772	112.38
485.99	119.38
486.209	110.38
486.427	112.38
486.645	131.38
486.863	146.38
487.081	129.38
487.299	119.38
487.517	125.38
487.735	140.38
487.953	146.38
488.171	146.38
488.389	141.38
488.607	142.38
488.825	125.38
489.043	118.38
489.261	109.38
489.479	120.38
489.696	145.38
489.914	136.38
490.132	136.38
490.35	150.38
490.568	130.38
490.786	146.38
491.003	137.38
491.221	146.38
491.439	153.38
491.657	153.38
491.874	157.38
492.092	176.38
492.31	162.38
492.527	149.38
492.745	174.38
492.963	160.38
493.18	152.38
493.398	150.38
493.615	151.38
493.833	162.38
494.05	148.38
494.268	164.38
494.485	152.38
494.703	153.38
494.92	153.38
495.138	163.38
495.355	134.38
495.573	158.38
495.79	147.38
496.008	154.38
496.225	143.38
496.442	146.38
496.66	153.38
496.877	141.38
497.094	147.38
497.312	144.38
497.529	144.38
497.746	142.38
497.963	138.38
498.181	133.38
498.398	123.38
498.615	144.38
498.832	140.38
499.049	134.38
499.267	162.38
499.484	178.38
499.701	173.38
499.918	187.38
500.135	210.38
500.352	212.38
500.569	220.38
500.786	233.38
501.003	212.38
501.22	200.38
501.437	177.38
501.654	194.38
501.871	169.38
502.088	166.38
502.305	157.38
502.522	145.38
502.739	150.38
502.956	146.38
503.172	132.38
503.389	145.38
503.606	143.38
503.823	129.38
504.04	139.38
504.256	132.38
504.473	138.38
504.69	138.38
504.907	134.38
505.123	138.38
505.34	137.38
505.557	130.38
505.773	146.38
505.99	141.38
506.207	114.38
506.423	129.38
506.64	132.38
506.856	129.38
507.073	137.38
507.289	121.38
507.506	130.38
507.722	133.38
507.939	123.38
508.155	123.38
508.372	128.38
508.588	122.38
508.805	121.38
509.021	112.38
509.238	123.38
509.454	113.38
509.67	126.38
509.887	124.38
510.103	111.38
510.319	119.38
510.536	128.38
510.752	107.38
510.968	119.38
511.184	105.38
511.401	129.38
511.617	124.38
511.833	111.38
512.049	104.38
512.265	114.38
512.481	111.38
512.698	113.38
512.914	100.38
513.13	116.38
513.346	104.38
513.562	116.38
513.778	117.38
513.994	122.38
514.21	117.38
514.426	117.38
514.642	111.38
514.858	120.38
515.074	127.38
515.29	119.38
515.506	134.38
515.721	106.38
515.937	120.38
516.153	105.38
516.369	122.38
516.585	118.38
516.801	111.38
517.016	142.38
517.232	137.38
517.448	128.38
517.664	127.38
517.879	130.38
518.095	124.38
518.311	122.38
518.527	125.38
518.742	137.38
518.958	131.38
519.173	145.38
519.389	134.38
519.605	136.38
519.82	118.38
520.036	128.38
520.251	108.38
520.467	117.38
520.682	124.38
520.898	119.38
521.113	132.38
521.329	120.38
521.544	131.38
521.76	124.38
521.975	118.38
522.19	109.38
522.406	121.38
522.621	126.38
522.836	122.38
523.052	118.38
523.267	122.38
523.482	119.38
523.698	119.38
523.913	110.38
524.128	107.38
524.343	123.38
524.559	118.38
524.774	130.38
524.989	116.38
525.204	109.38
525.419	127.38
525.634	125.38
525.849	121.38
526.064	127.38
526.28	122.38
526.495	106.38
526.71	109.38
526.925	107.38
527.14	105.38
527.355	109.38
527.57	105.38
527.785	113.38
527.999	118.38
528.214	113.38
528.429	131.38
528.644	129.38
528.859	134.38
529.074	127.38
529.289	132.38
529.503	146.38
529.718	132.38
529.933	123.38
530.148	120.38
530.363	103.38
530.577	124.38
530.792	102.38
531.007	120.38
531.221	112.38
531.436	118.38
531.651	120.38
531.865	122.38
532.08	100.38
532.295	125.38
532.509	116.38
532.724	109.38
532.938	113.38
533.153	114.38
533.367	123.38
533.582	132.38
533.796	120.38
534.011	116.38
534.225	112.38
534.44	126.38
534.654	121.38
534.868	116.38
535.083	107.38
535.297	110.38
535.511	109.38
535.726	91.38
535.94	112.38
536.154	114.38
536.369	114.38
536.583	102.38
536.797	110.38
537.011	112.38
537.225	121.38
537.44	109.38
537.654	105.38
537.868	123.38
538.082	106.38
538.296	106.38
538.51	122.38
538.724	125.38
538.938	122.38
539.153	116.38
539.367	105.38
539.581	122.38
539.795	127.38
540.009	103.38
540.222	112.38
540.436	110.38
540.65	125.38
540.864	113.38
541.078	134.38
541.292	130.38
541.506	138.38
541.72	141.38
541.934	125.38
542.147	152.38
542.361	136.38
542.575	135.38
542.789	144.38
543.002	126.38
543.216	114.38
543.43	132.38
543.644	140.38
543.857	134.38
544.071	129.38
544.285	128.38
544.498	129.38
544.712	119.38
544.925	142.38
545.139	138.38
545.352	143.38
545.566	128.38
545.779	148.38
545.993	138.38
546.206	145.38
546.42	133.38
546.633	141.38
546.847	139.38
547.06	142.38
547.274	130.38
547.487	136.38
547.7	149.38
547.914	147.38
548.127	136.38
548.34	139.38
548.554	129.38
548.767	131.38
548.98	145.38
549.193	134.38
549.407	134.38
549.62	131.38
549.833	134.38
550.046	124.38
550.259	116.38
550.473	134.38
550.686	132.38
550.899	130.38
551.112	121.38
551.325	149.38
551.538	138.38
551.751	132.38
551.964	120.38
552.177	121.38
552.39	120.38
552.603	126.38
552.816	136.38
553.029	139.38
553.242	144.38
553.455	137.38
553.667	136.38
553.88	124.38
554.093	146.38
554.306	130.38
554.519	128.38
554.732	133.38
554.944	143.38
555.157	123.38
555.37	130.38
555.583	111.38
555.795	127.38
556.008	125.38
556.221	117.38
556.433	120.38
556.646	125.38
556.859	121.38
557.071	123.38
557.284	116.38
557.496	122.38
557.709	128.38
557.921	123.38
558.134	126.38
558.346	121.38
558.559	105.38
558.771	128.38
558.984	126.38
559.196	115.38
559.409	116.38
559.621	127.38
559.833	114.38
560.046	100.38
560.258	111.38
560.47	120.38
560.683	111.38
560.895	124.38
561.107	142.38
561.32	127.38
561.532	118.38
561.744	110.38
561.956	125.38
562.168	113.38
562.381	124.38
562.593	128.38
562.805	113.38
563.017	123.38
563.229	104.38
563.441	120.38
563.653	100.38
563.865	127.38
564.077	120.38
564.289	111.38
564.501	128.38
564.713	119.38
564.925	102.38
565.137	112.38
565.349	108.38
565.561	112.38
565.773	119.38
565.985	118.38
566.197	112.38
566.408	128.38
566.62	123.38
566.832	129.38
567.044	113.38
567.255	116.38
567.467	118.38
567.679	115.38
567.891	148.38
568.102	126.38
568.314	138.38
568.526	125.38
568.737	113.38
568.949	114.38
569.161	106.38
569.372	97.38
569.584	115.38
569.795	119.38
570.007	101.38
570.218	97.38
570.43	108.38
570.641	105.38
570.853	113.38
571.064	112.38
571.276	111.38
571.487	107.38
571.698	106.38
571.91	105.38
572.121	100.38
572.333	118.38
572.544	90.38
572.755	96.38
572.966	104.38
573.178	92.38
573.389	109.38
573.6	108.38
573.811	102.38
574.023	97.38
574.234	100.38
574.445	116.38
574.656	97.38
574.867	98.38
575.078	107.38
575.289	96.38
575.501	105.38
575.712	98.38
575.923	95.38
576.134	108.38
576.345	96.38
576.556	114.38
576.767	120.38
576.978	99.38
577.188	102.38
577.399	97.38
577.61	104.38
577.821	113.38
578.032	92.38
578.243	106.38
578.454	103.38
578.665	100.38
578.875	103.38
579.086	99.38
579.297	99.38
579.508	89.38
579.718	97.38
579.929	98.38
580.14	100.38
580.35	70.38
580.561	112.38
580.772	106.38
580.982	94.38
581.193	96.38
581.403	91.38
581.614	88.38
581.825	96.38
582.035	95.38
582.246	107.38
582.456	89.38
582.667	100.38
582.877	100.38
583.087	96.38
583.298	101.38
583.508	99.38
583.719	89.38
583.929	104.38
584.139	93.38
584.35	95.38
584.56	106.38
584.77	97.38
584.981	98.38
585.191	101.38
585.401	92.38
585.611	95.38
585.821	106.38
586.032	101.38
586.242	97.38
586.452	105.38
586.662	93.38
586.872	96.38
587.082	90.38
587.292	92.38
587.502	88.38
587.713	94.38
587.923	98.38
588.133	114.38
588.343	90.38
588.553	101.38
588.762	100.38
588.972	112.38
589.182	102.38
589.392	97.38
589.602	87.38
589.812	84.38
590.022	99.38
590.232	101.38
590.441	89.38
590.651	86.38
590.861	100.38
591.071	108.38
591.281	106.38
591.49	106.38
591.7	98.38
591.91	105.38
592.119	108.38
592.329	91.38
592.539	103.38
592.748	105.38
592.958	87.38
593.167	100.38
593.377	108.38
593.587	100.38
593.796	104.38
594.006	96.38
594.215	99.38
594.424	96.38
594.634	110.38
594.843	92.38
595.053	104.38
595.262	88.38
595.472	105.38
595.681	115.38
595.89	104.38
596.1	90.38
596.309	93.38
596.518	100.38
596.727	99.38
596.937	98.38
597.146	93.38
597.355	97.38
597.564	103.38
597.774	95.38
597.983	89.38
598.192	97.38
598.401	102.38
598.61	83.38
598.819	104.38
599.028	97.38
599.237	98.38
599.446	97.38
599.655	96.38
599.864	98.38
600.073	114.38
600.282	102.38
600.491	89.38
600.7	89.38
600.909	96.38
601.118	94.38
601.327	89.38
601.536	105.38
601.745	93.38
601.953	109.38
602.162	94.38
602.371	102.38
602.58	94.38
602.789	88.38
602.997	104.38
603.206	106.38
603.415	110.38
603.623	98.38
603.832	106.38
604.041	98.38
604.249	91.38
604.458	107.38
604.666	93.38
604.875	88.38
605.084	94.38
605.292	113.38
605.501	106.38
605.709	103.38
605.918	87.38
606.126	104.38
606.334	103.38
606.543	95.38
606.751	96.38
606.96	93.38
607.168	108.38
607.376	102.38
607.585	99.38
607.793	92.38
608.001	97.38
608.21	88.38
608.418	95.38
608.626	112.38
608.834	110.38
609.043	105.38
609.251	86.38
609.459	108.38
609.667	118.38
609.875	98.38
610.083	91.38
610.291	124.38
610.499	93.38
610.707	89.38
610.916	95.38
611.124	102.38
611.332	101.38
611.54	92.38
611.748	105.38
611.955	91.38
612.163	106.38
612.371	88.38
612.579	96.38
612.787	96.38
612.995	119.38
613.203	95.38
613.411	99.38
613.618	110.38
613.826	94.38
614.034	92.38
614.242	94.38
614.449	111.38
614.657	94.38
614.865	99.38
615.072	96.38
615.28	90.38
615.488	95.38
615.695	84.38
615.903	90.38
616.111	96.38
616.318	105.38
616.526	91.38
616.733	111.38
616.941	99.38
617.148	98.38
617.356	117.38
617.563	109.38
617.771	94.38
617.978	108.38
618.185	100.38
618.393	93.38
618.6	98.38
618.807	116.38
619.015	98.38
619.222	102.38
619.429	102.38
619.637	84.38
619.844	90.38
620.051	92.38
620.258	95.38
620.466	88.38
620.673	98.38
620.88	96.38
621.087	97.38
621.294	96.38
621.501	90.38
621.708	102.38
621.915	84.38
622.122	98.38
622.329	100.38
622.536	112.38
622.743	86.38
622.95	84.38
623.157	90.38
623.364	109.38
623.571	93.38
623.778	90.38
623.985	96.38
624.192	99.38
624.399	110.38
624.606	102.38
624.812	92.38
625.019	90.38
625.226	98.38
625.433	98.38
625.639	106.38
625.846	107.38
626.053	82.38
626.259	92.38
626.466	98.38
626.673	91.38
626.879	87.38
627.086	95.38
627.293	90.38
627.499	89.38
627.706	108.38
627.912	84.38
628.119	92.38
628.325	83.38
628.532	104.38
628.738	102.38
628.945	91.38
629.151	89.38
629.357	90.38
629.564	98.38
629.77	90.38
629.976	97.38
630.183	99.38
630.389	83.38
630.595	75.38
630.802	103.38
631.008	90.38
631.214	101.38
631.42	96.38
631.627	96.38
631.833	95.38
632.039	96.38
632.245	100.38
632.451	96.38
632.657	106.38
632.863	101.38
633.069	99.38
633.275	96.38
633.481	92.38
633.688	102.38
633.893	97.38
634.099	92.38
634.305	103.38
634.511	91.38
634.717	86.38
634.923	81.38
635.129	94.38
635.335	99.38
635.541	96.38
635.747	90.38
635.952	97.38
636.158	81.38
636.364	99.38
636.57	92.38
636.775	103.38
636.981	90.38
637.187	100.38
637.392	101.38
637.598	84.38
637.804	112.38
638.009	90.38
638.215	91.38
638.421	106.38
638.626	99.38
638.832	93.38
639.037	80.38
639.243	97.38
639.448	89.38
639.654	112.38
639.859	88.38
640.065	99.38
640.27	93.38
640.475	91.38
640.681	86.38
640.886	103.38
641.091	84.38
641.297	92.38
641.502	80.38
641.707	96.38
641.913	84.38
642.118	88.38
642.323	93.38
642.528	94.38
642.733	97.38
642.939	93.38
643.144	84.38
643.349	99.38
643.554	95.38
643.759	85.38
643.964	87.38
644.169	93.38
644.374	94.38
644.579	91.38
644.784	90.38
644.989	89.38
645.194	90.38
645.399	81.38
645.604	90.38
645.809	87.38
646.014	102.38
646.219	88.38
646.423	96.38
646.628	88.38
646.833	90.38
647.038	105.38
647.243	94.38
647.447	83.38
647.652	87.38
647.857	88.38
648.062	96.38
648.266	90.38
648.471	85.38
648.676	96.38
648.88	96.38
649.085	89.38
649.289	88.38
649.494	81.38
649.698	100.38
649.903	94.38
650.107	97.38
650.312	88.38
650.516	91.38
650.721	81.38
650.925	96.38
651.13	93.38
651.334	92.38
651.539	77.38
651.743	90.38
651.947	86.38
652.152	89.38
652.356	87.38
652.56	82.38
652.764	100.38
652.969	81.38
653.173	95.38
653.377	96.38
653.581	66.38
653.785	93.38
653.99	91.38
654.194	82.38
654.398	86.38
654.602	92.38
654.806	77.38
655.01	75.38
655.214	94.38
655.418	88.38
655.622	92.38
655.826	85.38
656.03	78.38
656.234	101.38
656.438	88.38
656.642	90.38
656.846	101.38
657.049	87.38
657.253	95.38
657.457	93.38
657.661	97.38
657.865	97.38
658.068	81.38
658.272	105.38
658.476	85.38
658.68	90.38
658.883	79.38
659.087	86.38
659.291	77.38
659.494	91.38
659.698	84.38
659.901	95.38
660.105	73.38
660.309	82.38
660.512	85.38
660.716	95.38
660.919	94.38
661.123	87.38
661.326	76.38
661.53	92.38
661.733	91.38
661.936	87.38
662.14	94.38
662.343	93.38
662.546	94.38
662.75	91.38
662.953	82.38
663.156	81.38
663.36	94.38
663.563	78.38
663.766	86.38
663.969	92.38
664.173	73.38
664.376	75.38
664.579	75.38
664.782	76.38
664.985	82.38
665.188	88.38
665.391	106.38
665.594	84.38
665.797	81.38
666	91.38
666.203	82.38
666.406	105.38
666.609	86.38
666.812	79.38
667.015	88.38
667.218	78.38
667.421	92.38
667.624	93.38
667.827	90.38
668.03	96.38
668.232	77.38
668.435	95.38
668.638	81.38
668.841	89.38
669.043	92.38
669.246	110.38
669.449	93.38
669.651	89.38
669.854	91.38
670.057	93.38
670.259	88.38
670.462	84.38
670.665	65.38
670.867	86.38
671.07	88.38
671.272	85.38
671.475	89.38
671.677	98.38
671.88	94.38
672.082	86.38
672.284	96.38
672.487	78.38
672.689	83.38
672.892	98.38
