Data from StandardFe(NO3)3.TAE.3%Agarose.FlatLispGreen.Lamp.Energy10.07252019_HRD10591_11-53-41-439.txt Node
Date: Thu Jul 25 11:53:41 EDT 2019
User: cochatt
Spectrometer: HR+D1059
Trigger mode: 1
Integration Time (sec): 1.000000E-1
Scans to average: 1
Electric dark correction enabled: true
Nonlinearity correction enabled: false
Boxcar width: 0
XAxis mode: Wavelengths
Number of Pixels in Spectrum: 2048
>>>>>Begin Spectral Data<<<<<
223.165	-27.12
223.4	-27.12
223.635	-27.12
223.869	-13.12
224.104	-7.12
224.338	-5.12
224.573	-17.12
224.808	-9.12
225.042	-9.12
225.277	-18.12
225.511	1.88
225.746	-5.12
225.98	3.88
226.215	8.88
226.449	12.88
226.683	34.88
226.918	14.88
227.152	33.88
227.387	31.88
227.621	40.88
227.856	57.88
228.09	38.88
228.324	57.88
228.559	58.88
228.793	52.88
229.027	49.88
229.262	72.88
229.496	64.88
229.73	69.88
229.964	73.88
230.199	78.88
230.433	85.88
230.667	70.88
230.901	75.88
231.136	82.88
231.37	85.88
231.604	82.88
231.838	85.88
232.072	86.88
232.306	84.88
232.541	75.88
232.775	75.88
233.009	61.88
233.243	78.88
233.477	86.88
233.711	94.88
233.945	84.88
234.179	83.88
234.413	86.88
234.647	90.88
234.881	91.88
235.115	62.88
235.349	78.88
235.583	78.88
235.817	72.88
236.051	81.88
236.285	79.88
236.519	74.88
236.753	70.88
236.987	77.88
237.221	77.88
237.455	78.88
237.689	87.88
237.922	84.88
238.156	77.88
238.39	86.88
238.624	74.88
238.858	80.88
239.091	82.88
239.325	73.88
239.559	76.88
239.793	73.88
240.027	81.88
240.26	78.88
240.494	98.88
240.728	74.88
240.961	73.88
241.195	76.88
241.429	78.88
241.662	84.88
241.896	67.88
242.13	80.88
242.363	76.88
242.597	82.88
242.83	78.88
243.064	74.88
243.298	81.88
243.531	78.88
243.765	78.88
243.998	75.88
244.232	79.88
244.465	88.88
244.699	72.88
244.932	73.88
245.166	71.88
245.399	76.88
245.633	62.88
245.866	74.88
246.099	83.88
246.333	92.88
246.566	73.88
246.8	73.88
247.033	73.88
247.266	81.88
247.5	85.88
247.733	75.88
247.966	83.88
248.2	82.88
248.433	88.88
248.666	83.88
248.899	75.88
249.133	84.88
249.366	85.88
249.599	93.88
249.832	79.88
250.066	76.88
250.299	88.88
250.532	87.88
250.765	82.88
250.998	77.88
251.231	60.88
251.465	81.88
251.698	75.88
251.931	84.88
252.164	75.88
252.397	79.88
252.63	93.88
252.863	104.88
253.096	84.88
253.329	76.88
253.562	87.88
253.795	69.88
254.028	76.88
254.261	88.88
254.494	85.88
254.727	89.88
254.96	84.88
255.193	86.88
255.426	85.88
255.659	66.88
255.892	75.88
256.124	81.88
256.357	78.88
256.59	70.88
256.823	91.88
257.056	95.88
257.289	82.88
257.521	98.88
257.754	81.88
257.987	82.88
258.22	85.88
258.452	86.88
258.685	85.88
258.918	88.88
259.151	84.88
259.383	91.88
259.616	87.88
259.849	75.88
260.081	78.88
260.314	68.88
260.547	65.88
260.779	88.88
261.012	88.88
261.244	82.88
261.477	86.88
261.71	70.88
261.942	78.88
262.175	85.88
262.407	96.88
262.64	78.88
262.872	83.88
263.105	91.88
263.337	82.88
263.57	78.88
263.802	77.88
264.035	75.88
264.267	67.88
264.499	96.88
264.732	92.88
264.964	85.88
265.197	86.88
265.429	84.88
265.661	80.88
265.894	82.88
266.126	78.88
266.358	73.88
266.591	80.88
266.823	96.88
267.055	84.88
267.287	71.88
267.52	74.88
267.752	90.88
267.984	85.88
268.216	80.88
268.448	92.88
268.681	83.88
268.913	69.88
269.145	81.88
269.377	75.88
269.609	65.88
269.841	106.88
270.073	76.88
270.306	105.88
270.538	95.88
270.77	82.88
271.002	87.88
271.234	95.88
271.466	91.88
271.698	72.88
271.93	90.88
272.162	87.88
272.394	74.88
272.626	84.88
272.858	81.88
273.09	84.88
273.322	87.88
273.553	100.88
273.785	82.88
274.017	88.88
274.249	110.88
274.481	77.88
274.713	84.88
274.945	85.88
275.176	70.88
275.408	95.88
275.64	80.88
275.872	73.88
276.104	82.88
276.335	78.88
276.567	71.88
276.799	83.88
277.031	85.88
277.262	80.88
277.494	97.88
277.726	72.88
277.957	81.88
278.189	100.88
278.421	74.88
278.652	83.88
278.884	91.88
279.115	78.88
279.347	85.88
279.579	85.88
279.81	88.88
280.042	64.88
280.273	87.88
280.505	79.88
280.736	85.88
280.968	90.88
281.199	90.88
281.431	95.88
281.662	91.88
281.894	78.88
282.125	101.88
282.356	94.88
282.588	89.88
282.819	82.88
283.051	94.88
283.282	90.88
283.513	92.88
283.745	91.88
283.976	86.88
284.207	82.88
284.439	97.88
284.67	89.88
284.901	80.88
285.132	84.88
285.364	97.88
285.595	84.88
285.826	89.88
286.057	92.88
286.288	83.88
286.52	66.88
286.751	84.88
286.982	90.88
287.213	88.88
287.444	89.88
287.675	99.88
287.906	87.88
288.138	80.88
288.369	75.88
288.6	85.88
288.831	109.88
289.062	93.88
289.293	98.88
289.524	87.88
289.755	80.88
289.986	76.88
290.217	76.88
290.448	85.88
290.679	104.88
290.91	91.88
291.141	90.88
291.371	68.88
291.602	84.88
291.833	108.88
292.064	92.88
292.295	89.88
292.526	88.88
292.757	68.88
292.987	87.88
293.218	88.88
293.449	82.88
293.68	89.88
293.91	71.88
294.141	97.88
294.372	89.88
294.603	78.88
294.833	88.88
295.064	88.88
295.295	81.88
295.525	100.88
295.756	102.88
295.987	91.88
296.217	89.88
296.448	78.88
296.679	76.88
296.909	75.88
297.14	90.88
297.37	98.88
297.601	78.88
297.831	86.88
298.062	88.88
298.292	95.88
298.523	91.88
298.753	86.88
298.984	83.88
299.214	92.88
299.445	76.88
299.675	82.88
299.905	84.88
300.136	78.88
300.366	93.88
300.597	81.88
300.827	74.88
301.057	84.88
301.288	76.88
301.518	80.88
301.748	84.88
301.979	89.88
302.209	72.88
302.439	83.88
302.669	91.88
302.9	70.88
303.13	80.88
303.36	87.88
303.59	96.88
303.82	91.88
304.051	88.88
304.281	89.88
304.511	93.88
304.741	83.88
304.971	89.88
305.201	85.88
305.431	78.88
305.661	90.88
305.891	76.88
306.121	74.88
306.352	86.88
306.582	96.88
306.812	93.88
307.042	82.88
307.272	81.88
307.502	86.88
307.731	92.88
307.961	100.88
308.191	94.88
308.421	81.88
308.651	92.88
308.881	84.88
309.111	76.88
309.341	90.88
309.571	81.88
309.8	78.88
310.03	86.88
310.26	88.88
310.49	81.88
310.72	87.88
310.949	88.88
311.179	79.88
311.409	74.88
311.639	77.88
311.868	92.88
312.098	100.88
312.328	86.88
312.557	94.88
312.787	90.88
313.017	88.88
313.246	74.88
313.476	80.88
313.706	96.88
313.935	89.88
314.165	96.88
314.394	83.88
314.624	85.88
314.853	85.88
315.083	85.88
315.312	84.88
315.542	92.88
315.771	78.88
316.001	87.88
316.23	76.88
316.46	83.88
316.689	93.88
316.919	61.88
317.148	86.88
317.377	90.88
317.607	82.88
317.836	88.88
318.065	78.88
318.295	74.88
318.524	99.88
318.753	75.88
318.983	94.88
319.212	109.88
319.441	83.88
319.67	97.88
319.9	70.88
320.129	92.88
320.358	88.88
320.587	101.88
320.816	89.88
321.046	89.88
321.275	85.88
321.504	94.88
321.733	90.88
321.962	87.88
322.191	97.88
322.42	91.88
322.649	88.88
322.878	101.88
323.108	75.88
323.337	84.88
323.566	74.88
323.795	93.88
324.024	86.88
324.253	98.88
324.482	82.88
324.71	80.88
324.939	82.88
325.168	86.88
325.397	83.88
325.626	100.88
325.855	95.88
326.084	89.88
326.313	95.88
326.542	97.88
326.77	97.88
326.999	83.88
327.228	74.88
327.457	90.88
327.686	87.88
327.914	83.88
328.143	103.88
328.372	97.88
328.6	78.88
328.829	97.88
329.058	71.88
329.287	81.88
329.515	86.88
329.744	91.88
329.972	89.88
330.201	77.88
330.43	76.88
330.658	88.88
330.887	89.88
331.115	76.88
331.344	91.88
331.572	80.88
331.801	84.88
332.03	98.88
332.258	82.88
332.486	94.88
332.715	80.88
332.943	88.88
333.172	88.88
333.4	81.88
333.629	81.88
333.857	85.88
334.085	94.88
334.314	96.88
334.542	77.88
334.771	86.88
334.999	84.88
335.227	85.88
335.455	95.88
335.684	81.88
335.912	98.88
336.14	92.88
336.369	93.88
336.597	80.88
336.825	75.88
337.053	90.88
337.281	82.88
337.51	93.88
337.738	104.88
337.966	87.88
338.194	83.88
338.422	74.88
338.65	78.88
338.878	102.88
339.106	79.88
339.334	80.88
339.562	84.88
339.79	77.88
340.018	87.88
340.246	96.88
340.474	88.88
340.702	78.88
340.93	87.88
341.158	84.88
341.386	92.88
341.614	86.88
341.842	86.88
342.07	92.88
342.298	76.88
342.526	90.88
342.754	102.88
342.981	85.88
343.209	88.88
343.437	80.88
343.665	85.88
343.893	85.88
344.12	91.88
344.348	97.88
344.576	90.88
344.804	94.88
345.031	86.88
345.259	89.88
345.487	89.88
345.714	90.88
345.942	93.88
346.17	90.88
346.397	91.88
346.625	84.88
346.853	96.88
347.08	76.88
347.308	85.88
347.535	80.88
347.763	90.88
347.99	78.88
348.218	86.88
348.445	87.88
348.673	88.88
348.9	80.88
349.128	89.88
349.355	82.88
349.583	86.88
349.81	85.88
350.037	77.88
350.265	87.88
350.492	79.88
350.72	86.88
350.947	81.88
351.174	92.88
351.402	81.88
351.629	77.88
351.856	87.88
352.083	89.88
352.311	106.88
352.538	88.88
352.765	98.88
352.992	79.88
353.22	92.88
353.447	80.88
353.674	91.88
353.901	81.88
354.128	87.88
354.355	90.88
354.583	86.88
354.81	83.88
355.037	92.88
355.264	74.88
355.491	77.88
355.718	82.88
355.945	84.88
356.172	82.88
356.399	100.88
356.626	92.88
356.853	86.88
357.08	91.88
357.307	85.88
357.534	85.88
357.761	84.88
357.988	88.88
358.215	82.88
358.441	85.88
358.668	94.88
358.895	92.88
359.122	89.88
359.349	88.88
359.576	84.88
359.802	100.88
360.029	87.88
360.256	90.88
360.483	88.88
360.709	100.88
360.936	96.88
361.163	87.88
361.39	85.88
361.616	73.88
361.843	102.88
362.07	92.88
362.296	99.88
362.523	73.88
362.749	81.88
362.976	95.88
363.203	94.88
363.429	89.88
363.656	69.88
363.882	99.88
364.109	77.88
364.335	77.88
364.562	95.88
364.788	103.88
365.015	91.88
365.241	90.88
365.468	75.88
365.694	89.88
365.92	92.88
366.147	79.88
366.373	86.88
366.599	90.88
366.826	112.88
367.052	82.88
367.278	89.88
367.505	86.88
367.731	93.88
367.957	79.88
368.184	86.88
368.41	95.88
368.636	100.88
368.862	89.88
369.089	97.88
369.315	104.88
369.541	95.88
369.767	91.88
369.993	105.88
370.219	92.88
370.445	86.88
370.672	92.88
370.898	84.88
371.124	97.88
371.35	82.88
371.576	86.88
371.802	87.88
372.028	75.88
372.254	84.88
372.48	77.88
372.706	96.88
372.932	86.88
373.158	89.88
373.384	101.88
373.61	91.88
373.835	100.88
374.061	84.88
374.287	103.88
374.513	87.88
374.739	90.88
374.965	94.88
375.191	86.88
375.416	88.88
375.642	105.88
375.868	84.88
376.094	78.88
376.319	77.88
376.545	102.88
376.771	91.88
376.997	93.88
377.222	92.88
377.448	83.88
377.674	91.88
377.899	83.88
378.125	87.88
378.35	93.88
378.576	102.88
378.802	88.88
379.027	82.88
379.253	92.88
379.478	93.88
379.704	93.88
379.929	85.88
380.155	88.88
380.38	104.88
380.606	95.88
380.831	103.88
381.057	106.88
381.282	85.88
381.507	93.88
381.733	98.88
381.958	95.88
382.184	115.88
382.409	93.88
382.634	93.88
382.86	97.88
383.085	101.88
383.31	114.88
383.535	110.88
383.761	78.88
383.986	96.88
384.211	97.88
384.436	102.88
384.662	95.88
384.887	91.88
385.112	88.88
385.337	85.88
385.562	96.88
385.787	101.88
386.013	100.88
386.238	88.88
386.463	110.88
386.688	94.88
386.913	87.88
387.138	82.88
387.363	97.88
387.588	93.88
387.813	96.88
388.038	93.88
388.263	90.88
388.488	97.88
388.713	112.88
388.938	92.88
389.163	96.88
389.387	105.88
389.612	103.88
389.837	104.88
390.062	77.88
390.287	106.88
390.512	107.88
390.736	101.88
390.961	104.88
391.186	100.88
391.411	115.88
391.636	105.88
391.86	106.88
392.085	110.88
392.31	99.88
392.534	114.88
392.759	96.88
392.984	107.88
393.208	102.88
393.433	113.88
393.658	107.88
393.882	112.88
394.107	109.88
394.331	101.88
394.556	84.88
394.78	95.88
395.005	105.88
395.229	103.88
395.454	112.88
395.678	92.88
395.903	102.88
396.127	107.88
396.352	98.88
396.576	109.88
396.801	100.88
397.025	103.88
397.249	106.88
397.474	102.88
397.698	110.88
397.922	93.88
398.147	98.88
398.371	112.88
398.595	107.88
398.82	112.88
399.044	107.88
399.268	98.88
399.492	116.88
399.717	130.88
399.941	108.88
400.165	120.88
400.389	94.88
400.613	123.88
400.837	104.88
401.062	105.88
401.286	108.88
401.51	100.88
401.734	94.88
401.958	113.88
402.182	111.88
402.406	119.88
402.63	109.88
402.854	111.88
403.078	109.88
403.302	117.88
403.526	100.88
403.75	112.88
403.974	109.88
404.198	119.88
404.422	124.88
404.645	105.88
404.869	110.88
405.093	118.88
405.317	119.88
405.541	121.88
405.765	106.88
405.988	116.88
406.212	115.88
406.436	110.88
406.66	116.88
406.883	113.88
407.107	118.88
407.331	90.88
407.555	119.88
407.778	98.88
408.002	118.88
408.226	117.88
408.449	119.88
408.673	105.88
408.896	131.88
409.12	118.88
409.344	102.88
409.567	105.88
409.791	124.88
410.014	121.88
410.238	124.88
410.461	124.88
410.685	114.88
410.908	109.88
411.132	118.88
411.355	114.88
411.578	116.88
411.802	116.88
412.025	101.88
412.249	104.88
412.472	107.88
412.695	122.88
412.919	120.88
413.142	123.88
413.365	107.88
413.589	123.88
413.812	114.88
414.035	106.88
414.258	121.88
414.482	113.88
414.705	120.88
414.928	105.88
415.151	117.88
415.374	106.88
415.597	118.88
415.821	103.88
416.044	122.88
416.267	110.88
416.49	108.88
416.713	125.88
416.936	124.88
417.159	129.88
417.382	107.88
417.605	122.88
417.828	106.88
418.051	118.88
418.274	122.88
418.497	113.88
418.72	98.88
418.943	106.88
419.166	123.88
419.389	121.88
419.611	119.88
419.834	110.88
420.057	123.88
420.28	126.88
420.503	114.88
420.726	120.88
420.948	113.88
421.171	114.88
421.394	121.88
421.617	90.88
421.839	113.88
422.062	117.88
422.285	115.88
422.507	113.88
422.73	110.88
422.953	114.88
423.175	125.88
423.398	118.88
423.621	108.88
423.843	103.88
424.066	105.88
424.288	132.88
424.511	120.88
424.733	138.88
424.956	135.88
425.178	115.88
425.401	123.88
425.623	108.88
425.846	119.88
426.068	112.88
426.291	122.88
426.513	120.88
426.735	120.88
426.958	125.88
427.18	124.88
427.402	108.88
427.625	110.88
427.847	122.88
428.069	110.88
428.292	116.88
428.514	114.88
428.736	116.88
428.958	113.88
429.181	103.88
429.403	108.88
429.625	99.88
429.847	101.88
430.069	107.88
430.292	119.88
430.514	121.88
430.736	132.88
430.958	117.88
431.18	120.88
431.402	106.88
431.624	119.88
431.846	111.88
432.068	106.88
432.29	120.88
432.512	122.88
432.734	120.88
432.956	123.88
433.178	115.88
433.4	121.88
433.622	128.88
433.844	120.88
434.066	118.88
434.287	110.88
434.509	106.88
434.731	106.88
434.953	103.88
435.175	121.88
435.397	115.88
435.618	115.88
435.84	116.88
436.062	134.88
436.284	117.88
436.505	124.88
436.727	117.88
436.949	122.88
437.17	124.88
437.392	99.88
437.614	105.88
437.835	99.88
438.057	118.88
438.278	100.88
438.5	114.88
438.721	118.88
438.943	113.88
439.165	103.88
439.386	124.88
439.608	112.88
439.829	121.88
440.05	125.88
440.272	114.88
440.493	120.88
440.715	119.88
440.936	128.88
441.158	122.88
441.379	124.88
441.6	112.88
441.822	107.88
442.043	125.88
442.264	120.88
442.486	123.88
442.707	123.88
442.928	138.88
443.149	124.88
443.371	126.88
443.592	142.88
443.813	120.88
444.034	112.88
444.255	123.88
444.476	126.88
444.698	123.88
444.919	134.88
445.14	229.88
445.361	180.88
445.582	132.88
445.803	124.88
446.024	123.88
446.245	129.88
446.466	129.88
446.687	106.88
446.908	121.88
447.129	128.88
447.35	125.88
447.571	118.88
447.792	126.88
448.013	119.88
448.234	103.88
448.455	125.88
448.675	116.88
448.896	120.88
449.117	122.88
449.338	131.88
449.559	105.88
449.779	120.88
450	101.88
450.221	124.88
450.442	112.88
450.662	110.88
450.883	118.88
451.104	119.88
451.324	118.88
451.545	120.88
451.766	128.88
451.986	126.88
452.207	114.88
452.428	121.88
452.648	106.88
452.869	100.88
453.089	119.88
453.31	104.88
453.53	106.88
453.751	113.88
453.971	114.88
454.192	107.88
454.412	103.88
454.633	104.88
454.853	120.88
455.073	102.88
455.294	119.88
455.514	101.88
455.734	114.88
455.955	121.88
456.175	108.88
456.395	97.88
456.616	90.88
456.836	106.88
457.056	105.88
457.276	103.88
457.497	90.88
457.717	101.88
457.937	112.88
458.157	114.88
458.377	99.88
458.598	108.88
458.818	99.88
459.038	97.88
459.258	93.88
459.478	110.88
459.698	129.88
459.918	126.88
460.138	110.88
460.358	128.88
460.578	113.88
460.798	119.88
461.018	127.88
461.238	121.88
461.458	118.88
461.678	122.88
461.898	131.88
462.118	118.88
462.338	130.88
462.558	139.88
462.777	121.88
462.997	125.88
463.217	136.88
463.437	134.88
463.657	119.88
463.876	114.88
464.096	117.88
464.316	122.88
464.536	113.88
464.755	117.88
464.975	120.88
465.195	133.88
465.414	114.88
465.634	116.88
465.854	122.88
466.073	132.88
466.293	116.88
466.512	113.88
466.732	122.88
466.951	108.88
467.171	113.88
467.391	120.88
467.61	121.88
467.829	125.88
468.049	125.88
468.268	124.88
468.488	115.88
468.707	131.88
468.927	115.88
469.146	118.88
469.365	121.88
469.585	121.88
469.804	136.88
470.023	128.88
470.243	125.88
470.462	121.88
470.681	116.88
470.901	123.88
471.12	116.88
471.339	128.88
471.558	116.88
471.777	121.88
471.997	121.88
472.216	124.88
472.435	101.88
472.654	109.88
472.873	114.88
473.092	98.88
473.311	110.88
473.53	112.88
473.749	118.88
473.968	129.88
474.187	132.88
474.406	121.88
474.625	122.88
474.844	122.88
475.063	119.88
475.282	119.88
475.501	115.88
475.72	123.88
475.939	114.88
476.158	113.88
476.377	113.88
476.596	104.88
476.814	105.88
477.033	115.88
477.252	119.88
477.471	110.88
477.69	120.88
477.908	122.88
478.127	137.88
478.346	131.88
478.564	127.88
478.783	130.88
479.002	132.88
479.22	128.88
479.439	130.88
479.658	132.88
479.876	113.88
480.095	106.88
480.313	121.88
480.532	119.88
480.751	123.88
480.969	123.88
481.188	124.88
481.406	106.88
481.624	113.88
481.843	112.88
482.061	114.88
482.28	101.88
482.498	120.88
482.717	123.88
482.935	112.88
483.153	145.88
483.372	139.88
483.59	144.88
483.808	130.88
484.027	121.88
484.245	122.88
484.463	124.88
484.681	124.88
484.9	140.88
485.118	134.88
485.336	130.88
485.554	121.88
485.772	140.88
485.99	126.88
486.209	108.88
486.427	116.88
486.645	128.88
486.863	135.88
487.081	123.88
487.299	128.88
487.517	137.88
487.735	129.88
487.953	145.88
488.171	153.88
488.389	142.88
488.607	140.88
488.825	127.88
489.043	128.88
489.261	126.88
489.479	140.88
489.696	131.88
489.914	117.88
490.132	125.88
490.35	133.88
490.568	141.88
490.786	162.88
491.003	157.88
491.221	159.88
491.439	162.88
491.657	144.88
491.874	150.88
492.092	170.88
492.31	167.88
492.527	157.88
492.745	153.88
492.963	137.88
493.18	161.88
493.398	162.88
493.615	151.88
493.833	146.88
494.05	155.88
494.268	161.88
494.485	156.88
494.703	152.88
494.92	142.88
495.138	161.88
495.355	153.88
495.573	148.88
495.79	144.88
496.008	153.88
496.225	156.88
496.442	147.88
496.66	161.88
496.877	163.88
497.094	162.88
497.312	154.88
497.529	157.88
497.746	150.88
497.963	143.88
498.181	148.88
498.398	140.88
498.615	144.88
498.832	161.88
499.049	166.88
499.267	168.88
499.484	172.88
499.701	173.88
499.918	188.88
500.135	198.88
500.352	232.88
500.569	231.88
500.786	218.88
501.003	207.88
501.22	208.88
501.437	189.88
501.654	178.88
501.871	149.88
502.088	162.88
502.305	149.88
502.522	166.88
502.739	172.88
502.956	145.88
503.172	139.88
503.389	134.88
503.606	131.88
503.823	142.88
504.04	131.88
504.256	137.88
504.473	144.88
504.69	149.88
504.907	147.88
505.123	136.88
505.34	126.88
505.557	128.88
505.773	130.88
505.99	135.88
506.207	141.88
506.423	120.88
506.64	125.88
506.856	136.88
507.073	137.88
507.289	116.88
507.506	134.88
507.722	123.88
507.939	116.88
508.155	118.88
508.372	130.88
508.588	120.88
508.805	121.88
509.021	122.88
509.238	117.88
509.454	102.88
509.67	128.88
509.887	112.88
510.103	117.88
510.319	106.88
510.536	112.88
510.752	119.88
510.968	122.88
511.184	112.88
511.401	122.88
511.617	123.88
511.833	94.88
512.049	119.88
512.265	122.88
512.481	105.88
512.698	112.88
512.914	116.88
513.13	120.88
513.346	102.88
513.562	110.88
513.778	121.88
513.994	115.88
514.21	120.88
514.426	123.88
514.642	121.88
514.858	112.88
515.074	118.88
515.29	120.88
515.506	108.88
515.721	122.88
515.937	110.88
516.153	126.88
516.369	124.88
516.585	107.88
516.801	107.88
517.016	131.88
517.232	118.88
517.448	132.88
517.664	138.88
517.879	141.88
518.095	134.88
518.311	124.88
518.527	130.88
518.742	122.88
518.958	124.88
519.173	125.88
519.389	137.88
519.605	127.88
519.82	138.88
520.036	124.88
520.251	119.88
520.467	119.88
520.682	128.88
520.898	113.88
521.113	101.88
521.329	109.88
521.544	96.88
521.76	115.88
521.975	111.88
522.19	122.88
522.406	127.88
522.621	122.88
522.836	103.88
523.052	120.88
523.267	122.88
523.482	105.88
523.698	102.88
523.913	124.88
524.128	106.88
524.343	112.88
524.559	109.88
524.774	107.88
524.989	136.88
525.204	138.88
525.419	123.88
525.634	134.88
525.849	120.88
526.064	113.88
526.28	118.88
526.495	117.88
526.71	101.88
526.925	93.88
527.14	99.88
527.355	113.88
527.57	106.88
527.785	112.88
527.999	103.88
528.214	118.88
528.429	106.88
528.644	119.88
528.859	120.88
529.074	128.88
529.289	136.88
529.503	130.88
529.718	133.88
529.933	128.88
530.148	107.88
530.363	118.88
530.577	116.88
530.792	101.88
531.007	101.88
531.221	107.88
531.436	113.88
531.651	112.88
531.865	110.88
532.08	116.88
532.295	118.88
532.509	116.88
532.724	110.88
532.938	116.88
533.153	122.88
533.367	121.88
533.582	126.88
533.796	110.88
534.011	121.88
534.225	99.88
534.44	107.88
534.654	114.88
534.868	125.88
535.083	104.88
535.297	120.88
535.511	120.88
535.726	120.88
535.94	104.88
536.154	121.88
536.369	116.88
536.583	118.88
536.797	123.88
537.011	109.88
537.225	118.88
537.44	110.88
537.654	101.88
537.868	97.88
538.082	106.88
538.296	101.88
538.51	114.88
538.724	105.88
538.938	107.88
539.153	137.88
539.367	125.88
539.581	124.88
539.795	121.88
540.009	109.88
540.222	106.88
540.436	127.88
540.65	106.88
540.864	115.88
541.078	126.88
541.292	133.88
541.506	128.88
541.72	142.88
541.934	152.88
542.147	148.88
542.361	136.88
542.575	126.88
542.789	134.88
543.002	123.88
543.216	119.88
543.43	110.88
543.644	124.88
543.857	125.88
544.071	129.88
544.285	142.88
544.498	134.88
544.712	134.88
544.925	138.88
545.139	140.88
545.352	131.88
545.566	127.88
545.779	127.88
545.993	133.88
546.206	138.88
546.42	138.88
546.633	148.88
546.847	130.88
547.06	143.88
547.274	130.88
547.487	139.88
547.7	124.88
547.914	133.88
548.127	130.88
548.34	136.88
548.554	129.88
548.767	145.88
548.98	133.88
549.193	114.88
549.407	134.88
549.62	128.88
549.833	144.88
550.046	140.88
550.259	138.88
550.473	143.88
550.686	131.88
550.899	130.88
551.112	129.88
551.325	123.88
551.538	126.88
551.751	115.88
551.964	133.88
552.177	143.88
552.39	125.88
552.603	137.88
552.816	139.88
553.029	132.88
553.242	140.88
553.455	129.88
553.667	129.88
553.88	138.88
554.093	139.88
554.306	130.88
554.519	117.88
554.732	122.88
554.944	107.88
555.157	143.88
555.37	126.88
555.583	124.88
555.795	129.88
556.008	129.88
556.221	126.88
556.433	109.88
556.646	121.88
556.859	112.88
557.071	115.88
557.284	111.88
557.496	131.88
557.709	128.88
557.921	111.88
558.134	109.88
558.346	120.88
558.559	126.88
558.771	115.88
558.984	124.88
559.196	122.88
559.409	107.88
559.621	122.88
559.833	123.88
560.046	110.88
560.258	127.88
560.47	112.88
560.683	116.88
560.895	115.88
561.107	112.88
561.32	119.88
561.532	121.88
561.744	129.88
561.956	117.88
562.168	125.88
562.381	114.88
562.593	114.88
562.805	107.88
563.017	110.88
563.229	123.88
563.441	105.88
563.653	109.88
563.865	121.88
564.077	112.88
564.289	106.88
564.501	124.88
564.713	109.88
564.925	128.88
565.137	110.88
565.349	122.88
565.561	123.88
565.773	102.88
565.985	114.88
566.197	114.88
566.408	106.88
566.62	130.88
566.832	124.88
567.044	134.88
567.255	124.88
567.467	124.88
567.679	120.88
567.891	121.88
568.102	128.88
568.314	126.88
568.526	124.88
568.737	107.88
568.949	116.88
569.161	102.88
569.372	109.88
569.584	113.88
569.795	96.88
570.007	108.88
570.218	91.88
570.43	110.88
570.641	100.88
570.853	105.88
571.064	102.88
571.276	98.88
571.487	124.88
571.698	94.88
571.91	101.88
572.121	113.88
572.333	107.88
572.544	112.88
572.755	87.88
572.966	99.88
573.178	110.88
573.389	101.88
573.6	91.88
573.811	95.88
574.023	94.88
574.234	97.88
574.445	104.88
574.656	108.88
574.867	104.88
575.078	96.88
575.289	89.88
575.501	94.88
575.712	91.88
575.923	104.88
576.134	93.88
576.345	103.88
576.556	112.88
576.767	100.88
576.978	88.88
577.188	99.88
577.399	98.88
577.61	94.88
577.821	104.88
578.032	100.88
578.243	97.88
578.454	94.88
578.665	106.88
578.875	97.88
579.086	97.88
579.297	91.88
579.508	105.88
579.718	99.88
579.929	113.88
580.14	87.88
580.35	113.88
580.561	93.88
580.772	93.88
580.982	93.88
581.193	101.88
581.403	97.88
581.614	96.88
581.825	93.88
582.035	92.88
582.246	92.88
582.456	82.88
582.667	99.88
582.877	88.88
583.087	82.88
583.298	94.88
583.508	105.88
583.719	98.88
583.929	102.88
584.139	100.88
584.35	98.88
584.56	101.88
584.77	90.88
584.981	101.88
585.191	91.88
585.401	118.88
585.611	89.88
585.821	97.88
586.032	97.88
586.242	100.88
586.452	95.88
586.662	89.88
586.872	95.88
587.082	87.88
587.292	94.88
587.502	108.88
587.713	96.88
587.923	96.88
588.133	111.88
588.343	94.88
588.553	105.88
588.762	81.88
588.972	97.88
589.182	97.88
589.392	108.88
589.602	94.88
589.812	99.88
590.022	88.88
590.232	97.88
590.441	88.88
590.651	97.88
590.861	89.88
591.071	87.88
591.281	87.88
591.49	98.88
591.7	108.88
591.91	98.88
592.119	85.88
592.329	82.88
592.539	91.88
592.748	103.88
592.958	107.88
593.167	106.88
593.377	96.88
593.587	98.88
593.796	108.88
594.006	88.88
594.215	97.88
594.424	88.88
594.634	104.88
594.843	116.88
595.053	101.88
595.262	96.88
595.472	84.88
595.681	84.88
595.89	89.88
596.1	88.88
596.309	84.88
596.518	110.88
596.727	93.88
596.937	98.88
597.146	101.88
597.355	99.88
597.564	83.88
597.774	91.88
597.983	88.88
598.192	95.88
598.401	80.88
598.61	106.88
598.819	78.88
599.028	106.88
599.237	101.88
599.446	97.88
599.655	76.88
599.864	90.88
600.073	104.88
600.282	96.88
600.491	104.88
600.7	101.88
600.909	99.88
601.118	112.88
601.327	84.88
601.536	100.88
601.745	86.88
601.953	92.88
602.162	105.88
602.371	113.88
602.58	103.88
602.789	93.88
602.997	101.88
603.206	101.88
603.415	89.88
603.623	98.88
603.832	104.88
604.041	82.88
604.249	103.88
604.458	90.88
604.666	98.88
604.875	97.88
605.084	101.88
605.292	101.88
605.501	98.88
605.709	106.88
605.918	97.88
606.126	100.88
606.334	107.88
606.543	86.88
606.751	105.88
606.96	97.88
607.168	106.88
607.376	103.88
607.585	101.88
607.793	105.88
608.001	100.88
608.21	94.88
608.418	103.88
608.626	102.88
608.834	103.88
609.043	92.88
609.251	102.88
609.459	93.88
609.667	110.88
609.875	99.88
610.083	98.88
610.291	92.88
610.499	94.88
610.707	96.88
610.916	104.88
611.124	98.88
611.332	93.88
611.54	105.88
611.748	92.88
611.955	93.88
612.163	89.88
612.371	106.88
612.579	96.88
612.787	92.88
612.995	105.88
613.203	112.88
613.411	92.88
613.618	105.88
613.826	92.88
614.034	99.88
614.242	97.88
614.449	83.88
614.657	106.88
614.865	96.88
615.072	93.88
615.28	106.88
615.488	113.88
615.695	95.88
615.903	102.88
616.111	108.88
616.318	103.88
616.526	90.88
616.733	87.88
616.941	93.88
617.148	78.88
617.356	103.88
617.563	92.88
617.771	105.88
617.978	108.88
618.185	97.88
618.393	91.88
618.6	86.88
618.807	93.88
619.015	98.88
619.222	106.88
619.429	94.88
619.637	113.88
619.844	91.88
620.051	84.88
620.258	83.88
620.466	97.88
620.673	101.88
620.88	98.88
621.087	109.88
621.294	94.88
621.501	96.88
621.708	94.88
621.915	96.88
622.122	92.88
622.329	103.88
622.536	93.88
622.743	89.88
622.95	113.88
623.157	104.88
623.364	99.88
623.571	95.88
623.778	103.88
623.985	88.88
624.192	93.88
624.399	110.88
624.606	108.88
624.812	102.88
625.019	94.88
625.226	83.88
625.433	98.88
625.639	98.88
625.846	101.88
626.053	85.88
626.259	93.88
626.466	80.88
626.673	90.88
626.879	97.88
627.086	102.88
627.293	99.88
627.499	100.88
627.706	88.88
627.912	92.88
628.119	88.88
628.325	96.88
628.532	107.88
628.738	85.88
628.945	73.88
629.151	84.88
629.357	98.88
629.564	86.88
629.77	96.88
629.976	81.88
630.183	84.88
630.389	78.88
630.595	96.88
630.802	90.88
631.008	91.88
631.214	85.88
631.42	81.88
631.627	88.88
631.833	77.88
632.039	86.88
632.245	94.88
632.451	96.88
632.657	86.88
632.863	90.88
633.069	90.88
633.275	92.88
633.481	94.88
633.688	101.88
633.893	98.88
634.099	77.88
634.305	98.88
634.511	93.88
634.717	106.88
634.923	80.88
635.129	81.88
635.335	89.88
635.541	90.88
635.747	87.88
635.952	106.88
636.158	93.88
636.364	105.88
636.57	96.88
636.775	90.88
636.981	100.88
637.187	99.88
637.392	79.88
637.598	85.88
637.804	87.88
638.009	84.88
638.215	84.88
638.421	100.88
638.626	83.88
638.832	91.88
639.037	88.88
639.243	84.88
639.448	96.88
639.654	88.88
639.859	103.88
640.065	92.88
640.27	84.88
640.475	95.88
640.681	97.88
640.886	100.88
641.091	89.88
641.297	103.88
641.502	83.88
641.707	90.88
641.913	107.88
642.118	86.88
642.323	85.88
642.528	90.88
642.733	81.88
642.939	84.88
643.144	91.88
643.349	101.88
643.554	90.88
643.759	87.88
643.964	92.88
644.169	81.88
644.374	91.88
644.579	96.88
644.784	78.88
644.989	101.88
645.194	84.88
645.399	88.88
645.604	92.88
645.809	95.88
646.014	84.88
646.219	88.88
646.423	91.88
646.628	82.88
646.833	87.88
647.038	88.88
647.243	91.88
647.447	96.88
647.652	85.88
647.857	92.88
648.062	86.88
648.266	89.88
648.471	91.88
648.676	88.88
648.88	84.88
649.085	100.88
649.289	96.88
649.494	96.88
649.698	100.88
649.903	88.88
650.107	86.88
650.312	102.88
650.516	96.88
650.721	75.88
650.925	103.88
651.13	85.88
651.334	62.88
651.539	100.88
651.743	89.88
651.947	89.88
652.152	90.88
652.356	94.88
652.56	94.88
652.764	102.88
652.969	99.88
653.173	93.88
653.377	81.88
653.581	76.88
653.785	79.88
653.99	99.88
654.194	97.88
654.398	98.88
654.602	92.88
654.806	91.88
655.01	73.88
655.214	79.88
655.418	100.88
655.622	102.88
655.826	80.88
656.03	71.88
656.234	90.88
656.438	98.88
656.642	84.88
656.846	87.88
657.049	92.88
657.253	97.88
657.457	73.88
657.661	83.88
657.865	101.88
658.068	83.88
658.272	85.88
658.476	85.88
658.68	86.88
658.883	88.88
659.087	92.88
659.291	83.88
659.494	89.88
659.698	82.88
659.901	87.88
660.105	85.88
660.309	92.88
660.512	91.88
660.716	79.88
660.919	101.88
661.123	100.88
661.326	91.88
661.53	97.88
661.733	104.88
661.936	90.88
662.14	97.88
662.343	78.88
662.546	79.88
662.75	81.88
662.953	84.88
663.156	86.88
663.36	86.88
663.563	82.88
663.766	96.88
663.969	100.88
664.173	89.88
664.376	106.88
664.579	69.88
664.782	77.88
664.985	81.88
665.188	86.88
665.391	75.88
665.594	78.88
665.797	85.88
666	75.88
666.203	78.88
666.406	97.88
666.609	85.88
666.812	87.88
667.015	97.88
667.218	84.88
667.421	85.88
667.624	84.88
667.827	91.88
668.03	98.88
668.232	84.88
668.435	94.88
668.638	81.88
668.841	86.88
669.043	75.88
669.246	76.88
669.449	83.88
669.651	79.88
669.854	89.88
670.057	98.88
670.259	81.88
670.462	89.88
670.665	95.88
670.867	79.88
671.07	89.88
671.272	88.88
671.475	86.88
671.677	77.88
671.88	89.88
672.082	90.88
672.284	74.88
672.487	90.88
672.689	83.88
672.892	88.88
