Data from StandardFe(NO3)3.TAE.3%Agarose.FlatLispGreen.Lamp.Energy10.07252019_HRD10591_11-53-49-439.txt Node
Date: Thu Jul 25 11:53:49 EDT 2019
User: cochatt
Spectrometer: HR+D1059
Trigger mode: 1
Integration Time (sec): 1.000000E-1
Scans to average: 1
Electric dark correction enabled: true
Nonlinearity correction enabled: false
Boxcar width: 0
XAxis mode: Wavelengths
Number of Pixels in Spectrum: 2048
>>>>>Begin Spectral Data<<<<<
223.165	-23.31
223.4	-23.31
223.635	-23.31
223.869	-18.31
224.104	-20.31
224.338	-15.31
224.573	-16.31
224.808	-7.31
225.042	1.69
225.277	7.69
225.511	5.69
225.746	2.69
225.98	-4.31
226.215	8.69
226.449	23.69
226.683	8.69
226.918	16.69
227.152	29.69
227.387	39.69
227.621	31.69
227.856	35.69
228.09	36.69
228.324	63.69
228.559	47.69
228.793	63.69
229.027	72.69
229.262	64.69
229.496	54.69
229.73	61.69
229.964	68.69
230.199	87.69
230.433	85.69
230.667	69.69
230.901	68.69
231.136	73.69
231.37	79.69
231.604	84.69
231.838	87.69
232.072	70.69
232.306	71.69
232.541	80.69
232.775	78.69
233.009	69.69
233.243	75.69
233.477	82.69
233.711	75.69
233.945	87.69
234.179	86.69
234.413	79.69
234.647	83.69
234.881	68.69
235.115	79.69
235.349	81.69
235.583	89.69
235.817	86.69
236.051	73.69
236.285	65.69
236.519	70.69
236.753	71.69
236.987	52.69
237.221	74.69
237.455	69.69
237.689	73.69
237.922	73.69
238.156	63.69
238.39	71.69
238.624	75.69
238.858	84.69
239.091	61.69
239.325	70.69
239.559	65.69
239.793	78.69
240.027	67.69
240.26	76.69
240.494	75.69
240.728	69.69
240.961	75.69
241.195	82.69
241.429	81.69
241.662	70.69
241.896	70.69
242.13	67.69
242.363	62.69
242.597	77.69
242.83	76.69
243.064	73.69
243.298	71.69
243.531	79.69
243.765	84.69
243.998	65.69
244.232	80.69
244.465	59.69
244.699	79.69
244.932	78.69
245.166	67.69
245.399	77.69
245.633	81.69
245.866	74.69
246.099	88.69
246.333	83.69
246.566	83.69
246.8	75.69
247.033	76.69
247.266	74.69
247.5	81.69
247.733	85.69
247.966	87.69
248.2	83.69
248.433	79.69
248.666	83.69
248.899	74.69
249.133	74.69
249.366	61.69
249.599	80.69
249.832	73.69
250.066	81.69
250.299	74.69
250.532	72.69
250.765	83.69
250.998	77.69
251.231	61.69
251.465	73.69
251.698	72.69
251.931	81.69
252.164	86.69
252.397	64.69
252.63	91.69
252.863	71.69
253.096	80.69
253.329	77.69
253.562	75.69
253.795	78.69
254.028	89.69
254.261	84.69
254.494	71.69
254.727	81.69
254.96	76.69
255.193	87.69
255.426	75.69
255.659	85.69
255.892	94.69
256.124	72.69
256.357	64.69
256.59	72.69
256.823	79.69
257.056	79.69
257.289	71.69
257.521	84.69
257.754	71.69
257.987	85.69
258.22	82.69
258.452	84.69
258.685	84.69
258.918	68.69
259.151	72.69
259.383	69.69
259.616	74.69
259.849	95.69
260.081	86.69
260.314	84.69
260.547	82.69
260.779	68.69
261.012	88.69
261.244	85.69
261.477	92.69
261.71	84.69
261.942	82.69
262.175	75.69
262.407	77.69
262.64	78.69
262.872	76.69
263.105	102.69
263.337	81.69
263.57	71.69
263.802	83.69
264.035	83.69
264.267	76.69
264.499	68.69
264.732	98.69
264.964	77.69
265.197	79.69
265.429	74.69
265.661	88.69
265.894	81.69
266.126	72.69
266.358	75.69
266.591	75.69
266.823	80.69
267.055	72.69
267.287	71.69
267.52	93.69
267.752	74.69
267.984	76.69
268.216	83.69
268.448	91.69
268.681	63.69
268.913	83.69
269.145	81.69
269.377	64.69
269.609	81.69
269.841	81.69
270.073	81.69
270.306	89.69
270.538	77.69
270.77	86.69
271.002	85.69
271.234	75.69
271.466	75.69
271.698	84.69
271.93	81.69
272.162	80.69
272.394	82.69
272.626	81.69
272.858	67.69
273.09	70.69
273.322	79.69
273.553	98.69
273.785	80.69
274.017	81.69
274.249	83.69
274.481	60.69
274.713	84.69
274.945	90.69
275.176	81.69
275.408	84.69
275.64	78.69
275.872	93.69
276.104	77.69
276.335	83.69
276.567	72.69
276.799	80.69
277.031	82.69
277.262	75.69
277.494	84.69
277.726	85.69
277.957	91.69
278.189	83.69
278.421	89.69
278.652	66.69
278.884	75.69
279.115	86.69
279.347	78.69
279.579	79.69
279.81	81.69
280.042	80.69
280.273	80.69
280.505	82.69
280.736	73.69
280.968	82.69
281.199	86.69
281.431	79.69
281.662	90.69
281.894	87.69
282.125	78.69
282.356	76.69
282.588	71.69
282.819	77.69
283.051	86.69
283.282	72.69
283.513	81.69
283.745	80.69
283.976	89.69
284.207	77.69
284.439	80.69
284.67	80.69
284.901	89.69
285.132	78.69
285.364	89.69
285.595	66.69
285.826	86.69
286.057	83.69
286.288	80.69
286.52	61.69
286.751	79.69
286.982	75.69
287.213	91.69
287.444	88.69
287.675	79.69
287.906	88.69
288.138	85.69
288.369	90.69
288.6	74.69
288.831	72.69
289.062	77.69
289.293	79.69
289.524	77.69
289.755	92.69
289.986	79.69
290.217	79.69
290.448	82.69
290.679	88.69
290.91	80.69
291.141	77.69
291.371	83.69
291.602	63.69
291.833	81.69
292.064	86.69
292.295	78.69
292.526	86.69
292.757	85.69
292.987	79.69
293.218	77.69
293.449	75.69
293.68	80.69
293.91	76.69
294.141	85.69
294.372	84.69
294.603	79.69
294.833	81.69
295.064	83.69
295.295	63.69
295.525	86.69
295.756	94.69
295.987	89.69
296.217	78.69
296.448	80.69
296.679	89.69
296.909	67.69
297.14	89.69
297.37	77.69
297.601	91.69
297.831	76.69
298.062	86.69
298.292	89.69
298.523	93.69
298.753	91.69
298.984	82.69
299.214	93.69
299.445	88.69
299.675	91.69
299.905	82.69
300.136	78.69
300.366	79.69
300.597	66.69
300.827	92.69
301.057	71.69
301.288	89.69
301.518	84.69
301.748	71.69
301.979	80.69
302.209	73.69
302.439	78.69
302.669	81.69
302.9	71.69
303.13	88.69
303.36	80.69
303.59	73.69
303.82	86.69
304.051	92.69
304.281	90.69
304.511	95.69
304.741	88.69
304.971	85.69
305.201	91.69
305.431	95.69
305.661	77.69
305.891	74.69
306.121	84.69
306.352	84.69
306.582	89.69
306.812	85.69
307.042	79.69
307.272	82.69
307.502	80.69
307.731	80.69
307.961	86.69
308.191	87.69
308.421	72.69
308.651	92.69
308.881	90.69
309.111	82.69
309.341	87.69
309.571	85.69
309.8	78.69
310.03	79.69
310.26	84.69
310.49	77.69
310.72	80.69
310.949	73.69
311.179	78.69
311.409	93.69
311.639	85.69
311.868	85.69
312.098	81.69
312.328	82.69
312.557	84.69
312.787	84.69
313.017	72.69
313.246	70.69
313.476	83.69
313.706	81.69
313.935	76.69
314.165	83.69
314.394	84.69
314.624	78.69
314.853	80.69
315.083	74.69
315.312	86.69
315.542	89.69
315.771	104.69
316.001	79.69
316.23	77.69
316.46	66.69
316.689	76.69
316.919	64.69
317.148	78.69
317.377	76.69
317.607	60.69
317.836	79.69
318.065	82.69
318.295	81.69
318.524	83.69
318.753	90.69
318.983	70.69
319.212	84.69
319.441	84.69
319.67	78.69
319.9	69.69
320.129	74.69
320.358	75.69
320.587	90.69
320.816	83.69
321.046	72.69
321.275	85.69
321.504	77.69
321.733	72.69
321.962	71.69
322.191	78.69
322.42	85.69
322.649	61.69
322.878	94.69
323.108	84.69
323.337	80.69
323.566	93.69
323.795	86.69
324.024	81.69
324.253	86.69
324.482	74.69
324.71	78.69
324.939	81.69
325.168	90.69
325.397	84.69
325.626	86.69
325.855	86.69
326.084	75.69
326.313	76.69
326.542	65.69
326.77	69.69
326.999	77.69
327.228	83.69
327.457	75.69
327.686	87.69
327.914	85.69
328.143	76.69
328.372	89.69
328.6	89.69
328.829	75.69
329.058	86.69
329.287	64.69
329.515	68.69
329.744	70.69
329.972	73.69
330.201	76.69
330.43	80.69
330.658	73.69
330.887	104.69
331.115	78.69
331.344	83.69
331.572	83.69
331.801	86.69
332.03	88.69
332.258	100.69
332.486	94.69
332.715	87.69
332.943	78.69
333.172	99.69
333.4	72.69
333.629	83.69
333.857	63.69
334.085	75.69
334.314	76.69
334.542	84.69
334.771	79.69
334.999	64.69
335.227	81.69
335.455	91.69
335.684	79.69
335.912	83.69
336.14	82.69
336.369	80.69
336.597	79.69
336.825	77.69
337.053	69.69
337.281	81.69
337.51	80.69
337.738	92.69
337.966	86.69
338.194	84.69
338.422	67.69
338.65	83.69
338.878	79.69
339.106	80.69
339.334	79.69
339.562	85.69
339.79	76.69
340.018	76.69
340.246	76.69
340.474	80.69
340.702	85.69
340.93	85.69
341.158	85.69
341.386	74.69
341.614	90.69
341.842	81.69
342.07	88.69
342.298	86.69
342.526	83.69
342.754	78.69
342.981	94.69
343.209	77.69
343.437	88.69
343.665	81.69
343.893	82.69
344.12	69.69
344.348	74.69
344.576	64.69
344.804	84.69
345.031	84.69
345.259	73.69
345.487	80.69
345.714	84.69
345.942	78.69
346.17	111.69
346.397	75.69
346.625	94.69
346.853	70.69
347.08	85.69
347.308	89.69
347.535	89.69
347.763	77.69
347.99	75.69
348.218	68.69
348.445	82.69
348.673	75.69
348.9	92.69
349.128	84.69
349.355	91.69
349.583	82.69
349.81	76.69
350.037	71.69
350.265	89.69
350.492	77.69
350.72	67.69
350.947	76.69
351.174	86.69
351.402	87.69
351.629	72.69
351.856	91.69
352.083	78.69
352.311	67.69
352.538	75.69
352.765	84.69
352.992	84.69
353.22	78.69
353.447	88.69
353.674	78.69
353.901	71.69
354.128	85.69
354.355	80.69
354.583	86.69
354.81	84.69
355.037	85.69
355.264	71.69
355.491	77.69
355.718	77.69
355.945	75.69
356.172	79.69
356.399	61.69
356.626	81.69
356.853	78.69
357.08	89.69
357.307	89.69
357.534	58.69
357.761	84.69
357.988	73.69
358.215	74.69
358.441	83.69
358.668	98.69
358.895	83.69
359.122	76.69
359.349	61.69
359.576	71.69
359.802	81.69
360.029	67.69
360.256	77.69
360.483	80.69
360.709	69.69
360.936	77.69
361.163	77.69
361.39	77.69
361.616	78.69
361.843	72.69
362.07	79.69
362.296	81.69
362.523	86.69
362.749	81.69
362.976	86.69
363.203	94.69
363.429	79.69
363.656	67.69
363.882	74.69
364.109	84.69
364.335	79.69
364.562	75.69
364.788	75.69
365.015	93.69
365.241	86.69
365.468	82.69
365.694	73.69
365.92	90.69
366.147	83.69
366.373	73.69
366.599	81.69
366.826	85.69
367.052	77.69
367.278	71.69
367.505	89.69
367.731	82.69
367.957	85.69
368.184	79.69
368.41	80.69
368.636	91.69
368.862	91.69
369.089	72.69
369.315	68.69
369.541	84.69
369.767	73.69
369.993	78.69
370.219	80.69
370.445	68.69
370.672	84.69
370.898	73.69
371.124	87.69
371.35	74.69
371.576	97.69
371.802	73.69
372.028	93.69
372.254	89.69
372.48	86.69
372.706	82.69
372.932	84.69
373.158	78.69
373.384	69.69
373.61	96.69
373.835	79.69
374.061	85.69
374.287	89.69
374.513	91.69
374.739	76.69
374.965	77.69
375.191	91.69
375.416	73.69
375.642	83.69
375.868	100.69
376.094	96.69
376.319	81.69
376.545	81.69
376.771	80.69
376.997	92.69
377.222	68.69
377.448	89.69
377.674	83.69
377.899	72.69
378.125	77.69
378.35	94.69
378.576	88.69
378.802	88.69
379.027	82.69
379.253	84.69
379.478	94.69
379.704	86.69
379.929	91.69
380.155	83.69
380.38	74.69
380.606	82.69
380.831	74.69
381.057	89.69
381.282	101.69
381.507	90.69
381.733	90.69
381.958	82.69
382.184	87.69
382.409	94.69
382.634	84.69
382.86	76.69
383.085	84.69
383.31	80.69
383.535	79.69
383.761	86.69
383.986	109.69
384.211	90.69
384.436	95.69
384.662	81.69
384.887	79.69
385.112	87.69
385.337	77.69
385.562	77.69
385.787	82.69
386.013	88.69
386.238	96.69
386.463	84.69
386.688	88.69
386.913	91.69
387.138	92.69
387.363	92.69
387.588	101.69
387.813	92.69
388.038	80.69
388.263	96.69
388.488	88.69
388.713	89.69
388.938	94.69
389.163	93.69
389.387	85.69
389.612	88.69
389.837	86.69
390.062	98.69
390.287	89.69
390.512	101.69
390.736	95.69
390.961	95.69
391.186	90.69
391.411	91.69
391.636	103.69
391.86	92.69
392.085	93.69
392.31	91.69
392.534	100.69
392.759	105.69
392.984	93.69
393.208	89.69
393.433	109.69
393.658	88.69
393.882	87.69
394.107	92.69
394.331	97.69
394.556	87.69
394.78	86.69
395.005	94.69
395.229	94.69
395.454	86.69
395.678	95.69
395.903	100.69
396.127	99.69
396.352	87.69
396.576	84.69
396.801	99.69
397.025	90.69
397.249	93.69
397.474	107.69
397.698	96.69
397.922	92.69
398.147	105.69
398.371	97.69
398.595	96.69
398.82	92.69
399.044	91.69
399.268	117.69
399.492	112.69
399.717	119.69
399.941	113.69
400.165	99.69
400.389	104.69
400.613	107.69
400.837	103.69
401.062	103.69
401.286	94.69
401.51	106.69
401.734	108.69
401.958	95.69
402.182	87.69
402.406	104.69
402.63	95.69
402.854	105.69
403.078	109.69
403.302	111.69
403.526	107.69
403.75	111.69
403.974	107.69
404.198	116.69
404.422	116.69
404.645	101.69
404.869	88.69
405.093	105.69
405.317	107.69
405.541	118.69
405.765	113.69
405.988	115.69
406.212	108.69
406.436	97.69
406.66	104.69
406.883	100.69
407.107	101.69
407.331	101.69
407.555	103.69
407.778	117.69
408.002	121.69
408.226	115.69
408.449	109.69
408.673	118.69
408.896	118.69
409.12	103.69
409.344	104.69
409.567	112.69
409.791	123.69
410.014	112.69
410.238	96.69
410.461	96.69
410.685	99.69
410.908	115.69
411.132	113.69
411.355	109.69
411.578	111.69
411.802	105.69
412.025	100.69
412.249	108.69
412.472	97.69
412.695	116.69
412.919	109.69
413.142	96.69
413.365	93.69
413.589	93.69
413.812	92.69
414.035	115.69
414.258	103.69
414.482	95.69
414.705	110.69
414.928	99.69
415.151	114.69
415.374	112.69
415.597	94.69
415.821	96.69
416.044	114.69
416.267	123.69
416.49	111.69
416.713	120.69
416.936	101.69
417.159	112.69
417.382	103.69
417.605	113.69
417.828	106.69
418.051	105.69
418.274	101.69
418.497	115.69
418.72	116.69
418.943	83.69
419.166	110.69
419.389	115.69
419.611	102.69
419.834	104.69
420.057	101.69
420.28	110.69
420.503	111.69
420.726	114.69
420.948	109.69
421.171	103.69
421.394	98.69
421.617	117.69
421.839	113.69
422.062	124.69
422.285	116.69
422.507	117.69
422.73	95.69
422.953	116.69
423.175	111.69
423.398	119.69
423.621	105.69
423.843	119.69
424.066	112.69
424.288	119.69
424.511	103.69
424.733	115.69
424.956	124.69
425.178	116.69
425.401	103.69
425.623	115.69
425.846	98.69
426.068	110.69
426.291	113.69
426.513	113.69
426.735	124.69
426.958	108.69
427.18	113.69
427.402	108.69
427.625	119.69
427.847	89.69
428.069	103.69
428.292	100.69
428.514	98.69
428.736	101.69
428.958	92.69
429.181	102.69
429.403	112.69
429.625	107.69
429.847	107.69
430.069	114.69
430.292	103.69
430.514	92.69
430.736	103.69
430.958	112.69
431.18	95.69
431.402	112.69
431.624	109.69
431.846	87.69
432.068	100.69
432.29	102.69
432.512	88.69
432.734	115.69
432.956	111.69
433.178	102.69
433.4	117.69
433.622	115.69
433.844	105.69
434.066	114.69
434.287	90.69
434.509	97.69
434.731	94.69
434.953	97.69
435.175	129.69
435.397	107.69
435.618	110.69
435.84	116.69
436.062	99.69
436.284	115.69
436.505	115.69
436.727	108.69
436.949	115.69
437.17	91.69
437.392	103.69
437.614	95.69
437.835	87.69
438.057	101.69
438.278	105.69
438.5	100.69
438.721	108.69
438.943	115.69
439.165	121.69
439.386	120.69
439.608	102.69
439.829	107.69
440.05	108.69
440.272	114.69
440.493	119.69
440.715	115.69
440.936	128.69
441.158	127.69
441.379	110.69
441.6	123.69
441.822	121.69
442.043	115.69
442.264	126.69
442.486	111.69
442.707	121.69
442.928	127.69
443.149	118.69
443.371	109.69
443.592	113.69
443.813	117.69
444.034	112.69
444.255	119.69
444.476	104.69
444.698	134.69
444.919	139.69
445.14	231.69
445.361	161.69
445.582	108.69
445.803	110.69
446.024	121.69
446.245	113.69
446.466	138.69
446.687	118.69
446.908	122.69
447.129	112.69
447.35	118.69
447.571	101.69
447.792	92.69
448.013	112.69
448.234	116.69
448.455	113.69
448.675	111.69
448.896	118.69
449.117	110.69
449.338	108.69
449.559	125.69
449.779	117.69
450	114.69
450.221	103.69
450.442	103.69
450.662	109.69
450.883	110.69
451.104	104.69
451.324	120.69
451.545	112.69
451.766	94.69
451.986	106.69
452.207	107.69
452.428	112.69
452.648	104.69
452.869	97.69
453.089	93.69
453.31	104.69
453.53	90.69
453.751	94.69
453.971	96.69
454.192	96.69
454.412	104.69
454.633	96.69
454.853	103.69
455.073	104.69
455.294	89.69
455.514	109.69
455.734	95.69
455.955	96.69
456.175	98.69
456.395	102.69
456.616	102.69
456.836	100.69
457.056	94.69
457.276	96.69
457.497	104.69
457.717	97.69
457.937	109.69
458.157	109.69
458.377	99.69
458.598	86.69
458.818	104.69
459.038	100.69
459.258	104.69
459.478	123.69
459.698	112.69
459.918	101.69
460.138	109.69
460.358	122.69
460.578	108.69
460.798	111.69
461.018	117.69
461.238	123.69
461.458	97.69
461.678	100.69
461.898	126.69
462.118	107.69
462.338	113.69
462.558	110.69
462.777	113.69
462.997	120.69
463.217	118.69
463.437	126.69
463.657	121.69
463.876	111.69
464.096	119.69
464.316	117.69
464.536	109.69
464.755	128.69
464.975	117.69
465.195	112.69
465.414	109.69
465.634	108.69
465.854	98.69
466.073	110.69
466.293	111.69
466.512	105.69
466.732	113.69
466.951	113.69
467.171	113.69
467.391	104.69
467.61	123.69
467.829	115.69
468.049	116.69
468.268	109.69
468.488	110.69
468.707	104.69
468.927	98.69
469.146	111.69
469.365	120.69
469.585	119.69
469.804	113.69
470.023	131.69
470.243	128.69
470.462	118.69
470.681	126.69
470.901	123.69
471.12	122.69
471.339	109.69
471.558	115.69
471.777	120.69
471.997	103.69
472.216	109.69
472.435	98.69
472.654	96.69
472.873	97.69
473.092	126.69
473.311	108.69
473.53	102.69
473.749	117.69
473.968	110.69
474.187	101.69
474.406	114.69
474.625	107.69
474.844	115.69
475.063	132.69
475.282	113.69
475.501	95.69
475.72	110.69
475.939	104.69
476.158	110.69
476.377	117.69
476.596	122.69
476.814	112.69
477.033	109.69
477.252	125.69
477.471	124.69
477.69	120.69
477.908	112.69
478.127	119.69
478.346	119.69
478.564	132.69
478.783	141.69
479.002	135.69
479.22	117.69
479.439	103.69
479.658	117.69
479.876	117.69
480.095	116.69
480.313	117.69
480.532	124.69
480.751	108.69
480.969	111.69
481.188	107.69
481.406	101.69
481.624	109.69
481.843	107.69
482.061	114.69
482.28	112.69
482.498	100.69
482.717	115.69
482.935	114.69
483.153	121.69
483.372	131.69
483.59	126.69
483.808	133.69
484.027	127.69
484.245	116.69
484.463	129.69
484.681	126.69
484.9	122.69
485.118	127.69
485.336	113.69
485.554	115.69
485.772	116.69
485.99	117.69
486.209	107.69
486.427	112.69
486.645	115.69
486.863	117.69
487.081	115.69
487.299	129.69
487.517	118.69
487.735	120.69
487.953	149.69
488.171	129.69
488.389	135.69
488.607	136.69
488.825	130.69
489.043	125.69
489.261	128.69
489.479	128.69
489.696	136.69
489.914	128.69
490.132	118.69
490.35	137.69
490.568	129.69
490.786	137.69
491.003	140.69
491.221	140.69
491.439	151.69
491.657	136.69
491.874	157.69
492.092	171.69
492.31	165.69
492.527	172.69
492.745	145.69
492.963	158.69
493.18	143.69
493.398	153.69
493.615	152.69
493.833	150.69
494.05	148.69
494.268	137.69
494.485	159.69
494.703	155.69
494.92	159.69
495.138	156.69
495.355	145.69
495.573	156.69
495.79	145.69
496.008	144.69
496.225	148.69
496.442	145.69
496.66	147.69
496.877	134.69
497.094	155.69
497.312	150.69
497.529	150.69
497.746	140.69
497.963	141.69
498.181	127.69
498.398	128.69
498.615	137.69
498.832	127.69
499.049	151.69
499.267	146.69
499.484	155.69
499.701	162.69
499.918	183.69
500.135	185.69
500.352	213.69
500.569	205.69
500.786	226.69
501.003	210.69
501.22	175.69
501.437	165.69
501.654	165.69
501.871	165.69
502.088	136.69
502.305	146.69
502.522	135.69
502.739	133.69
502.956	154.69
503.172	137.69
503.389	133.69
503.606	150.69
503.823	145.69
504.04	143.69
504.256	122.69
504.473	126.69
504.69	129.69
504.907	147.69
505.123	125.69
505.34	124.69
505.557	128.69
505.773	120.69
505.99	117.69
506.207	101.69
506.423	127.69
506.64	127.69
506.856	108.69
507.073	117.69
507.289	120.69
507.506	114.69
507.722	107.69
507.939	107.69
508.155	118.69
508.372	118.69
508.588	112.69
508.805	122.69
509.021	106.69
509.238	119.69
509.454	111.69
509.67	112.69
509.887	109.69
510.103	100.69
510.319	105.69
510.536	104.69
510.752	109.69
510.968	119.69
511.184	105.69
511.401	108.69
511.617	129.69
511.833	99.69
512.049	111.69
512.265	103.69
512.481	105.69
512.698	109.69
512.914	119.69
513.13	103.69
513.346	102.69
513.562	110.69
513.778	114.69
513.994	104.69
514.21	113.69
514.426	107.69
514.642	118.69
514.858	103.69
515.074	109.69
515.29	111.69
515.506	111.69
515.721	113.69
515.937	102.69
516.153	115.69
516.369	115.69
516.585	112.69
516.801	115.69
517.016	139.69
517.232	122.69
517.448	116.69
517.664	122.69
517.879	120.69
518.095	117.69
518.311	118.69
518.527	112.69
518.742	123.69
518.958	122.69
519.173	101.69
519.389	116.69
519.605	109.69
519.82	112.69
520.036	107.69
520.251	115.69
520.467	115.69
520.682	118.69
520.898	110.69
521.113	98.69
521.329	102.69
521.544	107.69
521.76	102.69
521.975	102.69
522.19	93.69
522.406	99.69
522.621	101.69
522.836	114.69
523.052	115.69
523.267	126.69
523.482	113.69
523.698	113.69
523.913	110.69
524.128	107.69
524.343	117.69
524.559	111.69
524.774	127.69
524.989	123.69
525.204	128.69
525.419	123.69
525.634	129.69
525.849	117.69
526.064	112.69
526.28	103.69
526.495	105.69
526.71	117.69
526.925	100.69
527.14	104.69
527.355	103.69
527.57	104.69
527.785	109.69
527.999	113.69
528.214	100.69
528.429	118.69
528.644	96.69
528.859	124.69
529.074	125.69
529.289	132.69
529.503	125.69
529.718	105.69
529.933	127.69
530.148	103.69
530.363	103.69
530.577	103.69
530.792	116.69
531.007	97.69
531.221	106.69
531.436	107.69
531.651	110.69
531.865	97.69
532.08	105.69
532.295	104.69
532.509	103.69
532.724	108.69
532.938	111.69
533.153	113.69
533.367	119.69
533.582	113.69
533.796	127.69
534.011	104.69
534.225	102.69
534.44	98.69
534.654	108.69
534.868	110.69
535.083	110.69
535.297	102.69
535.511	112.69
535.726	99.69
535.94	101.69
536.154	103.69
536.369	101.69
536.583	99.69
536.797	115.69
537.011	107.69
537.225	100.69
537.44	103.69
537.654	97.69
537.868	109.69
538.082	102.69
538.296	99.69
538.51	101.69
538.724	108.69
538.938	125.69
539.153	113.69
539.367	113.69
539.581	99.69
539.795	117.69
540.009	107.69
540.222	109.69
540.436	97.69
540.65	103.69
540.864	113.69
541.078	102.69
541.292	119.69
541.506	117.69
541.72	120.69
541.934	146.69
542.147	150.69
542.361	133.69
542.575	127.69
542.789	101.69
543.002	126.69
543.216	104.69
543.43	108.69
543.644	116.69
543.857	122.69
544.071	128.69
544.285	127.69
544.498	136.69
544.712	133.69
544.925	125.69
545.139	119.69
545.352	117.69
545.566	133.69
545.779	141.69
545.993	123.69
546.206	131.69
546.42	114.69
546.633	132.69
546.847	122.69
547.06	130.69
547.274	130.69
547.487	129.69
547.7	137.69
547.914	120.69
548.127	136.69
548.34	125.69
548.554	129.69
548.767	148.69
548.98	120.69
549.193	133.69
549.407	123.69
549.62	127.69
549.833	136.69
550.046	118.69
550.259	123.69
550.473	121.69
550.686	129.69
550.899	128.69
551.112	126.69
551.325	126.69
551.538	110.69
551.751	114.69
551.964	113.69
552.177	104.69
552.39	116.69
552.603	124.69
552.816	118.69
553.029	137.69
553.242	111.69
553.455	136.69
553.667	120.69
553.88	115.69
554.093	121.69
554.306	123.69
554.519	127.69
554.732	112.69
554.944	123.69
555.157	130.69
555.37	117.69
555.583	112.69
555.795	115.69
556.008	114.69
556.221	110.69
556.433	116.69
556.646	99.69
556.859	114.69
557.071	107.69
557.284	113.69
557.496	114.69
557.709	117.69
557.921	95.69
558.134	120.69
558.346	123.69
558.559	113.69
558.771	101.69
558.984	123.69
559.196	115.69
559.409	118.69
559.621	107.69
559.833	97.69
560.046	99.69
560.258	113.69
560.47	97.69
560.683	109.69
560.895	111.69
561.107	116.69
561.32	107.69
561.532	108.69
561.744	107.69
561.956	119.69
562.168	112.69
562.381	100.69
562.593	98.69
562.805	118.69
563.017	107.69
563.229	106.69
563.441	108.69
563.653	99.69
563.865	107.69
564.077	104.69
564.289	94.69
564.501	104.69
564.713	117.69
564.925	93.69
565.137	101.69
565.349	117.69
565.561	119.69
565.773	113.69
565.985	107.69
566.197	118.69
566.408	103.69
566.62	113.69
566.832	111.69
567.044	113.69
567.255	112.69
567.467	127.69
567.679	113.69
567.891	128.69
568.102	116.69
568.314	111.69
568.526	108.69
568.737	109.69
568.949	95.69
569.161	99.69
569.372	88.69
569.584	96.69
569.795	93.69
570.007	95.69
570.218	96.69
570.43	96.69
570.641	97.69
570.853	96.69
571.064	110.69
571.276	102.69
571.487	92.69
571.698	102.69
571.91	105.69
572.121	104.69
572.333	81.69
572.544	97.69
572.755	100.69
572.966	89.69
573.178	98.69
573.389	97.69
573.6	86.69
573.811	108.69
574.023	100.69
574.234	76.69
574.445	95.69
574.656	97.69
574.867	93.69
575.078	104.69
575.289	85.69
575.501	103.69
575.712	95.69
575.923	96.69
576.134	91.69
576.345	98.69
576.556	108.69
576.767	95.69
576.978	103.69
577.188	90.69
577.399	98.69
577.61	105.69
577.821	85.69
578.032	82.69
578.243	98.69
578.454	94.69
578.665	89.69
578.875	82.69
579.086	99.69
579.297	82.69
579.508	85.69
579.718	80.69
579.929	87.69
580.14	107.69
580.35	97.69
580.561	99.69
580.772	93.69
580.982	91.69
581.193	91.69
581.403	99.69
581.614	95.69
581.825	82.69
582.035	82.69
582.246	85.69
582.456	95.69
582.667	95.69
582.877	97.69
583.087	95.69
583.298	92.69
583.508	91.69
583.719	88.69
583.929	75.69
584.139	89.69
584.35	89.69
584.56	86.69
584.77	88.69
584.981	77.69
585.191	83.69
585.401	87.69
585.611	78.69
585.821	78.69
586.032	96.69
586.242	90.69
586.452	86.69
586.662	83.69
586.872	89.69
587.082	87.69
587.292	75.69
587.502	84.69
587.713	85.69
587.923	90.69
588.133	87.69
588.343	83.69
588.553	91.69
588.762	94.69
588.972	97.69
589.182	92.69
589.392	96.69
589.602	83.69
589.812	91.69
590.022	81.69
590.232	90.69
590.441	83.69
590.651	82.69
590.861	89.69
591.071	93.69
591.281	83.69
591.49	99.69
591.7	80.69
591.91	89.69
592.119	88.69
592.329	84.69
592.539	91.69
592.748	95.69
592.958	84.69
593.167	95.69
593.377	97.69
593.587	93.69
593.796	102.69
594.006	85.69
594.215	99.69
594.424	86.69
594.634	85.69
594.843	88.69
595.053	99.69
595.262	99.69
595.472	84.69
595.681	96.69
595.89	81.69
596.1	84.69
596.309	71.69
596.518	72.69
596.727	95.69
596.937	90.69
597.146	92.69
597.355	77.69
597.564	92.69
597.774	82.69
597.983	91.69
598.192	80.69
598.401	92.69
598.61	73.69
598.819	99.69
599.028	86.69
599.237	82.69
599.446	100.69
599.655	94.69
599.864	93.69
600.073	67.69
600.282	82.69
600.491	84.69
600.7	96.69
600.909	90.69
601.118	102.69
601.327	86.69
601.536	92.69
601.745	87.69
601.953	89.69
602.162	71.69
602.371	81.69
602.58	89.69
602.789	103.69
602.997	100.69
603.206	82.69
603.415	83.69
603.623	87.69
603.832	95.69
604.041	74.69
604.249	69.69
604.458	86.69
604.666	87.69
604.875	85.69
605.084	86.69
605.292	77.69
605.501	80.69
605.709	98.69
605.918	101.69
606.126	95.69
606.334	97.69
606.543	88.69
606.751	97.69
606.96	80.69
607.168	80.69
607.376	93.69
607.585	104.69
607.793	108.69
608.001	87.69
608.21	87.69
608.418	92.69
608.626	85.69
608.834	79.69
609.043	93.69
609.251	101.69
609.459	95.69
609.667	94.69
609.875	100.69
610.083	91.69
610.291	88.69
610.499	105.69
610.707	77.69
610.916	98.69
611.124	103.69
611.332	84.69
611.54	86.69
611.748	96.69
611.955	93.69
612.163	87.69
612.371	83.69
612.579	84.69
612.787	92.69
612.995	88.69
613.203	64.69
613.411	87.69
613.618	94.69
613.826	87.69
614.034	92.69
614.242	90.69
614.449	93.69
614.657	101.69
614.865	92.69
615.072	79.69
615.28	86.69
615.488	102.69
615.695	84.69
615.903	88.69
616.111	87.69
616.318	91.69
616.526	82.69
616.733	102.69
616.941	96.69
617.148	99.69
617.356	99.69
617.563	92.69
617.771	77.69
617.978	80.69
618.185	83.69
618.393	97.69
618.6	92.69
618.807	80.69
619.015	77.69
619.222	89.69
619.429	82.69
619.637	80.69
619.844	82.69
620.051	97.69
620.258	76.69
620.466	96.69
620.673	85.69
620.88	100.69
621.087	81.69
621.294	94.69
621.501	71.69
621.708	75.69
621.915	91.69
622.122	86.69
622.329	90.69
622.536	96.69
622.743	97.69
622.95	84.69
623.157	89.69
623.364	86.69
623.571	82.69
623.778	93.69
623.985	92.69
624.192	92.69
624.399	83.69
624.606	97.69
624.812	81.69
625.019	93.69
625.226	86.69
625.433	90.69
625.639	91.69
625.846	91.69
626.053	82.69
626.259	89.69
626.466	78.69
626.673	86.69
626.879	79.69
627.086	84.69
627.293	85.69
627.499	97.69
627.706	95.69
627.912	79.69
628.119	90.69
628.325	104.69
628.532	74.69
628.738	89.69
628.945	84.69
629.151	85.69
629.357	103.69
629.564	91.69
629.77	91.69
629.976	94.69
630.183	94.69
630.389	80.69
630.595	96.69
630.802	87.69
631.008	89.69
631.214	75.69
631.42	89.69
631.627	84.69
631.833	84.69
632.039	83.69
632.245	79.69
632.451	87.69
632.657	90.69
632.863	96.69
633.069	82.69
633.275	79.69
633.481	80.69
633.688	89.69
633.893	79.69
634.099	83.69
634.305	77.69
634.511	82.69
634.717	96.69
634.923	87.69
635.129	84.69
635.335	84.69
635.541	71.69
635.747	74.69
635.952	78.69
636.158	91.69
636.364	89.69
636.57	89.69
636.775	91.69
636.981	75.69
637.187	73.69
637.392	90.69
637.598	96.69
637.804	72.69
638.009	75.69
638.215	72.69
638.421	84.69
638.626	72.69
638.832	77.69
639.037	91.69
639.243	78.69
639.448	85.69
639.654	88.69
639.859	94.69
640.065	82.69
640.27	79.69
640.475	77.69
640.681	70.69
640.886	95.69
641.091	87.69
641.297	92.69
641.502	87.69
641.707	89.69
641.913	78.69
642.118	97.69
642.323	88.69
642.528	83.69
642.733	87.69
642.939	85.69
643.144	83.69
643.349	102.69
643.554	88.69
643.759	84.69
643.964	69.69
644.169	78.69
644.374	85.69
644.579	80.69
644.784	81.69
644.989	109.69
645.194	93.69
645.399	85.69
645.604	81.69
645.809	93.69
646.014	88.69
646.219	79.69
646.423	71.69
646.628	86.69
646.833	93.69
647.038	83.69
647.243	89.69
647.447	82.69
647.652	82.69
647.857	92.69
648.062	94.69
648.266	103.69
648.471	84.69
648.676	86.69
648.88	85.69
649.085	89.69
649.289	93.69
649.494	92.69
649.698	84.69
649.903	80.69
650.107	83.69
650.312	94.69
650.516	87.69
650.721	81.69
650.925	87.69
651.13	84.69
651.334	76.69
651.539	72.69
651.743	71.69
651.947	85.69
652.152	86.69
652.356	88.69
652.56	78.69
652.764	78.69
652.969	89.69
653.173	87.69
653.377	58.69
653.581	82.69
653.785	80.69
653.99	86.69
654.194	68.69
654.398	79.69
654.602	90.69
654.806	84.69
655.01	96.69
655.214	84.69
655.418	96.69
655.622	87.69
655.826	84.69
656.03	88.69
656.234	85.69
656.438	94.69
656.642	70.69
656.846	77.69
657.049	84.69
657.253	70.69
657.457	86.69
657.661	91.69
657.865	80.69
658.068	82.69
658.272	92.69
658.476	81.69
658.68	83.69
658.883	86.69
659.087	79.69
659.291	77.69
659.494	78.69
659.698	82.69
659.901	75.69
660.105	81.69
660.309	84.69
660.512	73.69
660.716	77.69
660.919	77.69
661.123	83.69
661.326	80.69
661.53	78.69
661.733	90.69
661.936	93.69
662.14	80.69
662.343	84.69
662.546	81.69
662.75	71.69
662.953	77.69
663.156	80.69
663.36	78.69
663.563	79.69
663.766	81.69
663.969	92.69
664.173	78.69
664.376	77.69
664.579	83.69
664.782	65.69
664.985	86.69
665.188	79.69
665.391	87.69
665.594	82.69
665.797	61.69
666	66.69
666.203	75.69
666.406	88.69
666.609	77.69
666.812	77.69
667.015	88.69
667.218	77.69
667.421	86.69
667.624	86.69
667.827	67.69
668.03	73.69
668.232	78.69
668.435	72.69
668.638	73.69
668.841	89.69
669.043	59.69
669.246	63.69
669.449	79.69
669.651	83.69
669.854	80.69
670.057	76.69
670.259	79.69
670.462	81.69
670.665	86.69
670.867	89.69
671.07	83.69
671.272	56.69
671.475	88.69
671.677	82.69
671.88	78.69
672.082	67.69
672.284	80.69
672.487	74.69
672.689	71.69
672.892	72.69
