Data from StandardFe(NO3)3.TAE.3%Agarose.FlatLispGreen.Lamp.Energy10.07252019_HRD10591_11-56-30-443.txt Node
Date: Thu Jul 25 11:56:30 EDT 2019
User: cochatt
Spectrometer: HR+D1059
Trigger mode: 1
Integration Time (sec): 1.000000E-1
Scans to average: 1
Electric dark correction enabled: true
Nonlinearity correction enabled: false
Boxcar width: 0
XAxis mode: Wavelengths
Number of Pixels in Spectrum: 2048
>>>>>Begin Spectral Data<<<<<
223.165	-17.31
223.4	-17.31
223.635	-17.31
223.869	-14.31
224.104	-12.31
224.338	-3.31
224.573	-18.31
224.808	-1.31
225.042	-22.31
225.277	-10.31
225.511	-5.31
225.746	17.69
225.98	6.69
226.215	12.69
226.449	12.69
226.683	16.69
226.918	17.69
227.152	20.69
227.387	35.69
227.621	39.69
227.856	30.69
228.09	52.69
228.324	49.69
228.559	57.69
228.793	52.69
229.027	60.69
229.262	66.69
229.496	63.69
229.73	74.69
229.964	75.69
230.199	66.69
230.433	67.69
230.667	70.69
230.901	63.69
231.136	62.69
231.37	79.69
231.604	74.69
231.838	76.69
232.072	71.69
232.306	79.69
232.541	84.69
232.775	83.69
233.009	92.69
233.243	82.69
233.477	87.69
233.711	83.69
233.945	75.69
234.179	71.69
234.413	67.69
234.647	71.69
234.881	84.69
235.115	91.69
235.349	73.69
235.583	89.69
235.817	75.69
236.051	80.69
236.285	68.69
236.519	57.69
236.753	69.69
236.987	77.69
237.221	70.69
237.455	66.69
237.689	92.69
237.922	70.69
238.156	63.69
238.39	74.69
238.624	73.69
238.858	66.69
239.091	74.69
239.325	66.69
239.559	69.69
239.793	56.69
240.027	52.69
240.26	80.69
240.494	85.69
240.728	67.69
240.961	85.69
241.195	73.69
241.429	78.69
241.662	77.69
241.896	81.69
242.13	75.69
242.363	65.69
242.597	66.69
242.83	63.69
243.064	77.69
243.298	82.69
243.531	77.69
243.765	72.69
243.998	79.69
244.232	75.69
244.465	65.69
244.699	79.69
244.932	74.69
245.166	77.69
245.399	67.69
245.633	89.69
245.866	87.69
246.099	80.69
246.333	77.69
246.566	70.69
246.8	69.69
247.033	67.69
247.266	73.69
247.5	70.69
247.733	77.69
247.966	86.69
248.2	77.69
248.433	72.69
248.666	62.69
248.899	79.69
249.133	75.69
249.366	89.69
249.599	74.69
249.832	82.69
250.066	79.69
250.299	69.69
250.532	79.69
250.765	86.69
250.998	79.69
251.231	76.69
251.465	62.69
251.698	80.69
251.931	72.69
252.164	69.69
252.397	69.69
252.63	96.69
252.863	73.69
253.096	74.69
253.329	77.69
253.562	56.69
253.795	72.69
254.028	74.69
254.261	83.69
254.494	84.69
254.727	87.69
254.96	69.69
255.193	68.69
255.426	74.69
255.659	85.69
255.892	67.69
256.124	67.69
256.357	86.69
256.59	68.69
256.823	85.69
257.056	102.69
257.289	51.69
257.521	77.69
257.754	70.69
257.987	69.69
258.22	78.69
258.452	85.69
258.685	82.69
258.918	87.69
259.151	77.69
259.383	93.69
259.616	66.69
259.849	77.69
260.081	74.69
260.314	83.69
260.547	73.69
260.779	64.69
261.012	77.69
261.244	80.69
261.477	67.69
261.71	88.69
261.942	77.69
262.175	72.69
262.407	79.69
262.64	89.69
262.872	78.69
263.105	74.69
263.337	69.69
263.57	86.69
263.802	87.69
264.035	82.69
264.267	65.69
264.499	70.69
264.732	80.69
264.964	80.69
265.197	83.69
265.429	83.69
265.661	77.69
265.894	74.69
266.126	79.69
266.358	86.69
266.591	90.69
266.823	82.69
267.055	77.69
267.287	90.69
267.52	75.69
267.752	83.69
267.984	85.69
268.216	72.69
268.448	90.69
268.681	81.69
268.913	66.69
269.145	74.69
269.377	70.69
269.609	71.69
269.841	79.69
270.073	77.69
270.306	85.69
270.538	93.69
270.77	79.69
271.002	88.69
271.234	82.69
271.466	72.69
271.698	82.69
271.93	74.69
272.162	77.69
272.394	79.69
272.626	74.69
272.858	87.69
273.09	75.69
273.322	93.69
273.553	84.69
273.785	93.69
274.017	80.69
274.249	78.69
274.481	82.69
274.713	81.69
274.945	78.69
275.176	82.69
275.408	72.69
275.64	71.69
275.872	75.69
276.104	80.69
276.335	79.69
276.567	77.69
276.799	72.69
277.031	87.69
277.262	73.69
277.494	89.69
277.726	72.69
277.957	81.69
278.189	67.69
278.421	78.69
278.652	83.69
278.884	70.69
279.115	78.69
279.347	96.69
279.579	78.69
279.81	82.69
280.042	81.69
280.273	86.69
280.505	78.69
280.736	74.69
280.968	83.69
281.199	79.69
281.431	91.69
281.662	73.69
281.894	77.69
282.125	78.69
282.356	83.69
282.588	87.69
282.819	71.69
283.051	83.69
283.282	76.69
283.513	79.69
283.745	72.69
283.976	74.69
284.207	82.69
284.439	79.69
284.67	86.69
284.901	77.69
285.132	80.69
285.364	80.69
285.595	87.69
285.826	85.69
286.057	74.69
286.288	83.69
286.52	77.69
286.751	71.69
286.982	94.69
287.213	79.69
287.444	73.69
287.675	73.69
287.906	78.69
288.138	76.69
288.369	81.69
288.6	80.69
288.831	76.69
289.062	96.69
289.293	82.69
289.524	69.69
289.755	70.69
289.986	75.69
290.217	92.69
290.448	89.69
290.679	85.69
290.91	71.69
291.141	80.69
291.371	85.69
291.602	74.69
291.833	81.69
292.064	83.69
292.295	81.69
292.526	82.69
292.757	80.69
292.987	75.69
293.218	70.69
293.449	77.69
293.68	83.69
293.91	88.69
294.141	71.69
294.372	79.69
294.603	84.69
294.833	81.69
295.064	71.69
295.295	87.69
295.525	91.69
295.756	94.69
295.987	71.69
296.217	82.69
296.448	76.69
296.679	93.69
296.909	73.69
297.14	74.69
297.37	74.69
297.601	82.69
297.831	80.69
298.062	79.69
298.292	84.69
298.523	70.69
298.753	90.69
298.984	83.69
299.214	93.69
299.445	85.69
299.675	86.69
299.905	71.69
300.136	84.69
300.366	80.69
300.597	90.69
300.827	72.69
301.057	78.69
301.288	107.69
301.518	66.69
301.748	80.69
301.979	79.69
302.209	78.69
302.439	89.69
302.669	71.69
302.9	82.69
303.13	79.69
303.36	79.69
303.59	79.69
303.82	70.69
304.051	74.69
304.281	76.69
304.511	82.69
304.741	79.69
304.971	85.69
305.201	97.69
305.431	84.69
305.661	84.69
305.891	80.69
306.121	79.69
306.352	78.69
306.582	83.69
306.812	81.69
307.042	95.69
307.272	86.69
307.502	65.69
307.731	72.69
307.961	83.69
308.191	85.69
308.421	87.69
308.651	79.69
308.881	82.69
309.111	91.69
309.341	83.69
309.571	85.69
309.8	84.69
310.03	83.69
310.26	78.69
310.49	92.69
310.72	93.69
310.949	94.69
311.179	82.69
311.409	83.69
311.639	77.69
311.868	70.69
312.098	77.69
312.328	82.69
312.557	92.69
312.787	74.69
313.017	78.69
313.246	91.69
313.476	90.69
313.706	78.69
313.935	84.69
314.165	72.69
314.394	66.69
314.624	84.69
314.853	82.69
315.083	74.69
315.312	83.69
315.542	84.69
315.771	73.69
316.001	76.69
316.23	69.69
316.46	82.69
316.689	75.69
316.919	85.69
317.148	74.69
317.377	84.69
317.607	83.69
317.836	79.69
318.065	91.69
318.295	79.69
318.524	74.69
318.753	87.69
318.983	72.69
319.212	87.69
319.441	92.69
319.67	69.69
319.9	87.69
320.129	81.69
320.358	73.69
320.587	72.69
320.816	85.69
321.046	65.69
321.275	86.69
321.504	83.69
321.733	87.69
321.962	93.69
322.191	83.69
322.42	76.69
322.649	68.69
322.878	91.69
323.108	81.69
323.337	90.69
323.566	80.69
323.795	78.69
324.024	60.69
324.253	80.69
324.482	73.69
324.71	80.69
324.939	78.69
325.168	93.69
325.397	82.69
325.626	82.69
325.855	88.69
326.084	87.69
326.313	83.69
326.542	77.69
326.77	72.69
326.999	72.69
327.228	82.69
327.457	93.69
327.686	95.69
327.914	78.69
328.143	91.69
328.372	74.69
328.6	81.69
328.829	72.69
329.058	77.69
329.287	77.69
329.515	84.69
329.744	81.69
329.972	68.69
330.201	82.69
330.43	76.69
330.658	88.69
330.887	68.69
331.115	65.69
331.344	68.69
331.572	78.69
331.801	88.69
332.03	67.69
332.258	83.69
332.486	84.69
332.715	79.69
332.943	75.69
333.172	88.69
333.4	72.69
333.629	77.69
333.857	82.69
334.085	93.69
334.314	86.69
334.542	78.69
334.771	88.69
334.999	85.69
335.227	83.69
335.455	87.69
335.684	82.69
335.912	99.69
336.14	85.69
336.369	84.69
336.597	86.69
336.825	79.69
337.053	79.69
337.281	83.69
337.51	95.69
337.738	83.69
337.966	72.69
338.194	79.69
338.422	86.69
338.65	81.69
338.878	72.69
339.106	90.69
339.334	94.69
339.562	74.69
339.79	73.69
340.018	81.69
340.246	97.69
340.474	83.69
340.702	75.69
340.93	70.69
341.158	75.69
341.386	85.69
341.614	90.69
341.842	76.69
342.07	80.69
342.298	81.69
342.526	80.69
342.754	86.69
342.981	76.69
343.209	72.69
343.437	93.69
343.665	74.69
343.893	74.69
344.12	83.69
344.348	99.69
344.576	81.69
344.804	68.69
345.031	78.69
345.259	93.69
345.487	82.69
345.714	78.69
345.942	85.69
346.17	69.69
346.397	86.69
346.625	81.69
346.853	80.69
347.08	80.69
347.308	68.69
347.535	69.69
347.763	85.69
347.99	81.69
348.218	74.69
348.445	92.69
348.673	80.69
348.9	78.69
349.128	80.69
349.355	71.69
349.583	86.69
349.81	77.69
350.037	83.69
350.265	85.69
350.492	84.69
350.72	86.69
350.947	83.69
351.174	96.69
351.402	86.69
351.629	91.69
351.856	64.69
352.083	73.69
352.311	83.69
352.538	68.69
352.765	73.69
352.992	67.69
353.22	88.69
353.447	79.69
353.674	78.69
353.901	97.69
354.128	103.69
354.355	83.69
354.583	80.69
354.81	89.69
355.037	75.69
355.264	82.69
355.491	81.69
355.718	73.69
355.945	72.69
356.172	77.69
356.399	77.69
356.626	78.69
356.853	84.69
357.08	88.69
357.307	87.69
357.534	84.69
357.761	83.69
357.988	101.69
358.215	90.69
358.441	68.69
358.668	80.69
358.895	72.69
359.122	85.69
359.349	85.69
359.576	89.69
359.802	73.69
360.029	86.69
360.256	86.69
360.483	72.69
360.709	75.69
360.936	78.69
361.163	86.69
361.39	72.69
361.616	72.69
361.843	83.69
362.07	93.69
362.296	94.69
362.523	84.69
362.749	75.69
362.976	90.69
363.203	83.69
363.429	75.69
363.656	85.69
363.882	84.69
364.109	95.69
364.335	87.69
364.562	77.69
364.788	88.69
365.015	83.69
365.241	82.69
365.468	82.69
365.694	82.69
365.92	96.69
366.147	93.69
366.373	84.69
366.599	70.69
366.826	89.69
367.052	87.69
367.278	88.69
367.505	84.69
367.731	86.69
367.957	78.69
368.184	84.69
368.41	84.69
368.636	87.69
368.862	79.69
369.089	73.69
369.315	89.69
369.541	100.69
369.767	78.69
369.993	86.69
370.219	87.69
370.445	91.69
370.672	80.69
370.898	70.69
371.124	75.69
371.35	76.69
371.576	78.69
371.802	95.69
372.028	86.69
372.254	81.69
372.48	93.69
372.706	92.69
372.932	89.69
373.158	92.69
373.384	94.69
373.61	96.69
373.835	97.69
374.061	90.69
374.287	80.69
374.513	104.69
374.739	96.69
374.965	80.69
375.191	83.69
375.416	81.69
375.642	101.69
375.868	82.69
376.094	74.69
376.319	77.69
376.545	83.69
376.771	72.69
376.997	89.69
377.222	89.69
377.448	86.69
377.674	87.69
377.899	95.69
378.125	88.69
378.35	92.69
378.576	83.69
378.802	72.69
379.027	61.69
379.253	87.69
379.478	78.69
379.704	92.69
379.929	98.69
380.155	92.69
380.38	90.69
380.606	86.69
380.831	97.69
381.057	98.69
381.282	92.69
381.507	86.69
381.733	89.69
381.958	91.69
382.184	80.69
382.409	94.69
382.634	96.69
382.86	73.69
383.085	74.69
383.31	84.69
383.535	95.69
383.761	101.69
383.986	93.69
384.211	88.69
384.436	81.69
384.662	94.69
384.887	97.69
385.112	99.69
385.337	79.69
385.562	87.69
385.787	94.69
386.013	97.69
386.238	84.69
386.463	98.69
386.688	97.69
386.913	84.69
387.138	79.69
387.363	95.69
387.588	93.69
387.813	93.69
388.038	103.69
388.263	87.69
388.488	96.69
388.713	89.69
388.938	86.69
389.163	89.69
389.387	95.69
389.612	88.69
389.837	87.69
390.062	81.69
390.287	91.69
390.512	84.69
390.736	95.69
390.961	91.69
391.186	94.69
391.411	85.69
391.636	102.69
391.86	101.69
392.085	73.69
392.31	96.69
392.534	89.69
392.759	101.69
392.984	112.69
393.208	96.69
393.433	105.69
393.658	99.69
393.882	90.69
394.107	83.69
394.331	93.69
394.556	80.69
394.78	89.69
395.005	106.69
395.229	88.69
395.454	100.69
395.678	94.69
395.903	91.69
396.127	93.69
396.352	88.69
396.576	96.69
396.801	88.69
397.025	96.69
397.249	84.69
397.474	98.69
397.698	104.69
397.922	95.69
398.147	79.69
398.371	96.69
398.595	94.69
398.82	84.69
399.044	91.69
399.268	97.69
399.492	120.69
399.717	115.69
399.941	96.69
400.165	102.69
400.389	94.69
400.613	101.69
400.837	102.69
401.062	92.69
401.286	112.69
401.51	119.69
401.734	109.69
401.958	97.69
402.182	111.69
402.406	92.69
402.63	94.69
402.854	96.69
403.078	108.69
403.302	97.69
403.526	100.69
403.75	92.69
403.974	107.69
404.198	102.69
404.422	110.69
404.645	109.69
404.869	100.69
405.093	110.69
405.317	109.69
405.541	102.69
405.765	106.69
405.988	81.69
406.212	98.69
406.436	91.69
406.66	113.69
406.883	119.69
407.107	114.69
407.331	105.69
407.555	119.69
407.778	106.69
408.002	109.69
408.226	111.69
408.449	100.69
408.673	100.69
408.896	91.69
409.12	96.69
409.344	105.69
409.567	104.69
409.791	103.69
410.014	111.69
410.238	98.69
410.461	112.69
410.685	110.69
410.908	111.69
411.132	110.69
411.355	100.69
411.578	104.69
411.802	114.69
412.025	101.69
412.249	100.69
412.472	106.69
412.695	110.69
412.919	94.69
413.142	93.69
413.365	93.69
413.589	116.69
413.812	96.69
414.035	110.69
414.258	110.69
414.482	108.69
414.705	108.69
414.928	103.69
415.151	113.69
415.374	105.69
415.597	98.69
415.821	106.69
416.044	118.69
416.267	102.69
416.49	111.69
416.713	102.69
416.936	101.69
417.159	95.69
417.382	111.69
417.605	110.69
417.828	116.69
418.051	91.69
418.274	108.69
418.497	100.69
418.72	119.69
418.943	112.69
419.166	118.69
419.389	110.69
419.611	113.69
419.834	101.69
420.057	103.69
420.28	118.69
420.503	94.69
420.726	109.69
420.948	108.69
421.171	106.69
421.394	118.69
421.617	104.69
421.839	118.69
422.062	125.69
422.285	109.69
422.507	104.69
422.73	114.69
422.953	115.69
423.175	106.69
423.398	93.69
423.621	120.69
423.843	119.69
424.066	118.69
424.288	128.69
424.511	114.69
424.733	109.69
424.956	99.69
425.178	98.69
425.401	101.69
425.623	104.69
425.846	99.69
426.068	111.69
426.291	121.69
426.513	104.69
426.735	104.69
426.958	103.69
427.18	89.69
427.402	104.69
427.625	96.69
427.847	98.69
428.069	110.69
428.292	103.69
428.514	112.69
428.736	114.69
428.958	93.69
429.181	108.69
429.403	107.69
429.625	108.69
429.847	109.69
430.069	111.69
430.292	116.69
430.514	99.69
430.736	106.69
430.958	108.69
431.18	92.69
431.402	124.69
431.624	108.69
431.846	100.69
432.068	113.69
432.29	108.69
432.512	116.69
432.734	109.69
432.956	113.69
433.178	109.69
433.4	103.69
433.622	124.69
433.844	112.69
434.066	111.69
434.287	113.69
434.509	101.69
434.731	96.69
434.953	103.69
435.175	117.69
435.397	104.69
435.618	102.69
435.84	110.69
436.062	122.69
436.284	99.69
436.505	112.69
436.727	114.69
436.949	117.69
437.17	100.69
437.392	113.69
437.614	118.69
437.835	114.69
438.057	106.69
438.278	101.69
438.5	94.69
438.721	100.69
438.943	115.69
439.165	112.69
439.386	123.69
439.608	122.69
439.829	122.69
440.05	119.69
440.272	112.69
440.493	105.69
440.715	117.69
440.936	122.69
441.158	115.69
441.379	121.69
441.6	120.69
441.822	124.69
442.043	103.69
442.264	114.69
442.486	105.69
442.707	122.69
442.928	117.69
443.149	111.69
443.371	116.69
443.592	121.69
443.813	102.69
444.034	107.69
444.255	113.69
444.476	128.69
444.698	125.69
444.919	128.69
445.14	242.69
445.361	182.69
445.582	136.69
445.803	117.69
446.024	121.69
446.245	111.69
446.466	114.69
446.687	119.69
446.908	108.69
447.129	113.69
447.35	128.69
447.571	112.69
447.792	102.69
448.013	124.69
448.234	103.69
448.455	96.69
448.675	113.69
448.896	108.69
449.117	104.69
449.338	110.69
449.559	121.69
449.779	102.69
450	110.69
450.221	111.69
450.442	111.69
450.662	105.69
450.883	124.69
451.104	105.69
451.324	121.69
451.545	115.69
451.766	108.69
451.986	105.69
452.207	118.69
452.428	101.69
452.648	117.69
452.869	97.69
453.089	96.69
453.31	94.69
453.53	99.69
453.751	104.69
453.971	95.69
454.192	84.69
454.412	109.69
454.633	105.69
454.853	91.69
455.073	111.69
455.294	98.69
455.514	105.69
455.734	113.69
455.955	98.69
456.175	102.69
456.395	104.69
456.616	105.69
456.836	94.69
457.056	111.69
457.276	92.69
457.497	112.69
457.717	104.69
457.937	113.69
458.157	97.69
458.377	108.69
458.598	103.69
458.818	104.69
459.038	113.69
459.258	86.69
459.478	114.69
459.698	102.69
459.918	97.69
460.138	95.69
460.358	95.69
460.578	112.69
460.798	116.69
461.018	118.69
461.238	114.69
461.458	117.69
461.678	108.69
461.898	106.69
462.118	135.69
462.338	118.69
462.558	112.69
462.777	105.69
462.997	124.69
463.217	113.69
463.437	124.69
463.657	118.69
463.876	125.69
464.096	118.69
464.316	114.69
464.536	117.69
464.755	105.69
464.975	116.69
465.195	115.69
465.414	114.69
465.634	121.69
465.854	113.69
466.073	116.69
466.293	108.69
466.512	114.69
466.732	123.69
466.951	112.69
467.171	120.69
467.391	111.69
467.61	110.69
467.829	114.69
468.049	116.69
468.268	120.69
468.488	99.69
468.707	108.69
468.927	113.69
469.146	117.69
469.365	118.69
469.585	103.69
469.804	108.69
470.023	116.69
470.243	122.69
470.462	119.69
470.681	127.69
470.901	129.69
471.12	125.69
471.339	95.69
471.558	123.69
471.777	118.69
471.997	122.69
472.216	121.69
472.435	122.69
472.654	126.69
472.873	104.69
473.092	113.69
473.311	114.69
473.53	120.69
473.749	100.69
473.968	111.69
474.187	117.69
474.406	110.69
474.625	94.69
474.844	105.69
475.063	100.69
475.282	110.69
475.501	97.69
475.72	105.69
475.939	120.69
476.158	122.69
476.377	121.69
476.596	111.69
476.814	120.69
477.033	105.69
477.252	102.69
477.471	122.69
477.69	132.69
477.908	113.69
478.127	116.69
478.346	118.69
478.564	135.69
478.783	130.69
479.002	124.69
479.22	131.69
479.439	128.69
479.658	105.69
479.876	103.69
480.095	130.69
480.313	121.69
480.532	127.69
480.751	138.69
480.969	132.69
481.188	114.69
481.406	111.69
481.624	114.69
481.843	93.69
482.061	105.69
482.28	118.69
482.498	116.69
482.717	101.69
482.935	120.69
483.153	134.69
483.372	130.69
483.59	124.69
483.808	129.69
484.027	109.69
484.245	109.69
484.463	125.69
484.681	140.69
484.9	120.69
485.118	147.69
485.336	148.69
485.554	128.69
485.772	119.69
485.99	114.69
486.209	103.69
486.427	115.69
486.645	120.69
486.863	123.69
487.081	110.69
487.299	116.69
487.517	128.69
487.735	134.69
487.953	143.69
488.171	146.69
488.389	142.69
488.607	122.69
488.825	131.69
489.043	125.69
489.261	136.69
489.479	121.69
489.696	108.69
489.914	134.69
490.132	129.69
490.35	119.69
490.568	126.69
490.786	133.69
491.003	142.69
491.221	141.69
491.439	133.69
491.657	151.69
491.874	156.69
492.092	170.69
492.31	172.69
492.527	158.69
492.745	144.69
492.963	136.69
493.18	152.69
493.398	157.69
493.615	134.69
493.833	138.69
494.05	144.69
494.268	136.69
494.485	142.69
494.703	134.69
494.92	129.69
495.138	142.69
495.355	152.69
495.573	139.69
495.79	141.69
496.008	137.69
496.225	150.69
496.442	155.69
496.66	152.69
496.877	132.69
497.094	128.69
497.312	137.69
497.529	138.69
497.746	137.69
497.963	142.69
498.181	132.69
498.398	148.69
498.615	147.69
498.832	150.69
499.049	140.69
499.267	156.69
499.484	164.69
499.701	177.69
499.918	183.69
500.135	186.69
500.352	207.69
500.569	217.69
500.786	211.69
501.003	206.69
501.22	180.69
501.437	165.69
501.654	155.69
501.871	170.69
502.088	144.69
502.305	151.69
502.522	131.69
502.739	144.69
502.956	141.69
503.172	130.69
503.389	134.69
503.606	118.69
503.823	133.69
504.04	125.69
504.256	122.69
504.473	125.69
504.69	125.69
504.907	131.69
505.123	144.69
505.34	144.69
505.557	142.69
505.773	125.69
505.99	132.69
506.207	117.69
506.423	138.69
506.64	113.69
506.856	130.69
507.073	122.69
507.289	128.69
507.506	126.69
507.722	121.69
507.939	118.69
508.155	116.69
508.372	114.69
508.588	121.69
508.805	113.69
509.021	124.69
509.238	120.69
509.454	124.69
509.67	103.69
509.887	116.69
510.103	108.69
510.319	105.69
510.536	91.69
510.752	108.69
510.968	121.69
511.184	113.69
511.401	106.69
511.617	106.69
511.833	121.69
512.049	104.69
512.265	112.69
512.481	112.69
512.698	115.69
512.914	112.69
513.13	117.69
513.346	103.69
513.562	108.69
513.778	123.69
513.994	108.69
514.21	112.69
514.426	116.69
514.642	128.69
514.858	126.69
515.074	101.69
515.29	113.69
515.506	114.69
515.721	118.69
515.937	108.69
516.153	120.69
516.369	102.69
516.585	101.69
516.801	117.69
517.016	132.69
517.232	125.69
517.448	121.69
517.664	132.69
517.879	116.69
518.095	120.69
518.311	135.69
518.527	122.69
518.742	128.69
518.958	114.69
519.173	125.69
519.389	113.69
519.605	118.69
519.82	109.69
520.036	123.69
520.251	107.69
520.467	130.69
520.682	105.69
520.898	116.69
521.113	112.69
521.329	110.69
521.544	122.69
521.76	105.69
521.975	100.69
522.19	116.69
522.406	109.69
522.621	125.69
522.836	116.69
523.052	102.69
523.267	116.69
523.482	116.69
523.698	119.69
523.913	120.69
524.128	112.69
524.343	115.69
524.559	111.69
524.774	127.69
524.989	116.69
525.204	131.69
525.419	126.69
525.634	130.69
525.849	122.69
526.064	95.69
526.28	104.69
526.495	110.69
526.71	102.69
526.925	118.69
527.14	114.69
527.355	111.69
527.57	111.69
527.785	124.69
527.999	120.69
528.214	116.69
528.429	111.69
528.644	106.69
528.859	120.69
529.074	112.69
529.289	123.69
529.503	117.69
529.718	126.69
529.933	113.69
530.148	119.69
530.363	127.69
530.577	123.69
530.792	97.69
531.007	116.69
531.221	103.69
531.436	107.69
531.651	113.69
531.865	112.69
532.08	106.69
532.295	110.69
532.509	123.69
532.724	107.69
532.938	108.69
533.153	96.69
533.367	116.69
533.582	116.69
533.796	122.69
534.011	103.69
534.225	113.69
534.44	93.69
534.654	103.69
534.868	107.69
535.083	112.69
535.297	113.69
535.511	121.69
535.726	115.69
535.94	103.69
536.154	103.69
536.369	100.69
536.583	121.69
536.797	105.69
537.011	109.69
537.225	104.69
537.44	102.69
537.654	110.69
537.868	91.69
538.082	90.69
538.296	103.69
538.51	114.69
538.724	118.69
538.938	122.69
539.153	115.69
539.367	107.69
539.581	121.69
539.795	127.69
540.009	105.69
540.222	114.69
540.436	104.69
540.65	101.69
540.864	116.69
541.078	115.69
541.292	111.69
541.506	124.69
541.72	138.69
541.934	133.69
542.147	143.69
542.361	135.69
542.575	136.69
542.789	130.69
543.002	115.69
543.216	116.69
543.43	116.69
543.644	128.69
543.857	116.69
544.071	120.69
544.285	135.69
544.498	118.69
544.712	127.69
544.925	132.69
545.139	129.69
545.352	113.69
545.566	124.69
545.779	128.69
545.993	144.69
546.206	141.69
546.42	115.69
546.633	128.69
546.847	122.69
547.06	133.69
547.274	124.69
547.487	130.69
547.7	117.69
547.914	114.69
548.127	130.69
548.34	125.69
548.554	127.69
548.767	117.69
548.98	129.69
549.193	120.69
549.407	129.69
549.62	137.69
549.833	143.69
550.046	121.69
550.259	108.69
550.473	111.69
550.686	129.69
550.899	122.69
551.112	119.69
551.325	115.69
551.538	126.69
551.751	118.69
551.964	109.69
552.177	106.69
552.39	122.69
552.603	119.69
552.816	127.69
553.029	125.69
553.242	130.69
553.455	137.69
553.667	130.69
553.88	139.69
554.093	124.69
554.306	121.69
554.519	106.69
554.732	117.69
554.944	121.69
555.157	111.69
555.37	113.69
555.583	113.69
555.795	127.69
556.008	117.69
556.221	121.69
556.433	121.69
556.646	106.69
556.859	112.69
557.071	115.69
557.284	113.69
557.496	114.69
557.709	116.69
557.921	101.69
558.134	102.69
558.346	121.69
558.559	106.69
558.771	124.69
558.984	118.69
559.196	121.69
559.409	109.69
559.621	125.69
559.833	102.69
560.046	102.69
560.258	102.69
560.47	102.69
560.683	111.69
560.895	94.69
561.107	101.69
561.32	102.69
561.532	100.69
561.744	103.69
561.956	110.69
562.168	113.69
562.381	103.69
562.593	92.69
562.805	119.69
563.017	106.69
563.229	112.69
563.441	106.69
563.653	112.69
563.865	110.69
564.077	108.69
564.289	111.69
564.501	112.69
564.713	109.69
564.925	116.69
565.137	101.69
565.349	116.69
565.561	110.69
565.773	120.69
565.985	86.69
566.197	109.69
566.408	105.69
566.62	104.69
566.832	116.69
567.044	112.69
567.255	114.69
567.467	122.69
567.679	122.69
567.891	117.69
568.102	122.69
568.314	112.69
568.526	101.69
568.737	110.69
568.949	108.69
569.161	100.69
569.372	116.69
569.584	101.69
569.795	93.69
570.007	98.69
570.218	89.69
570.43	97.69
570.641	106.69
570.853	109.69
571.064	97.69
571.276	90.69
571.487	97.69
571.698	101.69
571.91	89.69
572.121	101.69
572.333	87.69
572.544	95.69
572.755	89.69
572.966	93.69
573.178	90.69
573.389	100.69
573.6	86.69
573.811	85.69
574.023	87.69
574.234	101.69
574.445	94.69
574.656	84.69
574.867	98.69
575.078	93.69
575.289	88.69
575.501	100.69
575.712	76.69
575.923	88.69
576.134	89.69
576.345	91.69
576.556	98.69
576.767	86.69
576.978	94.69
577.188	98.69
577.399	95.69
577.61	78.69
577.821	94.69
578.032	112.69
578.243	96.69
578.454	89.69
578.665	88.69
578.875	92.69
579.086	99.69
579.297	92.69
579.508	76.69
579.718	93.69
579.929	92.69
580.14	85.69
580.35	91.69
580.561	106.69
580.772	88.69
580.982	96.69
581.193	105.69
581.403	98.69
581.614	93.69
581.825	96.69
582.035	103.69
582.246	96.69
582.456	93.69
582.667	92.69
582.877	85.69
583.087	93.69
583.298	90.69
583.508	88.69
583.719	100.69
583.929	98.69
584.139	93.69
584.35	90.69
584.56	100.69
584.77	86.69
584.981	98.69
585.191	98.69
585.401	91.69
585.611	90.69
585.821	87.69
586.032	85.69
586.242	83.69
586.452	86.69
586.662	78.69
586.872	90.69
587.082	99.69
587.292	93.69
587.502	99.69
587.713	102.69
587.923	89.69
588.133	75.69
588.343	92.69
588.553	87.69
588.762	97.69
588.972	93.69
589.182	92.69
589.392	95.69
589.602	86.69
589.812	78.69
590.022	97.69
590.232	96.69
590.441	96.69
590.651	97.69
590.861	90.69
591.071	89.69
591.281	95.69
591.49	95.69
591.7	90.69
591.91	90.69
592.119	81.69
592.329	80.69
592.539	98.69
592.748	105.69
592.958	96.69
593.167	93.69
593.377	81.69
593.587	85.69
593.796	84.69
594.006	94.69
594.215	101.69
594.424	99.69
594.634	110.69
594.843	96.69
595.053	84.69
595.262	79.69
595.472	101.69
595.681	91.69
595.89	93.69
596.1	86.69
596.309	102.69
596.518	98.69
596.727	97.69
596.937	83.69
597.146	102.69
597.355	82.69
597.564	83.69
597.774	97.69
597.983	95.69
598.192	94.69
598.401	87.69
598.61	96.69
598.819	85.69
599.028	87.69
599.237	92.69
599.446	93.69
599.655	89.69
599.864	90.69
600.073	83.69
600.282	91.69
600.491	95.69
600.7	95.69
600.909	100.69
601.118	82.69
601.327	93.69
601.536	95.69
601.745	91.69
601.953	89.69
602.162	107.69
602.371	96.69
602.58	87.69
602.789	108.69
602.997	104.69
603.206	95.69
603.415	95.69
603.623	89.69
603.832	92.69
604.041	92.69
604.249	89.69
604.458	77.69
604.666	93.69
604.875	88.69
605.084	89.69
605.292	104.69
605.501	99.69
605.709	98.69
605.918	100.69
606.126	90.69
606.334	93.69
606.543	81.69
606.751	108.69
606.96	97.69
607.168	91.69
607.376	89.69
607.585	81.69
607.793	96.69
608.001	90.69
608.21	98.69
608.418	101.69
608.626	80.69
608.834	90.69
609.043	88.69
609.251	101.69
609.459	85.69
609.667	95.69
609.875	103.69
610.083	90.69
610.291	93.69
610.499	93.69
610.707	84.69
610.916	104.69
611.124	85.69
611.332	93.69
611.54	96.69
611.748	101.69
611.955	93.69
612.163	93.69
612.371	97.69
612.579	97.69
612.787	88.69
612.995	84.69
613.203	86.69
613.411	93.69
613.618	92.69
613.826	78.69
614.034	105.69
614.242	95.69
614.449	76.69
614.657	78.69
614.865	95.69
615.072	85.69
615.28	101.69
615.488	80.69
615.695	86.69
615.903	77.69
616.111	87.69
616.318	87.69
616.526	77.69
616.733	87.69
616.941	102.69
617.148	89.69
617.356	93.69
617.563	88.69
617.771	93.69
617.978	89.69
618.185	82.69
618.393	97.69
618.6	100.69
618.807	96.69
619.015	104.69
619.222	84.69
619.429	98.69
619.637	101.69
619.844	83.69
620.051	84.69
620.258	87.69
620.466	100.69
620.673	89.69
620.88	78.69
621.087	75.69
621.294	67.69
621.501	95.69
621.708	92.69
621.915	80.69
622.122	98.69
622.329	88.69
622.536	89.69
622.743	97.69
622.95	86.69
623.157	83.69
623.364	80.69
623.571	89.69
623.778	101.69
623.985	80.69
624.192	85.69
624.399	87.69
624.606	92.69
624.812	74.69
625.019	97.69
625.226	87.69
625.433	72.69
625.639	81.69
625.846	75.69
626.053	87.69
626.259	76.69
626.466	95.69
626.673	86.69
626.879	89.69
627.086	76.69
627.293	115.69
627.499	90.69
627.706	98.69
627.912	89.69
628.119	88.69
628.325	82.69
628.532	94.69
628.738	77.69
628.945	86.69
629.151	72.69
629.357	82.69
629.564	84.69
629.77	92.69
629.976	88.69
630.183	89.69
630.389	78.69
630.595	97.69
630.802	82.69
631.008	105.69
631.214	93.69
631.42	94.69
631.627	105.69
631.833	85.69
632.039	97.69
632.245	97.69
632.451	88.69
632.657	84.69
632.863	78.69
633.069	84.69
633.275	87.69
633.481	93.69
633.688	95.69
633.893	101.69
634.099	94.69
634.305	84.69
634.511	93.69
634.717	96.69
634.923	80.69
635.129	88.69
635.335	83.69
635.541	76.69
635.747	92.69
635.952	81.69
636.158	77.69
636.364	79.69
636.57	84.69
636.775	85.69
636.981	76.69
637.187	84.69
637.392	84.69
637.598	102.69
637.804	88.69
638.009	91.69
638.215	82.69
638.421	92.69
638.626	92.69
638.832	92.69
639.037	100.69
639.243	82.69
639.448	87.69
639.654	90.69
639.859	75.69
640.065	78.69
640.27	94.69
640.475	82.69
640.681	89.69
640.886	71.69
641.091	82.69
641.297	87.69
641.502	74.69
641.707	78.69
641.913	94.69
642.118	81.69
642.323	89.69
642.528	86.69
642.733	77.69
642.939	90.69
643.144	90.69
643.349	91.69
643.554	87.69
643.759	90.69
643.964	88.69
644.169	84.69
644.374	102.69
644.579	88.69
644.784	81.69
644.989	86.69
645.194	82.69
645.399	78.69
645.604	104.69
645.809	100.69
646.014	86.69
646.219	86.69
646.423	89.69
646.628	91.69
646.833	81.69
647.038	85.69
647.243	89.69
647.447	79.69
647.652	86.69
647.857	92.69
648.062	89.69
648.266	88.69
648.471	73.69
648.676	84.69
648.88	94.69
649.085	84.69
649.289	93.69
649.494	89.69
649.698	84.69
649.903	87.69
650.107	101.69
650.312	82.69
650.516	84.69
650.721	89.69
650.925	81.69
651.13	95.69
651.334	87.69
651.539	85.69
651.743	76.69
651.947	88.69
652.152	78.69
652.356	87.69
652.56	88.69
652.764	92.69
652.969	86.69
653.173	98.69
653.377	84.69
653.581	91.69
653.785	82.69
653.99	70.69
654.194	80.69
654.398	80.69
654.602	73.69
654.806	78.69
655.01	90.69
655.214	80.69
655.418	95.69
655.622	86.69
655.826	94.69
656.03	93.69
656.234	92.69
656.438	70.69
656.642	82.69
656.846	89.69
657.049	76.69
657.253	89.69
657.457	87.69
657.661	80.69
657.865	88.69
658.068	84.69
658.272	95.69
658.476	88.69
658.68	87.69
658.883	90.69
659.087	68.69
659.291	91.69
659.494	93.69
659.698	80.69
659.901	88.69
660.105	77.69
660.309	71.69
660.512	79.69
660.716	85.69
660.919	85.69
661.123	74.69
661.326	73.69
661.53	68.69
661.733	70.69
661.936	76.69
662.14	76.69
662.343	79.69
662.546	81.69
662.75	83.69
662.953	74.69
663.156	88.69
663.36	86.69
663.563	75.69
663.766	81.69
663.969	96.69
664.173	80.69
664.376	93.69
664.579	68.69
664.782	77.69
664.985	69.69
665.188	63.69
665.391	81.69
665.594	82.69
665.797	89.69
666	86.69
666.203	73.69
666.406	79.69
666.609	67.69
666.812	78.69
667.015	82.69
667.218	66.69
667.421	78.69
667.624	84.69
667.827	77.69
668.03	71.69
668.232	84.69
668.435	54.69
668.638	66.69
668.841	86.69
669.043	71.69
669.246	89.69
669.449	85.69
669.651	76.69
669.854	79.69
670.057	88.69
670.259	79.69
670.462	88.69
670.665	87.69
670.867	72.69
671.07	96.69
671.272	86.69
671.475	81.69
671.677	83.69
671.88	79.69
672.082	77.69
672.284	74.69
672.487	69.69
672.689	69.69
672.892	79.69
