Data from StandardFe(NO3)3.TAE.3%Agarose.FlatLispGreen.Lamp.Energy10.07252019_HRD10591_11-53-59-440.txt Node
Date: Thu Jul 25 11:53:59 EDT 2019
User: cochatt
Spectrometer: HR+D1059
Trigger mode: 1
Integration Time (sec): 1.000000E-1
Scans to average: 1
Electric dark correction enabled: true
Nonlinearity correction enabled: false
Boxcar width: 0
XAxis mode: Wavelengths
Number of Pixels in Spectrum: 2048
>>>>>Begin Spectral Data<<<<<
223.165	-25.12
223.4	-25.12
223.635	-25.12
223.869	-13.12
224.104	-16.12
224.338	-14.12
224.573	-3.12
224.808	-20.12
225.042	-6.12
225.277	-10.12
225.511	-4.12
225.746	-0.12
225.98	5.88
226.215	13.88
226.449	11.88
226.683	27.88
226.918	18.88
227.152	33.88
227.387	41.88
227.621	38.88
227.856	41.88
228.09	36.88
228.324	51.88
228.559	56.88
228.793	64.88
229.027	60.88
229.262	70.88
229.496	76.88
229.73	79.88
229.964	67.88
230.199	68.88
230.433	62.88
230.667	80.88
230.901	74.88
231.136	87.88
231.37	82.88
231.604	83.88
231.838	71.88
232.072	85.88
232.306	84.88
232.541	86.88
232.775	73.88
233.009	85.88
233.243	72.88
233.477	90.88
233.711	94.88
233.945	73.88
234.179	70.88
234.413	86.88
234.647	75.88
234.881	83.88
235.115	77.88
235.349	65.88
235.583	77.88
235.817	78.88
236.051	75.88
236.285	90.88
236.519	70.88
236.753	77.88
236.987	71.88
237.221	77.88
237.455	80.88
237.689	92.88
237.922	80.88
238.156	83.88
238.39	77.88
238.624	72.88
238.858	73.88
239.091	69.88
239.325	85.88
239.559	73.88
239.793	81.88
240.027	82.88
240.26	76.88
240.494	81.88
240.728	101.88
240.961	76.88
241.195	81.88
241.429	79.88
241.662	72.88
241.896	67.88
242.13	76.88
242.363	77.88
242.597	95.88
242.83	81.88
243.064	71.88
243.298	66.88
243.531	90.88
243.765	73.88
243.998	69.88
244.232	87.88
244.465	65.88
244.699	87.88
244.932	87.88
245.166	77.88
245.399	84.88
245.633	85.88
245.866	75.88
246.099	81.88
246.333	87.88
246.566	77.88
246.8	64.88
247.033	84.88
247.266	68.88
247.5	78.88
247.733	77.88
247.966	99.88
248.2	77.88
248.433	69.88
248.666	87.88
248.899	77.88
249.133	68.88
249.366	90.88
249.599	83.88
249.832	91.88
250.066	88.88
250.299	76.88
250.532	77.88
250.765	67.88
250.998	78.88
251.231	90.88
251.465	78.88
251.698	76.88
251.931	81.88
252.164	84.88
252.397	81.88
252.63	80.88
252.863	100.88
253.096	88.88
253.329	83.88
253.562	99.88
253.795	77.88
254.028	80.88
254.261	84.88
254.494	72.88
254.727	74.88
254.96	78.88
255.193	85.88
255.426	71.88
255.659	88.88
255.892	92.88
256.124	74.88
256.357	82.88
256.59	86.88
256.823	90.88
257.056	84.88
257.289	81.88
257.521	85.88
257.754	64.88
257.987	92.88
258.22	79.88
258.452	104.88
258.685	86.88
258.918	79.88
259.151	87.88
259.383	85.88
259.616	83.88
259.849	92.88
260.081	101.88
260.314	87.88
260.547	78.88
260.779	98.88
261.012	101.88
261.244	94.88
261.477	84.88
261.71	84.88
261.942	89.88
262.175	87.88
262.407	89.88
262.64	79.88
262.872	87.88
263.105	80.88
263.337	76.88
263.57	70.88
263.802	76.88
264.035	75.88
264.267	84.88
264.499	91.88
264.732	91.88
264.964	87.88
265.197	77.88
265.429	91.88
265.661	99.88
265.894	81.88
266.126	81.88
266.358	77.88
266.591	85.88
266.823	84.88
267.055	81.88
267.287	72.88
267.52	82.88
267.752	81.88
267.984	80.88
268.216	95.88
268.448	83.88
268.681	82.88
268.913	93.88
269.145	81.88
269.377	82.88
269.609	86.88
269.841	97.88
270.073	93.88
270.306	88.88
270.538	87.88
270.77	90.88
271.002	88.88
271.234	83.88
271.466	92.88
271.698	81.88
271.93	86.88
272.162	87.88
272.394	89.88
272.626	87.88
272.858	93.88
273.09	83.88
273.322	89.88
273.553	90.88
273.785	75.88
274.017	85.88
274.249	79.88
274.481	77.88
274.713	77.88
274.945	86.88
275.176	74.88
275.408	89.88
275.64	89.88
275.872	77.88
276.104	82.88
276.335	76.88
276.567	85.88
276.799	92.88
277.031	79.88
277.262	92.88
277.494	95.88
277.726	91.88
277.957	85.88
278.189	77.88
278.421	84.88
278.652	69.88
278.884	74.88
279.115	79.88
279.347	101.88
279.579	92.88
279.81	72.88
280.042	84.88
280.273	81.88
280.505	84.88
280.736	87.88
280.968	95.88
281.199	68.88
281.431	78.88
281.662	90.88
281.894	84.88
282.125	87.88
282.356	82.88
282.588	71.88
282.819	74.88
283.051	84.88
283.282	77.88
283.513	88.88
283.745	77.88
283.976	90.88
284.207	91.88
284.439	81.88
284.67	87.88
284.901	69.88
285.132	86.88
285.364	78.88
285.595	94.88
285.826	93.88
286.057	85.88
286.288	96.88
286.52	87.88
286.751	80.88
286.982	93.88
287.213	77.88
287.444	83.88
287.675	73.88
287.906	90.88
288.138	81.88
288.369	80.88
288.6	89.88
288.831	84.88
289.062	79.88
289.293	90.88
289.524	102.88
289.755	100.88
289.986	89.88
290.217	87.88
290.448	78.88
290.679	88.88
290.91	83.88
291.141	83.88
291.371	93.88
291.602	88.88
291.833	75.88
292.064	82.88
292.295	92.88
292.526	99.88
292.757	87.88
292.987	90.88
293.218	85.88
293.449	90.88
293.68	96.88
293.91	95.88
294.141	84.88
294.372	81.88
294.603	75.88
294.833	96.88
295.064	83.88
295.295	75.88
295.525	92.88
295.756	91.88
295.987	102.88
296.217	82.88
296.448	79.88
296.679	80.88
296.909	88.88
297.14	83.88
297.37	88.88
297.601	90.88
297.831	86.88
298.062	78.88
298.292	97.88
298.523	86.88
298.753	75.88
298.984	60.88
299.214	87.88
299.445	92.88
299.675	91.88
299.905	76.88
300.136	92.88
300.366	102.88
300.597	85.88
300.827	83.88
301.057	79.88
301.288	94.88
301.518	92.88
301.748	85.88
301.979	89.88
302.209	85.88
302.439	91.88
302.669	100.88
302.9	91.88
303.13	81.88
303.36	85.88
303.59	96.88
303.82	80.88
304.051	87.88
304.281	83.88
304.511	88.88
304.741	81.88
304.971	81.88
305.201	91.88
305.431	103.88
305.661	91.88
305.891	73.88
306.121	91.88
306.352	82.88
306.582	66.88
306.812	81.88
307.042	83.88
307.272	83.88
307.502	89.88
307.731	93.88
307.961	90.88
308.191	77.88
308.421	89.88
308.651	83.88
308.881	81.88
309.111	93.88
309.341	84.88
309.571	85.88
309.8	75.88
310.03	87.88
310.26	72.88
310.49	88.88
310.72	92.88
310.949	88.88
311.179	82.88
311.409	78.88
311.639	85.88
311.868	81.88
312.098	75.88
312.328	72.88
312.557	89.88
312.787	83.88
313.017	91.88
313.246	86.88
313.476	82.88
313.706	92.88
313.935	79.88
314.165	91.88
314.394	84.88
314.624	83.88
314.853	73.88
315.083	72.88
315.312	81.88
315.542	95.88
315.771	97.88
316.001	90.88
316.23	93.88
316.46	81.88
316.689	84.88
316.919	83.88
317.148	88.88
317.377	76.88
317.607	93.88
317.836	73.88
318.065	74.88
318.295	97.88
318.524	81.88
318.753	76.88
318.983	89.88
319.212	76.88
319.441	83.88
319.67	85.88
319.9	87.88
320.129	88.88
320.358	89.88
320.587	80.88
320.816	92.88
321.046	87.88
321.275	79.88
321.504	80.88
321.733	92.88
321.962	82.88
322.191	77.88
322.42	93.88
322.649	81.88
322.878	85.88
323.108	99.88
323.337	95.88
323.566	89.88
323.795	89.88
324.024	98.88
324.253	92.88
324.482	80.88
324.71	78.88
324.939	88.88
325.168	84.88
325.397	85.88
325.626	76.88
325.855	87.88
326.084	83.88
326.313	85.88
326.542	92.88
326.77	95.88
326.999	80.88
327.228	78.88
327.457	100.88
327.686	101.88
327.914	92.88
328.143	85.88
328.372	76.88
328.6	93.88
328.829	92.88
329.058	90.88
329.287	82.88
329.515	75.88
329.744	89.88
329.972	81.88
330.201	81.88
330.43	92.88
330.658	82.88
330.887	88.88
331.115	78.88
331.344	87.88
331.572	86.88
331.801	90.88
332.03	96.88
332.258	87.88
332.486	100.88
332.715	100.88
332.943	83.88
333.172	72.88
333.4	87.88
333.629	93.88
333.857	87.88
334.085	81.88
334.314	93.88
334.542	92.88
334.771	90.88
334.999	84.88
335.227	90.88
335.455	78.88
335.684	91.88
335.912	86.88
336.14	72.88
336.369	89.88
336.597	86.88
336.825	77.88
337.053	96.88
337.281	74.88
337.51	86.88
337.738	88.88
337.966	86.88
338.194	75.88
338.422	88.88
338.65	73.88
338.878	117.88
339.106	81.88
339.334	83.88
339.562	90.88
339.79	73.88
340.018	82.88
340.246	73.88
340.474	86.88
340.702	82.88
340.93	72.88
341.158	91.88
341.386	83.88
341.614	89.88
341.842	90.88
342.07	85.88
342.298	89.88
342.526	81.88
342.754	84.88
342.981	83.88
343.209	103.88
343.437	95.88
343.665	80.88
343.893	101.88
344.12	96.88
344.348	96.88
344.576	93.88
344.804	80.88
345.031	63.88
345.259	85.88
345.487	87.88
345.714	92.88
345.942	100.88
346.17	88.88
346.397	77.88
346.625	87.88
346.853	88.88
347.08	75.88
347.308	73.88
347.535	85.88
347.763	94.88
347.99	86.88
348.218	75.88
348.445	95.88
348.673	72.88
348.9	87.88
349.128	74.88
349.355	92.88
349.583	85.88
349.81	87.88
350.037	87.88
350.265	83.88
350.492	90.88
350.72	100.88
350.947	91.88
351.174	90.88
351.402	87.88
351.629	95.88
351.856	67.88
352.083	97.88
352.311	80.88
352.538	84.88
352.765	92.88
352.992	88.88
353.22	96.88
353.447	74.88
353.674	82.88
353.901	85.88
354.128	96.88
354.355	88.88
354.583	95.88
354.81	89.88
355.037	90.88
355.264	78.88
355.491	77.88
355.718	89.88
355.945	78.88
356.172	86.88
356.399	88.88
356.626	92.88
356.853	86.88
357.08	96.88
357.307	73.88
357.534	84.88
357.761	90.88
357.988	83.88
358.215	77.88
358.441	88.88
358.668	88.88
358.895	80.88
359.122	86.88
359.349	62.88
359.576	86.88
359.802	76.88
360.029	79.88
360.256	90.88
360.483	95.88
360.709	76.88
360.936	82.88
361.163	83.88
361.39	75.88
361.616	75.88
361.843	84.88
362.07	88.88
362.296	85.88
362.523	85.88
362.749	85.88
362.976	83.88
363.203	82.88
363.429	98.88
363.656	96.88
363.882	92.88
364.109	86.88
364.335	100.88
364.562	94.88
364.788	93.88
365.015	87.88
365.241	81.88
365.468	83.88
365.694	85.88
365.92	84.88
366.147	88.88
366.373	77.88
366.599	82.88
366.826	103.88
367.052	83.88
367.278	98.88
367.505	77.88
367.731	80.88
367.957	91.88
368.184	80.88
368.41	91.88
368.636	88.88
368.862	88.88
369.089	65.88
369.315	87.88
369.541	94.88
369.767	90.88
369.993	85.88
370.219	91.88
370.445	88.88
370.672	72.88
370.898	95.88
371.124	87.88
371.35	77.88
371.576	84.88
371.802	90.88
372.028	93.88
372.254	103.88
372.48	96.88
372.706	93.88
372.932	106.88
373.158	83.88
373.384	85.88
373.61	86.88
373.835	83.88
374.061	71.88
374.287	81.88
374.513	88.88
374.739	87.88
374.965	84.88
375.191	88.88
375.416	84.88
375.642	72.88
375.868	89.88
376.094	84.88
376.319	97.88
376.545	101.88
376.771	96.88
376.997	93.88
377.222	88.88
377.448	84.88
377.674	86.88
377.899	88.88
378.125	98.88
378.35	88.88
378.576	102.88
378.802	95.88
379.027	89.88
379.253	109.88
379.478	92.88
379.704	95.88
379.929	91.88
380.155	90.88
380.38	91.88
380.606	105.88
380.831	93.88
381.057	106.88
381.282	75.88
381.507	88.88
381.733	91.88
381.958	100.88
382.184	89.88
382.409	94.88
382.634	89.88
382.86	88.88
383.085	99.88
383.31	93.88
383.535	93.88
383.761	96.88
383.986	93.88
384.211	111.88
384.436	81.88
384.662	87.88
384.887	100.88
385.112	85.88
385.337	86.88
385.562	102.88
385.787	89.88
386.013	103.88
386.238	105.88
386.463	106.88
386.688	93.88
386.913	62.88
387.138	98.88
387.363	89.88
387.588	88.88
387.813	98.88
388.038	87.88
388.263	109.88
388.488	100.88
388.713	82.88
388.938	92.88
389.163	105.88
389.387	84.88
389.612	91.88
389.837	94.88
390.062	101.88
390.287	103.88
390.512	94.88
390.736	96.88
390.961	85.88
391.186	95.88
391.411	92.88
391.636	101.88
391.86	89.88
392.085	108.88
392.31	111.88
392.534	89.88
392.759	101.88
392.984	93.88
393.208	98.88
393.433	98.88
393.658	87.88
393.882	99.88
394.107	95.88
394.331	107.88
394.556	88.88
394.78	112.88
395.005	100.88
395.229	92.88
395.454	105.88
395.678	83.88
395.903	105.88
396.127	114.88
396.352	116.88
396.576	98.88
396.801	101.88
397.025	107.88
397.249	101.88
397.474	99.88
397.698	103.88
397.922	96.88
398.147	108.88
398.371	112.88
398.595	105.88
398.82	95.88
399.044	112.88
399.268	105.88
399.492	123.88
399.717	111.88
399.941	117.88
400.165	112.88
400.389	105.88
400.613	113.88
400.837	107.88
401.062	104.88
401.286	111.88
401.51	111.88
401.734	115.88
401.958	100.88
402.182	118.88
402.406	107.88
402.63	111.88
402.854	117.88
403.078	98.88
403.302	113.88
403.526	117.88
403.75	105.88
403.974	111.88
404.198	96.88
404.422	117.88
404.645	101.88
404.869	111.88
405.093	114.88
405.317	119.88
405.541	114.88
405.765	107.88
405.988	107.88
406.212	113.88
406.436	111.88
406.66	111.88
406.883	101.88
407.107	101.88
407.331	124.88
407.555	118.88
407.778	113.88
408.002	112.88
408.226	106.88
408.449	116.88
408.673	108.88
408.896	105.88
409.12	115.88
409.344	119.88
409.567	123.88
409.791	119.88
410.014	119.88
410.238	123.88
410.461	137.88
410.685	108.88
410.908	97.88
411.132	112.88
411.355	117.88
411.578	103.88
411.802	118.88
412.025	109.88
412.249	121.88
412.472	116.88
412.695	114.88
412.919	98.88
413.142	111.88
413.365	121.88
413.589	112.88
413.812	114.88
414.035	103.88
414.258	107.88
414.482	118.88
414.705	99.88
414.928	108.88
415.151	106.88
415.374	111.88
415.597	94.88
415.821	114.88
416.044	98.88
416.267	95.88
416.49	117.88
416.713	112.88
416.936	109.88
417.159	120.88
417.382	135.88
417.605	109.88
417.828	98.88
418.051	107.88
418.274	118.88
418.497	123.88
418.72	127.88
418.943	138.88
419.166	113.88
419.389	124.88
419.611	122.88
419.834	115.88
420.057	113.88
420.28	112.88
420.503	118.88
420.726	113.88
420.948	123.88
421.171	109.88
421.394	120.88
421.617	125.88
421.839	105.88
422.062	125.88
422.285	111.88
422.507	119.88
422.73	111.88
422.953	109.88
423.175	117.88
423.398	121.88
423.621	119.88
423.843	125.88
424.066	119.88
424.288	117.88
424.511	132.88
424.733	119.88
424.956	115.88
425.178	107.88
425.401	120.88
425.623	123.88
425.846	116.88
426.068	116.88
426.291	118.88
426.513	120.88
426.735	112.88
426.958	112.88
427.18	106.88
427.402	109.88
427.625	108.88
427.847	101.88
428.069	114.88
428.292	111.88
428.514	118.88
428.736	115.88
428.958	116.88
429.181	115.88
429.403	124.88
429.625	120.88
429.847	98.88
430.069	115.88
430.292	112.88
430.514	116.88
430.736	117.88
430.958	120.88
431.18	107.88
431.402	111.88
431.624	122.88
431.846	101.88
432.068	109.88
432.29	105.88
432.512	112.88
432.734	129.88
432.956	115.88
433.178	100.88
433.4	101.88
433.622	111.88
433.844	113.88
434.066	116.88
434.287	117.88
434.509	108.88
434.731	110.88
434.953	108.88
435.175	123.88
435.397	127.88
435.618	105.88
435.84	93.88
436.062	98.88
436.284	125.88
436.505	115.88
436.727	106.88
436.949	105.88
437.17	122.88
437.392	112.88
437.614	108.88
437.835	101.88
438.057	111.88
438.278	109.88
438.5	111.88
438.721	106.88
438.943	127.88
439.165	113.88
439.386	123.88
439.608	123.88
439.829	120.88
440.05	129.88
440.272	117.88
440.493	122.88
440.715	96.88
440.936	131.88
441.158	127.88
441.379	119.88
441.6	127.88
441.822	106.88
442.043	128.88
442.264	125.88
442.486	122.88
442.707	132.88
442.928	138.88
443.149	119.88
443.371	120.88
443.592	125.88
443.813	131.88
444.034	108.88
444.255	117.88
444.476	122.88
444.698	127.88
444.919	135.88
445.14	221.88
445.361	179.88
445.582	120.88
445.803	119.88
446.024	128.88
446.245	126.88
446.466	137.88
446.687	118.88
446.908	137.88
447.129	123.88
447.35	132.88
447.571	131.88
447.792	113.88
448.013	115.88
448.234	113.88
448.455	118.88
448.675	124.88
448.896	118.88
449.117	103.88
449.338	119.88
449.559	113.88
449.779	106.88
450	99.88
450.221	105.88
450.442	124.88
450.662	106.88
450.883	128.88
451.104	116.88
451.324	106.88
451.545	109.88
451.766	117.88
451.986	107.88
452.207	132.88
452.428	103.88
452.648	108.88
452.869	91.88
453.089	111.88
453.31	104.88
453.53	95.88
453.751	120.88
453.971	106.88
454.192	108.88
454.412	105.88
454.633	121.88
454.853	118.88
455.073	102.88
455.294	90.88
455.514	107.88
455.734	107.88
455.955	109.88
456.175	107.88
456.395	124.88
456.616	111.88
456.836	121.88
457.056	107.88
457.276	104.88
457.497	115.88
457.717	99.88
457.937	84.88
458.157	97.88
458.377	106.88
458.598	115.88
458.818	105.88
459.038	112.88
459.258	89.88
459.478	114.88
459.698	115.88
459.918	125.88
460.138	118.88
460.358	106.88
460.578	107.88
460.798	112.88
461.018	119.88
461.238	114.88
461.458	117.88
461.678	118.88
461.898	109.88
462.118	119.88
462.338	115.88
462.558	125.88
462.777	122.88
462.997	120.88
463.217	116.88
463.437	123.88
463.657	127.88
463.876	124.88
464.096	127.88
464.316	119.88
464.536	119.88
464.755	120.88
464.975	118.88
465.195	131.88
465.414	123.88
465.634	111.88
465.854	120.88
466.073	124.88
466.293	104.88
466.512	123.88
466.732	112.88
466.951	106.88
467.171	99.88
467.391	122.88
467.61	116.88
467.829	124.88
468.049	112.88
468.268	113.88
468.488	122.88
468.707	112.88
468.927	116.88
469.146	129.88
469.365	108.88
469.585	121.88
469.804	131.88
470.023	121.88
470.243	137.88
470.462	109.88
470.681	106.88
470.901	121.88
471.12	129.88
471.339	119.88
471.558	119.88
471.777	132.88
471.997	106.88
472.216	131.88
472.435	123.88
472.654	113.88
472.873	107.88
473.092	111.88
473.311	121.88
473.53	135.88
473.749	120.88
473.968	117.88
474.187	116.88
474.406	122.88
474.625	102.88
474.844	117.88
475.063	122.88
475.282	107.88
475.501	129.88
475.72	109.88
475.939	118.88
476.158	99.88
476.377	121.88
476.596	116.88
476.814	116.88
477.033	115.88
477.252	118.88
477.471	125.88
477.69	107.88
477.908	117.88
478.127	141.88
478.346	145.88
478.564	118.88
478.783	101.88
479.002	129.88
479.22	126.88
479.439	113.88
479.658	135.88
479.876	123.88
480.095	116.88
480.313	129.88
480.532	126.88
480.751	118.88
480.969	124.88
481.188	117.88
481.406	113.88
481.624	104.88
481.843	109.88
482.061	101.88
482.28	108.88
482.498	102.88
482.717	121.88
482.935	124.88
483.153	129.88
483.372	122.88
483.59	139.88
483.808	114.88
484.027	130.88
484.245	114.88
484.463	132.88
484.681	130.88
484.9	131.88
485.118	126.88
485.336	133.88
485.554	126.88
485.772	116.88
485.99	127.88
486.209	117.88
486.427	103.88
486.645	120.88
486.863	125.88
487.081	130.88
487.299	120.88
487.517	127.88
487.735	138.88
487.953	151.88
488.171	144.88
488.389	148.88
488.607	152.88
488.825	130.88
489.043	121.88
489.261	119.88
489.479	124.88
489.696	138.88
489.914	131.88
490.132	127.88
490.35	156.88
490.568	137.88
490.786	153.88
491.003	151.88
491.221	154.88
491.439	152.88
491.657	152.88
491.874	149.88
492.092	163.88
492.31	159.88
492.527	168.88
492.745	155.88
492.963	157.88
493.18	156.88
493.398	153.88
493.615	154.88
493.833	160.88
494.05	144.88
494.268	147.88
494.485	141.88
494.703	154.88
494.92	148.88
495.138	147.88
495.355	162.88
495.573	153.88
495.79	135.88
496.008	152.88
496.225	141.88
496.442	130.88
496.66	157.88
496.877	145.88
497.094	154.88
497.312	150.88
497.529	152.88
497.746	149.88
497.963	147.88
498.181	144.88
498.398	149.88
498.615	148.88
498.832	154.88
499.049	136.88
499.267	148.88
499.484	177.88
499.701	169.88
499.918	180.88
500.135	198.88
500.352	217.88
500.569	230.88
500.786	228.88
501.003	198.88
501.22	194.88
501.437	181.88
501.654	163.88
501.871	169.88
502.088	149.88
502.305	146.88
502.522	132.88
502.739	148.88
502.956	155.88
503.172	144.88
503.389	147.88
503.606	141.88
503.823	131.88
504.04	127.88
504.256	142.88
504.473	121.88
504.69	139.88
504.907	139.88
505.123	127.88
505.34	135.88
505.557	117.88
505.773	132.88
505.99	131.88
506.207	134.88
506.423	134.88
506.64	140.88
506.856	123.88
507.073	125.88
507.289	133.88
507.506	125.88
507.722	128.88
507.939	121.88
508.155	140.88
508.372	130.88
508.588	111.88
508.805	123.88
509.021	111.88
509.238	139.88
509.454	129.88
509.67	131.88
509.887	130.88
510.103	118.88
510.319	96.88
510.536	119.88
510.752	116.88
510.968	114.88
511.184	104.88
511.401	104.88
511.617	107.88
511.833	132.88
512.049	112.88
512.265	117.88
512.481	112.88
512.698	116.88
512.914	111.88
513.13	121.88
513.346	108.88
513.562	119.88
513.778	105.88
513.994	100.88
514.21	115.88
514.426	114.88
514.642	116.88
514.858	115.88
515.074	116.88
515.29	113.88
515.506	123.88
515.721	117.88
515.937	122.88
516.153	123.88
516.369	116.88
516.585	122.88
516.801	118.88
517.016	135.88
517.232	119.88
517.448	120.88
517.664	128.88
517.879	137.88
518.095	137.88
518.311	108.88
518.527	124.88
518.742	125.88
518.958	120.88
519.173	125.88
519.389	125.88
519.605	119.88
519.82	136.88
520.036	123.88
520.251	120.88
520.467	129.88
520.682	105.88
520.898	111.88
521.113	117.88
521.329	101.88
521.544	117.88
521.76	119.88
521.975	119.88
522.19	124.88
522.406	127.88
522.621	115.88
522.836	100.88
523.052	118.88
523.267	106.88
523.482	124.88
523.698	129.88
523.913	130.88
524.128	119.88
524.343	131.88
524.559	129.88
524.774	123.88
524.989	127.88
525.204	139.88
525.419	141.88
525.634	124.88
525.849	118.88
526.064	122.88
526.28	125.88
526.495	116.88
526.71	116.88
526.925	103.88
527.14	107.88
527.355	112.88
527.57	119.88
527.785	113.88
527.999	120.88
528.214	126.88
528.429	120.88
528.644	100.88
528.859	142.88
529.074	129.88
529.289	124.88
529.503	133.88
529.718	127.88
529.933	124.88
530.148	110.88
530.363	115.88
530.577	122.88
530.792	114.88
531.007	97.88
531.221	106.88
531.436	118.88
531.651	122.88
531.865	117.88
532.08	125.88
532.295	123.88
532.509	115.88
532.724	120.88
532.938	108.88
533.153	115.88
533.367	121.88
533.582	120.88
533.796	141.88
534.011	121.88
534.225	124.88
534.44	105.88
534.654	113.88
534.868	111.88
535.083	116.88
535.297	120.88
535.511	121.88
535.726	117.88
535.94	124.88
536.154	116.88
536.369	111.88
536.583	111.88
536.797	104.88
537.011	117.88
537.225	94.88
537.44	99.88
537.654	103.88
537.868	103.88
538.082	87.88
538.296	119.88
538.51	108.88
538.724	96.88
538.938	110.88
539.153	123.88
539.367	123.88
539.581	103.88
539.795	124.88
540.009	117.88
540.222	106.88
540.436	103.88
540.65	123.88
540.864	117.88
541.078	113.88
541.292	130.88
541.506	121.88
541.72	128.88
541.934	132.88
542.147	155.88
542.361	129.88
542.575	125.88
542.789	129.88
543.002	132.88
543.216	137.88
543.43	120.88
543.644	125.88
543.857	133.88
544.071	126.88
544.285	133.88
544.498	162.88
544.712	146.88
544.925	145.88
545.139	147.88
545.352	120.88
545.566	121.88
545.779	133.88
545.993	130.88
546.206	145.88
546.42	148.88
546.633	141.88
546.847	131.88
547.06	136.88
547.274	134.88
547.487	146.88
547.7	139.88
547.914	148.88
548.127	123.88
548.34	126.88
548.554	134.88
548.767	128.88
548.98	130.88
549.193	127.88
549.407	120.88
549.62	133.88
549.833	139.88
550.046	134.88
550.259	119.88
550.473	136.88
550.686	120.88
550.899	126.88
551.112	122.88
551.325	131.88
551.538	136.88
551.751	131.88
551.964	119.88
552.177	124.88
552.39	123.88
552.603	129.88
552.816	136.88
553.029	131.88
553.242	145.88
553.455	133.88
553.667	143.88
553.88	128.88
554.093	140.88
554.306	122.88
554.519	131.88
554.732	119.88
554.944	123.88
555.157	120.88
555.37	141.88
555.583	137.88
555.795	131.88
556.008	112.88
556.221	128.88
556.433	116.88
556.646	120.88
556.859	123.88
557.071	122.88
557.284	134.88
557.496	131.88
557.709	117.88
557.921	115.88
558.134	118.88
558.346	103.88
558.559	123.88
558.771	113.88
558.984	120.88
559.196	123.88
559.409	118.88
559.621	116.88
559.833	105.88
560.046	113.88
560.258	115.88
560.47	118.88
560.683	111.88
560.895	108.88
561.107	114.88
561.32	121.88
561.532	124.88
561.744	116.88
561.956	127.88
562.168	125.88
562.381	118.88
562.593	116.88
562.805	129.88
563.017	120.88
563.229	121.88
563.441	123.88
563.653	101.88
563.865	125.88
564.077	107.88
564.289	117.88
564.501	115.88
564.713	122.88
564.925	123.88
565.137	113.88
565.349	117.88
565.561	113.88
565.773	122.88
565.985	112.88
566.197	109.88
566.408	125.88
566.62	128.88
566.832	134.88
567.044	116.88
567.255	115.88
567.467	122.88
567.679	127.88
567.891	120.88
568.102	123.88
568.314	127.88
568.526	108.88
568.737	125.88
568.949	119.88
569.161	105.88
569.372	94.88
569.584	121.88
569.795	98.88
570.007	101.88
570.218	97.88
570.43	101.88
570.641	107.88
570.853	101.88
571.064	105.88
571.276	117.88
571.487	97.88
571.698	116.88
571.91	99.88
572.121	103.88
572.333	113.88
572.544	106.88
572.755	99.88
572.966	104.88
573.178	109.88
573.389	82.88
573.6	90.88
573.811	93.88
574.023	105.88
574.234	107.88
574.445	92.88
574.656	87.88
574.867	102.88
575.078	95.88
575.289	95.88
575.501	96.88
575.712	91.88
575.923	95.88
576.134	102.88
576.345	86.88
576.556	96.88
576.767	97.88
576.978	85.88
577.188	96.88
577.399	95.88
577.61	81.88
577.821	102.88
578.032	97.88
578.243	92.88
578.454	109.88
578.665	105.88
578.875	96.88
579.086	94.88
579.297	93.88
579.508	96.88
579.718	91.88
579.929	104.88
580.14	72.88
580.35	100.88
580.561	92.88
580.772	88.88
580.982	93.88
581.193	116.88
581.403	97.88
581.614	100.88
581.825	108.88
582.035	89.88
582.246	86.88
582.456	92.88
582.667	89.88
582.877	105.88
583.087	90.88
583.298	95.88
583.508	96.88
583.719	99.88
583.929	96.88
584.139	100.88
584.35	92.88
584.56	100.88
584.77	103.88
584.981	94.88
585.191	95.88
585.401	95.88
585.611	84.88
585.821	77.88
586.032	77.88
586.242	83.88
586.452	82.88
586.662	99.88
586.872	101.88
587.082	105.88
587.292	98.88
587.502	107.88
587.713	90.88
587.923	88.88
588.133	101.88
588.343	85.88
588.553	82.88
588.762	100.88
588.972	88.88
589.182	104.88
589.392	85.88
589.602	95.88
589.812	99.88
590.022	93.88
590.232	100.88
590.441	90.88
590.651	95.88
590.861	85.88
591.071	91.88
591.281	90.88
591.49	83.88
591.7	95.88
591.91	103.88
592.119	85.88
592.329	118.88
592.539	100.88
592.748	111.88
592.958	81.88
593.167	85.88
593.377	92.88
593.587	102.88
593.796	100.88
594.006	88.88
594.215	96.88
594.424	96.88
594.634	93.88
594.843	96.88
595.053	106.88
595.262	97.88
595.472	80.88
595.681	96.88
595.89	110.88
596.1	106.88
596.309	96.88
596.518	96.88
596.727	97.88
596.937	97.88
597.146	99.88
597.355	105.88
597.564	91.88
597.774	107.88
597.983	87.88
598.192	85.88
598.401	93.88
598.61	85.88
598.819	87.88
599.028	95.88
599.237	81.88
599.446	100.88
599.655	90.88
599.864	100.88
600.073	93.88
600.282	98.88
600.491	80.88
600.7	97.88
600.909	88.88
601.118	100.88
601.327	91.88
601.536	90.88
601.745	86.88
601.953	101.88
602.162	92.88
602.371	104.88
602.58	103.88
602.789	95.88
602.997	89.88
603.206	90.88
603.415	110.88
603.623	96.88
603.832	91.88
604.041	106.88
604.249	84.88
604.458	90.88
604.666	97.88
604.875	87.88
605.084	92.88
605.292	91.88
605.501	104.88
605.709	105.88
605.918	97.88
606.126	97.88
606.334	91.88
606.543	81.88
606.751	98.88
606.96	92.88
607.168	92.88
607.376	92.88
607.585	101.88
607.793	104.88
608.001	75.88
608.21	99.88
608.418	92.88
608.626	88.88
608.834	104.88
609.043	85.88
609.251	96.88
609.459	104.88
609.667	98.88
609.875	91.88
610.083	82.88
610.291	99.88
610.499	98.88
610.707	111.88
610.916	99.88
611.124	100.88
611.332	90.88
611.54	106.88
611.748	105.88
611.955	101.88
612.163	102.88
612.371	103.88
612.579	99.88
612.787	104.88
612.995	92.88
613.203	99.88
613.411	92.88
613.618	107.88
613.826	106.88
614.034	104.88
614.242	106.88
614.449	97.88
614.657	124.88
614.865	95.88
615.072	111.88
615.28	93.88
615.488	103.88
615.695	100.88
615.903	105.88
616.111	94.88
616.318	96.88
616.526	95.88
616.733	97.88
616.941	90.88
617.148	87.88
617.356	95.88
617.563	83.88
617.771	98.88
617.978	84.88
618.185	96.88
618.393	90.88
618.6	98.88
618.807	91.88
619.015	88.88
619.222	104.88
619.429	80.88
619.637	88.88
619.844	91.88
620.051	100.88
620.258	89.88
620.466	107.88
620.673	95.88
620.88	85.88
621.087	90.88
621.294	94.88
621.501	89.88
621.708	96.88
621.915	101.88
622.122	105.88
622.329	95.88
622.536	88.88
622.743	84.88
622.95	86.88
623.157	95.88
623.364	87.88
623.571	88.88
623.778	89.88
623.985	96.88
624.192	115.88
624.399	93.88
624.606	106.88
624.812	86.88
625.019	95.88
625.226	101.88
625.433	101.88
625.639	92.88
625.846	85.88
626.053	96.88
626.259	86.88
626.466	83.88
626.673	77.88
626.879	97.88
627.086	84.88
627.293	96.88
627.499	98.88
627.706	97.88
627.912	92.88
628.119	91.88
628.325	105.88
628.532	85.88
628.738	91.88
628.945	90.88
629.151	100.88
629.357	81.88
629.564	89.88
629.77	87.88
629.976	93.88
630.183	92.88
630.389	88.88
630.595	92.88
630.802	84.88
631.008	89.88
631.214	94.88
631.42	86.88
631.627	98.88
631.833	92.88
632.039	94.88
632.245	104.88
632.451	81.88
632.657	106.88
632.863	86.88
633.069	99.88
633.275	95.88
633.481	76.88
633.688	93.88
633.893	92.88
634.099	94.88
634.305	89.88
634.511	91.88
634.717	98.88
634.923	93.88
635.129	79.88
635.335	83.88
635.541	93.88
635.747	90.88
635.952	75.88
636.158	81.88
636.364	77.88
636.57	92.88
636.775	90.88
636.981	108.88
637.187	86.88
637.392	97.88
637.598	94.88
637.804	94.88
638.009	86.88
638.215	84.88
638.421	87.88
638.626	95.88
638.832	88.88
639.037	84.88
639.243	93.88
639.448	82.88
639.654	83.88
639.859	89.88
640.065	100.88
640.27	99.88
640.475	99.88
640.681	99.88
640.886	89.88
641.091	91.88
641.297	99.88
641.502	80.88
641.707	72.88
641.913	86.88
642.118	88.88
642.323	81.88
642.528	90.88
642.733	87.88
642.939	93.88
643.144	90.88
643.349	95.88
643.554	87.88
643.759	90.88
643.964	92.88
644.169	96.88
644.374	91.88
644.579	79.88
644.784	110.88
644.989	101.88
645.194	88.88
645.399	99.88
645.604	68.88
645.809	93.88
646.014	97.88
646.219	85.88
646.423	80.88
646.628	90.88
646.833	90.88
647.038	94.88
647.243	89.88
647.447	89.88
647.652	78.88
647.857	89.88
648.062	81.88
648.266	90.88
648.471	83.88
648.676	95.88
648.88	90.88
649.085	91.88
649.289	84.88
649.494	80.88
649.698	105.88
649.903	82.88
650.107	83.88
650.312	95.88
650.516	91.88
650.721	96.88
650.925	80.88
651.13	96.88
651.334	84.88
651.539	92.88
651.743	83.88
651.947	90.88
652.152	88.88
652.356	96.88
652.56	103.88
652.764	105.88
652.969	93.88
653.173	91.88
653.377	84.88
653.581	77.88
653.785	87.88
653.99	83.88
654.194	92.88
654.398	75.88
654.602	98.88
654.806	94.88
655.01	95.88
655.214	93.88
655.418	76.88
655.622	87.88
655.826	92.88
656.03	89.88
656.234	82.88
656.438	83.88
656.642	90.88
656.846	85.88
657.049	92.88
657.253	75.88
657.457	84.88
657.661	90.88
657.865	99.88
658.068	85.88
658.272	83.88
658.476	93.88
658.68	96.88
658.883	84.88
659.087	93.88
659.291	88.88
659.494	80.88
659.698	89.88
659.901	75.88
660.105	79.88
660.309	83.88
660.512	85.88
660.716	85.88
660.919	79.88
661.123	83.88
661.326	88.88
661.53	91.88
661.733	76.88
661.936	68.88
662.14	68.88
662.343	77.88
662.546	83.88
662.75	85.88
662.953	76.88
663.156	91.88
663.36	81.88
663.563	84.88
663.766	78.88
663.969	74.88
664.173	73.88
664.376	83.88
664.579	76.88
664.782	85.88
664.985	90.88
665.188	78.88
665.391	80.88
665.594	84.88
665.797	81.88
666	76.88
666.203	80.88
666.406	82.88
666.609	81.88
666.812	72.88
667.015	81.88
667.218	83.88
667.421	83.88
667.624	78.88
667.827	89.88
668.03	88.88
668.232	81.88
668.435	78.88
668.638	83.88
668.841	79.88
669.043	94.88
669.246	95.88
669.449	74.88
669.651	85.88
669.854	73.88
670.057	91.88
670.259	72.88
670.462	74.88
670.665	82.88
670.867	80.88
671.07	80.88
671.272	74.88
671.475	78.88
671.677	76.88
671.88	75.88
672.082	81.88
672.284	93.88
672.487	74.88
672.689	87.88
672.892	75.88
