Data from StandardFe(NO3)3.TAE.3%Agarose.FlatLispGreen.Lamp.Energy10.07252019_HRD10591_11-54-54-440.txt Node
Date: Thu Jul 25 11:54:54 EDT 2019
User: cochatt
Spectrometer: HR+D1059
Trigger mode: 1
Integration Time (sec): 1.000000E-1
Scans to average: 1
Electric dark correction enabled: true
Nonlinearity correction enabled: false
Boxcar width: 0
XAxis mode: Wavelengths
Number of Pixels in Spectrum: 2048
>>>>>Begin Spectral Data<<<<<
223.165	-21.62
223.4	-21.62
223.635	-21.62
223.869	-21.62
224.104	-3.62
224.338	-14.62
224.573	-8.62
224.808	-21.62
225.042	-10.62
225.277	-5.62
225.511	-14.62
225.746	15.38
225.98	7.38
226.215	8.38
226.449	5.38
226.683	31.38
226.918	22.38
227.152	32.38
227.387	37.38
227.621	38.38
227.856	41.38
228.09	44.38
228.324	56.38
228.559	48.38
228.793	56.38
229.027	75.38
229.262	58.38
229.496	72.38
229.73	87.38
229.964	68.38
230.199	79.38
230.433	89.38
230.667	77.38
230.901	82.38
231.136	77.38
231.37	72.38
231.604	84.38
231.838	87.38
232.072	79.38
232.306	85.38
232.541	97.38
232.775	82.38
233.009	72.38
233.243	87.38
233.477	100.38
233.711	89.38
233.945	93.38
234.179	91.38
234.413	80.38
234.647	68.38
234.881	80.38
235.115	82.38
235.349	80.38
235.583	85.38
235.817	79.38
236.051	82.38
236.285	77.38
236.519	94.38
236.753	89.38
236.987	84.38
237.221	89.38
237.455	61.38
237.689	73.38
237.922	92.38
238.156	85.38
238.39	91.38
238.624	83.38
238.858	77.38
239.091	85.38
239.325	72.38
239.559	68.38
239.793	82.38
240.027	90.38
240.26	82.38
240.494	87.38
240.728	81.38
240.961	89.38
241.195	78.38
241.429	81.38
241.662	78.38
241.896	72.38
242.13	85.38
242.363	68.38
242.597	80.38
242.83	78.38
243.064	85.38
243.298	86.38
243.531	87.38
243.765	88.38
243.998	83.38
244.232	75.38
244.465	79.38
244.699	80.38
244.932	82.38
245.166	78.38
245.399	79.38
245.633	85.38
245.866	79.38
246.099	90.38
246.333	95.38
246.566	79.38
246.8	77.38
247.033	82.38
247.266	85.38
247.5	65.38
247.733	80.38
247.966	85.38
248.2	85.38
248.433	77.38
248.666	82.38
248.899	70.38
249.133	84.38
249.366	91.38
249.599	74.38
249.832	70.38
250.066	74.38
250.299	80.38
250.532	92.38
250.765	88.38
250.998	82.38
251.231	88.38
251.465	80.38
251.698	78.38
251.931	86.38
252.164	86.38
252.397	78.38
252.63	93.38
252.863	87.38
253.096	80.38
253.329	94.38
253.562	92.38
253.795	92.38
254.028	96.38
254.261	84.38
254.494	90.38
254.727	90.38
254.96	91.38
255.193	86.38
255.426	80.38
255.659	87.38
255.892	80.38
256.124	83.38
256.357	79.38
256.59	80.38
256.823	98.38
257.056	98.38
257.289	78.38
257.521	81.38
257.754	92.38
257.987	92.38
258.22	80.38
258.452	98.38
258.685	81.38
258.918	84.38
259.151	88.38
259.383	88.38
259.616	81.38
259.849	94.38
260.081	96.38
260.314	86.38
260.547	69.38
260.779	90.38
261.012	97.38
261.244	86.38
261.477	91.38
261.71	84.38
261.942	81.38
262.175	78.38
262.407	82.38
262.64	77.38
262.872	79.38
263.105	81.38
263.337	94.38
263.57	82.38
263.802	80.38
264.035	83.38
264.267	78.38
264.499	85.38
264.732	84.38
264.964	79.38
265.197	82.38
265.429	79.38
265.661	79.38
265.894	93.38
266.126	90.38
266.358	87.38
266.591	92.38
266.823	93.38
267.055	87.38
267.287	76.38
267.52	83.38
267.752	83.38
267.984	93.38
268.216	80.38
268.448	82.38
268.681	89.38
268.913	101.38
269.145	95.38
269.377	94.38
269.609	92.38
269.841	73.38
270.073	94.38
270.306	94.38
270.538	96.38
270.77	91.38
271.002	92.38
271.234	83.38
271.466	86.38
271.698	94.38
271.93	77.38
272.162	83.38
272.394	84.38
272.626	93.38
272.858	86.38
273.09	98.38
273.322	82.38
273.553	93.38
273.785	86.38
274.017	78.38
274.249	90.38
274.481	86.38
274.713	79.38
274.945	77.38
275.176	95.38
275.408	85.38
275.64	84.38
275.872	102.38
276.104	78.38
276.335	88.38
276.567	78.38
276.799	89.38
277.031	98.38
277.262	100.38
277.494	93.38
277.726	83.38
277.957	80.38
278.189	87.38
278.421	78.38
278.652	82.38
278.884	82.38
279.115	106.38
279.347	84.38
279.579	92.38
279.81	76.38
280.042	95.38
280.273	103.38
280.505	98.38
280.736	88.38
280.968	96.38
281.199	92.38
281.431	80.38
281.662	86.38
281.894	90.38
282.125	84.38
282.356	97.38
282.588	94.38
282.819	77.38
283.051	77.38
283.282	87.38
283.513	96.38
283.745	80.38
283.976	93.38
284.207	83.38
284.439	80.38
284.67	96.38
284.901	81.38
285.132	89.38
285.364	99.38
285.595	87.38
285.826	81.38
286.057	90.38
286.288	81.38
286.52	84.38
286.751	89.38
286.982	86.38
287.213	90.38
287.444	98.38
287.675	88.38
287.906	92.38
288.138	85.38
288.369	76.38
288.6	79.38
288.831	71.38
289.062	100.38
289.293	97.38
289.524	87.38
289.755	87.38
289.986	81.38
290.217	95.38
290.448	79.38
290.679	103.38
290.91	88.38
291.141	79.38
291.371	87.38
291.602	92.38
291.833	78.38
292.064	92.38
292.295	93.38
292.526	74.38
292.757	86.38
292.987	86.38
293.218	88.38
293.449	93.38
293.68	95.38
293.91	80.38
294.141	89.38
294.372	90.38
294.603	88.38
294.833	87.38
295.064	82.38
295.295	84.38
295.525	94.38
295.756	81.38
295.987	90.38
296.217	86.38
296.448	84.38
296.679	87.38
296.909	102.38
297.14	81.38
297.37	96.38
297.601	101.38
297.831	89.38
298.062	92.38
298.292	94.38
298.523	92.38
298.753	85.38
298.984	82.38
299.214	89.38
299.445	72.38
299.675	108.38
299.905	94.38
300.136	78.38
300.366	88.38
300.597	94.38
300.827	79.38
301.057	97.38
301.288	83.38
301.518	81.38
301.748	95.38
301.979	100.38
302.209	98.38
302.439	86.38
302.669	94.38
302.9	100.38
303.13	88.38
303.36	90.38
303.59	87.38
303.82	92.38
304.051	87.38
304.281	92.38
304.511	97.38
304.741	82.38
304.971	75.38
305.201	94.38
305.431	79.38
305.661	94.38
305.891	71.38
306.121	94.38
306.352	82.38
306.582	87.38
306.812	75.38
307.042	100.38
307.272	86.38
307.502	78.38
307.731	96.38
307.961	85.38
308.191	88.38
308.421	85.38
308.651	76.38
308.881	102.38
309.111	93.38
309.341	95.38
309.571	93.38
309.8	91.38
310.03	83.38
310.26	99.38
310.49	75.38
310.72	88.38
310.949	92.38
311.179	78.38
311.409	74.38
311.639	88.38
311.868	97.38
312.098	88.38
312.328	81.38
312.557	84.38
312.787	96.38
313.017	88.38
313.246	78.38
313.476	82.38
313.706	81.38
313.935	96.38
314.165	88.38
314.394	93.38
314.624	84.38
314.853	103.38
315.083	94.38
315.312	89.38
315.542	80.38
315.771	97.38
316.001	85.38
316.23	95.38
316.46	94.38
316.689	91.38
316.919	88.38
317.148	88.38
317.377	83.38
317.607	77.38
317.836	93.38
318.065	85.38
318.295	88.38
318.524	101.38
318.753	93.38
318.983	76.38
319.212	82.38
319.441	95.38
319.67	101.38
319.9	94.38
320.129	78.38
320.358	83.38
320.587	93.38
320.816	93.38
321.046	86.38
321.275	92.38
321.504	88.38
321.733	93.38
321.962	103.38
322.191	91.38
322.42	91.38
322.649	77.38
322.878	105.38
323.108	85.38
323.337	105.38
323.566	85.38
323.795	87.38
324.024	93.38
324.253	86.38
324.482	88.38
324.71	83.38
324.939	91.38
325.168	97.38
325.397	87.38
325.626	84.38
325.855	82.38
326.084	85.38
326.313	80.38
326.542	80.38
326.77	84.38
326.999	106.38
327.228	82.38
327.457	78.38
327.686	84.38
327.914	97.38
328.143	82.38
328.372	100.38
328.6	88.38
328.829	98.38
329.058	99.38
329.287	91.38
329.515	92.38
329.744	97.38
329.972	92.38
330.201	100.38
330.43	97.38
330.658	100.38
330.887	97.38
331.115	88.38
331.344	80.38
331.572	74.38
331.801	86.38
332.03	90.38
332.258	88.38
332.486	81.38
332.715	86.38
332.943	81.38
333.172	87.38
333.4	99.38
333.629	87.38
333.857	80.38
334.085	93.38
334.314	101.38
334.542	81.38
334.771	85.38
334.999	97.38
335.227	87.38
335.455	84.38
335.684	85.38
335.912	94.38
336.14	92.38
336.369	89.38
336.597	81.38
336.825	88.38
337.053	82.38
337.281	90.38
337.51	79.38
337.738	72.38
337.966	92.38
338.194	81.38
338.422	84.38
338.65	91.38
338.878	88.38
339.106	97.38
339.334	100.38
339.562	88.38
339.79	83.38
340.018	93.38
340.246	94.38
340.474	87.38
340.702	94.38
340.93	77.38
341.158	102.38
341.386	97.38
341.614	83.38
341.842	86.38
342.07	88.38
342.298	108.38
342.526	74.38
342.754	82.38
342.981	110.38
343.209	98.38
343.437	90.38
343.665	86.38
343.893	93.38
344.12	85.38
344.348	91.38
344.576	90.38
344.804	96.38
345.031	87.38
345.259	80.38
345.487	97.38
345.714	90.38
345.942	75.38
346.17	97.38
346.397	90.38
346.625	96.38
346.853	93.38
347.08	97.38
347.308	95.38
347.535	82.38
347.763	104.38
347.99	90.38
348.218	98.38
348.445	109.38
348.673	79.38
348.9	90.38
349.128	95.38
349.355	92.38
349.583	78.38
349.81	89.38
350.037	93.38
350.265	103.38
350.492	92.38
350.72	76.38
350.947	97.38
351.174	101.38
351.402	86.38
351.629	84.38
351.856	76.38
352.083	91.38
352.311	94.38
352.538	100.38
352.765	98.38
352.992	108.38
353.22	87.38
353.447	82.38
353.674	84.38
353.901	91.38
354.128	74.38
354.355	84.38
354.583	92.38
354.81	94.38
355.037	89.38
355.264	93.38
355.491	92.38
355.718	93.38
355.945	86.38
356.172	99.38
356.399	96.38
356.626	79.38
356.853	99.38
357.08	95.38
357.307	94.38
357.534	75.38
357.761	99.38
357.988	102.38
358.215	101.38
358.441	97.38
358.668	89.38
358.895	78.38
359.122	92.38
359.349	76.38
359.576	89.38
359.802	86.38
360.029	79.38
360.256	79.38
360.483	94.38
360.709	90.38
360.936	107.38
361.163	93.38
361.39	90.38
361.616	83.38
361.843	89.38
362.07	96.38
362.296	92.38
362.523	91.38
362.749	87.38
362.976	84.38
363.203	91.38
363.429	83.38
363.656	89.38
363.882	97.38
364.109	82.38
364.335	101.38
364.562	96.38
364.788	92.38
365.015	88.38
365.241	85.38
365.468	100.38
365.694	95.38
365.92	104.38
366.147	99.38
366.373	105.38
366.599	103.38
366.826	96.38
367.052	93.38
367.278	94.38
367.505	88.38
367.731	99.38
367.957	84.38
368.184	84.38
368.41	100.38
368.636	92.38
368.862	99.38
369.089	99.38
369.315	93.38
369.541	82.38
369.767	91.38
369.993	87.38
370.219	86.38
370.445	91.38
370.672	98.38
370.898	87.38
371.124	101.38
371.35	89.38
371.576	88.38
371.802	90.38
372.028	97.38
372.254	89.38
372.48	94.38
372.706	98.38
372.932	93.38
373.158	92.38
373.384	94.38
373.61	86.38
373.835	87.38
374.061	89.38
374.287	89.38
374.513	91.38
374.739	96.38
374.965	100.38
375.191	109.38
375.416	99.38
375.642	79.38
375.868	85.38
376.094	104.38
376.319	97.38
376.545	96.38
376.771	89.38
376.997	97.38
377.222	89.38
377.448	98.38
377.674	92.38
377.899	99.38
378.125	97.38
378.35	112.38
378.576	98.38
378.802	93.38
379.027	98.38
379.253	98.38
379.478	78.38
379.704	90.38
379.929	90.38
380.155	109.38
380.38	100.38
380.606	103.38
380.831	90.38
381.057	109.38
381.282	100.38
381.507	95.38
381.733	98.38
381.958	99.38
382.184	99.38
382.409	102.38
382.634	93.38
382.86	80.38
383.085	93.38
383.31	92.38
383.535	100.38
383.761	86.38
383.986	88.38
384.211	102.38
384.436	106.38
384.662	80.38
384.887	100.38
385.112	103.38
385.337	92.38
385.562	95.38
385.787	97.38
386.013	94.38
386.238	91.38
386.463	98.38
386.688	102.38
386.913	99.38
387.138	116.38
387.363	113.38
387.588	92.38
387.813	109.38
388.038	94.38
388.263	110.38
388.488	111.38
388.713	112.38
388.938	113.38
389.163	95.38
389.387	109.38
389.612	114.38
389.837	96.38
390.062	109.38
390.287	110.38
390.512	96.38
390.736	113.38
390.961	107.38
391.186	97.38
391.411	93.38
391.636	96.38
391.86	105.38
392.085	102.38
392.31	109.38
392.534	90.38
392.759	105.38
392.984	104.38
393.208	111.38
393.433	112.38
393.658	93.38
393.882	101.38
394.107	98.38
394.331	102.38
394.556	103.38
394.78	121.38
395.005	100.38
395.229	97.38
395.454	103.38
395.678	101.38
395.903	109.38
396.127	112.38
396.352	104.38
396.576	117.38
396.801	121.38
397.025	103.38
397.249	95.38
397.474	99.38
397.698	113.38
397.922	111.38
398.147	106.38
398.371	98.38
398.595	93.38
398.82	104.38
399.044	108.38
399.268	121.38
399.492	122.38
399.717	128.38
399.941	109.38
400.165	114.38
400.389	120.38
400.613	110.38
400.837	110.38
401.062	117.38
401.286	91.38
401.51	110.38
401.734	115.38
401.958	109.38
402.182	104.38
402.406	116.38
402.63	107.38
402.854	100.38
403.078	122.38
403.302	128.38
403.526	113.38
403.75	110.38
403.974	111.38
404.198	116.38
404.422	117.38
404.645	119.38
404.869	109.38
405.093	109.38
405.317	98.38
405.541	128.38
405.765	106.38
405.988	126.38
406.212	128.38
406.436	119.38
406.66	121.38
406.883	118.38
407.107	116.38
407.331	135.38
407.555	132.38
407.778	113.38
408.002	123.38
408.226	120.38
408.449	107.38
408.673	113.38
408.896	126.38
409.12	126.38
409.344	110.38
409.567	114.38
409.791	117.38
410.014	122.38
410.238	117.38
410.461	128.38
410.685	118.38
410.908	111.38
411.132	114.38
411.355	110.38
411.578	104.38
411.802	112.38
412.025	107.38
412.249	114.38
412.472	108.38
412.695	117.38
412.919	108.38
413.142	108.38
413.365	123.38
413.589	104.38
413.812	114.38
414.035	120.38
414.258	113.38
414.482	120.38
414.705	116.38
414.928	126.38
415.151	105.38
415.374	105.38
415.597	118.38
415.821	124.38
416.044	128.38
416.267	124.38
416.49	127.38
416.713	126.38
416.936	117.38
417.159	118.38
417.382	98.38
417.605	116.38
417.828	116.38
418.051	108.38
418.274	123.38
418.497	132.38
418.72	112.38
418.943	114.38
419.166	110.38
419.389	112.38
419.611	111.38
419.834	113.38
420.057	105.38
420.28	114.38
420.503	110.38
420.726	128.38
420.948	114.38
421.171	130.38
421.394	118.38
421.617	112.38
421.839	124.38
422.062	125.38
422.285	106.38
422.507	128.38
422.73	137.38
422.953	128.38
423.175	122.38
423.398	133.38
423.621	114.38
423.843	120.38
424.066	118.38
424.288	124.38
424.511	122.38
424.733	112.38
424.956	120.38
425.178	136.38
425.401	107.38
425.623	117.38
425.846	129.38
426.068	127.38
426.291	131.38
426.513	109.38
426.735	128.38
426.958	110.38
427.18	118.38
427.402	122.38
427.625	108.38
427.847	127.38
428.069	123.38
428.292	109.38
428.514	115.38
428.736	130.38
428.958	125.38
429.181	121.38
429.403	113.38
429.625	103.38
429.847	117.38
430.069	120.38
430.292	104.38
430.514	114.38
430.736	124.38
430.958	110.38
431.18	113.38
431.402	107.38
431.624	106.38
431.846	105.38
432.068	112.38
432.29	103.38
432.512	112.38
432.734	120.38
432.956	132.38
433.178	105.38
433.4	128.38
433.622	124.38
433.844	108.38
434.066	132.38
434.287	116.38
434.509	100.38
434.731	98.38
434.953	105.38
435.175	120.38
435.397	121.38
435.618	109.38
435.84	108.38
436.062	122.38
436.284	115.38
436.505	113.38
436.727	115.38
436.949	128.38
437.17	120.38
437.392	110.38
437.614	113.38
437.835	111.38
438.057	128.38
438.278	109.38
438.5	115.38
438.721	119.38
438.943	119.38
439.165	122.38
439.386	141.38
439.608	130.38
439.829	112.38
440.05	124.38
440.272	107.38
440.493	120.38
440.715	119.38
440.936	117.38
441.158	112.38
441.379	122.38
441.6	128.38
441.822	126.38
442.043	121.38
442.264	121.38
442.486	135.38
442.707	122.38
442.928	136.38
443.149	128.38
443.371	127.38
443.592	125.38
443.813	132.38
444.034	123.38
444.255	116.38
444.476	132.38
444.698	126.38
444.919	134.38
445.14	241.38
445.361	193.38
445.582	131.38
445.803	116.38
446.024	136.38
446.245	118.38
446.466	123.38
446.687	133.38
446.908	129.38
447.129	133.38
447.35	112.38
447.571	132.38
447.792	122.38
448.013	128.38
448.234	118.38
448.455	132.38
448.675	126.38
448.896	134.38
449.117	126.38
449.338	141.38
449.559	127.38
449.779	120.38
450	116.38
450.221	117.38
450.442	110.38
450.662	113.38
450.883	130.38
451.104	126.38
451.324	131.38
451.545	123.38
451.766	103.38
451.986	118.38
452.207	118.38
452.428	111.38
452.648	131.38
452.869	128.38
453.089	124.38
453.31	109.38
453.53	106.38
453.751	114.38
453.971	118.38
454.192	117.38
454.412	100.38
454.633	97.38
454.853	112.38
455.073	97.38
455.294	122.38
455.514	112.38
455.734	96.38
455.955	107.38
456.175	130.38
456.395	116.38
456.616	110.38
456.836	112.38
457.056	111.38
457.276	118.38
457.497	118.38
457.717	118.38
457.937	111.38
458.157	112.38
458.377	102.38
458.598	102.38
458.818	111.38
459.038	104.38
459.258	104.38
459.478	125.38
459.698	104.38
459.918	111.38
460.138	109.38
460.358	103.38
460.578	113.38
460.798	122.38
461.018	116.38
461.238	125.38
461.458	128.38
461.678	124.38
461.898	95.38
462.118	132.38
462.338	120.38
462.558	125.38
462.777	134.38
462.997	131.38
463.217	116.38
463.437	129.38
463.657	131.38
463.876	134.38
464.096	130.38
464.316	127.38
464.536	116.38
464.755	123.38
464.975	124.38
465.195	121.38
465.414	132.38
465.634	127.38
465.854	103.38
466.073	118.38
466.293	126.38
466.512	111.38
466.732	111.38
466.951	108.38
467.171	123.38
467.391	130.38
467.61	113.38
467.829	125.38
468.049	108.38
468.268	115.38
468.488	128.38
468.707	130.38
468.927	123.38
469.146	128.38
469.365	141.38
469.585	132.38
469.804	132.38
470.023	131.38
470.243	124.38
470.462	124.38
470.681	126.38
470.901	139.38
471.12	136.38
471.339	130.38
471.558	128.38
471.777	129.38
471.997	132.38
472.216	116.38
472.435	112.38
472.654	113.38
472.873	114.38
473.092	124.38
473.311	118.38
473.53	120.38
473.749	129.38
473.968	127.38
474.187	104.38
474.406	130.38
474.625	128.38
474.844	118.38
475.063	123.38
475.282	120.38
475.501	126.38
475.72	128.38
475.939	117.38
476.158	118.38
476.377	118.38
476.596	134.38
476.814	113.38
477.033	118.38
477.252	128.38
477.471	123.38
477.69	113.38
477.908	125.38
478.127	121.38
478.346	120.38
478.564	138.38
478.783	124.38
479.002	118.38
479.22	128.38
479.439	130.38
479.658	134.38
479.876	127.38
480.095	121.38
480.313	128.38
480.532	122.38
480.751	134.38
480.969	114.38
481.188	131.38
481.406	119.38
481.624	121.38
481.843	120.38
482.061	112.38
482.28	126.38
482.498	134.38
482.717	120.38
482.935	125.38
483.153	128.38
483.372	120.38
483.59	128.38
483.808	136.38
484.027	138.38
484.245	140.38
484.463	127.38
484.681	130.38
484.9	136.38
485.118	130.38
485.336	126.38
485.554	128.38
485.772	120.38
485.99	131.38
486.209	118.38
486.427	125.38
486.645	124.38
486.863	129.38
487.081	129.38
487.299	133.38
487.517	133.38
487.735	136.38
487.953	148.38
488.171	138.38
488.389	139.38
488.607	136.38
488.825	138.38
489.043	134.38
489.261	138.38
489.479	132.38
489.696	146.38
489.914	129.38
490.132	153.38
490.35	134.38
490.568	157.38
490.786	140.38
491.003	165.38
491.221	158.38
491.439	146.38
491.657	145.38
491.874	159.38
492.092	177.38
492.31	184.38
492.527	177.38
492.745	159.38
492.963	162.38
493.18	155.38
493.398	169.38
493.615	163.38
493.833	159.38
494.05	147.38
494.268	137.38
494.485	154.38
494.703	158.38
494.92	156.38
495.138	160.38
495.355	136.38
495.573	149.38
495.79	152.38
496.008	159.38
496.225	142.38
496.442	130.38
496.66	156.38
496.877	146.38
497.094	147.38
497.312	165.38
497.529	158.38
497.746	162.38
497.963	165.38
498.181	128.38
498.398	142.38
498.615	153.38
498.832	154.38
499.049	161.38
499.267	150.38
499.484	179.38
499.701	173.38
499.918	191.38
500.135	175.38
500.352	229.38
500.569	227.38
500.786	220.38
501.003	190.38
501.22	202.38
501.437	177.38
501.654	167.38
501.871	174.38
502.088	166.38
502.305	151.38
502.522	148.38
502.739	151.38
502.956	152.38
503.172	149.38
503.389	147.38
503.606	151.38
503.823	137.38
504.04	140.38
504.256	137.38
504.473	136.38
504.69	144.38
504.907	145.38
505.123	144.38
505.34	128.38
505.557	151.38
505.773	141.38
505.99	146.38
506.207	129.38
506.423	129.38
506.64	132.38
506.856	134.38
507.073	156.38
507.289	127.38
507.506	121.38
507.722	130.38
507.939	128.38
508.155	125.38
508.372	119.38
508.588	120.38
508.805	139.38
509.021	120.38
509.238	113.38
509.454	120.38
509.67	114.38
509.887	118.38
510.103	126.38
510.319	119.38
510.536	127.38
510.752	117.38
510.968	118.38
511.184	123.38
511.401	120.38
511.617	124.38
511.833	105.38
512.049	118.38
512.265	135.38
512.481	125.38
512.698	132.38
512.914	110.38
513.13	113.38
513.346	124.38
513.562	120.38
513.778	124.38
513.994	118.38
514.21	144.38
514.426	120.38
514.642	114.38
514.858	115.38
515.074	130.38
515.29	115.38
515.506	130.38
515.721	119.38
515.937	118.38
516.153	130.38
516.369	137.38
516.585	125.38
516.801	125.38
517.016	122.38
517.232	131.38
517.448	132.38
517.664	147.38
517.879	133.38
518.095	146.38
518.311	141.38
518.527	138.38
518.742	125.38
518.958	124.38
519.173	130.38
519.389	140.38
519.605	123.38
519.82	136.38
520.036	129.38
520.251	124.38
520.467	120.38
520.682	130.38
520.898	110.38
521.113	120.38
521.329	134.38
521.544	110.38
521.76	110.38
521.975	118.38
522.19	120.38
522.406	118.38
522.621	119.38
522.836	121.38
523.052	117.38
523.267	120.38
523.482	124.38
523.698	102.38
523.913	126.38
524.128	113.38
524.343	118.38
524.559	130.38
524.774	122.38
524.989	129.38
525.204	136.38
525.419	117.38
525.634	105.38
525.849	117.38
526.064	112.38
526.28	127.38
526.495	120.38
526.71	106.38
526.925	109.38
527.14	116.38
527.355	117.38
527.57	99.38
527.785	124.38
527.999	113.38
528.214	120.38
528.429	127.38
528.644	135.38
528.859	129.38
529.074	136.38
529.289	135.38
529.503	134.38
529.718	120.38
529.933	109.38
530.148	124.38
530.363	108.38
530.577	122.38
530.792	118.38
531.007	120.38
531.221	130.38
531.436	116.38
531.651	116.38
531.865	109.38
532.08	124.38
532.295	126.38
532.509	133.38
532.724	128.38
532.938	116.38
533.153	115.38
533.367	132.38
533.582	119.38
533.796	139.38
534.011	117.38
534.225	100.38
534.44	112.38
534.654	117.38
534.868	111.38
535.083	126.38
535.297	118.38
535.511	140.38
535.726	120.38
535.94	116.38
536.154	113.38
536.369	110.38
536.583	103.38
536.797	129.38
537.011	114.38
537.225	116.38
537.44	118.38
537.654	126.38
537.868	118.38
538.082	105.38
538.296	122.38
538.51	130.38
538.724	116.38
538.938	126.38
539.153	122.38
539.367	126.38
539.581	117.38
539.795	125.38
540.009	119.38
540.222	114.38
540.436	110.38
540.65	122.38
540.864	123.38
541.078	135.38
541.292	132.38
541.506	150.38
541.72	140.38
541.934	156.38
542.147	144.38
542.361	137.38
542.575	131.38
542.789	133.38
543.002	116.38
543.216	122.38
543.43	143.38
543.644	113.38
543.857	130.38
544.071	125.38
544.285	132.38
544.498	143.38
544.712	140.38
544.925	140.38
545.139	130.38
545.352	140.38
545.566	137.38
545.779	130.38
545.993	128.38
546.206	130.38
546.42	127.38
546.633	136.38
546.847	142.38
547.06	139.38
547.274	150.38
547.487	150.38
547.7	148.38
547.914	146.38
548.127	140.38
548.34	128.38
548.554	134.38
548.767	142.38
548.98	130.38
549.193	129.38
549.407	125.38
549.62	141.38
549.833	131.38
550.046	144.38
550.259	149.38
550.473	138.38
550.686	148.38
550.899	137.38
551.112	128.38
551.325	132.38
551.538	124.38
551.751	104.38
551.964	129.38
552.177	113.38
552.39	128.38
552.603	129.38
552.816	132.38
553.029	138.38
553.242	135.38
553.455	127.38
553.667	141.38
553.88	153.38
554.093	131.38
554.306	139.38
554.519	128.38
554.732	134.38
554.944	126.38
555.157	121.38
555.37	136.38
555.583	110.38
555.795	122.38
556.008	118.38
556.221	113.38
556.433	115.38
556.646	117.38
556.859	129.38
557.071	131.38
557.284	134.38
557.496	131.38
557.709	123.38
557.921	119.38
558.134	114.38
558.346	118.38
558.559	116.38
558.771	126.38
558.984	105.38
559.196	122.38
559.409	104.38
559.621	124.38
559.833	123.38
560.046	123.38
560.258	113.38
560.47	118.38
560.683	110.38
560.895	115.38
561.107	126.38
561.32	113.38
561.532	106.38
561.744	127.38
561.956	120.38
562.168	136.38
562.381	121.38
562.593	120.38
562.805	110.38
563.017	120.38
563.229	115.38
563.441	111.38
563.653	110.38
563.865	107.38
564.077	113.38
564.289	129.38
564.501	116.38
564.713	123.38
564.925	107.38
565.137	108.38
565.349	123.38
565.561	119.38
565.773	127.38
565.985	119.38
566.197	106.38
566.408	127.38
566.62	122.38
566.832	131.38
567.044	131.38
567.255	113.38
567.467	113.38
567.679	120.38
567.891	120.38
568.102	136.38
568.314	125.38
568.526	114.38
568.737	128.38
568.949	104.38
569.161	122.38
569.372	97.38
569.584	103.38
569.795	104.38
570.007	107.38
570.218	104.38
570.43	98.38
570.641	100.38
570.853	108.38
571.064	104.38
571.276	103.38
571.487	111.38
571.698	114.38
571.91	110.38
572.121	119.38
572.333	96.38
572.544	107.38
572.755	101.38
572.966	104.38
573.178	91.38
573.389	102.38
573.6	107.38
573.811	116.38
574.023	96.38
574.234	108.38
574.445	101.38
574.656	91.38
574.867	91.38
575.078	104.38
575.289	96.38
575.501	105.38
575.712	92.38
575.923	105.38
576.134	108.38
576.345	101.38
576.556	110.38
576.767	102.38
576.978	96.38
577.188	96.38
577.399	91.38
577.61	107.38
577.821	95.38
578.032	103.38
578.243	86.38
578.454	88.38
578.665	108.38
578.875	103.38
579.086	105.38
579.297	96.38
579.508	103.38
579.718	94.38
579.929	93.38
580.14	93.38
580.35	88.38
580.561	92.38
580.772	106.38
580.982	101.38
581.193	96.38
581.403	110.38
581.614	106.38
581.825	89.38
582.035	103.38
582.246	96.38
582.456	116.38
582.667	104.38
582.877	95.38
583.087	92.38
583.298	106.38
583.508	93.38
583.719	92.38
583.929	90.38
584.139	87.38
584.35	87.38
584.56	93.38
584.77	106.38
584.981	99.38
585.191	116.38
585.401	107.38
585.611	97.38
585.821	102.38
586.032	95.38
586.242	104.38
586.452	99.38
586.662	97.38
586.872	85.38
587.082	120.38
587.292	102.38
587.502	110.38
587.713	107.38
587.923	91.38
588.133	93.38
588.343	101.38
588.553	95.38
588.762	114.38
588.972	86.38
589.182	81.38
589.392	96.38
589.602	88.38
589.812	91.38
590.022	106.38
590.232	103.38
590.441	109.38
590.651	94.38
590.861	116.38
591.071	89.38
591.281	93.38
591.49	105.38
591.7	111.38
591.91	108.38
592.119	104.38
592.329	108.38
592.539	100.38
592.748	97.38
592.958	98.38
593.167	91.38
593.377	99.38
593.587	98.38
593.796	107.38
594.006	102.38
594.215	112.38
594.424	107.38
594.634	98.38
594.843	102.38
595.053	95.38
595.262	105.38
595.472	98.38
595.681	105.38
595.89	100.38
596.1	102.38
596.309	97.38
596.518	92.38
596.727	90.38
596.937	111.38
597.146	97.38
597.355	92.38
597.564	103.38
597.774	96.38
597.983	89.38
598.192	92.38
598.401	97.38
598.61	91.38
598.819	101.38
599.028	110.38
599.237	102.38
599.446	105.38
599.655	88.38
599.864	91.38
600.073	109.38
600.282	87.38
600.491	88.38
600.7	107.38
600.909	110.38
601.118	107.38
601.327	93.38
601.536	100.38
601.745	101.38
601.953	90.38
602.162	105.38
602.371	108.38
602.58	116.38
602.789	100.38
602.997	104.38
603.206	104.38
603.415	93.38
603.623	105.38
603.832	100.38
604.041	112.38
604.249	94.38
604.458	99.38
604.666	89.38
604.875	110.38
605.084	83.38
605.292	98.38
605.501	117.38
605.709	100.38
605.918	115.38
606.126	88.38
606.334	96.38
606.543	103.38
606.751	98.38
606.96	103.38
607.168	108.38
607.376	102.38
607.585	102.38
607.793	105.38
608.001	111.38
608.21	104.38
608.418	99.38
608.626	83.38
608.834	98.38
609.043	107.38
609.251	108.38
609.459	108.38
609.667	107.38
609.875	102.38
610.083	108.38
610.291	107.38
610.499	112.38
610.707	105.38
610.916	111.38
611.124	110.38
611.332	99.38
611.54	91.38
611.748	110.38
611.955	102.38
612.163	98.38
612.371	100.38
612.579	107.38
612.787	118.38
612.995	106.38
613.203	103.38
613.411	83.38
613.618	109.38
613.826	113.38
614.034	113.38
614.242	108.38
614.449	100.38
614.657	101.38
614.865	102.38
615.072	111.38
615.28	97.38
615.488	104.38
615.695	107.38
615.903	101.38
616.111	109.38
616.318	106.38
616.526	105.38
616.733	94.38
616.941	104.38
617.148	90.38
617.356	99.38
617.563	95.38
617.771	109.38
617.978	113.38
618.185	106.38
618.393	102.38
618.6	105.38
618.807	109.38
619.015	111.38
619.222	103.38
619.429	97.38
619.637	93.38
619.844	110.38
620.051	106.38
620.258	102.38
620.466	100.38
620.673	95.38
620.88	93.38
621.087	96.38
621.294	87.38
621.501	94.38
621.708	102.38
621.915	104.38
622.122	94.38
622.329	92.38
622.536	102.38
622.743	107.38
622.95	96.38
623.157	81.38
623.364	92.38
623.571	90.38
623.778	97.38
623.985	99.38
624.192	96.38
624.399	111.38
624.606	91.38
624.812	89.38
625.019	103.38
625.226	104.38
625.433	113.38
625.639	112.38
625.846	104.38
626.053	86.38
626.259	97.38
626.466	87.38
626.673	95.38
626.879	81.38
627.086	102.38
627.293	110.38
627.499	92.38
627.706	111.38
627.912	100.38
628.119	93.38
628.325	107.38
628.532	76.38
628.738	78.38
628.945	86.38
629.151	88.38
629.357	106.38
629.564	90.38
629.77	83.38
629.976	97.38
630.183	95.38
630.389	94.38
630.595	87.38
630.802	92.38
631.008	94.38
631.214	102.38
631.42	109.38
631.627	97.38
631.833	102.38
632.039	88.38
632.245	90.38
632.451	92.38
632.657	95.38
632.863	97.38
633.069	97.38
633.275	93.38
633.481	98.38
633.688	77.38
633.893	94.38
634.099	103.38
634.305	112.38
634.511	111.38
634.717	104.38
634.923	91.38
635.129	93.38
635.335	86.38
635.541	93.38
635.747	80.38
635.952	80.38
636.158	88.38
636.364	94.38
636.57	93.38
636.775	100.38
636.981	102.38
637.187	82.38
637.392	96.38
637.598	93.38
637.804	95.38
638.009	94.38
638.215	93.38
638.421	104.38
638.626	89.38
638.832	88.38
639.037	90.38
639.243	109.38
639.448	89.38
639.654	95.38
639.859	108.38
640.065	101.38
640.27	110.38
640.475	89.38
640.681	83.38
640.886	83.38
641.091	80.38
641.297	100.38
641.502	94.38
641.707	94.38
641.913	92.38
642.118	86.38
642.323	112.38
642.528	90.38
642.733	88.38
642.939	111.38
643.144	110.38
643.349	103.38
643.554	100.38
643.759	94.38
643.964	91.38
644.169	92.38
644.374	79.38
644.579	86.38
644.784	81.38
644.989	97.38
645.194	100.38
645.399	106.38
645.604	98.38
645.809	90.38
646.014	96.38
646.219	94.38
646.423	108.38
646.628	95.38
646.833	96.38
647.038	95.38
647.243	85.38
647.447	98.38
647.652	95.38
647.857	89.38
648.062	104.38
648.266	91.38
648.471	97.38
648.676	98.38
648.88	106.38
649.085	95.38
649.289	85.38
649.494	99.38
649.698	81.38
649.903	95.38
650.107	89.38
650.312	85.38
650.516	106.38
650.721	100.38
650.925	91.38
651.13	97.38
651.334	94.38
651.539	99.38
651.743	92.38
651.947	88.38
652.152	96.38
652.356	89.38
652.56	101.38
652.764	96.38
652.969	103.38
653.173	88.38
653.377	82.38
653.581	80.38
653.785	89.38
653.99	102.38
654.194	87.38
654.398	87.38
654.602	95.38
654.806	88.38
655.01	95.38
655.214	97.38
655.418	97.38
655.622	93.38
655.826	98.38
656.03	98.38
656.234	90.38
656.438	93.38
656.642	85.38
656.846	101.38
657.049	74.38
657.253	93.38
657.457	92.38
657.661	96.38
657.865	93.38
658.068	81.38
658.272	89.38
658.476	87.38
658.68	95.38
658.883	93.38
659.087	96.38
659.291	99.38
659.494	97.38
659.698	96.38
659.901	92.38
660.105	94.38
660.309	89.38
660.512	107.38
660.716	94.38
660.919	79.38
661.123	81.38
661.326	91.38
661.53	86.38
661.733	86.38
661.936	89.38
662.14	77.38
662.343	94.38
662.546	90.38
662.75	74.38
662.953	93.38
663.156	88.38
663.36	94.38
663.563	93.38
663.766	80.38
663.969	96.38
664.173	91.38
664.376	81.38
664.579	93.38
664.782	88.38
664.985	87.38
665.188	87.38
665.391	86.38
665.594	69.38
665.797	85.38
666	90.38
666.203	83.38
666.406	88.38
666.609	94.38
666.812	79.38
667.015	95.38
667.218	96.38
667.421	96.38
667.624	71.38
667.827	89.38
668.03	88.38
668.232	88.38
668.435	93.38
668.638	89.38
668.841	89.38
669.043	81.38
669.246	84.38
669.449	85.38
669.651	107.38
669.854	89.38
670.057	92.38
670.259	84.38
670.462	82.38
670.665	93.38
670.867	92.38
671.07	82.38
671.272	89.38
671.475	97.38
671.677	95.38
671.88	96.38
672.082	93.38
672.284	82.38
672.487	94.38
672.689	91.38
672.892	94.38
