Data from UnknownNail75mm.07152019.Lampedge.EN10.5scans.P1_HRD10591_15-18-27-732.txt Node
Date: Mon Jul 15 15:18:27 EDT 2019
User: cochatt
Spectrometer: HR+D1059
Trigger mode: 1
Integration Time (sec): 1.000000E-1
Scans to average: 1
Electric dark correction enabled: true
Nonlinearity correction enabled: false
Boxcar width: 0
XAxis mode: Wavelengths
Number of Pixels in Spectrum: 2048
>>>>>Begin Spectral Data<<<<<
223.165	-7.88
223.4	-7.88
223.635	-7.88
223.869	-10.88
224.104	-11.88
224.338	-11.88
224.573	-16.88
224.808	-22.88
225.042	-10.88
225.277	-8.88
225.511	-3.88
225.746	-4.88
225.98	5.12
226.215	9.12
226.449	18.12
226.683	22.12
226.918	26.12
227.152	30.12
227.387	27.12
227.621	51.12
227.856	62.12
228.09	45.12
228.324	58.12
228.559	52.12
228.793	91.12
229.027	183.12
229.262	192.12
229.496	212.12
229.73	219.12
229.964	218.12
230.199	225.12
230.433	242.12
230.667	250.12
230.901	267.12
231.136	264.12
231.37	289.12
231.604	315.12
231.838	289.12
232.072	308.12
232.306	316.12
232.541	326.12
232.775	351.12
233.009	390.12
233.243	436.12
233.477	469.12
233.711	540.12
233.945	555.12
234.179	527.12
234.413	568.12
234.647	635.12
234.881	726.12
235.115	714.12
235.349	682.12
235.583	613.12
235.817	591.12
236.051	639.12
236.285	695.12
236.519	780.12
236.753	764.12
236.987	728.12
237.221	686.12
237.455	734.12
237.689	748.12
237.922	778.12
238.156	814.12
238.39	956.12
238.624	1108.12
238.858	1075.12
239.091	862.12
239.325	870.12
239.559	827.12
239.793	904.12
240.027	1125.12
240.26	1079.12
240.494	1012.12
240.728	1008.12
240.961	1149.12
241.195	1122.12
241.429	1088.12
241.662	1072.12
241.896	933.12
242.13	816.12
242.363	780.12
242.597	776.12
242.83	939.12
243.064	960.12
243.298	997.12
243.531	1085.12
243.765	1140.12
243.998	1083.12
244.232	1026.12
244.465	1025.12
244.699	1005.12
244.932	1139.12
245.166	1134.12
245.399	958.12
245.633	906.12
245.866	941.12
246.099	1071.12
246.333	1257.12
246.566	1326.12
246.8	1340.12
247.033	1299.12
247.266	1196.12
247.5	1228.12
247.733	1197.12
247.966	1135.12
248.2	1179.12
248.433	1336.12
248.666	1462.12
248.899	1426.12
249.133	1477.12
249.366	1686.12
249.599	1811.12
249.832	1677.12
250.066	1411.12
250.299	1440.12
250.532	1451.12
250.765	1431.12
250.998	1302.12
251.231	1200.12
251.465	1302.12
251.698	1395.12
251.931	1300.12
252.164	1355.12
252.397	1558.12
252.63	1758.12
252.863	1952.12
253.096	2087.12
253.329	1956.12
253.562	1861.12
253.795	2072.12
254.028	2258.12
254.261	2354.12
254.494	2163.12
254.727	1926.12
254.96	1876.12
255.193	1966.12
255.426	1921.12
255.659	1413.12
255.892	1257.12
256.124	1276.12
256.357	1508.12
256.59	1885.12
256.823	1831.12
257.056	1574.12
257.289	1429.12
257.521	1389.12
257.754	1452.12
257.987	1570.12
258.22	1522.12
258.452	1470.12
258.685	1717.12
258.918	1953.12
259.151	1889.12
259.383	1746.12
259.616	1943.12
259.849	2100.12
260.081	2523.12
260.314	3050.12
260.547	2283.12
260.779	2036.12
261.012	2358.12
261.244	2400.12
261.477	2515.12
261.71	2482.12
261.942	2016.12
262.175	1912.12
262.407	1842.12
262.64	1944.12
262.872	2306.12
263.105	2616.12
263.337	2696.12
263.57	2495.12
263.802	1590.12
264.035	1275.12
264.267	1125.12
264.499	1042.12
264.732	1049.12
264.964	1052.12
265.197	1047.12
265.429	1029.12
265.661	1056.12
265.894	1064.12
266.126	1095.12
266.358	1159.12
266.591	1406.12
266.823	1748.12
267.055	1667.12
267.287	1307.12
267.52	1138.12
267.752	1113.12
267.984	1135.12
268.216	1156.12
268.448	1274.12
268.681	1407.12
268.913	1420.12
269.145	1328.12
269.377	1419.12
269.609	1552.12
269.841	1430.12
270.073	1344.12
270.306	1348.12
270.538	1494.12
270.77	1706.12
271.002	1710.12
271.234	1705.12
271.466	1889.12
271.698	2076.12
271.93	2067.12
272.162	1989.12
272.394	1937.12
272.626	1900.12
272.858	2045.12
273.09	2246.12
273.322	2034.12
273.553	2061.12
273.785	2392.12
274.017	3075.12
274.249	3842.12
274.481	3970.12
274.713	4172.12
274.945	4797.12
275.176	4897.12
275.408	4240.12
275.64	3880.12
275.872	3801.12
276.104	2960.12
276.335	2084.12
276.567	1937.12
276.799	2105.12
277.031	2462.12
277.262	2249.12
277.494	1787.12
277.726	1618.12
277.957	1696.12
278.189	1853.12
278.421	1897.12
278.652	1879.12
278.884	1724.12
279.115	1549.12
279.347	1419.12
279.579	1369.12
279.81	1380.12
280.042	1344.12
280.273	1324.12
280.505	1273.12
280.736	1272.12
280.968	1257.12
281.199	1217.12
281.431	1281.12
281.662	1275.12
281.894	1194.12
282.125	1156.12
282.356	1218.12
282.588	1268.12
282.819	1314.12
283.051	1461.12
283.282	1580.12
283.513	1687.12
283.745	1656.12
283.976	1665.12
284.207	1777.12
284.439	1817.12
284.67	1718.12
284.901	1697.12
285.132	1636.12
285.364	1657.12
285.595	1629.12
285.826	1732.12
286.057	1835.12
286.288	1672.12
286.52	1424.12
286.751	1394.12
286.982	1421.12
287.213	1537.12
287.444	1660.12
287.675	1708.12
287.906	1530.12
288.138	1421.12
288.369	1421.12
288.6	1455.12
288.831	1386.12
289.062	1328.12
289.293	1315.12
289.524	1288.12
289.755	1356.12
289.986	1340.12
290.217	1272.12
290.448	1208.12
290.679	1193.12
290.91	1175.12
291.141	1162.12
291.371	1216.12
291.602	1190.12
291.833	1178.12
292.064	1230.12
292.295	1273.12
292.526	1311.12
292.757	1365.12
292.987	1395.12
293.218	1336.12
293.449	1270.12
293.68	1290.12
293.91	1302.12
294.141	1361.12
294.372	1365.12
294.603	1478.12
294.833	1701.12
295.064	1817.12
295.295	1679.12
295.525	1541.12
295.756	1496.12
295.987	1367.12
296.217	1402.12
296.448	1434.12
296.679	1539.12
296.909	1710.12
297.14	1674.12
297.37	1672.12
297.601	1569.12
297.831	1364.12
298.062	1416.12
298.292	1592.12
298.523	1958.12
298.753	2173.12
298.984	1906.12
299.214	1491.12
299.445	1420.12
299.675	1493.12
299.905	1510.12
300.136	1544.12
300.366	1756.12
300.597	1715.12
300.827	1605.12
301.057	1512.12
301.288	1475.12
301.518	1402.12
301.748	1418.12
301.979	1596.12
302.209	1905.12
302.439	1977.12
302.669	1626.12
302.9	1541.12
303.13	1394.12
303.36	1422.12
303.59	1370.12
303.82	1340.12
304.051	1419.12
304.281	1394.12
304.511	1375.12
304.741	1417.12
304.971	1430.12
305.201	1374.12
305.431	1299.12
305.661	1388.12
305.891	1519.12
306.121	1575.12
306.352	1500.12
306.582	1392.12
306.812	1370.12
307.042	1368.12
307.272	1338.12
307.502	1318.12
307.731	1405.12
307.961	1493.12
308.191	1381.12
308.421	1352.12
308.651	1316.12
308.881	1260.12
309.111	1231.12
309.341	1260.12
309.571	1254.12
309.8	1260.12
310.03	1352.12
310.26	1442.12
310.49	1380.12
310.72	1281.12
310.949	1237.12
311.179	1221.12
311.409	1226.12
311.639	1285.12
311.868	1267.12
312.098	1295.12
312.328	1255.12
312.557	1292.12
312.787	1285.12
313.017	1243.12
313.246	1312.12
313.476	1312.12
313.706	1359.12
313.935	1356.12
314.165	1354.12
314.394	1322.12
314.624	1339.12
314.853	1312.12
315.083	1322.12
315.312	1416.12
315.542	1533.12
315.771	1533.12
316.001	1437.12
316.23	1380.12
316.46	1425.12
316.689	1444.12
316.919	1501.12
317.148	1461.12
317.377	1395.12
317.607	1421.12
317.836	1491.12
318.065	1570.12
318.295	1572.12
318.524	1500.12
318.753	1459.12
318.983	1490.12
319.212	1480.12
319.441	1597.12
319.67	1630.12
319.9	1626.12
320.129	1537.12
320.358	1466.12
320.587	1473.12
320.816	1488.12
321.046	1592.12
321.275	1767.12
321.504	1937.12
321.733	1851.12
321.962	1704.12
322.191	1708.12
322.42	1716.12
322.649	1779.12
322.878	1875.12
323.108	1872.12
323.337	1688.12
323.566	1595.12
323.795	1520.12
324.024	1514.12
324.253	1500.12
324.482	1468.12
324.71	1485.12
324.939	1534.12
325.168	1513.12
325.397	1441.12
325.626	1452.12
325.855	1516.12
326.084	1525.12
326.313	1499.12
326.542	1425.12
326.77	1441.12
326.999	1437.12
327.228	1442.12
327.457	1434.12
327.686	1401.12
327.914	1418.12
328.143	1423.12
328.372	1455.12
328.6	1474.12
328.829	1530.12
329.058	1494.12
329.287	1477.12
329.515	1440.12
329.744	1393.12
329.972	1395.12
330.201	1444.12
330.43	1468.12
330.658	1525.12
330.887	1622.12
331.115	1529.12
331.344	1457.12
331.572	1451.12
331.801	1468.12
332.03	1488.12
332.258	1493.12
332.486	1530.12
332.715	1589.12
332.943	1578.12
333.172	1612.12
333.4	1636.12
333.629	1668.12
333.857	1702.12
334.085	1699.12
334.314	1667.12
334.542	1683.12
334.771	1638.12
334.999	1610.12
335.227	1601.12
335.455	1592.12
335.684	1565.12
335.912	1578.12
336.14	1516.12
336.369	1541.12
336.597	1544.12
336.825	1560.12
337.053	1581.12
337.281	1618.12
337.51	1537.12
337.738	1514.12
337.966	1490.12
338.194	1532.12
338.422	1490.12
338.65	1473.12
338.878	1452.12
339.106	1458.12
339.334	1508.12
339.562	1541.12
339.79	1525.12
340.018	1506.12
340.246	1512.12
340.474	1540.12
340.702	1633.12
340.93	1688.12
341.158	1644.12
341.386	1594.12
341.614	1630.12
341.842	1559.12
342.07	1553.12
342.298	1557.12
342.526	1616.12
342.754	1688.12
342.981	1754.12
343.209	1643.12
343.437	1614.12
343.665	1725.12
343.893	1880.12
344.12	2157.12
344.348	2268.12
344.576	2058.12
344.804	1812.12
345.031	1666.12
345.259	1598.12
345.487	1590.12
345.714	1515.12
345.942	1509.12
346.17	1498.12
346.397	1538.12
346.625	1568.12
346.853	1586.12
347.08	1548.12
347.308	1500.12
347.535	1607.12
347.763	1716.12
347.99	1678.12
348.218	1516.12
348.445	1482.12
348.673	1478.12
348.9	1531.12
349.128	1628.12
349.355	1655.12
349.583	1592.12
349.81	1550.12
350.037	1535.12
350.265	1401.12
350.492	1364.12
350.72	1381.12
350.947	1397.12
351.174	1417.12
351.402	1432.12
351.629	1486.12
351.856	1444.12
352.083	1466.12
352.311	1557.12
352.538	1602.12
352.765	1657.12
352.992	1630.12
353.22	1487.12
353.447	1534.12
353.674	1529.12
353.901	1631.12
354.128	1625.12
354.355	1646.12
354.583	1581.12
354.81	1517.12
355.037	1544.12
355.264	1554.12
355.491	1708.12
355.718	1844.12
355.945	1835.12
356.172	1739.12
356.399	1727.12
356.626	1992.12
356.853	2245.12
357.08	2420.12
357.307	2551.12
357.534	2025.12
357.761	1794.12
357.988	2020.12
358.215	2521.12
358.441	2870.12
358.668	2391.12
358.895	2242.12
359.122	1785.12
359.349	1562.12
359.576	1505.12
359.802	1490.12
360.029	1449.12
360.256	1527.12
360.483	1720.12
360.709	1984.12
360.936	2220.12
361.163	2189.12
361.39	1796.12
361.616	1678.12
361.843	1902.12
362.07	2213.12
362.296	2105.12
362.523	1769.12
362.749	1614.12
362.976	1640.12
363.203	1930.12
363.429	2100.12
363.656	1738.12
363.882	1574.12
364.109	1579.12
364.335	1565.12
364.562	1580.12
364.788	1806.12
365.015	2048.12
365.241	1876.12
365.468	1612.12
365.694	1412.12
365.92	1346.12
366.147	1322.12
366.373	1324.12
366.599	1327.12
366.826	1328.12
367.052	1353.12
367.278	1420.12
367.505	1400.12
367.731	1438.12
367.957	1610.12
368.184	1646.12
368.41	1636.12
368.636	1672.12
368.862	1706.12
369.089	1679.12
369.315	1508.12
369.541	1458.12
369.767	1484.12
369.993	1450.12
370.219	1452.12
370.445	1585.12
370.672	1739.12
370.898	1850.12
371.124	1861.12
371.35	1628.12
371.576	1502.12
371.802	1639.12
372.028	1966.12
372.254	2284.12
372.48	1939.12
372.706	1822.12
372.932	1874.12
373.158	1938.12
373.384	2244.12
373.61	3016.12
373.835	3100.12
374.061	2321.12
374.287	1942.12
374.513	2175.12
374.739	2627.12
374.965	2817.12
375.191	2714.12
375.416	2076.12
375.642	1791.12
375.868	2030.12
376.094	2264.12
376.319	2001.12
376.545	2143.12
376.771	2249.12
376.997	1970.12
377.222	1507.12
377.448	1352.12
377.674	1346.12
377.899	1314.12
378.125	1326.12
378.35	1336.12
378.576	1420.12
378.802	1516.12
379.027	1581.12
379.253	1525.12
379.478	1566.12
379.704	1684.12
379.929	1768.12
380.155	1811.12
380.38	1566.12
380.606	1553.12
380.831	1634.12
381.057	1612.12
381.282	1600.12
381.507	1907.12
381.733	2295.12
381.958	2442.12
382.184	2576.12
382.409	2730.12
382.634	2594.12
382.86	2805.12
383.085	2339.12
383.31	1896.12
383.535	1950.12
383.761	2028.12
383.986	1923.12
384.211	2269.12
384.436	2211.12
384.662	1798.12
384.887	1746.12
385.112	1767.12
385.337	1803.12
385.562	1685.12
385.787	1890.12
386.013	2084.12
386.238	2178.12
386.463	1834.12
386.688	1708.12
386.913	1652.12
387.138	1644.12
387.363	1710.12
387.588	1775.12
387.813	1779.12
388.038	1934.12
388.263	1730.12
388.488	1677.12
388.713	1914.12
388.938	2035.12
389.163	1824.12
389.387	1615.12
389.612	1633.12
389.837	1691.12
390.062	1708.12
390.287	1762.12
390.512	1748.12
390.736	1659.12
390.961	1618.12
391.186	1486.12
391.411	1536.12
391.636	1588.12
391.86	1692.12
392.085	1812.12
392.31	1846.12
392.534	1810.12
392.759	1722.12
392.984	1822.12
393.208	1812.12
393.433	1735.12
393.658	1686.12
393.882	1584.12
394.107	1528.12
394.331	1554.12
394.556	1527.12
394.78	1574.12
395.005	1591.12
395.229	1625.12
395.454	1640.12
395.678	1713.12
395.903	1742.12
396.127	1617.12
396.352	1601.12
396.576	1571.12
396.801	1696.12
397.025	1937.12
397.249	1913.12
397.474	1712.12
397.698	1630.12
397.922	1662.12
398.147	1590.12
398.371	1643.12
398.595	1705.12
398.82	1726.12
399.044	1806.12
399.268	1937.12
399.492	2155.12
399.717	2387.12
399.941	2456.12
400.165	2292.12
400.389	2060.12
400.613	2040.12
400.837	1983.12
401.062	1811.12
401.286	1749.12
401.51	1720.12
401.734	1729.12
401.958	1761.12
402.182	1751.12
402.406	1805.12
402.63	1807.12
402.854	1834.12
403.078	1864.12
403.302	1980.12
403.526	1992.12
403.75	1953.12
403.974	1917.12
404.198	1938.12
404.422	2161.12
404.645	2540.12
404.869	2844.12
405.093	2181.12
405.317	1916.12
405.541	1831.12
405.765	1830.12
405.988	1867.12
406.212	2050.12
406.436	2390.12
406.66	2575.12
406.883	2182.12
407.107	2281.12
407.331	2625.12
407.555	2521.12
407.778	2227.12
408.002	2092.12
408.226	1982.12
408.449	1971.12
408.673	1958.12
408.896	1884.12
409.12	1824.12
409.344	1834.12
409.567	1779.12
409.791	1839.12
410.014	1777.12
410.238	1774.12
410.461	1803.12
410.685	1781.12
410.908	1776.12
411.132	1800.12
411.355	1745.12
411.578	1743.12
411.802	1788.12
412.025	1892.12
412.249	1885.12
412.472	1822.12
412.695	1754.12
412.919	1772.12
413.142	1792.12
413.365	1891.12
413.589	1940.12
413.812	1791.12
414.035	1763.12
414.258	1752.12
414.482	1965.12
414.705	1990.12
414.928	1806.12
415.151	1732.12
415.374	1738.12
415.597	1792.12
415.821	1743.12
416.044	1720.12
416.267	1704.12
416.49	1664.12
416.713	1633.12
416.936	1667.12
417.159	1677.12
417.382	1651.12
417.605	1711.12
417.828	1748.12
418.051	1759.12
418.274	1818.12
418.497	1826.12
418.72	1807.12
418.943	1890.12
419.166	1910.12
419.389	1982.12
419.611	1958.12
419.834	1951.12
420.057	2075.12
420.28	2050.12
420.503	1912.12
420.726	1712.12
420.948	1658.12
421.171	1692.12
421.394	1711.12
421.617	1714.12
421.839	1706.12
422.062	1781.12
422.285	1766.12
422.507	1753.12
422.73	1812.12
422.953	1854.12
423.175	1835.12
423.398	1788.12
423.621	1873.12
423.843	1908.12
424.066	1852.12
424.288	1800.12
424.511	1771.12
424.733	1761.12
424.956	1812.12
425.178	1907.12
425.401	1952.12
425.623	1726.12
425.846	1676.12
426.068	1787.12
426.291	1928.12
426.513	1745.12
426.735	1638.12
426.958	1705.12
427.18	1920.12
427.402	2264.12
427.625	1848.12
427.847	1606.12
428.069	1476.12
428.292	1604.12
428.514	1591.12
428.736	1535.12
428.958	1506.12
429.181	1450.12
429.403	1510.12
429.625	1611.12
429.847	1533.12
430.069	1540.12
430.292	1566.12
430.514	1545.12
430.736	1699.12
430.958	2134.12
431.18	1902.12
431.402	1584.12
431.624	1548.12
431.846	1534.12
432.068	1528.12
432.29	1581.12
432.512	1726.12
432.734	2156.12
432.956	2033.12
433.178	1610.12
433.4	1510.12
433.622	1539.12
433.844	1558.12
434.066	1545.12
434.287	1467.12
434.509	1560.12
434.731	1509.12
434.953	1621.12
435.175	1642.12
435.397	1648.12
435.618	1574.12
435.84	1549.12
436.062	1523.12
436.284	1478.12
436.505	1445.12
436.727	1428.12
436.949	1488.12
437.17	1502.12
437.392	1451.12
437.614	1458.12
437.835	1460.12
438.057	1521.12
438.278	1688.12
438.5	2294.12
438.721	2248.12
438.943	1629.12
439.165	1498.12
439.386	1486.12
439.608	1473.12
439.829	1504.12
440.05	1487.12
440.272	1504.12
440.493	1811.12
440.715	2124.12
440.936	1774.12
441.158	1594.12
441.379	1591.12
441.6	1805.12
441.822	1881.12
442.043	1675.12
442.264	1626.12
442.486	1600.12
442.707	1627.12
442.928	1616.12
443.149	1668.12
443.371	1614.12
443.592	1612.12
443.813	1633.12
444.034	1656.12
444.255	1731.12
444.476	1846.12
444.698	1857.12
444.919	1908.12
445.14	1944.12
445.361	1773.12
445.582	1726.12
445.803	1614.12
446.024	1594.12
446.245	1588.12
446.466	1536.12
446.687	1497.12
446.908	1575.12
447.129	1517.12
447.35	1486.12
447.571	1422.12
447.792	1446.12
448.013	1464.12
448.234	1412.12
448.455	1411.12
448.675	1429.12
448.896	1445.12
449.117	1390.12
449.338	1421.12
449.559	1448.12
449.779	1454.12
450	1432.12
450.221	1446.12
450.442	1464.12
450.662	1447.12
450.883	1457.12
451.104	1448.12
451.324	1428.12
451.545	1432.12
451.766	1435.12
451.986	1386.12
452.207	1400.12
452.428	1405.12
452.648	1379.12
452.869	1397.12
453.089	1439.12
453.31	1446.12
453.53	1332.12
453.751	1324.12
453.971	1325.12
454.192	1323.12
454.412	1265.12
454.633	1290.12
454.853	1320.12
455.073	1260.12
455.294	1282.12
455.514	1263.12
455.734	1296.12
455.955	1272.12
456.175	1285.12
456.395	1245.12
456.616	1244.12
456.836	1262.12
457.056	1299.12
457.276	1257.12
457.497	1274.12
457.717	1284.12
457.937	1262.12
458.157	1268.12
458.377	1308.12
458.598	1352.12
458.818	1371.12
459.038	1386.12
459.258	1409.12
459.478	1453.12
459.698	1508.12
459.918	1526.12
460.138	1582.12
460.358	1634.12
460.578	1659.12
460.798	1704.12
461.018	1705.12
461.238	1667.12
461.458	1692.12
461.678	1710.12
461.898	1745.12
462.118	1709.12
462.338	1779.12
462.558	1857.12
462.777	1915.12
462.997	2011.12
463.217	2108.12
463.437	2108.12
463.657	2013.12
463.876	1954.12
464.096	1967.12
464.316	1925.12
464.536	1966.12
464.755	1908.12
464.975	1894.12
465.195	1820.12
465.414	1777.12
465.634	1786.12
465.854	1824.12
466.073	1698.12
466.293	1688.12
466.512	1741.12
466.732	1838.12
466.951	1894.12
467.171	1668.12
467.391	1608.12
467.61	1687.12
467.829	1767.12
468.049	1763.12
468.268	1654.12
468.488	1610.12
468.707	1700.12
468.927	1989.12
469.146	2077.12
469.365	1888.12
469.585	1747.12
469.804	1908.12
470.023	1984.12
470.243	1864.12
470.462	1754.12
470.681	1729.12
470.901	1733.12
471.12	1770.12
471.339	1791.12
471.558	1712.12
471.777	1729.12
471.997	1837.12
472.216	1972.12
472.435	1938.12
472.654	1820.12
472.873	1732.12
473.092	1820.12
473.311	1868.12
473.53	1744.12
473.749	1736.12
473.968	1755.12
474.187	1742.12
474.406	1748.12
474.625	1733.12
474.844	1768.12
475.063	1872.12
475.282	1828.12
475.501	1770.12
475.72	1775.12
475.939	1841.12
476.158	1966.12
476.377	2052.12
476.596	2358.12
476.814	2453.12
477.033	2133.12
477.252	1964.12
477.471	1881.12
477.69	1872.12
477.908	2100.12
478.127	2138.12
478.346	1973.12
478.564	1969.12
478.783	1965.12
479.002	2046.12
479.22	2302.12
479.439	2590.12
479.658	2340.12
479.876	2153.12
480.095	2301.12
480.313	2340.12
480.532	2193.12
480.751	2139.12
480.969	2194.12
481.188	2426.12
481.406	2466.12
481.624	2277.12
481.843	2062.12
482.061	2004.12
482.28	2202.12
482.498	2376.12
482.717	2171.12
482.935	2141.12
483.153	1971.12
483.372	1848.12
483.59	1889.12
483.808	1894.12
484.027	1891.12
484.245	1833.12
484.463	1848.12
484.681	1932.12
484.9	2076.12
485.118	2206.12
485.336	2056.12
485.554	1952.12
485.772	2023.12
485.99	2182.12
486.209	2304.12
486.427	2196.12
486.645	2171.12
486.863	2293.12
487.081	2248.12
487.299	2427.12
487.517	2362.12
487.735	2134.12
487.953	2165.12
488.171	2275.12
488.389	2096.12
488.607	2008.12
488.825	2044.12
489.043	2174.12
489.261	2647.12
489.479	2735.12
489.696	2313.12
489.914	2165.12
490.132	2082.12
490.35	2072.12
490.568	2030.12
490.786	1976.12
491.003	1980.12
491.221	2100.12
491.439	2049.12
491.657	2045.12
491.874	2187.12
492.092	2690.12
492.31	2906.12
492.527	2735.12
492.745	2586.12
492.963	2342.12
493.18	2358.12
493.398	2304.12
493.615	2347.12
493.833	2243.12
494.05	2232.12
494.268	2274.12
494.485	2221.12
494.703	2194.12
494.92	2248.12
495.138	2197.12
495.355	2221.12
495.573	2225.12
495.79	2453.12
496.008	3226.12
496.225	2694.12
496.442	2427.12
496.66	2457.12
496.877	2592.12
497.094	2534.12
497.312	2414.12
497.529	2441.12
497.746	2442.12
497.963	2602.12
498.181	2831.12
498.398	3032.12
498.615	3157.12
498.832	3347.12
499.049	3336.12
499.267	3226.12
499.484	3387.12
499.701	3579.12
499.918	3958.12
500.135	4361.12
500.352	4516.12
500.569	4714.12
500.786	4795.12
501.003	4629.12
501.22	4182.12
501.437	3834.12
501.654	3557.12
501.871	3214.12
502.088	3226.12
502.305	2923.12
502.522	2986.12
502.739	2898.12
502.956	2668.12
503.172	2656.12
503.389	2482.12
503.606	2385.12
503.823	2410.12
504.04	2415.12
504.256	2517.12
504.473	2586.12
504.69	2637.12
504.907	2625.12
505.123	2552.12
505.34	2638.12
505.557	2627.12
505.773	2442.12
505.99	2373.12
506.207	2414.12
506.423	2228.12
506.64	2113.12
506.856	2212.12
507.073	2431.12
507.289	2377.12
507.506	2342.12
507.722	2430.12
507.939	2447.12
508.155	2438.12
508.372	2259.12
508.588	2250.12
508.805	2124.12
509.021	2136.12
509.238	2090.12
509.454	2053.12
509.67	2060.12
509.887	2098.12
510.103	2289.12
510.319	2298.12
510.536	2071.12
510.752	1862.12
510.968	1848.12
511.184	1796.12
511.401	1821.12
511.617	1749.12
511.833	1782.12
512.049	1765.12
512.265	1920.12
512.481	1960.12
512.698	2169.12
512.914	2341.12
513.13	2090.12
513.346	1945.12
513.562	2087.12
513.778	2015.12
513.994	2039.12
514.21	2073.12
514.426	2007.12
514.642	1958.12
514.858	1932.12
515.074	1984.12
515.29	2065.12
515.506	2036.12
515.721	2139.12
515.937	2080.12
516.153	2058.12
516.369	2052.12
516.585	2173.12
516.801	2482.12
517.016	2830.12
517.232	2775.12
517.448	2854.12
517.664	2584.12
517.879	2437.12
518.095	2346.12
518.311	2331.12
518.527	2405.12
518.742	2480.12
518.958	2410.12
519.173	2234.12
519.389	2359.12
519.605	2381.12
519.82	2518.12
520.036	2872.12
520.251	2757.12
520.467	2305.12
520.682	2091.12
520.898	1986.12
521.113	2040.12
521.329	2122.12
521.544	2258.12
521.76	2348.12
521.975	2141.12
522.19	2019.12
522.406	2075.12
522.621	2379.12
522.836	2463.12
523.052	2572.12
523.267	2149.12
523.482	2198.12
523.698	2222.12
523.913	2099.12
524.128	1911.12
524.343	1878.12
524.559	1931.12
524.774	1873.12
524.989	1860.12
525.204	1986.12
525.419	2208.12
525.634	1946.12
525.849	2077.12
526.064	2070.12
526.28	2138.12
526.495	2355.12
526.71	2241.12
526.925	2131.12
527.14	2328.12
527.355	2202.12
527.57	1772.12
527.785	1686.12
527.999	1640.12
528.214	1649.12
528.429	1728.12
528.644	1716.12
528.859	1605.12
529.074	1572.12
529.289	1586.12
529.503	1589.12
529.718	1562.12
529.933	1567.12
530.148	1574.12
530.363	1600.12
530.577	1600.12
530.792	1532.12
531.007	1551.12
531.221	1513.12
531.436	1501.12
531.651	1580.12
531.865	1605.12
532.08	1615.12
532.295	1552.12
532.509	1583.12
532.724	1818.12
532.938	1937.12
533.153	2167.12
533.367	1817.12
533.582	1748.12
533.796	1687.12
534.011	1577.12
534.225	1644.12
534.44	1565.12
534.654	1537.12
534.868	1506.12
535.083	1508.12
535.297	1527.12
535.511	1492.12
535.726	1495.12
535.94	1466.12
536.154	1504.12
536.369	1523.12
536.583	1555.12
536.797	1599.12
537.011	1674.12
537.225	1788.12
537.44	1901.12
537.654	1567.12
537.868	1472.12
538.082	1505.12
538.296	1492.12
538.51	1617.12
538.724	1667.12
538.938	1622.12
539.153	1457.12
539.367	1466.12
539.581	1507.12
539.795	1538.12
540.009	1656.12
540.222	1526.12
540.436	1552.12
540.65	1684.12
540.864	1710.12
541.078	1637.12
541.292	1566.12
541.506	1598.12
541.72	1642.12
541.934	1553.12
542.147	1515.12
542.361	1512.12
542.575	1606.12
542.789	1647.12
543.002	1598.12
543.216	1756.12
543.43	1561.12
543.644	1584.12
543.857	1511.12
544.071	1522.12
544.285	1482.12
544.498	1472.12
544.712	1513.12
544.925	1626.12
545.139	1484.12
545.352	1450.12
545.566	1513.12
545.779	1732.12
545.993	1566.12
546.206	1486.12
546.42	1499.12
546.633	1472.12
546.847	1408.12
547.06	1445.12
547.274	1428.12
547.487	1501.12
547.7	1606.12
547.914	1653.12
548.127	1794.12
548.34	1732.12
548.554	1616.12
548.767	1620.12
548.98	1752.12
549.193	1630.12
549.407	1696.12
549.62	1930.12
549.833	1845.12
550.046	1909.12
550.259	1909.12
550.473	1640.12
550.686	1531.12
550.899	1618.12
551.112	1633.12
551.325	1732.12
551.538	1734.12
551.751	1544.12
551.964	1392.12
552.177	1395.12
552.39	1366.12
552.603	1407.12
552.816	1435.12
553.029	1402.12
553.242	1443.12
553.455	1466.12
553.667	1556.12
553.88	1602.12
554.093	1469.12
554.306	1394.12
554.519	1358.12
554.732	1304.12
554.944	1283.12
555.157	1250.12
555.37	1240.12
555.583	1245.12
555.795	1264.12
556.008	1245.12
556.221	1258.12
556.433	1198.12
556.646	1212.12
556.859	1219.12
557.071	1261.12
557.284	1251.12
557.496	1245.12
557.709	1188.12
557.921	1239.12
558.134	1149.12
558.346	1143.12
558.559	1131.12
558.771	1145.12
558.984	1241.12
559.196	1173.12
559.409	1114.12
559.621	1118.12
559.833	1108.12
560.046	1100.12
560.258	1081.12
560.47	1094.12
560.683	1081.12
560.895	1064.12
561.107	1061.12
561.32	1080.12
561.532	1124.12
561.744	1224.12
561.956	1206.12
562.168	1108.12
562.381	1089.12
562.593	1088.12
562.805	1131.12
563.017	1093.12
563.229	1086.12
563.441	1063.12
563.653	1069.12
563.865	1065.12
564.077	1109.12
564.289	1120.12
564.501	1106.12
564.713	1115.12
564.925	1185.12
565.137	1169.12
565.349	1180.12
565.561	1198.12
565.773	1245.12
565.985	1280.12
566.197	1362.12
566.408	1446.12
566.62	1568.12
566.832	1568.12
567.044	1540.12
567.255	1576.12
567.467	1638.12
567.679	1658.12
567.891	1740.12
568.102	1736.12
568.314	1742.12
568.526	1616.12
568.737	1468.12
568.949	1364.12
569.161	1293.12
569.372	1217.12
569.584	1191.12
569.795	1142.12
570.007	1118.12
570.218	1094.12
570.43	1084.12
570.641	1080.12
570.853	1097.12
571.064	1094.12
571.276	1121.12
571.487	1092.12
571.698	1060.12
571.91	1072.12
572.121	1022.12
572.333	974.12
572.544	941.12
572.755	910.12
572.966	926.12
573.178	913.12
573.389	898.12
573.6	879.12
573.811	899.12
574.023	875.12
574.234	880.12
574.445	896.12
574.656	901.12
574.867	922.12
575.078	898.12
575.289	863.12
575.501	858.12
575.712	855.12
575.923	830.12
576.134	844.12
576.345	872.12
576.556	855.12
576.767	844.12
576.978	822.12
577.188	828.12
577.399	835.12
577.61	837.12
577.821	817.12
578.032	777.12
578.243	782.12
578.454	806.12
578.665	773.12
578.875	804.12
579.086	790.12
579.297	810.12
579.508	791.12
579.718	779.12
579.929	789.12
580.14	777.12
580.35	765.12
580.561	763.12
580.772	742.12
580.982	772.12
581.193	750.12
581.403	766.12
581.614	756.12
581.825	734.12
582.035	740.12
582.246	722.12
582.456	732.12
582.667	742.12
582.877	733.12
583.087	721.12
583.298	722.12
583.508	710.12
583.719	712.12
583.929	746.12
584.139	733.12
584.35	739.12
584.56	738.12
584.77	710.12
584.981	722.12
585.191	704.12
585.401	732.12
585.611	726.12
585.821	718.12
586.032	692.12
586.242	737.12
586.452	675.12
586.662	697.12
586.872	719.12
587.082	707.12
587.292	697.12
587.502	700.12
587.713	710.12
587.923	716.12
588.133	709.12
588.343	692.12
588.553	678.12
588.762	688.12
588.972	724.12
589.182	751.12
589.392	739.12
589.602	744.12
589.812	735.12
590.022	738.12
590.232	725.12
590.441	725.12
590.651	704.12
590.861	746.12
591.071	760.12
591.281	730.12
591.49	768.12
591.7	764.12
591.91	765.12
592.119	765.12
592.329	770.12
592.539	792.12
592.748	788.12
592.958	804.12
593.167	832.12
593.377	875.12
593.587	876.12
593.796	865.12
594.006	825.12
594.215	866.12
594.424	856.12
594.634	857.12
594.843	837.12
595.053	788.12
595.262	764.12
595.472	748.12
595.681	731.12
595.89	717.12
596.1	700.12
596.309	693.12
596.518	701.12
596.727	701.12
596.937	693.12
597.146	694.12
597.355	689.12
597.564	655.12
597.774	674.12
597.983	637.12
598.192	641.12
598.401	610.12
598.61	626.12
598.819	637.12
599.028	622.12
599.237	606.12
599.446	610.12
599.655	619.12
599.864	593.12
600.073	584.12
600.282	609.12
600.491	618.12
600.7	609.12
600.909	610.12
601.118	593.12
601.327	606.12
601.536	610.12
601.745	590.12
601.953	586.12
602.162	601.12
602.371	575.12
602.58	579.12
602.789	586.12
602.997	566.12
603.206	577.12
603.415	550.12
603.623	570.12
603.832	580.12
604.041	554.12
604.249	580.12
604.458	602.12
604.666	574.12
604.875	540.12
605.084	548.12
605.292	545.12
605.501	545.12
605.709	521.12
605.918	554.12
606.126	560.12
606.334	542.12
606.543	516.12
606.751	559.12
606.96	541.12
607.168	517.12
607.376	515.12
607.585	538.12
607.793	531.12
608.001	539.12
608.21	541.12
608.418	523.12
608.626	512.12
608.834	501.12
609.043	495.12
609.251	497.12
609.459	520.12
609.667	524.12
609.875	529.12
610.083	519.12
610.291	506.12
610.499	506.12
610.707	528.12
610.916	548.12
611.124	540.12
611.332	522.12
611.54	533.12
611.748	540.12
611.955	523.12
612.163	535.12
612.371	498.12
612.579	498.12
612.787	505.12
612.995	505.12
613.203	505.12
613.411	507.12
613.618	490.12
613.826	525.12
614.034	543.12
614.242	517.12
614.449	512.12
614.657	496.12
614.865	480.12
615.072	482.12
615.28	522.12
615.488	508.12
615.695	539.12
615.903	496.12
616.111	513.12
616.318	501.12
616.526	501.12
616.733	512.12
616.941	500.12
617.148	512.12
617.356	487.12
617.563	489.12
617.771	477.12
617.978	482.12
618.185	504.12
618.393	482.12
618.6	479.12
618.807	484.12
619.015	478.12
619.222	489.12
619.429	500.12
619.637	474.12
619.844	470.12
620.051	466.12
620.258	479.12
620.466	451.12
620.673	463.12
620.88	442.12
621.087	447.12
621.294	468.12
621.501	448.12
621.708	448.12
621.915	431.12
622.122	443.12
622.329	434.12
622.536	453.12
622.743	447.12
622.95	459.12
623.157	454.12
623.364	470.12
623.571	454.12
623.778	458.12
623.985	438.12
624.192	429.12
624.399	416.12
624.606	419.12
624.812	431.12
625.019	404.12
625.226	427.12
625.433	422.12
625.639	434.12
625.846	409.12
626.053	397.12
626.259	415.12
626.466	422.12
626.673	393.12
626.879	418.12
627.086	418.12
627.293	413.12
627.499	407.12
627.706	422.12
627.912	401.12
628.119	401.12
628.325	420.12
628.532	403.12
628.738	386.12
628.945	396.12
629.151	405.12
629.357	410.12
629.564	404.12
629.77	399.12
629.976	401.12
630.183	390.12
630.389	383.12
630.595	396.12
630.802	370.12
631.008	389.12
631.214	393.12
631.42	364.12
631.627	362.12
631.833	382.12
632.039	381.12
632.245	381.12
632.451	369.12
632.657	356.12
632.863	346.12
633.069	377.12
633.275	376.12
633.481	361.12
633.688	364.12
633.893	373.12
634.099	361.12
634.305	352.12
634.511	373.12
634.717	348.12
634.923	362.12
635.129	350.12
635.335	358.12
635.541	363.12
635.747	364.12
635.952	363.12
636.158	346.12
636.364	347.12
636.57	350.12
636.775	344.12
636.981	348.12
637.187	348.12
637.392	341.12
637.598	350.12
637.804	347.12
638.009	349.12
638.215	344.12
638.421	336.12
638.626	339.12
638.832	330.12
639.037	333.12
639.243	343.12
639.448	335.12
639.654	340.12
639.859	336.12
640.065	333.12
640.27	354.12
640.475	326.12
640.681	326.12
640.886	321.12
641.091	320.12
641.297	326.12
641.502	323.12
641.707	331.12
641.913	328.12
642.118	314.12
642.323	325.12
642.528	323.12
642.733	343.12
642.939	304.12
643.144	304.12
643.349	318.12
643.554	324.12
643.759	316.12
643.964	313.12
644.169	312.12
644.374	282.12
644.579	321.12
644.784	292.12
644.989	320.12
645.194	301.12
645.399	314.12
645.604	304.12
645.809	320.12
646.014	324.12
646.219	309.12
646.423	330.12
646.628	316.12
646.833	298.12
647.038	314.12
647.243	306.12
647.447	309.12
647.652	313.12
647.857	318.12
648.062	330.12
648.266	332.12
648.471	350.12
648.676	325.12
648.88	317.12
649.085	341.12
649.289	332.12
649.494	308.12
649.698	330.12
649.903	322.12
650.107	295.12
650.312	300.12
650.516	284.12
650.721	284.12
650.925	274.12
651.13	269.12
651.334	291.12
651.539	269.12
651.743	271.12
651.947	248.12
652.152	244.12
652.356	249.12
652.56	260.12
652.764	258.12
652.969	253.12
653.173	253.12
653.377	251.12
653.581	230.12
653.785	239.12
653.99	235.12
654.194	222.12
654.398	248.12
654.602	234.12
654.806	244.12
655.01	231.12
655.214	227.12
655.418	231.12
655.622	219.12
655.826	229.12
656.03	226.12
656.234	229.12
656.438	232.12
656.642	245.12
656.846	248.12
657.049	224.12
657.253	216.12
657.457	212.12
657.661	186.12
657.865	187.12
658.068	177.12
658.272	170.12
658.476	163.12
658.68	158.12
658.883	142.12
659.087	158.12
659.291	149.12
659.494	143.12
659.698	125.12
659.901	125.12
660.105	125.12
660.309	125.12
660.512	107.12
660.716	146.12
660.919	117.12
661.123	118.12
661.326	110.12
661.53	98.12
661.733	114.12
661.936	103.12
662.14	97.12
662.343	98.12
662.546	98.12
662.75	105.12
662.953	100.12
663.156	100.12
663.36	93.12
663.563	78.12
663.766	89.12
663.969	80.12
664.173	84.12
664.376	88.12
664.579	97.12
664.782	100.12
664.985	89.12
665.188	86.12
665.391	84.12
665.594	78.12
665.797	82.12
666	100.12
666.203	78.12
666.406	84.12
666.609	101.12
666.812	94.12
667.015	102.12
667.218	98.12
667.421	92.12
667.624	102.12
667.827	106.12
668.03	90.12
668.232	87.12
668.435	96.12
668.638	89.12
668.841	91.12
669.043	88.12
669.246	80.12
669.449	83.12
669.651	98.12
669.854	96.12
670.057	84.12
670.259	93.12
670.462	88.12
670.665	94.12
670.867	88.12
671.07	106.12
671.272	89.12
671.475	96.12
671.677	95.12
671.88	95.12
672.082	96.12
672.284	86.12
672.487	74.12
672.689	96.12
672.892	96.12
