Data from UnknownNail75mm.07152019.Lampedge.EN5.5scans.P1_HRD10591_15-16-26-731.txt Node
Date: Mon Jul 15 15:16:26 EDT 2019
User: cochatt
Spectrometer: HR+D1059
Trigger mode: 1
Integration Time (sec): 1.000000E-1
Scans to average: 1
Electric dark correction enabled: true
Nonlinearity correction enabled: false
Boxcar width: 0
XAxis mode: Wavelengths
Number of Pixels in Spectrum: 2048
>>>>>Begin Spectral Data<<<<<
223.165	-19.62
223.4	-19.62
223.635	-19.62
223.869	-16.62
224.104	-30.62
224.338	-8.62
224.573	-18.62
224.808	-16.62
225.042	-9.62
225.277	-0.62
225.511	-2.62
225.746	17.38
225.98	-4.62
226.215	8.38
226.449	17.38
226.683	30.38
226.918	20.38
227.152	34.38
227.387	31.38
227.621	31.38
227.856	36.38
228.09	49.38
228.324	44.38
228.559	60.38
228.793	59.38
229.027	104.38
229.262	102.38
229.496	114.38
229.73	122.38
229.964	132.38
230.199	124.38
230.433	135.38
230.667	134.38
230.901	140.38
231.136	122.38
231.37	165.38
231.604	147.38
231.838	152.38
232.072	154.38
232.306	157.38
232.541	156.38
232.775	168.38
233.009	194.38
233.243	202.38
233.477	231.38
233.711	265.38
233.945	250.38
234.179	234.38
234.413	246.38
234.647	296.38
234.881	340.38
235.115	335.38
235.349	337.38
235.583	266.38
235.817	265.38
236.051	290.38
236.285	330.38
236.519	347.38
236.753	333.38
236.987	331.38
237.221	308.38
237.455	299.38
237.689	324.38
237.922	340.38
238.156	371.38
238.39	413.38
238.624	513.38
238.858	497.38
239.091	382.38
239.325	391.38
239.559	366.38
239.793	407.38
240.027	502.38
240.26	473.38
240.494	459.38
240.728	446.38
240.961	525.38
241.195	508.38
241.429	474.38
241.662	461.38
241.896	397.38
242.13	345.38
242.363	314.38
242.597	340.38
242.83	419.38
243.064	397.38
243.298	432.38
243.531	449.38
243.765	483.38
243.998	461.38
244.232	416.38
244.465	412.38
244.699	411.38
244.932	477.38
245.166	449.38
245.399	399.38
245.633	362.38
245.866	406.38
246.099	419.38
246.333	522.38
246.566	576.38
246.8	549.38
247.033	540.38
247.266	490.38
247.5	502.38
247.733	479.38
247.966	445.38
248.2	467.38
248.433	530.38
248.666	588.38
248.899	594.38
249.133	601.38
249.366	738.38
249.599	753.38
249.832	707.38
250.066	592.38
250.299	582.38
250.532	577.38
250.765	578.38
250.998	510.38
251.231	472.38
251.465	520.38
251.698	574.38
251.931	504.38
252.164	552.38
252.397	618.38
252.63	743.38
252.863	797.38
253.096	856.38
253.329	782.38
253.562	739.38
253.795	816.38
254.028	945.38
254.261	955.38
254.494	853.38
254.727	761.38
254.96	722.38
255.193	756.38
255.426	779.38
255.659	588.38
255.892	486.38
256.124	521.38
256.357	624.38
256.59	761.38
256.823	752.38
257.056	621.38
257.289	566.38
257.521	567.38
257.754	587.38
257.987	615.38
258.22	601.38
258.452	587.38
258.685	680.38
258.918	799.38
259.151	771.38
259.383	704.38
259.616	769.38
259.849	858.38
260.081	1082.38
260.314	1312.38
260.547	959.38
260.779	816.38
261.012	926.38
261.244	993.38
261.477	1019.38
261.71	1008.38
261.942	810.38
262.175	759.38
262.407	708.38
262.64	767.38
262.872	917.38
263.105	1058.38
263.337	1128.38
263.57	1019.38
263.802	633.38
264.035	499.38
264.267	467.38
264.499	420.38
264.732	391.38
264.964	414.38
265.197	416.38
265.429	430.38
265.661	421.38
265.894	396.38
266.126	433.38
266.358	451.38
266.591	535.38
266.823	656.38
267.055	649.38
267.287	512.38
267.52	459.38
267.752	448.38
267.984	442.38
268.216	466.38
268.448	486.38
268.681	537.38
268.913	551.38
269.145	510.38
269.377	554.38
269.609	592.38
269.841	564.38
270.073	509.38
270.306	543.38
270.538	568.38
270.77	612.38
271.002	630.38
271.234	651.38
271.466	704.38
271.698	774.38
271.93	794.38
272.162	747.38
272.394	703.38
272.626	723.38
272.858	743.38
273.09	833.38
273.322	798.38
273.553	780.38
273.785	922.38
274.017	1187.38
274.249	1489.38
274.481	1550.38
274.713	1626.38
274.945	1970.38
275.176	2046.38
275.408	1738.38
275.64	1535.38
275.872	1552.38
276.104	1175.38
276.335	806.38
276.567	741.38
276.799	776.38
277.031	911.38
277.262	833.38
277.494	637.38
277.726	608.38
277.957	646.38
278.189	688.38
278.421	718.38
278.652	715.38
278.884	657.38
279.115	614.38
279.347	582.38
279.579	541.38
279.81	546.38
280.042	525.38
280.273	530.38
280.505	499.38
280.736	515.38
280.968	487.38
281.199	479.38
281.431	471.38
281.662	518.38
281.894	474.38
282.125	464.38
282.356	480.38
282.588	513.38
282.819	535.38
283.051	570.38
283.282	582.38
283.513	628.38
283.745	597.38
283.976	592.38
284.207	625.38
284.439	639.38
284.67	633.38
284.901	642.38
285.132	598.38
285.364	629.38
285.595	594.38
285.826	635.38
286.057	676.38
286.288	609.38
286.52	562.38
286.751	550.38
286.982	558.38
287.213	592.38
287.444	607.38
287.675	626.38
287.906	591.38
288.138	554.38
288.369	547.38
288.6	561.38
288.831	528.38
289.062	538.38
289.293	530.38
289.524	521.38
289.755	538.38
289.986	512.38
290.217	511.38
290.448	498.38
290.679	499.38
290.91	488.38
291.141	478.38
291.371	475.38
291.602	486.38
291.833	506.38
292.064	518.38
292.295	492.38
292.526	520.38
292.757	544.38
292.987	534.38
293.218	518.38
293.449	510.38
293.68	526.38
293.91	547.38
294.141	548.38
294.372	562.38
294.603	576.38
294.833	633.38
295.064	676.38
295.295	638.38
295.525	594.38
295.756	577.38
295.987	545.38
296.217	549.38
296.448	552.38
296.679	598.38
296.909	663.38
297.14	665.38
297.37	647.38
297.601	591.38
297.831	572.38
298.062	541.38
298.292	627.38
298.523	739.38
298.753	796.38
298.984	721.38
299.214	590.38
299.445	586.38
299.675	585.38
299.905	590.38
300.136	595.38
300.366	631.38
300.597	637.38
300.827	596.38
301.057	639.38
301.288	590.38
301.518	574.38
301.748	555.38
301.979	656.38
302.209	746.38
302.439	821.38
302.669	654.38
302.9	612.38
303.13	565.38
303.36	557.38
303.59	550.38
303.82	578.38
304.051	576.38
304.281	578.38
304.511	563.38
304.741	554.38
304.971	596.38
305.201	579.38
305.431	536.38
305.661	548.38
305.891	583.38
306.121	632.38
306.352	576.38
306.582	546.38
306.812	558.38
307.042	560.38
307.272	540.38
307.502	526.38
307.731	544.38
307.961	587.38
308.191	545.38
308.421	549.38
308.651	519.38
308.881	505.38
309.111	501.38
309.341	499.38
309.571	511.38
309.8	500.38
310.03	533.38
310.26	577.38
310.49	547.38
310.72	503.38
310.949	508.38
311.179	523.38
311.409	515.38
311.639	511.38
311.868	530.38
312.098	509.38
312.328	514.38
312.557	509.38
312.787	532.38
313.017	544.38
313.246	507.38
313.476	544.38
313.706	515.38
313.935	536.38
314.165	532.38
314.394	535.38
314.624	546.38
314.853	536.38
315.083	540.38
315.312	553.38
315.542	593.38
315.771	599.38
316.001	554.38
316.23	562.38
316.46	561.38
316.689	572.38
316.919	588.38
317.148	568.38
317.377	558.38
317.607	566.38
317.836	584.38
318.065	604.38
318.295	620.38
318.524	621.38
318.753	591.38
318.983	588.38
319.212	590.38
319.441	602.38
319.67	606.38
319.9	590.38
320.129	586.38
320.358	586.38
320.587	586.38
320.816	591.38
321.046	626.38
321.275	672.38
321.504	662.38
321.733	691.38
321.962	648.38
322.191	662.38
322.42	650.38
322.649	655.38
322.878	676.38
323.108	667.38
323.337	646.38
323.566	610.38
323.795	599.38
324.024	575.38
324.253	584.38
324.482	586.38
324.71	586.38
324.939	611.38
325.168	589.38
325.397	579.38
325.626	581.38
325.855	624.38
326.084	602.38
326.313	603.38
326.542	578.38
326.77	604.38
326.999	571.38
327.228	554.38
327.457	570.38
327.686	568.38
327.914	560.38
328.143	583.38
328.372	586.38
328.6	590.38
328.829	598.38
329.058	603.38
329.287	589.38
329.515	571.38
329.744	564.38
329.972	569.38
330.201	578.38
330.43	589.38
330.658	610.38
330.887	655.38
331.115	595.38
331.344	591.38
331.572	578.38
331.801	600.38
332.03	605.38
332.258	590.38
332.486	615.38
332.715	640.38
332.943	625.38
333.172	673.38
333.4	690.38
333.629	697.38
333.857	714.38
334.085	668.38
334.314	677.38
334.542	672.38
334.771	650.38
334.999	671.38
335.227	650.38
335.455	654.38
335.684	654.38
335.912	644.38
336.14	640.38
336.369	621.38
336.597	628.38
336.825	643.38
337.053	647.38
337.281	652.38
337.51	633.38
337.738	611.38
337.966	608.38
338.194	609.38
338.422	606.38
338.65	601.38
338.878	602.38
339.106	598.38
339.334	626.38
339.562	590.38
339.79	598.38
340.018	585.38
340.246	610.38
340.474	632.38
340.702	644.38
340.93	671.38
341.158	638.38
341.386	620.38
341.614	603.38
341.842	613.38
342.07	616.38
342.298	609.38
342.526	632.38
342.754	666.38
342.981	647.38
343.209	639.38
343.437	651.38
343.665	676.38
343.893	750.38
344.12	858.38
344.348	908.38
344.576	796.38
344.804	703.38
345.031	646.38
345.259	639.38
345.487	619.38
345.714	599.38
345.942	583.38
346.17	609.38
346.397	593.38
346.625	620.38
346.853	626.38
347.08	610.38
347.308	611.38
347.535	650.38
347.763	682.38
347.99	643.38
348.218	562.38
348.445	591.38
348.673	591.38
348.9	612.38
349.128	642.38
349.355	666.38
349.583	622.38
349.81	603.38
350.037	595.38
350.265	579.38
350.492	566.38
350.72	559.38
350.947	544.38
351.174	560.38
351.402	561.38
351.629	602.38
351.856	596.38
352.083	603.38
352.311	621.38
352.538	619.38
352.765	638.38
352.992	616.38
353.22	620.38
353.447	589.38
353.674	629.38
353.901	584.38
354.128	611.38
354.355	631.38
354.583	607.38
354.81	578.38
355.037	586.38
355.264	611.38
355.491	655.38
355.718	688.38
355.945	699.38
356.172	669.38
356.399	668.38
356.626	735.38
356.853	890.38
357.08	929.38
357.307	950.38
357.534	751.38
357.761	696.38
357.988	809.38
358.215	1012.38
358.441	1063.38
358.668	894.38
358.895	803.38
359.122	711.38
359.349	630.38
359.576	606.38
359.802	599.38
360.029	595.38
360.256	588.38
360.483	671.38
360.709	766.38
360.936	854.38
361.163	824.38
361.39	699.38
361.616	663.38
361.843	732.38
362.07	854.38
362.296	803.38
362.523	679.38
362.749	650.38
362.976	630.38
363.203	742.38
363.429	803.38
363.656	679.38
363.882	612.38
364.109	620.38
364.335	612.38
364.562	640.38
364.788	711.38
365.015	776.38
365.241	725.38
365.468	631.38
365.694	558.38
365.92	556.38
366.147	515.38
366.373	534.38
366.599	544.38
366.826	538.38
367.052	537.38
367.278	543.38
367.505	546.38
367.731	572.38
367.957	629.38
368.184	629.38
368.41	620.38
368.636	644.38
368.862	672.38
369.089	644.38
369.315	618.38
369.541	592.38
369.767	591.38
369.993	564.38
370.219	594.38
370.445	635.38
370.672	654.38
370.898	700.38
371.124	726.38
371.35	655.38
371.576	592.38
371.802	636.38
372.028	779.38
372.254	913.38
372.48	798.38
372.706	695.38
372.932	736.38
373.158	767.38
373.384	909.38
373.61	1142.38
373.835	1195.38
374.061	910.38
374.287	744.38
374.513	842.38
374.739	1034.38
374.965	1107.38
375.191	1081.38
375.416	847.38
375.642	741.38
375.868	809.38
376.094	869.38
376.319	765.38
376.545	854.38
376.771	881.38
376.997	770.38
377.222	626.38
377.448	553.38
377.674	569.38
377.899	539.38
378.125	549.38
378.35	543.38
378.576	554.38
378.802	602.38
379.027	634.38
379.253	605.38
379.478	588.38
379.704	697.38
379.929	677.38
380.155	670.38
380.38	634.38
380.606	619.38
380.831	612.38
381.057	623.38
381.282	628.38
381.507	769.38
381.733	895.38
381.958	955.38
382.184	988.38
382.409	1055.38
382.634	1031.38
382.86	1062.38
383.085	912.38
383.31	758.38
383.535	787.38
383.761	794.38
383.986	774.38
384.211	867.38
384.436	848.38
384.662	718.38
384.887	680.38
385.112	714.38
385.337	748.38
385.562	696.38
385.787	763.38
386.013	838.38
386.238	876.38
386.463	726.38
386.688	720.38
386.913	679.38
387.138	647.38
387.363	683.38
387.588	705.38
387.813	723.38
388.038	776.38
388.263	714.38
388.488	705.38
388.713	782.38
388.938	842.38
389.163	717.38
389.387	633.38
389.612	656.38
389.837	681.38
390.062	697.38
390.287	737.38
390.512	691.38
390.736	682.38
390.961	652.38
391.186	632.38
391.411	623.38
391.636	660.38
391.86	686.38
392.085	728.38
392.31	729.38
392.534	723.38
392.759	722.38
392.984	772.38
393.208	804.38
393.433	807.38
393.658	803.38
393.882	678.38
394.107	650.38
394.331	651.38
394.556	628.38
394.78	653.38
395.005	676.38
395.229	655.38
395.454	687.38
395.678	685.38
395.903	706.38
396.127	676.38
396.352	658.38
396.576	679.38
396.801	728.38
397.025	829.38
397.249	798.38
397.474	697.38
397.698	692.38
397.922	679.38
398.147	674.38
398.371	688.38
398.595	694.38
398.82	719.38
399.044	739.38
399.268	790.38
399.492	924.38
399.717	1004.38
399.941	976.38
400.165	918.38
400.389	867.38
400.613	822.38
400.837	776.38
401.062	753.38
401.286	714.38
401.51	737.38
401.734	743.38
401.958	728.38
402.182	723.38
402.406	715.38
402.63	739.38
402.854	748.38
403.078	750.38
403.302	825.38
403.526	860.38
403.75	836.38
403.974	799.38
404.198	835.38
404.422	890.38
404.645	1024.38
404.869	1120.38
405.093	875.38
405.317	791.38
405.541	771.38
405.765	822.38
405.988	782.38
406.212	824.38
406.436	965.38
406.66	1014.38
406.883	904.38
407.107	931.38
407.331	1034.38
407.555	1007.38
407.778	892.38
408.002	826.38
408.226	840.38
408.449	855.38
408.673	822.38
408.896	779.38
409.12	774.38
409.344	763.38
409.567	767.38
409.791	761.38
410.014	765.38
410.238	740.38
410.461	740.38
410.685	748.38
410.908	735.38
411.132	750.38
411.355	730.38
411.578	721.38
411.802	744.38
412.025	778.38
412.249	776.38
412.472	770.38
412.695	748.38
412.919	753.38
413.142	746.38
413.365	772.38
413.589	777.38
413.812	730.38
414.035	715.38
414.258	747.38
414.482	794.38
414.705	813.38
414.928	745.38
415.151	709.38
415.374	700.38
415.597	753.38
415.821	710.38
416.044	732.38
416.267	713.38
416.49	706.38
416.713	690.38
416.936	691.38
417.159	689.38
417.382	711.38
417.605	703.38
417.828	704.38
418.051	694.38
418.274	721.38
418.497	726.38
418.72	727.38
418.943	730.38
419.166	791.38
419.389	832.38
419.611	811.38
419.834	794.38
420.057	853.38
420.28	813.38
420.503	758.38
420.726	733.38
420.948	710.38
421.171	719.38
421.394	702.38
421.617	703.38
421.839	701.38
422.062	731.38
422.285	720.38
422.507	758.38
422.73	776.38
422.953	784.38
423.175	744.38
423.398	743.38
423.621	753.38
423.843	778.38
424.066	774.38
424.288	735.38
424.511	730.38
424.733	740.38
424.956	748.38
425.178	783.38
425.401	800.38
425.623	738.38
425.846	703.38
426.068	722.38
426.291	769.38
426.513	708.38
426.735	693.38
426.958	688.38
427.18	770.38
427.402	864.38
427.625	764.38
427.847	689.38
428.069	652.38
428.292	676.38
428.514	663.38
428.736	648.38
428.958	654.38
429.181	631.38
429.403	633.38
429.625	640.38
429.847	623.38
430.069	639.38
430.292	666.38
430.514	631.38
430.736	694.38
430.958	815.38
431.18	765.38
431.402	677.38
431.624	663.38
431.846	654.38
432.068	627.38
432.29	670.38
432.512	702.38
432.734	846.38
432.956	782.38
433.178	683.38
433.4	649.38
433.622	667.38
433.844	660.38
434.066	618.38
434.287	644.38
434.509	673.38
434.731	674.38
434.953	692.38
435.175	684.38
435.397	707.38
435.618	675.38
435.84	665.38
436.062	658.38
436.284	618.38
436.505	620.38
436.727	602.38
436.949	612.38
437.17	625.38
437.392	611.38
437.614	614.38
437.835	638.38
438.057	632.38
438.278	703.38
438.5	919.38
438.721	888.38
438.943	694.38
439.165	628.38
439.386	606.38
439.608	631.38
439.829	609.38
440.05	628.38
440.272	658.38
440.493	716.38
440.715	860.38
440.936	740.38
441.158	674.38
441.379	679.38
441.6	745.38
441.822	769.38
442.043	725.38
442.264	696.38
442.486	680.38
442.707	687.38
442.928	695.38
443.149	710.38
443.371	697.38
443.592	695.38
443.813	702.38
444.034	706.38
444.255	715.38
444.476	744.38
444.698	774.38
444.919	827.38
445.14	880.38
445.361	778.38
445.582	709.38
445.803	698.38
446.024	653.38
446.245	662.38
446.466	678.38
446.687	632.38
446.908	666.38
447.129	623.38
447.35	634.38
447.571	604.38
447.792	608.38
448.013	585.38
448.234	587.38
448.455	617.38
448.675	594.38
448.896	592.38
449.117	573.38
449.338	587.38
449.559	584.38
449.779	606.38
450	599.38
450.221	590.38
450.442	601.38
450.662	620.38
450.883	635.38
451.104	598.38
451.324	586.38
451.545	612.38
451.766	616.38
451.986	612.38
452.207	585.38
452.428	592.38
452.648	593.38
452.869	590.38
453.089	607.38
453.31	606.38
453.53	573.38
453.751	570.38
453.971	568.38
454.192	553.38
454.412	546.38
454.633	554.38
454.853	548.38
455.073	558.38
455.294	568.38
455.514	522.38
455.734	535.38
455.955	559.38
456.175	548.38
456.395	534.38
456.616	532.38
456.836	534.38
457.056	546.38
457.276	545.38
457.497	553.38
457.717	548.38
457.937	552.38
458.157	563.38
458.377	565.38
458.598	560.38
458.818	586.38
459.038	592.38
459.258	623.38
459.478	615.38
459.698	636.38
459.918	656.38
460.138	664.38
460.358	706.38
460.578	694.38
460.798	720.38
461.018	703.38
461.238	700.38
461.458	745.38
461.678	703.38
461.898	724.38
462.118	726.38
462.338	756.38
462.558	759.38
462.777	794.38
462.997	862.38
463.217	888.38
463.437	898.38
463.657	846.38
463.876	828.38
464.096	786.38
464.316	795.38
464.536	815.38
464.755	797.38
464.975	750.38
465.195	766.38
465.414	722.38
465.634	729.38
465.854	737.38
466.073	707.38
466.293	724.38
466.512	710.38
466.732	763.38
466.951	782.38
467.171	684.38
467.391	682.38
467.61	708.38
467.829	723.38
468.049	731.38
468.268	675.38
468.488	679.38
468.707	698.38
468.927	833.38
469.146	887.38
469.365	788.38
469.585	740.38
469.804	782.38
470.023	860.38
470.243	751.38
470.462	719.38
470.681	731.38
470.901	696.38
471.12	726.38
471.339	731.38
471.558	693.38
471.777	706.38
471.997	758.38
472.216	826.38
472.435	824.38
472.654	757.38
472.873	698.38
473.092	758.38
473.311	755.38
473.53	707.38
473.749	697.38
473.968	694.38
474.187	719.38
474.406	720.38
474.625	699.38
474.844	725.38
475.063	763.38
475.282	735.38
475.501	742.38
475.72	734.38
475.939	749.38
476.158	804.38
476.377	838.38
476.596	1019.38
476.814	1050.38
477.033	904.38
477.252	803.38
477.471	794.38
477.69	762.38
477.908	870.38
478.127	875.38
478.346	797.38
478.564	816.38
478.783	815.38
479.002	818.38
479.22	963.38
479.439	1112.38
479.658	956.38
479.876	894.38
480.095	933.38
480.313	931.38
480.532	918.38
480.751	876.38
480.969	896.38
481.188	1012.38
481.406	1017.38
481.624	953.38
481.843	842.38
482.061	796.38
482.28	882.38
482.498	966.38
482.717	861.38
482.935	885.38
483.153	834.38
483.372	764.38
483.59	764.38
483.808	789.38
484.027	796.38
484.245	775.38
484.463	753.38
484.681	783.38
484.9	822.38
485.118	882.38
485.336	835.38
485.554	798.38
485.772	806.38
485.99	874.38
486.209	923.38
486.427	885.38
486.645	874.38
486.863	895.38
487.081	904.38
487.299	1000.38
487.517	893.38
487.735	844.38
487.953	826.38
488.171	895.38
488.389	842.38
488.607	818.38
488.825	819.38
489.043	845.38
489.261	1018.38
489.479	1051.38
489.696	921.38
489.914	877.38
490.132	808.38
490.35	811.38
490.568	822.38
490.786	798.38
491.003	812.38
491.221	834.38
491.439	812.38
491.657	815.38
491.874	900.38
492.092	1013.38
492.31	1075.38
492.527	1055.38
492.745	990.38
492.963	928.38
493.18	928.38
493.398	943.38
493.615	900.38
493.833	891.38
494.05	872.38
494.268	911.38
494.485	907.38
494.703	911.38
494.92	887.38
495.138	898.38
495.355	894.38
495.573	867.38
495.79	919.38
496.008	1144.38
496.225	1024.38
496.442	976.38
496.66	997.38
496.877	1042.38
497.094	1019.38
497.312	970.38
497.529	992.38
497.746	1008.38
497.963	1070.38
498.181	1141.38
498.398	1218.38
498.615	1261.38
498.832	1381.38
499.049	1426.38
499.267	1314.38
499.484	1326.38
499.701	1436.38
499.918	1586.38
500.135	1767.38
500.352	1859.38
500.569	1901.38
500.786	1986.38
501.003	1864.38
501.22	1698.38
501.437	1542.38
501.654	1418.38
501.871	1315.38
502.088	1283.38
502.305	1158.38
502.522	1213.38
502.739	1170.38
502.956	1091.38
503.172	1040.38
503.389	974.38
503.606	962.38
503.823	980.38
504.04	973.38
504.256	953.38
504.473	1009.38
504.69	1062.38
504.907	1072.38
505.123	1017.38
505.34	1064.38
505.557	1042.38
505.773	979.38
505.99	926.38
506.207	982.38
506.423	899.38
506.64	848.38
506.856	876.38
507.073	968.38
507.289	942.38
507.506	932.38
507.722	989.38
507.939	1003.38
508.155	1014.38
508.372	883.38
508.588	876.38
508.805	840.38
509.021	846.38
509.238	829.38
509.454	797.38
509.67	803.38
509.887	833.38
510.103	903.38
510.319	915.38
510.536	854.38
510.752	748.38
510.968	738.38
511.184	726.38
511.401	721.38
511.617	716.38
511.833	691.38
512.049	716.38
512.265	752.38
512.481	785.38
512.698	869.38
512.914	906.38
513.13	826.38
513.346	791.38
513.562	802.38
513.778	783.38
513.994	760.38
514.21	762.38
514.426	775.38
514.642	764.38
514.858	761.38
515.074	799.38
515.29	829.38
515.506	817.38
515.721	844.38
515.937	821.38
516.153	769.38
516.369	822.38
516.585	842.38
516.801	932.38
517.016	1040.38
517.232	1046.38
517.448	1138.38
517.664	1023.38
517.879	987.38
518.095	938.38
518.311	918.38
518.527	929.38
518.742	977.38
518.958	950.38
519.173	884.38
519.389	904.38
519.605	912.38
519.82	1003.38
520.036	1188.38
520.251	1155.38
520.467	903.38
520.682	836.38
520.898	778.38
521.113	807.38
521.329	859.38
521.544	920.38
521.76	960.38
521.975	826.38
522.19	751.38
522.406	800.38
522.621	946.38
522.836	930.38
523.052	975.38
523.267	810.38
523.482	811.38
523.698	830.38
523.913	825.38
524.128	754.38
524.343	717.38
524.559	746.38
524.774	744.38
524.989	723.38
525.204	768.38
525.419	884.38
525.634	809.38
525.849	829.38
526.064	846.38
526.28	855.38
526.495	979.38
526.71	905.38
526.925	800.38
527.14	883.38
527.355	813.38
527.57	698.38
527.785	661.38
527.999	656.38
528.214	666.38
528.429	689.38
528.644	684.38
528.859	662.38
529.074	643.38
529.289	659.38
529.503	643.38
529.718	634.38
529.933	624.38
530.148	634.38
530.363	639.38
530.577	651.38
530.792	627.38
531.007	650.38
531.221	649.38
531.436	623.38
531.651	652.38
531.865	654.38
532.08	633.38
532.295	620.38
532.509	621.38
532.724	696.38
532.938	739.38
533.153	818.38
533.367	740.38
533.582	705.38
533.796	680.38
534.011	641.38
534.225	634.38
534.44	623.38
534.654	622.38
534.868	631.38
535.083	612.38
535.297	595.38
535.511	595.38
535.726	624.38
535.94	611.38
536.154	586.38
536.369	603.38
536.583	619.38
536.797	646.38
537.011	654.38
537.225	683.38
537.44	702.38
537.654	623.38
537.868	611.38
538.082	592.38
538.296	616.38
538.51	627.38
538.724	627.38
538.938	642.38
539.153	621.38
539.367	628.38
539.581	612.38
539.795	622.38
540.009	631.38
540.222	612.38
540.436	621.38
540.65	656.38
540.864	669.38
541.078	645.38
541.292	600.38
541.506	638.38
541.72	659.38
541.934	630.38
542.147	608.38
542.361	613.38
542.575	669.38
542.789	660.38
543.002	649.38
543.216	698.38
543.43	648.38
543.644	630.38
543.857	614.38
544.071	639.38
544.285	615.38
544.498	624.38
544.712	622.38
544.925	648.38
545.139	609.38
545.352	620.38
545.566	638.38
545.779	706.38
545.993	651.38
546.206	625.38
546.42	654.38
546.633	611.38
546.847	599.38
547.06	612.38
547.274	611.38
547.487	632.38
547.7	679.38
547.914	674.38
548.127	790.38
548.34	738.38
548.554	660.38
548.767	703.38
548.98	741.38
549.193	694.38
549.407	713.38
549.62	858.38
549.833	797.38
550.046	822.38
550.259	810.38
550.473	670.38
550.686	647.38
550.899	700.38
551.112	676.38
551.325	715.38
551.538	761.38
551.751	622.38
551.964	603.38
552.177	579.38
552.39	590.38
552.603	606.38
552.816	594.38
553.029	594.38
553.242	599.38
553.455	627.38
553.667	678.38
553.88	654.38
554.093	601.38
554.306	584.38
554.519	577.38
554.732	556.38
554.944	553.38
555.157	541.38
555.37	515.38
555.583	529.38
555.795	526.38
556.008	546.38
556.221	558.38
556.433	522.38
556.646	516.38
556.859	533.38
557.071	527.38
557.284	522.38
557.496	518.38
557.709	512.38
557.921	498.38
558.134	490.38
558.346	470.38
558.559	478.38
558.771	492.38
558.984	536.38
559.196	490.38
559.409	480.38
559.621	464.38
559.833	463.38
560.046	486.38
560.258	476.38
560.47	468.38
560.683	465.38
560.895	456.38
561.107	469.38
561.32	447.38
561.532	476.38
561.744	534.38
561.956	488.38
562.168	477.38
562.381	460.38
562.593	464.38
562.805	472.38
563.017	474.38
563.229	479.38
563.441	458.38
563.653	482.38
563.865	472.38
564.077	515.38
564.289	491.38
564.501	503.38
564.713	504.38
564.925	486.38
565.137	496.38
565.349	501.38
565.561	527.38
565.773	560.38
565.985	563.38
566.197	577.38
566.408	621.38
566.62	680.38
566.832	662.38
567.044	723.38
567.255	676.38
567.467	713.38
567.679	721.38
567.891	761.38
568.102	783.38
568.314	763.38
568.526	686.38
568.737	638.38
568.949	609.38
569.161	592.38
569.372	538.38
569.584	501.38
569.795	507.38
570.007	484.38
570.218	486.38
570.43	466.38
570.641	485.38
570.853	486.38
571.064	471.38
571.276	471.38
571.487	466.38
571.698	479.38
571.91	469.38
572.121	457.38
572.333	440.38
572.544	415.38
572.755	431.38
572.966	416.38
573.178	425.38
573.389	390.38
573.6	409.38
573.811	386.38
574.023	384.38
574.234	389.38
574.445	407.38
574.656	412.38
574.867	406.38
575.078	406.38
575.289	380.38
575.501	411.38
575.712	377.38
575.923	360.38
576.134	355.38
576.345	378.38
576.556	372.38
576.767	385.38
576.978	373.38
577.188	375.38
577.399	373.38
577.61	362.38
577.821	368.38
578.032	355.38
578.243	350.38
578.454	361.38
578.665	360.38
578.875	353.38
579.086	342.38
579.297	369.38
579.508	372.38
579.718	356.38
579.929	360.38
580.14	358.38
580.35	339.38
580.561	366.38
580.772	367.38
580.982	327.38
581.193	348.38
581.403	344.38
581.614	357.38
581.825	339.38
582.035	346.38
582.246	331.38
582.456	337.38
582.667	345.38
582.877	328.38
583.087	334.38
583.298	331.38
583.508	330.38
583.719	348.38
583.929	346.38
584.139	345.38
584.35	335.38
584.56	347.38
584.77	326.38
584.981	324.38
585.191	354.38
585.401	337.38
585.611	322.38
585.821	327.38
586.032	321.38
586.242	333.38
586.452	330.38
586.662	321.38
586.872	336.38
587.082	324.38
587.292	335.38
587.502	323.38
587.713	344.38
587.923	339.38
588.133	317.38
588.343	336.38
588.553	328.38
588.762	339.38
588.972	320.38
589.182	347.38
589.392	337.38
589.602	346.38
589.812	346.38
590.022	354.38
590.232	338.38
590.441	331.38
590.651	321.38
590.861	340.38
591.071	345.38
591.281	334.38
591.49	341.38
591.7	346.38
591.91	339.38
592.119	354.38
592.329	354.38
592.539	366.38
592.748	391.38
592.958	368.38
593.167	392.38
593.377	390.38
593.587	417.38
593.796	389.38
594.006	403.38
594.215	404.38
594.424	402.38
594.634	384.38
594.843	392.38
595.053	387.38
595.262	367.38
595.472	359.38
595.681	343.38
595.89	340.38
596.1	350.38
596.309	317.38
596.518	318.38
596.727	326.38
596.937	339.38
597.146	314.38
597.355	332.38
597.564	312.38
597.774	315.38
597.983	300.38
598.192	292.38
598.401	306.38
598.61	294.38
598.819	302.38
599.028	298.38
599.237	286.38
599.446	302.38
599.655	284.38
599.864	260.38
600.073	300.38
600.282	283.38
600.491	282.38
600.7	271.38
600.909	278.38
601.118	280.38
601.327	295.38
601.536	279.38
601.745	309.38
601.953	288.38
602.162	281.38
602.371	284.38
602.58	264.38
602.789	286.38
602.997	278.38
603.206	282.38
603.415	279.38
603.623	270.38
603.832	255.38
604.041	266.38
604.249	277.38
604.458	299.38
604.666	265.38
604.875	256.38
605.084	249.38
605.292	255.38
605.501	266.38
605.709	275.38
605.918	276.38
606.126	263.38
606.334	263.38
606.543	263.38
606.751	268.38
606.96	272.38
607.168	278.38
607.376	260.38
607.585	269.38
607.793	269.38
608.001	257.38
608.21	256.38
608.418	258.38
608.626	253.38
608.834	258.38
609.043	270.38
609.251	255.38
609.459	240.38
609.667	258.38
609.875	255.38
610.083	233.38
610.291	229.38
610.499	245.38
610.707	277.38
610.916	241.38
611.124	264.38
611.332	257.38
611.54	290.38
611.748	271.38
611.955	282.38
612.163	267.38
612.371	259.38
612.579	246.38
612.787	251.38
612.995	252.38
613.203	264.38
613.411	253.38
613.618	265.38
613.826	256.38
614.034	264.38
614.242	261.38
614.449	251.38
614.657	234.38
614.865	232.38
615.072	259.38
615.28	246.38
615.488	243.38
615.695	255.38
615.903	237.38
616.111	258.38
616.318	239.38
616.526	250.38
616.733	243.38
616.941	238.38
617.148	235.38
617.356	249.38
617.563	248.38
617.771	229.38
617.978	244.38
618.185	246.38
618.393	242.38
618.6	229.38
618.807	231.38
619.015	239.38
619.222	229.38
619.429	242.38
619.637	256.38
619.844	237.38
620.051	235.38
620.258	223.38
620.466	242.38
620.673	224.38
620.88	228.38
621.087	225.38
621.294	223.38
621.501	233.38
621.708	231.38
621.915	243.38
622.122	227.38
622.329	250.38
622.536	216.38
622.743	209.38
622.95	210.38
623.157	209.38
623.364	241.38
623.571	237.38
623.778	202.38
623.985	222.38
624.192	234.38
624.399	231.38
624.606	231.38
624.812	216.38
625.019	227.38
625.226	232.38
625.433	222.38
625.639	210.38
625.846	202.38
626.053	217.38
626.259	205.38
626.466	210.38
626.673	226.38
626.879	206.38
627.086	224.38
627.293	213.38
627.499	199.38
627.706	200.38
627.912	205.38
628.119	206.38
628.325	217.38
628.532	226.38
628.738	216.38
628.945	220.38
629.151	207.38
629.357	211.38
629.564	211.38
629.77	193.38
629.976	188.38
630.183	210.38
630.389	198.38
630.595	201.38
630.802	220.38
631.008	204.38
631.214	205.38
631.42	198.38
631.627	195.38
631.833	196.38
632.039	200.38
632.245	204.38
632.451	189.38
632.657	196.38
632.863	184.38
633.069	203.38
633.275	204.38
633.481	199.38
633.688	194.38
633.893	184.38
634.099	192.38
634.305	200.38
634.511	194.38
634.717	183.38
634.923	201.38
635.129	187.38
635.335	170.38
635.541	183.38
635.747	189.38
635.952	193.38
636.158	201.38
636.364	176.38
636.57	184.38
636.775	179.38
636.981	198.38
637.187	168.38
637.392	186.38
637.598	184.38
637.804	194.38
638.009	198.38
638.215	183.38
638.421	202.38
638.626	194.38
638.832	193.38
639.037	184.38
639.243	190.38
639.448	176.38
639.654	170.38
639.859	160.38
640.065	164.38
640.27	182.38
640.475	168.38
640.681	175.38
640.886	176.38
641.091	178.38
641.297	184.38
641.502	180.38
641.707	188.38
641.913	184.38
642.118	169.38
642.323	174.38
642.528	176.38
642.733	171.38
642.939	185.38
643.144	183.38
643.349	172.38
643.554	168.38
643.759	175.38
643.964	172.38
644.169	179.38
644.374	182.38
644.579	180.38
644.784	174.38
644.989	168.38
645.194	188.38
645.399	169.38
645.604	157.38
645.809	174.38
646.014	172.38
646.219	185.38
646.423	165.38
646.628	163.38
646.833	181.38
647.038	182.38
647.243	169.38
647.447	159.38
647.652	166.38
647.857	170.38
648.062	168.38
648.266	173.38
648.471	183.38
648.676	167.38
648.88	172.38
649.085	179.38
649.289	182.38
649.494	176.38
649.698	180.38
649.903	180.38
650.107	172.38
650.312	178.38
650.516	159.38
650.721	160.38
650.925	157.38
651.13	143.38
651.334	150.38
651.539	158.38
651.743	167.38
651.947	142.38
652.152	154.38
652.356	156.38
652.56	142.38
652.764	146.38
652.969	142.38
653.173	152.38
653.377	160.38
653.581	140.38
653.785	140.38
653.99	142.38
654.194	155.38
654.398	142.38
654.602	139.38
654.806	150.38
655.01	128.38
655.214	126.38
655.418	139.38
655.622	130.38
655.826	144.38
656.03	144.38
656.234	139.38
656.438	140.38
656.642	152.38
656.846	131.38
657.049	134.38
657.253	116.38
657.457	124.38
657.661	107.38
657.865	113.38
658.068	118.38
658.272	118.38
658.476	100.38
658.68	96.38
658.883	117.38
659.087	101.38
659.291	115.38
659.494	106.38
659.698	116.38
659.901	109.38
660.105	88.38
660.309	84.38
660.512	99.38
660.716	101.38
660.919	99.38
661.123	91.38
661.326	98.38
661.53	76.38
661.733	107.38
661.936	92.38
662.14	86.38
662.343	76.38
662.546	82.38
662.75	85.38
662.953	88.38
663.156	89.38
663.36	94.38
663.563	88.38
663.766	92.38
663.969	87.38
664.173	99.38
664.376	82.38
664.579	78.38
664.782	84.38
664.985	92.38
665.188	87.38
665.391	92.38
665.594	92.38
665.797	79.38
666	97.38
666.203	74.38
666.406	68.38
666.609	87.38
666.812	89.38
667.015	88.38
667.218	83.38
667.421	85.38
667.624	87.38
667.827	94.38
668.03	81.38
668.232	74.38
668.435	90.38
668.638	67.38
668.841	84.38
669.043	90.38
669.246	99.38
669.449	83.38
669.651	90.38
669.854	90.38
670.057	91.38
670.259	70.38
670.462	90.38
670.665	101.38
670.867	80.38
671.07	95.38
671.272	82.38
671.475	92.38
671.677	66.38
671.88	65.38
672.082	92.38
672.284	90.38
672.487	75.38
672.689	95.38
672.892	84.38
