Data from UnknownNail75mm.07152019.QswitchSynchronous.EN10.5scans.P1_HRD10591_15-21-18-324.txt Node
Date: Mon Jul 15 15:21:18 EDT 2019
User: cochatt
Spectrometer: HR+D1059
Trigger mode: 1
Integration Time (sec): 1.000000E-1
Scans to average: 1
Electric dark correction enabled: true
Nonlinearity correction enabled: false
Boxcar width: 0
XAxis mode: Wavelengths
Number of Pixels in Spectrum: 2048
>>>>>Begin Spectral Data<<<<<
223.165	-7.94
223.4	-7.94
223.635	-7.94
223.869	-16.94
224.104	-19.94
224.338	-27.94
224.573	-16.94
224.808	-6.94
225.042	-8.94
225.277	-5.94
225.511	5.06
225.746	7.06
225.98	1.06
226.215	11.06
226.449	11.06
226.683	13.06
226.918	25.06
227.152	38.06
227.387	21.06
227.621	30.06
227.856	34.06
228.09	61.06
228.324	52.06
228.559	67.06
228.793	72.06
229.027	62.06
229.262	70.06
229.496	59.06
229.73	66.06
229.964	80.06
230.199	79.06
230.433	82.06
230.667	87.06
230.901	75.06
231.136	83.06
231.37	79.06
231.604	94.06
231.838	86.06
232.072	97.06
232.306	80.06
232.541	90.06
232.775	81.06
233.009	82.06
233.243	79.06
233.477	81.06
233.711	99.06
233.945	90.06
234.179	78.06
234.413	91.06
234.647	98.06
234.881	93.06
235.115	91.06
235.349	102.06
235.583	90.06
235.817	91.06
236.051	91.06
236.285	88.06
236.519	88.06
236.753	97.06
236.987	77.06
237.221	76.06
237.455	79.06
237.689	73.06
237.922	102.06
238.156	92.06
238.39	101.06
238.624	79.06
238.858	88.06
239.091	85.06
239.325	79.06
239.559	92.06
239.793	93.06
240.027	89.06
240.26	83.06
240.494	85.06
240.728	86.06
240.961	90.06
241.195	98.06
241.429	98.06
241.662	96.06
241.896	88.06
242.13	83.06
242.363	90.06
242.597	88.06
242.83	79.06
243.064	90.06
243.298	70.06
243.531	85.06
243.765	92.06
243.998	86.06
244.232	94.06
244.465	92.06
244.699	82.06
244.932	83.06
245.166	78.06
245.399	92.06
245.633	98.06
245.866	95.06
246.099	84.06
246.333	89.06
246.566	86.06
246.8	105.06
247.033	89.06
247.266	91.06
247.5	104.06
247.733	106.06
247.966	94.06
248.2	83.06
248.433	101.06
248.666	97.06
248.899	126.06
249.133	122.06
249.366	125.06
249.599	126.06
249.832	118.06
250.066	105.06
250.299	109.06
250.532	101.06
250.765	100.06
250.998	100.06
251.231	83.06
251.465	85.06
251.698	95.06
251.931	97.06
252.164	99.06
252.397	107.06
252.63	103.06
252.863	132.06
253.096	131.06
253.329	120.06
253.562	124.06
253.795	108.06
254.028	125.06
254.261	124.06
254.494	118.06
254.727	109.06
254.96	132.06
255.193	126.06
255.426	113.06
255.659	93.06
255.892	99.06
256.124	93.06
256.357	99.06
256.59	110.06
256.823	107.06
257.056	100.06
257.289	94.06
257.521	96.06
257.754	94.06
257.987	110.06
258.22	112.06
258.452	102.06
258.685	116.06
258.918	116.06
259.151	107.06
259.383	112.06
259.616	92.06
259.849	118.06
260.081	129.06
260.314	145.06
260.547	120.06
260.779	109.06
261.012	104.06
261.244	115.06
261.477	116.06
261.71	119.06
261.942	127.06
262.175	121.06
262.407	117.06
262.64	124.06
262.872	112.06
263.105	140.06
263.337	136.06
263.57	139.06
263.802	112.06
264.035	94.06
264.267	88.06
264.499	93.06
264.732	84.06
264.964	89.06
265.197	83.06
265.429	90.06
265.661	99.06
265.894	99.06
266.126	74.06
266.358	90.06
266.591	95.06
266.823	91.06
267.055	96.06
267.287	90.06
267.52	94.06
267.752	83.06
267.984	88.06
268.216	113.06
268.448	103.06
268.681	88.06
268.913	98.06
269.145	89.06
269.377	93.06
269.609	97.06
269.841	93.06
270.073	109.06
270.306	108.06
270.538	108.06
270.77	94.06
271.002	107.06
271.234	103.06
271.466	114.06
271.698	120.06
271.93	141.06
272.162	150.06
272.394	141.06
272.626	140.06
272.858	137.06
273.09	116.06
273.322	122.06
273.553	125.06
273.785	152.06
274.017	158.06
274.249	173.06
274.481	180.06
274.713	196.06
274.945	211.06
275.176	218.06
275.408	175.06
275.64	152.06
275.872	163.06
276.104	122.06
276.335	116.06
276.567	118.06
276.799	99.06
277.031	119.06
277.262	123.06
277.494	108.06
277.726	95.06
277.957	100.06
278.189	108.06
278.421	110.06
278.652	94.06
278.884	100.06
279.115	130.06
279.347	112.06
279.579	97.06
279.81	103.06
280.042	112.06
280.273	107.06
280.505	97.06
280.736	114.06
280.968	112.06
281.199	107.06
281.431	92.06
281.662	94.06
281.894	83.06
282.125	89.06
282.356	101.06
282.588	101.06
282.819	116.06
283.051	103.06
283.282	106.06
283.513	122.06
283.745	100.06
283.976	107.06
284.207	103.06
284.439	102.06
284.67	106.06
284.901	100.06
285.132	104.06
285.364	108.06
285.595	108.06
285.826	98.06
286.057	95.06
286.288	102.06
286.52	93.06
286.751	99.06
286.982	91.06
287.213	100.06
287.444	101.06
287.675	102.06
287.906	99.06
288.138	94.06
288.369	89.06
288.6	106.06
288.831	91.06
289.062	101.06
289.293	98.06
289.524	89.06
289.755	110.06
289.986	85.06
290.217	91.06
290.448	94.06
290.679	87.06
290.91	96.06
291.141	90.06
291.371	104.06
291.602	95.06
291.833	116.06
292.064	102.06
292.295	119.06
292.526	115.06
292.757	112.06
292.987	119.06
293.218	107.06
293.449	111.06
293.68	118.06
293.91	136.06
294.141	123.06
294.372	123.06
294.603	129.06
294.833	128.06
295.064	134.06
295.295	127.06
295.525	131.06
295.756	125.06
295.987	125.06
296.217	124.06
296.448	140.06
296.679	145.06
296.909	185.06
297.14	170.06
297.37	165.06
297.601	167.06
297.831	149.06
298.062	127.06
298.292	127.06
298.523	160.06
298.753	158.06
298.984	123.06
299.214	107.06
299.445	132.06
299.675	163.06
299.905	146.06
300.136	160.06
300.366	181.06
300.597	156.06
300.827	150.06
301.057	158.06
301.288	147.06
301.518	132.06
301.748	152.06
301.979	192.06
302.209	287.06
302.439	273.06
302.669	186.06
302.9	166.06
303.13	141.06
303.36	122.06
303.59	123.06
303.82	130.06
304.051	148.06
304.281	147.06
304.511	138.06
304.741	138.06
304.971	136.06
305.201	144.06
305.431	105.06
305.661	117.06
305.891	158.06
306.121	182.06
306.352	150.06
306.582	110.06
306.812	122.06
307.042	146.06
307.272	129.06
307.502	101.06
307.731	106.06
307.961	127.06
308.191	98.06
308.421	119.06
308.651	114.06
308.881	99.06
309.111	117.06
309.341	113.06
309.571	130.06
309.8	124.06
310.03	152.06
310.26	182.06
310.49	136.06
310.72	99.06
310.949	103.06
311.179	101.06
311.409	102.06
311.639	93.06
311.868	92.06
312.098	92.06
312.328	89.06
312.557	104.06
312.787	103.06
313.017	103.06
313.246	101.06
313.476	106.06
313.706	93.06
313.935	101.06
314.165	108.06
314.394	96.06
314.624	95.06
314.853	98.06
315.083	105.06
315.312	98.06
315.542	90.06
315.771	100.06
316.001	118.06
316.23	107.06
316.46	109.06
316.689	97.06
316.919	108.06
317.148	85.06
317.377	97.06
317.607	101.06
317.836	99.06
318.065	104.06
318.295	124.06
318.524	110.06
318.753	111.06
318.983	114.06
319.212	108.06
319.441	138.06
319.67	137.06
319.9	148.06
320.129	148.06
320.358	143.06
320.587	113.06
320.816	140.06
321.046	130.06
321.275	158.06
321.504	166.06
321.733	167.06
321.962	156.06
322.191	152.06
322.42	163.06
322.649	171.06
322.878	167.06
323.108	160.06
323.337	148.06
323.566	113.06
323.795	116.06
324.024	103.06
324.253	123.06
324.482	117.06
324.71	132.06
324.939	139.06
325.168	123.06
325.397	108.06
325.626	102.06
325.855	100.06
326.084	100.06
326.313	121.06
326.542	108.06
326.77	106.06
326.999	108.06
327.228	101.06
327.457	102.06
327.686	95.06
327.914	111.06
328.143	110.06
328.372	108.06
328.6	113.06
328.829	126.06
329.058	123.06
329.287	120.06
329.515	100.06
329.744	114.06
329.972	106.06
330.201	85.06
330.43	83.06
330.658	118.06
330.887	147.06
331.115	121.06
331.344	99.06
331.572	92.06
331.801	92.06
332.03	88.06
332.258	85.06
332.486	85.06
332.715	81.06
332.943	105.06
333.172	84.06
333.4	100.06
333.629	92.06
333.857	102.06
334.085	101.06
334.314	86.06
334.542	95.06
334.771	110.06
334.999	96.06
335.227	91.06
335.455	91.06
335.684	110.06
335.912	98.06
336.14	93.06
336.369	91.06
336.597	96.06
336.825	96.06
337.053	95.06
337.281	106.06
337.51	108.06
337.738	103.06
337.966	113.06
338.194	107.06
338.422	103.06
338.65	103.06
338.878	96.06
339.106	103.06
339.334	115.06
339.562	126.06
339.79	105.06
340.018	120.06
340.246	124.06
340.474	122.06
340.702	130.06
340.93	149.06
341.158	151.06
341.386	126.06
341.614	124.06
341.842	121.06
342.07	124.06
342.298	119.06
342.526	141.06
342.754	165.06
342.981	149.06
343.209	124.06
343.437	115.06
343.665	121.06
343.893	160.06
344.12	269.06
344.348	341.06
344.576	234.06
344.804	163.06
345.031	126.06
345.259	118.06
345.487	120.06
345.714	102.06
345.942	116.06
346.17	114.06
346.397	125.06
346.625	142.06
346.853	162.06
347.08	127.06
347.308	136.06
347.535	164.06
347.763	211.06
347.99	174.06
348.218	119.06
348.445	109.06
348.673	109.06
348.9	111.06
349.128	147.06
349.355	152.06
349.583	138.06
349.81	160.06
350.037	158.06
350.265	108.06
350.492	104.06
350.72	104.06
350.947	126.06
351.174	121.06
351.402	145.06
351.629	146.06
351.856	125.06
352.083	128.06
352.311	163.06
352.538	185.06
352.765	204.06
352.992	196.06
353.22	126.06
353.447	129.06
353.674	127.06
353.901	151.06
354.128	156.06
354.355	170.06
354.583	152.06
354.81	125.06
355.037	114.06
355.264	122.06
355.491	178.06
355.718	216.06
355.945	229.06
356.172	212.06
356.399	186.06
356.626	270.06
356.853	328.06
357.08	374.06
357.307	422.06
357.534	230.06
357.761	176.06
357.988	241.06
358.215	360.06
358.441	438.06
358.668	362.06
358.895	318.06
359.122	193.06
359.349	120.06
359.576	130.06
359.802	127.06
360.029	122.06
360.256	142.06
360.483	174.06
360.709	221.06
360.936	333.06
361.163	317.06
361.39	196.06
361.616	160.06
361.843	237.06
362.07	308.06
362.296	278.06
362.523	194.06
362.749	148.06
362.976	169.06
363.203	261.06
363.429	325.06
363.656	192.06
363.882	152.06
364.109	141.06
364.335	139.06
364.562	173.06
364.788	227.06
365.015	306.06
365.241	220.06
365.468	174.06
365.694	96.06
365.92	112.06
366.147	91.06
366.373	88.06
366.599	110.06
366.826	110.06
367.052	104.06
367.278	116.06
367.505	123.06
367.731	142.06
367.957	174.06
368.184	206.06
368.41	185.06
368.636	178.06
368.862	218.06
369.089	212.06
369.315	148.06
369.541	136.06
369.767	138.06
369.993	144.06
370.219	148.06
370.445	181.06
370.672	243.06
370.898	308.06
371.124	287.06
371.35	167.06
371.576	148.06
371.802	181.06
372.028	322.06
372.254	415.06
372.48	322.06
372.706	242.06
372.932	259.06
373.158	288.06
373.384	380.06
373.61	587.06
373.835	590.06
374.061	379.06
374.287	280.06
374.513	396.06
374.739	550.06
374.965	579.06
375.191	499.06
375.416	251.06
375.642	183.06
375.868	273.06
376.094	354.06
376.319	265.06
376.545	325.06
376.771	358.06
376.997	274.06
377.222	148.06
377.448	102.06
377.674	108.06
377.899	106.06
378.125	110.06
378.35	121.06
378.576	145.06
378.802	180.06
379.027	222.06
379.253	163.06
379.478	187.06
379.704	256.06
379.929	269.06
380.155	272.06
380.38	173.06
380.606	157.06
380.831	172.06
381.057	174.06
381.282	193.06
381.507	294.06
381.733	392.06
381.958	414.06
382.184	445.06
382.409	501.06
382.634	463.06
382.86	530.06
383.085	354.06
383.31	221.06
383.535	270.06
383.761	288.06
383.986	259.06
384.211	372.06
384.436	342.06
384.662	183.06
384.887	176.06
385.112	215.06
385.337	230.06
385.562	188.06
385.787	271.06
386.013	353.06
386.238	377.06
386.463	213.06
386.688	179.06
386.913	174.06
387.138	158.06
387.363	192.06
387.588	219.06
387.813	241.06
388.038	315.06
388.263	220.06
388.488	190.06
388.713	304.06
388.938	368.06
389.163	241.06
389.387	154.06
389.612	188.06
389.837	223.06
390.062	230.06
390.287	242.06
390.512	213.06
390.736	184.06
390.961	140.06
391.186	125.06
391.411	113.06
391.636	103.06
391.86	147.06
392.085	181.06
392.31	208.06
392.534	213.06
392.759	175.06
392.984	252.06
393.208	249.06
393.433	180.06
393.658	121.06
393.882	107.06
394.107	92.06
394.331	108.06
394.556	97.06
394.78	111.06
395.005	123.06
395.229	132.06
395.454	129.06
395.678	106.06
395.903	112.06
396.127	96.06
396.352	123.06
396.576	115.06
396.801	156.06
397.025	197.06
397.249	208.06
397.474	120.06
397.698	108.06
397.922	107.06
398.147	96.06
398.371	93.06
398.595	110.06
398.82	101.06
399.044	93.06
399.268	94.06
399.492	115.06
399.717	97.06
399.941	126.06
400.165	121.06
400.389	114.06
400.613	158.06
400.837	181.06
401.062	120.06
401.286	101.06
401.51	101.06
401.734	107.06
401.958	86.06
402.182	91.06
402.406	122.06
402.63	95.06
402.854	97.06
403.078	121.06
403.302	158.06
403.526	154.06
403.75	127.06
403.974	108.06
404.198	113.06
404.422	163.06
404.645	313.06
404.869	389.06
405.093	158.06
405.317	95.06
405.541	110.06
405.765	112.06
405.988	109.06
406.212	172.06
406.436	253.06
406.66	315.06
406.883	159.06
407.107	191.06
407.331	284.06
407.555	229.06
407.778	124.06
408.002	114.06
408.226	118.06
408.449	109.06
408.673	116.06
408.896	96.06
409.12	90.06
409.344	86.06
409.567	101.06
409.791	106.06
410.014	103.06
410.238	98.06
410.461	95.06
410.685	87.06
410.908	96.06
411.132	105.06
411.355	113.06
411.578	87.06
411.802	106.06
412.025	131.06
412.249	104.06
412.472	102.06
412.695	105.06
412.919	104.06
413.142	120.06
413.365	161.06
413.589	178.06
413.812	125.06
414.035	118.06
414.258	126.06
414.482	203.06
414.705	206.06
414.928	125.06
415.151	94.06
415.374	99.06
415.597	137.06
415.821	142.06
416.044	118.06
416.267	105.06
416.49	94.06
416.713	90.06
416.936	92.06
417.159	100.06
417.382	114.06
417.605	116.06
417.828	124.06
418.051	110.06
418.274	119.06
418.497	139.06
418.72	145.06
418.943	162.06
419.166	156.06
419.389	141.06
419.611	123.06
419.834	162.06
420.057	219.06
420.28	220.06
420.503	189.06
420.726	109.06
420.948	98.06
421.171	117.06
421.394	110.06
421.617	101.06
421.839	107.06
422.062	116.06
422.285	127.06
422.507	121.06
422.73	137.06
422.953	154.06
423.175	118.06
423.398	111.06
423.621	153.06
423.843	174.06
424.066	121.06
424.288	132.06
424.511	111.06
424.733	118.06
424.956	139.06
425.178	205.06
425.401	224.06
425.623	126.06
425.846	122.06
426.068	158.06
426.291	228.06
426.513	133.06
426.735	116.06
426.958	142.06
427.18	234.06
427.402	384.06
427.625	192.06
427.847	128.06
428.069	113.06
428.292	123.06
428.514	129.06
428.736	104.06
428.958	100.06
429.181	106.06
429.403	130.06
429.625	161.06
429.847	140.06
430.069	146.06
430.292	146.06
430.514	112.06
430.736	173.06
430.958	318.06
431.18	267.06
431.402	115.06
431.624	124.06
431.846	114.06
432.068	94.06
432.29	111.06
432.512	174.06
432.734	320.06
432.956	259.06
433.178	138.06
433.4	80.06
433.622	99.06
433.844	97.06
434.066	99.06
434.287	105.06
434.509	76.06
434.731	100.06
434.953	96.06
435.175	92.06
435.397	99.06
435.618	102.06
435.84	110.06
436.062	107.06
436.284	86.06
436.505	87.06
436.727	79.06
436.949	89.06
437.17	104.06
437.392	83.06
437.614	114.06
437.835	124.06
438.057	139.06
438.278	186.06
438.5	439.06
438.721	356.06
438.943	141.06
439.165	102.06
439.386	112.06
439.608	103.06
439.829	100.06
440.05	110.06
440.272	111.06
440.493	219.06
440.715	349.06
440.936	184.06
441.158	118.06
441.379	106.06
441.6	158.06
441.822	201.06
442.043	122.06
442.264	109.06
442.486	104.06
442.707	97.06
442.928	96.06
443.149	100.06
443.371	100.06
443.592	94.06
443.813	98.06
444.034	105.06
444.255	113.06
444.476	105.06
444.698	100.06
444.919	98.06
445.14	265.06
445.361	160.06
445.582	89.06
445.803	84.06
446.024	108.06
446.245	109.06
446.466	115.06
446.687	109.06
446.908	124.06
447.129	116.06
447.35	96.06
447.571	104.06
447.792	112.06
448.013	93.06
448.234	98.06
448.455	108.06
448.675	102.06
448.896	94.06
449.117	96.06
449.338	98.06
449.559	102.06
449.779	113.06
450	96.06
450.221	87.06
450.442	104.06
450.662	105.06
450.883	77.06
451.104	88.06
451.324	78.06
451.545	101.06
451.766	108.06
451.986	96.06
452.207	96.06
452.428	93.06
452.648	98.06
452.869	113.06
453.089	140.06
453.31	103.06
453.53	90.06
453.751	86.06
453.971	120.06
454.192	81.06
454.412	100.06
454.633	79.06
454.853	80.06
455.073	96.06
455.294	82.06
455.514	87.06
455.734	96.06
455.955	86.06
456.175	97.06
456.395	80.06
456.616	89.06
456.836	97.06
457.056	93.06
457.276	89.06
457.497	96.06
457.717	99.06
457.937	88.06
458.157	94.06
458.377	100.06
458.598	89.06
458.818	85.06
459.038	90.06
459.258	96.06
459.478	109.06
459.698	102.06
459.918	84.06
460.138	86.06
460.358	84.06
460.578	84.06
460.798	88.06
461.018	101.06
461.238	90.06
461.458	110.06
461.678	91.06
461.898	82.06
462.118	94.06
462.338	76.06
462.558	91.06
462.777	90.06
462.997	102.06
463.217	84.06
463.437	77.06
463.657	89.06
463.876	94.06
464.096	92.06
464.316	79.06
464.536	98.06
464.755	90.06
464.975	92.06
465.195	91.06
465.414	87.06
465.634	90.06
465.854	98.06
466.073	104.06
466.293	98.06
466.512	96.06
466.732	99.06
466.951	101.06
467.171	94.06
467.391	97.06
467.61	93.06
467.829	97.06
468.049	105.06
468.268	100.06
468.488	94.06
468.707	83.06
468.927	98.06
469.146	114.06
469.365	98.06
469.585	108.06
469.804	96.06
470.023	103.06
470.243	88.06
470.462	96.06
470.681	99.06
470.901	88.06
471.12	96.06
471.339	99.06
471.558	93.06
471.777	92.06
471.997	84.06
472.216	101.06
472.435	104.06
472.654	85.06
472.873	107.06
473.092	97.06
473.311	105.06
473.53	96.06
473.749	101.06
473.968	104.06
474.187	112.06
474.406	93.06
474.625	100.06
474.844	92.06
475.063	102.06
475.282	96.06
475.501	100.06
475.72	103.06
475.939	106.06
476.158	110.06
476.377	108.06
476.596	104.06
476.814	119.06
477.033	104.06
477.252	102.06
477.471	91.06
477.69	92.06
477.908	99.06
478.127	109.06
478.346	84.06
478.564	99.06
478.783	96.06
479.002	101.06
479.22	97.06
479.439	104.06
479.658	102.06
479.876	89.06
480.095	107.06
480.313	104.06
480.532	95.06
480.751	96.06
480.969	105.06
481.188	101.06
481.406	104.06
481.624	96.06
481.843	93.06
482.061	97.06
482.28	98.06
482.498	124.06
482.717	100.06
482.935	123.06
483.153	100.06
483.372	98.06
483.59	97.06
483.808	102.06
484.027	103.06
484.245	90.06
484.463	96.06
484.681	91.06
484.9	102.06
485.118	103.06
485.336	84.06
485.554	93.06
485.772	94.06
485.99	109.06
486.209	138.06
486.427	107.06
486.645	106.06
486.863	102.06
487.081	113.06
487.299	188.06
487.517	180.06
487.735	121.06
487.953	114.06
488.171	109.06
488.389	119.06
488.607	112.06
488.825	115.06
489.043	129.06
489.261	243.06
489.479	269.06
489.696	127.06
489.914	96.06
490.132	93.06
490.35	109.06
490.568	140.06
490.786	112.06
491.003	104.06
491.221	116.06
491.439	106.06
491.657	118.06
491.874	138.06
492.092	280.06
492.31	379.06
492.527	158.06
492.745	117.06
492.963	98.06
493.18	99.06
493.398	107.06
493.615	113.06
493.833	114.06
494.05	120.06
494.268	127.06
494.485	95.06
494.703	110.06
494.92	118.06
495.138	112.06
495.355	104.06
495.573	122.06
495.79	235.06
496.008	541.06
496.225	227.06
496.442	126.06
496.66	116.06
496.877	144.06
497.094	135.06
497.312	108.06
497.529	105.06
497.746	97.06
497.963	114.06
498.181	125.06
498.398	168.06
498.615	180.06
498.832	150.06
499.049	120.06
499.267	108.06
499.484	102.06
499.701	94.06
499.918	103.06
500.135	107.06
500.352	128.06
500.569	152.06
500.786	188.06
501.003	146.06
501.22	111.06
501.437	111.06
501.654	123.06
501.871	113.06
502.088	115.06
502.305	115.06
502.522	120.06
502.739	92.06
502.956	101.06
503.172	113.06
503.389	97.06
503.606	108.06
503.823	110.06
504.04	134.06
504.256	125.06
504.473	137.06
504.69	108.06
504.907	127.06
505.123	136.06
505.34	142.06
505.557	111.06
505.773	112.06
505.99	123.06
506.207	121.06
506.423	97.06
506.64	107.06
506.856	108.06
507.073	134.06
507.289	108.06
507.506	123.06
507.722	130.06
507.939	113.06
508.155	122.06
508.372	118.06
508.588	119.06
508.805	108.06
509.021	108.06
509.238	115.06
509.454	93.06
509.67	116.06
509.887	115.06
510.103	124.06
510.319	117.06
510.536	99.06
510.752	89.06
510.968	104.06
511.184	93.06
511.401	104.06
511.617	114.06
511.833	96.06
512.049	109.06
512.265	97.06
512.481	104.06
512.698	126.06
512.914	130.06
513.13	86.06
513.346	106.06
513.562	142.06
513.778	140.06
513.994	149.06
514.21	180.06
514.426	144.06
514.642	105.06
514.858	111.06
515.074	122.06
515.29	109.06
515.506	92.06
515.721	108.06
515.937	99.06
516.153	106.06
516.369	117.06
516.585	133.06
516.801	192.06
517.016	303.06
517.232	174.06
517.448	180.06
517.664	104.06
517.879	96.06
518.095	101.06
518.311	95.06
518.527	100.06
518.742	102.06
518.958	92.06
519.173	117.06
519.389	211.06
519.605	166.06
519.82	150.06
520.036	147.06
520.251	124.06
520.467	126.06
520.682	127.06
520.898	120.06
521.113	126.06
521.329	107.06
521.544	130.06
521.76	156.06
521.975	136.06
522.19	106.06
522.406	108.06
522.621	138.06
522.836	220.06
523.052	291.06
523.267	166.06
523.482	229.06
523.698	166.06
523.913	106.06
524.128	108.06
524.343	101.06
524.559	119.06
524.774	88.06
524.989	97.06
525.204	129.06
525.419	124.06
525.634	105.06
525.849	120.06
526.064	117.06
526.28	117.06
526.495	147.06
526.71	150.06
526.925	248.06
527.14	466.06
527.355	388.06
527.57	140.06
527.785	100.06
527.999	99.06
528.214	120.06
528.429	133.06
528.644	143.06
528.859	120.06
529.074	94.06
529.289	108.06
529.503	99.06
529.718	91.06
529.933	101.06
530.148	105.06
530.363	93.06
530.577	102.06
530.792	88.06
531.007	96.06
531.221	93.06
531.436	97.06
531.651	98.06
531.865	102.06
532.08	114.06
532.295	107.06
532.509	141.06
532.724	224.06
532.938	281.06
533.153	364.06
533.367	136.06
533.582	110.06
533.796	96.06
534.011	110.06
534.225	133.06
534.44	133.06
534.654	106.06
534.868	109.06
535.083	99.06
535.297	109.06
535.511	90.06
535.726	107.06
535.94	101.06
536.154	91.06
536.369	90.06
536.583	115.06
536.797	145.06
537.011	161.06
537.225	217.06
537.44	286.06
537.654	136.06
537.868	109.06
538.082	108.06
538.296	110.06
538.51	159.06
538.724	150.06
538.938	115.06
539.153	108.06
539.367	112.06
539.581	134.06
539.795	139.06
540.009	209.06
540.222	133.06
540.436	132.06
540.65	217.06
540.864	257.06
541.078	131.06
541.292	148.06
541.506	126.06
541.72	166.06
541.934	148.06
542.147	124.06
542.361	123.06
542.575	202.06
542.789	187.06
543.002	151.06
543.216	241.06
543.43	164.06
543.644	168.06
543.857	150.06
544.071	122.06
544.285	116.06
544.498	117.06
544.712	171.06
544.925	227.06
545.139	157.06
545.352	132.06
545.566	140.06
545.779	222.06
545.993	162.06
546.206	128.06
546.42	156.06
546.633	134.06
546.847	114.06
547.06	113.06
547.274	99.06
547.487	101.06
547.7	125.06
547.914	128.06
548.127	131.06
548.34	130.06
548.554	109.06
548.767	123.06
548.98	137.06
549.193	126.06
549.407	107.06
549.62	128.06
549.833	123.06
550.046	128.06
550.259	128.06
550.473	121.06
550.686	93.06
550.899	145.06
551.112	110.06
551.325	106.06
551.538	112.06
551.751	114.06
551.964	107.06
552.177	105.06
552.39	92.06
552.603	90.06
552.816	117.06
553.029	88.06
553.242	101.06
553.455	110.06
553.667	109.06
553.88	112.06
554.093	85.06
554.306	96.06
554.519	106.06
554.732	119.06
554.944	105.06
555.157	100.06
555.37	101.06
555.583	115.06
555.795	96.06
556.008	95.06
556.221	98.06
556.433	112.06
556.646	109.06
556.859	96.06
557.071	118.06
557.284	129.06
557.496	166.06
557.709	124.06
557.921	118.06
558.134	113.06
558.346	95.06
558.559	96.06
558.771	118.06
558.984	173.06
559.196	116.06
559.409	96.06
559.621	99.06
559.833	89.06
560.046	105.06
560.258	112.06
560.47	112.06
560.683	102.06
560.895	86.06
561.107	82.06
561.32	105.06
561.532	106.06
561.744	162.06
561.956	167.06
562.168	110.06
562.381	111.06
562.593	109.06
562.805	122.06
563.017	109.06
563.229	91.06
563.441	102.06
563.653	95.06
563.865	105.06
564.077	101.06
564.289	92.06
564.501	104.06
564.713	107.06
564.925	84.06
565.137	108.06
565.349	113.06
565.561	103.06
565.773	113.06
565.985	109.06
566.197	111.06
566.408	92.06
566.62	105.06
566.832	97.06
567.044	91.06
567.255	99.06
567.467	101.06
567.679	90.06
567.891	93.06
568.102	97.06
568.314	108.06
568.526	102.06
568.737	94.06
568.949	115.06
569.161	111.06
569.372	89.06
569.584	102.06
569.795	88.06
570.007	98.06
570.218	94.06
570.43	115.06
570.641	97.06
570.853	116.06
571.064	107.06
571.276	117.06
571.487	100.06
571.698	80.06
571.91	85.06
572.121	93.06
572.333	93.06
572.544	87.06
572.755	87.06
572.966	99.06
573.178	103.06
573.389	91.06
573.6	75.06
573.811	100.06
574.023	84.06
574.234	95.06
574.445	94.06
574.656	102.06
574.867	92.06
575.078	99.06
575.289	90.06
575.501	114.06
575.712	103.06
575.923	88.06
576.134	104.06
576.345	89.06
576.556	100.06
576.767	94.06
576.978	101.06
577.188	90.06
577.399	103.06
577.61	110.06
577.821	92.06
578.032	108.06
578.243	115.06
578.454	105.06
578.665	92.06
578.875	101.06
579.086	86.06
579.297	95.06
579.508	89.06
579.718	96.06
579.929	80.06
580.14	96.06
580.35	107.06
580.561	108.06
580.772	102.06
580.982	89.06
581.193	106.06
581.403	96.06
581.614	101.06
581.825	101.06
582.035	97.06
582.246	93.06
582.456	103.06
582.667	102.06
582.877	104.06
583.087	108.06
583.298	102.06
583.508	88.06
583.719	104.06
583.929	109.06
584.139	91.06
584.35	102.06
584.56	102.06
584.77	94.06
584.981	96.06
585.191	97.06
585.401	97.06
585.611	93.06
585.821	97.06
586.032	99.06
586.242	98.06
586.452	119.06
586.662	100.06
586.872	103.06
587.082	99.06
587.292	94.06
587.502	99.06
587.713	96.06
587.923	114.06
588.133	102.06
588.343	100.06
588.553	97.06
588.762	94.06
588.972	90.06
589.182	95.06
589.392	115.06
589.602	109.06
589.812	103.06
590.022	91.06
590.232	102.06
590.441	100.06
590.651	102.06
590.861	117.06
591.071	98.06
591.281	114.06
591.49	99.06
591.7	105.06
591.91	107.06
592.119	101.06
592.329	93.06
592.539	102.06
592.748	112.06
592.958	110.06
593.167	126.06
593.377	92.06
593.587	126.06
593.796	107.06
594.006	102.06
594.215	92.06
594.424	94.06
594.634	85.06
594.843	104.06
595.053	100.06
595.262	103.06
595.472	111.06
595.681	107.06
595.89	84.06
596.1	96.06
596.309	103.06
596.518	109.06
596.727	102.06
596.937	104.06
597.146	87.06
597.355	91.06
597.564	92.06
597.774	101.06
597.983	90.06
598.192	102.06
598.401	104.06
598.61	104.06
598.819	97.06
599.028	92.06
599.237	98.06
599.446	99.06
599.655	96.06
599.864	96.06
600.073	90.06
600.282	95.06
600.491	109.06
600.7	84.06
600.909	107.06
601.118	102.06
601.327	72.06
601.536	96.06
601.745	96.06
601.953	92.06
602.162	90.06
602.371	88.06
602.58	98.06
602.789	109.06
602.997	95.06
603.206	104.06
603.415	111.06
603.623	98.06
603.832	107.06
604.041	83.06
604.249	94.06
604.458	107.06
604.666	101.06
604.875	95.06
605.084	94.06
605.292	98.06
605.501	99.06
605.709	101.06
605.918	91.06
606.126	86.06
606.334	81.06
606.543	94.06
606.751	94.06
606.96	91.06
607.168	93.06
607.376	89.06
607.585	107.06
607.793	90.06
608.001	104.06
608.21	86.06
608.418	96.06
608.626	98.06
608.834	105.06
609.043	89.06
609.251	87.06
609.459	92.06
609.667	102.06
609.875	95.06
610.083	99.06
610.291	104.06
610.499	95.06
610.707	97.06
610.916	97.06
611.124	117.06
611.332	101.06
611.54	104.06
611.748	100.06
611.955	103.06
612.163	98.06
612.371	93.06
612.579	95.06
612.787	92.06
612.995	97.06
613.203	108.06
613.411	83.06
613.618	103.06
613.826	109.06
614.034	122.06
614.242	103.06
614.449	95.06
614.657	104.06
614.865	95.06
615.072	90.06
615.28	89.06
615.488	101.06
615.695	95.06
615.903	79.06
616.111	84.06
616.318	84.06
616.526	98.06
616.733	118.06
616.941	114.06
617.148	99.06
617.356	92.06
617.563	104.06
617.771	85.06
617.978	109.06
618.185	93.06
618.393	97.06
618.6	97.06
618.807	93.06
619.015	75.06
619.222	91.06
619.429	122.06
619.637	125.06
619.844	102.06
620.051	99.06
620.258	82.06
620.466	106.06
620.673	96.06
620.88	97.06
621.087	101.06
621.294	97.06
621.501	87.06
621.708	109.06
621.915	94.06
622.122	91.06
622.329	104.06
622.536	98.06
622.743	96.06
622.95	102.06
623.157	92.06
623.364	104.06
623.571	103.06
623.778	96.06
623.985	86.06
624.192	106.06
624.399	87.06
624.606	94.06
624.812	92.06
625.019	95.06
625.226	94.06
625.433	102.06
625.639	107.06
625.846	97.06
626.053	102.06
626.259	99.06
626.466	105.06
626.673	104.06
626.879	103.06
627.086	98.06
627.293	104.06
627.499	88.06
627.706	92.06
627.912	84.06
628.119	97.06
628.325	104.06
628.532	92.06
628.738	101.06
628.945	92.06
629.151	88.06
629.357	96.06
629.564	88.06
629.77	93.06
629.976	87.06
630.183	88.06
630.389	95.06
630.595	94.06
630.802	105.06
631.008	95.06
631.214	95.06
631.42	99.06
631.627	94.06
631.833	80.06
632.039	101.06
632.245	100.06
632.451	90.06
632.657	100.06
632.863	86.06
633.069	82.06
633.275	98.06
633.481	94.06
633.688	100.06
633.893	100.06
634.099	99.06
634.305	87.06
634.511	110.06
634.717	88.06
634.923	93.06
635.129	87.06
635.335	74.06
635.541	89.06
635.747	101.06
635.952	105.06
636.158	87.06
636.364	89.06
636.57	105.06
636.775	102.06
636.981	91.06
637.187	95.06
637.392	80.06
637.598	87.06
637.804	99.06
638.009	83.06
638.215	103.06
638.421	93.06
638.626	88.06
638.832	105.06
639.037	90.06
639.243	102.06
639.448	98.06
639.654	101.06
639.859	74.06
640.065	94.06
640.27	103.06
640.475	92.06
640.681	81.06
640.886	90.06
641.091	101.06
641.297	93.06
641.502	91.06
641.707	108.06
641.913	94.06
642.118	96.06
642.323	110.06
642.528	104.06
642.733	101.06
642.939	92.06
643.144	105.06
643.349	82.06
643.554	98.06
643.759	107.06
643.964	91.06
644.169	92.06
644.374	84.06
644.579	93.06
644.784	88.06
644.989	92.06
645.194	85.06
645.399	114.06
645.604	88.06
645.809	96.06
646.014	87.06
646.219	81.06
646.423	100.06
646.628	85.06
646.833	99.06
647.038	95.06
647.243	80.06
647.447	92.06
647.652	90.06
647.857	88.06
648.062	109.06
648.266	90.06
648.471	98.06
648.676	100.06
648.88	86.06
649.085	104.06
649.289	90.06
649.494	100.06
649.698	104.06
649.903	96.06
650.107	109.06
650.312	76.06
650.516	96.06
650.721	91.06
650.925	83.06
651.13	97.06
651.334	81.06
651.539	88.06
651.743	97.06
651.947	101.06
652.152	82.06
652.356	84.06
652.56	87.06
652.764	78.06
652.969	95.06
653.173	82.06
653.377	86.06
653.581	100.06
653.785	87.06
653.99	75.06
654.194	81.06
654.398	81.06
654.602	82.06
654.806	96.06
655.01	82.06
655.214	88.06
655.418	97.06
655.622	80.06
655.826	89.06
656.03	99.06
656.234	93.06
656.438	93.06
656.642	97.06
656.846	95.06
657.049	92.06
657.253	110.06
657.457	105.06
657.661	80.06
657.865	92.06
658.068	82.06
658.272	90.06
658.476	88.06
658.68	97.06
658.883	91.06
659.087	98.06
659.291	95.06
659.494	89.06
659.698	86.06
659.901	84.06
660.105	75.06
660.309	92.06
660.512	90.06
660.716	94.06
660.919	83.06
661.123	96.06
661.326	83.06
661.53	80.06
661.733	94.06
661.936	81.06
662.14	94.06
662.343	85.06
662.546	96.06
662.75	91.06
662.953	97.06
663.156	87.06
663.36	81.06
663.563	95.06
663.766	76.06
663.969	74.06
664.173	89.06
664.376	80.06
664.579	86.06
664.782	85.06
664.985	96.06
665.188	85.06
665.391	104.06
665.594	88.06
665.797	96.06
666	90.06
666.203	89.06
666.406	86.06
666.609	93.06
666.812	94.06
667.015	77.06
667.218	90.06
667.421	86.06
667.624	87.06
667.827	91.06
668.03	81.06
668.232	87.06
668.435	78.06
668.638	85.06
668.841	94.06
669.043	99.06
669.246	67.06
669.449	77.06
669.651	85.06
669.854	81.06
670.057	90.06
670.259	84.06
670.462	94.06
670.665	76.06
670.867	96.06
671.07	84.06
671.272	102.06
671.475	108.06
671.677	88.06
671.88	94.06
672.082	87.06
672.284	84.06
672.487	100.06
672.689	85.06
672.892	77.06
