Data from UnknownNail75mm.07152019.Lampedge.EN10.5scans.P1_HRD10591_15-18-26-732.txt Node
Date: Mon Jul 15 15:18:26 EDT 2019
User: cochatt
Spectrometer: HR+D1059
Trigger mode: 1
Integration Time (sec): 1.000000E-1
Scans to average: 1
Electric dark correction enabled: true
Nonlinearity correction enabled: false
Boxcar width: 0
XAxis mode: Wavelengths
Number of Pixels in Spectrum: 2048
>>>>>Begin Spectral Data<<<<<
223.165	-26.31
223.4	-26.31
223.635	-26.31
223.869	-21.31
224.104	-2.31
224.338	-10.31
224.573	-12.31
224.808	-12.31
225.042	1.69
225.277	7.69
225.511	-10.31
225.746	-6.31
225.98	-7.31
226.215	5.69
226.449	8.69
226.683	22.69
226.918	25.69
227.152	36.69
227.387	33.69
227.621	47.69
227.856	38.69
228.09	52.69
228.324	54.69
228.559	64.69
228.793	90.69
229.027	195.69
229.262	205.69
229.496	216.69
229.73	236.69
229.964	247.69
230.199	240.69
230.433	259.69
230.667	253.69
230.901	283.69
231.136	262.69
231.37	292.69
231.604	302.69
231.838	310.69
232.072	304.69
232.306	317.69
232.541	324.69
232.775	362.69
233.009	410.69
233.243	488.69
233.477	500.69
233.711	569.69
233.945	538.69
234.179	539.69
234.413	584.69
234.647	643.69
234.881	784.69
235.115	723.69
235.349	675.69
235.583	614.69
235.817	615.69
236.051	650.69
236.285	709.69
236.519	784.69
236.753	755.69
236.987	744.69
237.221	717.69
237.455	706.69
237.689	716.69
237.922	790.69
238.156	806.69
238.39	938.69
238.624	1136.69
238.858	1023.69
239.091	897.69
239.325	892.69
239.559	843.69
239.793	894.69
240.027	1084.69
240.26	1062.69
240.494	1018.69
240.728	1029.69
240.961	1202.69
241.195	1165.69
241.429	1102.69
241.662	1082.69
241.896	902.69
242.13	822.69
242.363	808.69
242.597	843.69
242.83	938.69
243.064	922.69
243.298	1010.69
243.531	1122.69
243.765	1151.69
243.998	1095.69
244.232	1015.69
244.465	997.69
244.699	1031.69
244.932	1158.69
245.166	1132.69
245.399	941.69
245.633	899.69
245.866	940.69
246.099	1030.69
246.333	1208.69
246.566	1361.69
246.8	1350.69
247.033	1314.69
247.266	1214.69
247.5	1197.69
247.733	1205.69
247.966	1165.69
248.2	1213.69
248.433	1296.69
248.666	1461.69
248.899	1474.69
249.133	1490.69
249.366	1669.69
249.599	1823.69
249.832	1693.69
250.066	1447.69
250.299	1453.69
250.532	1440.69
250.765	1408.69
250.998	1259.69
251.231	1203.69
251.465	1287.69
251.698	1365.69
251.931	1313.69
252.164	1314.69
252.397	1521.69
252.63	1770.69
252.863	1963.69
253.096	2043.69
253.329	1958.69
253.562	1860.69
253.795	2044.69
254.028	2288.69
254.261	2319.69
254.494	2124.69
254.727	1903.69
254.96	1890.69
255.193	1952.69
255.426	1911.69
255.659	1478.69
255.892	1233.69
256.124	1296.69
256.357	1539.69
256.59	1900.69
256.823	1854.69
257.056	1552.69
257.289	1435.69
257.521	1411.69
257.754	1462.69
257.987	1559.69
258.22	1526.69
258.452	1493.69
258.685	1738.69
258.918	1964.69
259.151	1900.69
259.383	1763.69
259.616	1973.69
259.849	2116.69
260.081	2592.69
260.314	3052.69
260.547	2288.69
260.779	2031.69
261.012	2388.69
261.244	2395.69
261.477	2506.69
261.71	2480.69
261.942	2018.69
262.175	1900.69
262.407	1852.69
262.64	1964.69
262.872	2307.69
263.105	2662.69
263.337	2768.69
263.57	2494.69
263.802	1590.69
264.035	1230.69
264.267	1150.69
264.499	1043.69
264.732	1032.69
264.964	1060.69
265.197	1059.69
265.429	1082.69
265.661	1023.69
265.894	1034.69
266.126	1082.69
266.358	1150.69
266.591	1386.69
266.823	1732.69
267.055	1692.69
267.287	1326.69
267.52	1132.69
267.752	1118.69
267.984	1089.69
268.216	1143.69
268.448	1242.69
268.681	1382.69
268.913	1436.69
269.145	1334.69
269.377	1439.69
269.609	1552.69
269.841	1385.69
270.073	1340.69
270.306	1376.69
270.538	1535.69
270.77	1692.69
271.002	1676.69
271.234	1717.69
271.466	1848.69
271.698	2084.69
271.93	2108.69
272.162	1963.69
272.394	1877.69
272.626	1900.69
272.858	2026.69
273.09	2270.69
273.322	2109.69
273.553	2059.69
273.785	2358.69
274.017	3056.69
274.249	3871.69
274.481	3958.69
274.713	4178.69
274.945	4837.69
275.176	4980.69
275.408	4280.69
275.64	3912.69
275.872	3893.69
276.104	2982.69
276.335	2079.69
276.567	1984.69
276.799	2075.69
277.031	2452.69
277.262	2243.69
277.494	1774.69
277.726	1622.69
277.957	1694.69
278.189	1875.69
278.421	1882.69
278.652	1894.69
278.884	1749.69
279.115	1535.69
279.347	1446.69
279.579	1367.69
279.81	1369.69
280.042	1329.69
280.273	1309.69
280.505	1292.69
280.736	1282.69
280.968	1221.69
281.199	1247.69
281.431	1269.69
281.662	1271.69
281.894	1181.69
282.125	1157.69
282.356	1178.69
282.588	1220.69
282.819	1331.69
283.051	1435.69
283.282	1574.69
283.513	1722.69
283.745	1643.69
283.976	1646.69
284.207	1711.69
284.439	1789.69
284.67	1694.69
284.901	1662.69
285.132	1674.69
285.364	1636.69
285.595	1656.69
285.826	1746.69
286.057	1862.69
286.288	1653.69
286.52	1388.69
286.751	1378.69
286.982	1415.69
287.213	1524.69
287.444	1660.69
287.675	1684.69
287.906	1509.69
288.138	1399.69
288.369	1447.69
288.6	1442.69
288.831	1382.69
289.062	1322.69
289.293	1297.69
289.524	1300.69
289.755	1356.69
289.986	1356.69
290.217	1272.69
290.448	1213.69
290.679	1190.69
290.91	1188.69
291.141	1167.69
291.371	1197.69
291.602	1194.69
291.833	1185.69
292.064	1237.69
292.295	1288.69
292.526	1322.69
292.757	1329.69
292.987	1359.69
293.218	1276.69
293.449	1288.69
293.68	1264.69
293.91	1325.69
294.141	1340.69
294.372	1352.69
294.603	1511.69
294.833	1719.69
295.064	1774.69
295.295	1734.69
295.525	1528.69
295.756	1487.69
295.987	1366.69
296.217	1388.69
296.448	1446.69
296.679	1527.69
296.909	1690.69
297.14	1694.69
297.37	1659.69
297.601	1565.69
297.831	1432.69
298.062	1423.69
298.292	1640.69
298.523	1904.69
298.753	2167.69
298.984	1943.69
299.214	1565.69
299.445	1456.69
299.675	1494.69
299.905	1497.69
300.136	1562.69
300.366	1675.69
300.597	1704.69
300.827	1524.69
301.057	1526.69
301.288	1486.69
301.518	1387.69
301.748	1447.69
301.979	1651.69
302.209	1926.69
302.439	1988.69
302.669	1714.69
302.9	1516.69
303.13	1412.69
303.36	1359.69
303.59	1358.69
303.82	1372.69
304.051	1399.69
304.281	1379.69
304.511	1375.69
304.741	1346.69
304.971	1414.69
305.201	1346.69
305.431	1312.69
305.661	1382.69
305.891	1470.69
306.121	1610.69
306.352	1518.69
306.582	1410.69
306.812	1348.69
307.042	1402.69
307.272	1310.69
307.502	1334.69
307.731	1418.69
307.961	1442.69
308.191	1389.69
308.421	1312.69
308.651	1284.69
308.881	1270.69
309.111	1242.69
309.341	1227.69
309.571	1243.69
309.8	1296.69
310.03	1372.69
310.26	1444.69
310.49	1358.69
310.72	1280.69
310.949	1231.69
311.179	1206.69
311.409	1242.69
311.639	1266.69
311.868	1302.69
312.098	1280.69
312.328	1296.69
312.557	1278.69
312.787	1271.69
313.017	1296.69
313.246	1295.69
313.476	1309.69
313.706	1345.69
313.935	1332.69
314.165	1315.69
314.394	1333.69
314.624	1354.69
314.853	1352.69
315.083	1363.69
315.312	1409.69
315.542	1559.69
315.771	1539.69
316.001	1457.69
316.23	1399.69
316.46	1377.69
316.689	1440.69
316.919	1491.69
317.148	1493.69
317.377	1406.69
317.607	1414.69
317.836	1475.69
318.065	1561.69
318.295	1555.69
318.524	1472.69
318.753	1456.69
318.983	1479.69
319.212	1503.69
319.441	1576.69
319.67	1634.69
319.9	1577.69
320.129	1528.69
320.358	1486.69
320.587	1428.69
320.816	1473.69
321.046	1548.69
321.275	1746.69
321.504	1940.69
321.733	1859.69
321.962	1695.69
322.191	1667.69
322.42	1685.69
322.649	1779.69
322.878	1860.69
323.108	1860.69
323.337	1690.69
323.566	1612.69
323.795	1508.69
324.024	1505.69
324.253	1492.69
324.482	1505.69
324.71	1507.69
324.939	1528.69
325.168	1463.69
325.397	1447.69
325.626	1465.69
325.855	1508.69
326.084	1569.69
326.313	1536.69
326.542	1452.69
326.77	1440.69
326.999	1426.69
327.228	1415.69
327.457	1401.69
327.686	1389.69
327.914	1423.69
328.143	1462.69
328.372	1491.69
328.6	1458.69
328.829	1536.69
329.058	1515.69
329.287	1479.69
329.515	1443.69
329.744	1398.69
329.972	1418.69
330.201	1407.69
330.43	1446.69
330.658	1526.69
330.887	1577.69
331.115	1564.69
331.344	1469.69
331.572	1419.69
331.801	1448.69
332.03	1479.69
332.258	1483.69
332.486	1522.69
332.715	1562.69
332.943	1603.69
333.172	1635.69
333.4	1604.69
333.629	1668.69
333.857	1710.69
334.085	1689.69
334.314	1673.69
334.542	1654.69
334.771	1623.69
334.999	1584.69
335.227	1619.69
335.455	1601.69
335.684	1577.69
335.912	1570.69
336.14	1551.69
336.369	1547.69
336.597	1556.69
336.825	1563.69
337.053	1583.69
337.281	1617.69
337.51	1550.69
337.738	1500.69
337.966	1508.69
338.194	1544.69
338.422	1496.69
338.65	1474.69
338.878	1456.69
339.106	1483.69
339.334	1518.69
339.562	1563.69
339.79	1480.69
340.018	1475.69
340.246	1516.69
340.474	1528.69
340.702	1606.69
340.93	1676.69
341.158	1619.69
341.386	1594.69
341.614	1619.69
341.842	1568.69
342.07	1536.69
342.298	1569.69
342.526	1661.69
342.754	1705.69
342.981	1728.69
343.209	1634.69
343.437	1612.69
343.665	1713.69
343.893	1877.69
344.12	2173.69
344.348	2271.69
344.576	2020.69
344.804	1814.69
345.031	1639.69
345.259	1574.69
345.487	1559.69
345.714	1535.69
345.942	1496.69
346.17	1503.69
346.397	1515.69
346.625	1532.69
346.853	1616.69
347.08	1553.69
347.308	1568.69
347.535	1593.69
347.763	1735.69
347.99	1662.69
348.218	1467.69
348.445	1490.69
348.673	1460.69
348.9	1532.69
349.128	1611.69
349.355	1634.69
349.583	1539.69
349.81	1530.69
350.037	1535.69
350.265	1442.69
350.492	1404.69
350.72	1342.69
350.947	1388.69
351.174	1409.69
351.402	1428.69
351.629	1468.69
351.856	1473.69
352.083	1455.69
352.311	1518.69
352.538	1564.69
352.765	1638.69
352.992	1611.69
353.22	1516.69
353.447	1516.69
353.674	1515.69
353.901	1542.69
354.128	1607.69
354.355	1627.69
354.583	1570.69
354.81	1544.69
355.037	1502.69
355.264	1572.69
355.491	1688.69
355.718	1852.69
355.945	1804.69
356.172	1732.69
356.399	1726.69
356.626	1964.69
356.853	2300.69
357.08	2409.69
357.307	2508.69
357.534	1941.69
357.761	1809.69
357.988	1988.69
358.215	2532.69
358.441	2847.69
358.668	2400.69
358.895	2254.69
359.122	1797.69
359.349	1552.69
359.576	1526.69
359.802	1456.69
360.029	1426.69
360.256	1520.69
360.483	1650.69
360.709	1951.69
360.936	2254.69
361.163	2173.69
361.39	1782.69
361.616	1655.69
361.843	1907.69
362.07	2221.69
362.296	2079.69
362.523	1792.69
362.749	1590.69
362.976	1623.69
363.203	1893.69
363.429	2058.69
363.656	1749.69
363.882	1605.69
364.109	1547.69
364.335	1539.69
364.562	1556.69
364.788	1800.69
365.015	2045.69
365.241	1828.69
365.468	1594.69
365.694	1362.69
365.92	1340.69
366.147	1327.69
366.373	1309.69
366.599	1327.69
366.826	1361.69
367.052	1401.69
367.278	1404.69
367.505	1366.69
367.731	1427.69
367.957	1562.69
368.184	1620.69
368.41	1601.69
368.636	1618.69
368.862	1684.69
369.089	1656.69
369.315	1502.69
369.541	1469.69
369.767	1457.69
369.993	1438.69
370.219	1433.69
370.445	1554.69
370.672	1694.69
370.898	1811.69
371.124	1806.69
371.35	1608.69
371.576	1468.69
371.802	1625.69
372.028	1917.69
372.254	2213.69
372.48	1955.69
372.706	1808.69
372.932	1852.69
373.158	1938.69
373.384	2236.69
373.61	2947.69
373.835	3026.69
374.061	2305.69
374.287	1960.69
374.513	2122.69
374.739	2634.69
374.965	2797.69
375.191	2749.69
375.416	2033.69
375.642	1746.69
375.868	2013.69
376.094	2198.69
376.319	1992.69
376.545	2102.69
376.771	2274.69
376.997	1934.69
377.222	1546.69
377.448	1380.69
377.674	1335.69
377.899	1338.69
378.125	1344.69
378.35	1339.69
378.576	1397.69
378.802	1503.69
379.027	1582.69
379.253	1508.69
379.478	1518.69
379.704	1698.69
379.929	1754.69
380.155	1764.69
380.38	1577.69
380.606	1518.69
380.831	1640.69
381.057	1596.69
381.282	1584.69
381.507	1912.69
381.733	2264.69
381.958	2459.69
382.184	2559.69
382.409	2744.69
382.634	2559.69
382.86	2762.69
383.085	2338.69
383.31	1831.69
383.535	1998.69
383.761	2016.69
383.986	1932.69
384.211	2261.69
384.436	2222.69
384.662	1778.69
384.887	1718.69
385.112	1754.69
385.337	1730.69
385.562	1687.69
385.787	1837.69
386.013	2066.69
386.238	2143.69
386.463	1762.69
386.688	1726.69
386.913	1620.69
387.138	1598.69
387.363	1683.69
387.588	1718.69
387.813	1737.69
388.038	1900.69
388.263	1771.69
388.488	1666.69
388.713	1911.69
388.938	2081.69
389.163	1783.69
389.387	1635.69
389.612	1634.69
389.837	1706.69
390.062	1727.69
390.287	1775.69
390.512	1741.69
390.736	1646.69
390.961	1564.69
391.186	1511.69
391.411	1544.69
391.636	1562.69
391.86	1685.69
392.085	1772.69
392.31	1847.69
392.534	1793.69
392.759	1706.69
392.984	1825.69
393.208	1818.69
393.433	1736.69
393.658	1684.69
393.882	1558.69
394.107	1548.69
394.331	1532.69
394.556	1556.69
394.78	1557.69
395.005	1579.69
395.229	1583.69
395.454	1670.69
395.678	1718.69
395.903	1738.69
396.127	1633.69
396.352	1566.69
396.576	1574.69
396.801	1724.69
397.025	1942.69
397.249	1857.69
397.474	1653.69
397.698	1640.69
397.922	1640.69
398.147	1638.69
398.371	1659.69
398.595	1720.69
398.82	1730.69
399.044	1791.69
399.268	1918.69
399.492	2176.69
399.717	2380.69
399.941	2423.69
400.165	2230.69
400.389	2093.69
400.613	2102.69
400.837	1985.69
401.062	1820.69
401.286	1788.69
401.51	1747.69
401.734	1759.69
401.958	1751.69
402.182	1746.69
402.406	1799.69
402.63	1807.69
402.854	1782.69
403.078	1795.69
403.302	1919.69
403.526	2013.69
403.75	1930.69
403.974	1910.69
404.198	1976.69
404.422	2150.69
404.645	2541.69
404.869	2765.69
405.093	2156.69
405.317	1914.69
405.541	1880.69
405.765	1868.69
405.988	1916.69
406.212	2023.69
406.436	2345.69
406.66	2542.69
406.883	2202.69
407.107	2270.69
407.331	2622.69
407.555	2500.69
407.778	2190.69
408.002	2112.69
408.226	2038.69
408.449	1996.69
408.673	1923.69
408.896	1889.69
409.12	1858.69
409.344	1830.69
409.567	1783.69
409.791	1808.69
410.014	1811.69
410.238	1775.69
410.461	1782.69
410.685	1832.69
410.908	1758.69
411.132	1792.69
411.355	1735.69
411.578	1794.69
411.802	1794.69
412.025	1887.69
412.249	1930.69
412.472	1818.69
412.695	1756.69
412.919	1767.69
413.142	1787.69
413.365	1894.69
413.589	1919.69
413.812	1813.69
414.035	1758.69
414.258	1834.69
414.482	1958.69
414.705	1990.69
414.928	1746.69
415.151	1703.69
415.374	1759.69
415.597	1742.69
415.821	1731.69
416.044	1731.69
416.267	1695.69
416.49	1729.69
416.713	1632.69
416.936	1666.69
417.159	1653.69
417.382	1682.69
417.605	1676.69
417.828	1744.69
418.051	1758.69
418.274	1780.69
418.497	1803.69
418.72	1784.69
418.943	1847.69
419.166	1918.69
419.389	1964.69
419.611	1918.69
419.834	1964.69
420.057	2070.69
420.28	2062.69
420.503	1872.69
420.726	1720.69
420.948	1647.69
421.171	1668.69
421.394	1686.69
421.617	1661.69
421.839	1703.69
422.062	1784.69
422.285	1788.69
422.507	1782.69
422.73	1814.69
422.953	1852.69
423.175	1809.69
423.398	1808.69
423.621	1870.69
423.843	1915.69
424.066	1866.69
424.288	1798.69
424.511	1726.69
424.733	1743.69
424.956	1758.69
425.178	1903.69
425.401	1927.69
425.623	1755.69
425.846	1701.69
426.068	1779.69
426.291	1948.69
426.513	1736.69
426.735	1702.69
426.958	1704.69
427.18	1856.69
427.402	2240.69
427.625	1907.69
427.847	1569.69
428.069	1572.69
428.292	1574.69
428.514	1552.69
428.736	1486.69
428.958	1549.69
429.181	1495.69
429.403	1509.69
429.625	1596.69
429.847	1510.69
430.069	1583.69
430.292	1596.69
430.514	1583.69
430.736	1707.69
430.958	2084.69
431.18	1900.69
431.402	1568.69
431.624	1516.69
431.846	1564.69
432.068	1519.69
432.29	1604.69
432.512	1707.69
432.734	2128.69
432.956	1968.69
433.178	1598.69
433.4	1503.69
433.622	1523.69
433.844	1544.69
434.066	1523.69
434.287	1467.69
434.509	1535.69
434.731	1605.69
434.953	1632.69
435.175	1614.69
435.397	1657.69
435.618	1604.69
435.84	1543.69
436.062	1494.69
436.284	1490.69
436.505	1437.69
436.727	1473.69
436.949	1478.69
437.17	1484.69
437.392	1464.69
437.614	1455.69
437.835	1425.69
438.057	1506.69
438.278	1736.69
438.5	2270.69
438.721	2238.69
438.943	1599.69
439.165	1478.69
439.386	1475.69
439.608	1448.69
439.829	1457.69
440.05	1471.69
440.272	1554.69
440.493	1779.69
440.715	2142.69
440.936	1754.69
441.158	1602.69
441.379	1618.69
441.6	1785.69
441.822	1870.69
442.043	1731.69
442.264	1636.69
442.486	1618.69
442.707	1633.69
442.928	1633.69
443.149	1618.69
443.371	1580.69
443.592	1611.69
443.813	1637.69
444.034	1694.69
444.255	1769.69
444.476	1845.69
444.698	1912.69
444.919	1847.69
445.14	1944.69
445.361	1759.69
445.582	1677.69
445.803	1608.69
446.024	1608.69
446.245	1590.69
446.466	1573.69
446.687	1502.69
446.908	1594.69
447.129	1494.69
447.35	1462.69
447.571	1469.69
447.792	1453.69
448.013	1455.69
448.234	1394.69
448.455	1454.69
448.675	1422.69
448.896	1391.69
449.117	1344.69
449.338	1384.69
449.559	1442.69
449.779	1443.69
450	1389.69
450.221	1430.69
450.442	1423.69
450.662	1464.69
450.883	1468.69
451.104	1462.69
451.324	1440.69
451.545	1432.69
451.766	1451.69
451.986	1384.69
452.207	1415.69
452.428	1389.69
452.648	1370.69
452.869	1394.69
453.089	1420.69
453.31	1434.69
453.53	1311.69
453.751	1293.69
453.971	1316.69
454.192	1325.69
454.412	1273.69
454.633	1281.69
454.853	1274.69
455.073	1250.69
455.294	1281.69
455.514	1282.69
455.734	1296.69
455.955	1263.69
456.175	1283.69
456.395	1282.69
456.616	1260.69
456.836	1263.69
457.056	1286.69
457.276	1237.69
457.497	1274.69
457.717	1251.69
457.937	1297.69
458.157	1309.69
458.377	1322.69
458.598	1346.69
458.818	1352.69
459.038	1399.69
459.258	1437.69
459.478	1435.69
459.698	1508.69
459.918	1562.69
460.138	1623.69
460.358	1637.69
460.578	1640.69
460.798	1679.69
461.018	1720.69
461.238	1688.69
461.458	1675.69
461.678	1679.69
461.898	1715.69
462.118	1771.69
462.338	1773.69
462.558	1859.69
462.777	1890.69
462.997	2010.69
463.217	2107.69
463.437	2141.69
463.657	1982.69
463.876	1935.69
464.096	1878.69
464.316	1890.69
464.536	1964.69
464.755	1939.69
464.975	1840.69
465.195	1837.69
465.414	1822.69
465.634	1788.69
465.854	1802.69
466.073	1670.69
466.293	1690.69
466.512	1792.69
466.732	1820.69
466.951	1896.69
467.171	1662.69
467.391	1628.69
467.61	1663.69
467.829	1758.69
468.049	1797.69
468.268	1623.69
468.488	1670.69
468.707	1684.69
468.927	1948.69
469.146	2075.69
469.365	1878.69
469.585	1779.69
469.804	1855.69
470.023	2021.69
470.243	1794.69
470.462	1770.69
470.681	1800.69
470.901	1728.69
471.12	1819.69
471.339	1824.69
471.558	1728.69
471.777	1700.69
471.997	1806.69
472.216	2005.69
472.435	1916.69
472.654	1812.69
472.873	1744.69
473.092	1826.69
473.311	1871.69
473.53	1715.69
473.749	1705.69
473.968	1733.69
474.187	1742.69
474.406	1725.69
474.625	1718.69
474.844	1786.69
475.063	1898.69
475.282	1879.69
475.501	1804.69
475.72	1756.69
475.939	1804.69
476.158	1910.69
476.377	2069.69
476.596	2383.69
476.814	2458.69
477.033	2160.69
477.252	1986.69
477.471	1883.69
477.69	1906.69
477.908	2140.69
478.127	2142.69
478.346	1953.69
478.564	1954.69
478.783	1961.69
479.002	2029.69
479.22	2262.69
479.439	2596.69
479.658	2308.69
479.876	2187.69
480.095	2336.69
480.313	2320.69
480.532	2190.69
480.751	2141.69
480.969	2223.69
481.188	2479.69
481.406	2464.69
481.624	2300.69
481.843	2100.69
482.061	1972.69
482.28	2203.69
482.498	2384.69
482.717	2119.69
482.935	2124.69
483.153	1979.69
483.372	1862.69
483.59	1892.69
483.808	1945.69
484.027	1926.69
484.245	1850.69
484.463	1846.69
484.681	1944.69
484.9	2032.69
485.118	2151.69
485.336	2060.69
485.554	1968.69
485.772	2008.69
485.99	2181.69
486.209	2289.69
486.427	2238.69
486.645	2210.69
486.863	2224.69
487.081	2258.69
487.299	2448.69
487.517	2320.69
487.735	2114.69
487.953	2146.69
488.171	2289.69
488.389	2147.69
488.607	2020.69
488.825	2020.69
489.043	2223.69
489.261	2642.69
489.479	2710.69
489.696	2358.69
489.914	2199.69
490.132	2011.69
490.35	2044.69
490.568	2046.69
490.786	1897.69
491.003	2026.69
491.221	2061.69
491.439	2010.69
491.657	2055.69
491.874	2206.69
492.092	2606.69
492.31	2909.69
492.527	2704.69
492.745	2636.69
492.963	2346.69
493.18	2301.69
493.398	2349.69
493.615	2368.69
493.833	2216.69
494.05	2231.69
494.268	2256.69
494.485	2267.69
494.703	2196.69
494.92	2255.69
495.138	2209.69
495.355	2202.69
495.573	2223.69
495.79	2408.69
496.008	3144.69
496.225	2645.69
496.442	2484.69
496.66	2501.69
496.877	2569.69
497.094	2487.69
497.312	2428.69
497.529	2452.69
497.746	2437.69
497.963	2578.69
498.181	2842.69
498.398	3040.69
498.615	3147.69
498.832	3348.69
499.049	3418.69
499.267	3254.69
499.484	3283.69
499.701	3543.69
499.918	3925.69
500.135	4329.69
500.352	4529.69
500.569	4723.69
500.786	4794.69
501.003	4630.69
501.22	4139.69
501.437	3811.69
501.654	3532.69
501.871	3234.69
502.088	3203.69
502.305	2952.69
502.522	2971.69
502.739	2913.69
502.956	2659.69
503.172	2636.69
503.389	2469.69
503.606	2370.69
503.823	2396.69
504.04	2442.69
504.256	2452.69
504.473	2598.69
504.69	2666.69
504.907	2695.69
505.123	2571.69
505.34	2734.69
505.557	2645.69
505.773	2451.69
505.99	2352.69
506.207	2437.69
506.423	2218.69
506.64	2131.69
506.856	2223.69
507.073	2391.69
507.289	2313.69
507.506	2391.69
507.722	2467.69
507.939	2462.69
508.155	2542.69
508.372	2255.69
508.588	2227.69
508.805	2141.69
509.021	2081.69
509.238	2065.69
509.454	2061.69
509.67	2098.69
509.887	2082.69
510.103	2347.69
510.319	2279.69
510.536	2082.69
510.752	1844.69
510.968	1873.69
511.184	1842.69
511.401	1806.69
511.617	1782.69
511.833	1776.69
512.049	1772.69
512.265	1883.69
512.481	1958.69
512.698	2176.69
512.914	2291.69
513.13	2084.69
513.346	1973.69
513.562	2078.69
513.778	2050.69
513.994	1989.69
514.21	2093.69
514.426	2020.69
514.642	1945.69
514.858	1922.69
515.074	2015.69
515.29	2049.69
515.506	2078.69
515.721	2117.69
515.937	2114.69
516.153	2018.69
516.369	2055.69
516.585	2188.69
516.801	2459.69
517.016	2837.69
517.232	2785.69
517.448	2891.69
517.664	2566.69
517.879	2464.69
518.095	2370.69
518.311	2288.69
518.527	2372.69
518.742	2443.69
518.958	2392.69
519.173	2234.69
519.389	2303.69
519.605	2363.69
519.82	2562.69
520.036	2848.69
520.251	2751.69
520.467	2271.69
520.682	2080.69
520.898	2011.69
521.113	2022.69
521.329	2094.69
521.544	2256.69
521.76	2384.69
521.975	2120.69
522.19	1994.69
522.406	2060.69
522.621	2394.69
522.836	2483.69
523.052	2567.69
523.267	2101.69
523.482	2129.69
523.698	2203.69
523.913	2102.69
524.128	1910.69
524.343	1862.69
524.559	1944.69
524.774	1873.69
524.989	1864.69
525.204	1950.69
525.419	2145.69
525.634	1994.69
525.849	2032.69
526.064	2125.69
526.28	2104.69
526.495	2364.69
526.71	2243.69
526.925	2106.69
527.14	2357.69
527.355	2187.69
527.57	1769.69
527.785	1742.69
527.999	1666.69
528.214	1643.69
528.429	1690.69
528.644	1672.69
528.859	1641.69
529.074	1613.69
529.289	1584.69
529.503	1532.69
529.718	1550.69
529.933	1568.69
530.148	1538.69
530.363	1583.69
530.577	1576.69
530.792	1543.69
531.007	1551.69
531.221	1547.69
531.436	1530.69
531.651	1564.69
531.865	1570.69
532.08	1605.69
532.295	1566.69
532.509	1614.69
532.724	1806.69
532.938	1939.69
533.153	2148.69
533.367	1815.69
533.582	1738.69
533.796	1673.69
534.011	1592.69
534.225	1618.69
534.44	1577.69
534.654	1528.69
534.868	1496.69
535.083	1476.69
535.297	1492.69
535.511	1500.69
535.726	1495.69
535.94	1477.69
536.154	1504.69
536.369	1505.69
536.583	1518.69
536.797	1608.69
537.011	1700.69
537.225	1819.69
537.44	1879.69
537.654	1557.69
537.868	1470.69
538.082	1490.69
538.296	1495.69
538.51	1571.69
538.724	1644.69
538.938	1584.69
539.153	1480.69
539.367	1504.69
539.581	1499.69
539.795	1561.69
540.009	1624.69
540.222	1550.69
540.436	1539.69
540.65	1680.69
540.864	1721.69
541.078	1620.69
541.292	1607.69
541.506	1556.69
541.72	1655.69
541.934	1538.69
542.147	1512.69
542.361	1495.69
542.575	1636.69
542.789	1636.69
543.002	1569.69
543.216	1791.69
543.43	1592.69
543.644	1579.69
543.857	1478.69
544.071	1484.69
544.285	1482.69
544.498	1458.69
544.712	1517.69
544.925	1632.69
545.139	1466.69
545.352	1481.69
545.566	1547.69
545.779	1744.69
545.993	1533.69
546.206	1495.69
546.42	1525.69
546.633	1439.69
546.847	1395.69
547.06	1418.69
547.274	1456.69
547.487	1472.69
547.7	1603.69
547.914	1668.69
548.127	1803.69
548.34	1747.69
548.554	1593.69
548.767	1618.69
548.98	1702.69
549.193	1630.69
549.407	1736.69
549.62	1964.69
549.833	1838.69
550.046	1908.69
550.259	1895.69
550.473	1640.69
550.686	1583.69
550.899	1626.69
551.112	1637.69
551.325	1769.69
551.538	1788.69
551.751	1531.69
551.964	1437.69
552.177	1405.69
552.39	1332.69
552.603	1392.69
552.816	1359.69
553.029	1409.69
553.242	1435.69
553.455	1468.69
553.667	1548.69
553.88	1592.69
554.093	1535.69
554.306	1395.69
554.519	1322.69
554.732	1291.69
554.944	1293.69
555.157	1270.69
555.37	1254.69
555.583	1247.69
555.795	1240.69
556.008	1274.69
556.221	1302.69
556.433	1250.69
556.646	1166.69
556.859	1208.69
557.071	1326.69
557.284	1252.69
557.496	1214.69
557.709	1216.69
557.921	1221.69
558.134	1144.69
558.346	1156.69
558.559	1164.69
558.771	1152.69
558.984	1283.69
559.196	1143.69
559.409	1106.69
559.621	1116.69
559.833	1119.69
560.046	1101.69
560.258	1123.69
560.47	1114.69
560.683	1090.69
560.895	1070.69
561.107	1068.69
561.32	1046.69
561.532	1078.69
561.744	1196.69
561.956	1204.69
562.168	1098.69
562.381	1079.69
562.593	1092.69
562.805	1091.69
563.017	1083.69
563.229	1078.69
563.441	1053.69
563.653	1086.69
563.865	1085.69
564.077	1074.69
564.289	1086.69
564.501	1129.69
564.713	1120.69
564.925	1165.69
565.137	1178.69
565.349	1172.69
565.561	1187.69
565.773	1258.69
565.985	1272.69
566.197	1370.69
566.408	1408.69
566.62	1570.69
566.832	1596.69
567.044	1592.69
567.255	1576.69
567.467	1629.69
567.679	1679.69
567.891	1763.69
568.102	1752.69
568.314	1715.69
568.526	1639.69
568.737	1469.69
568.949	1388.69
569.161	1286.69
569.372	1231.69
569.584	1162.69
569.795	1137.69
570.007	1112.69
570.218	1106.69
570.43	1110.69
570.641	1078.69
570.853	1058.69
571.064	1137.69
571.276	1102.69
571.487	1091.69
571.698	1067.69
571.91	1057.69
572.121	1009.69
572.333	965.69
572.544	932.69
572.755	917.69
572.966	897.69
573.178	922.69
573.389	910.69
573.6	883.69
573.811	883.69
574.023	886.69
574.234	878.69
574.445	893.69
574.656	891.69
574.867	896.69
575.078	898.69
575.289	885.69
575.501	884.69
575.712	860.69
575.923	852.69
576.134	859.69
576.345	856.69
576.556	848.69
576.767	845.69
576.978	850.69
577.188	832.69
577.399	808.69
577.61	818.69
577.821	819.69
578.032	807.69
578.243	784.69
578.454	775.69
578.665	787.69
578.875	794.69
579.086	807.69
579.297	780.69
579.508	770.69
579.718	762.69
579.929	785.69
580.14	768.69
580.35	735.69
580.561	763.69
580.772	770.69
580.982	761.69
581.193	782.69
581.403	747.69
581.614	750.69
581.825	723.69
582.035	733.69
582.246	743.69
582.456	738.69
582.667	734.69
582.877	742.69
583.087	734.69
583.298	728.69
583.508	726.69
583.719	755.69
583.929	744.69
584.139	721.69
584.35	727.69
584.56	718.69
584.77	716.69
584.981	690.69
585.191	723.69
585.401	730.69
585.611	741.69
585.821	704.69
586.032	720.69
586.242	719.69
586.452	729.69
586.662	724.69
586.872	732.69
587.082	714.69
587.292	685.69
587.502	721.69
587.713	723.69
587.923	692.69
588.133	717.69
588.343	690.69
588.553	717.69
588.762	716.69
588.972	725.69
589.182	736.69
589.392	732.69
589.602	720.69
589.812	770.69
590.022	768.69
590.232	768.69
590.441	727.69
590.651	723.69
590.861	735.69
591.071	749.69
591.281	743.69
591.49	744.69
591.7	778.69
591.91	762.69
592.119	767.69
592.329	765.69
592.539	795.69
592.748	806.69
592.958	821.69
593.167	859.69
593.377	888.69
593.587	906.69
593.796	886.69
594.006	867.69
594.215	891.69
594.424	883.69
594.634	839.69
594.843	827.69
595.053	796.69
595.262	770.69
595.472	792.69
595.681	764.69
595.89	709.69
596.1	708.69
596.309	727.69
596.518	702.69
596.727	682.69
596.937	705.69
597.146	705.69
597.355	714.69
597.564	677.69
597.774	672.69
597.983	647.69
598.192	645.69
598.401	621.69
598.61	621.69
598.819	621.69
599.028	614.69
599.237	633.69
599.446	594.69
599.655	597.69
599.864	613.69
600.073	607.69
600.282	625.69
600.491	615.69
600.7	595.69
600.909	598.69
601.118	616.69
601.327	624.69
601.536	596.69
601.745	599.69
601.953	591.69
602.162	591.69
602.371	596.69
602.58	579.69
602.789	596.69
602.997	563.69
603.206	560.69
603.415	561.69
603.623	584.69
603.832	556.69
604.041	548.69
604.249	598.69
604.458	604.69
604.666	570.69
604.875	560.69
605.084	551.69
605.292	538.69
605.501	558.69
605.709	546.69
605.918	555.69
606.126	528.69
606.334	544.69
606.543	559.69
606.751	539.69
606.96	532.69
607.168	522.69
607.376	539.69
607.585	533.69
607.793	516.69
608.001	548.69
608.21	537.69
608.418	517.69
608.626	523.69
608.834	538.69
609.043	539.69
609.251	532.69
609.459	528.69
609.667	549.69
609.875	540.69
610.083	504.69
610.291	529.69
610.499	515.69
610.707	519.69
610.916	511.69
611.124	524.69
611.332	517.69
611.54	540.69
611.748	519.69
611.955	523.69
612.163	522.69
612.371	506.69
612.579	524.69
612.787	485.69
612.995	519.69
613.203	504.69
613.411	516.69
613.618	499.69
613.826	528.69
614.034	522.69
614.242	518.69
614.449	489.69
614.657	488.69
614.865	501.69
615.072	498.69
615.28	501.69
615.488	495.69
615.695	498.69
615.903	513.69
616.111	492.69
616.318	507.69
616.526	501.69
616.733	518.69
616.941	481.69
617.148	503.69
617.356	491.69
617.563	498.69
617.771	487.69
617.978	485.69
618.185	504.69
618.393	516.69
618.6	488.69
618.807	484.69
619.015	490.69
619.222	470.69
619.429	500.69
619.637	491.69
619.844	459.69
620.051	468.69
620.258	467.69
620.466	459.69
620.673	458.69
620.88	430.69
621.087	423.69
621.294	446.69
621.501	450.69
621.708	441.69
621.915	467.69
622.122	449.69
622.329	451.69
622.536	460.69
622.743	451.69
622.95	442.69
623.157	454.69
623.364	465.69
623.571	462.69
623.778	447.69
623.985	435.69
624.192	430.69
624.399	428.69
624.606	436.69
624.812	428.69
625.019	424.69
625.226	438.69
625.433	438.69
625.639	432.69
625.846	422.69
626.053	416.69
626.259	402.69
626.466	408.69
626.673	414.69
626.879	427.69
627.086	392.69
627.293	428.69
627.499	406.69
627.706	405.69
627.912	398.69
628.119	395.69
628.325	424.69
628.532	405.69
628.738	406.69
628.945	373.69
629.151	395.69
629.357	376.69
629.564	398.69
629.77	386.69
629.976	384.69
630.183	374.69
630.389	390.69
630.595	392.69
630.802	397.69
631.008	372.69
631.214	362.69
631.42	397.69
631.627	382.69
631.833	398.69
632.039	366.69
632.245	380.69
632.451	366.69
632.657	369.69
632.863	370.69
633.069	362.69
633.275	378.69
633.481	340.69
633.688	363.69
633.893	372.69
634.099	368.69
634.305	366.69
634.511	355.69
634.717	368.69
634.923	352.69
635.129	343.69
635.335	336.69
635.541	352.69
635.747	367.69
635.952	353.69
636.158	356.69
636.364	338.69
636.57	349.69
636.775	365.69
636.981	336.69
637.187	346.69
637.392	327.69
637.598	340.69
637.804	347.69
638.009	336.69
638.215	366.69
638.421	350.69
638.626	342.69
638.832	335.69
639.037	351.69
639.243	323.69
639.448	340.69
639.654	343.69
639.859	328.69
640.065	344.69
640.27	362.69
640.475	333.69
640.681	325.69
640.886	326.69
641.091	316.69
641.297	336.69
641.502	324.69
641.707	314.69
641.913	314.69
642.118	321.69
642.323	332.69
642.528	334.69
642.733	319.69
642.939	309.69
643.144	310.69
643.349	319.69
643.554	327.69
643.759	306.69
643.964	311.69
644.169	312.69
644.374	307.69
644.579	304.69
644.784	321.69
644.989	310.69
645.194	319.69
645.399	306.69
645.604	292.69
645.809	323.69
646.014	318.69
646.219	300.69
646.423	309.69
646.628	335.69
646.833	317.69
647.038	307.69
647.243	321.69
647.447	318.69
647.652	311.69
647.857	335.69
648.062	330.69
648.266	324.69
648.471	342.69
648.676	327.69
648.88	327.69
649.085	326.69
649.289	308.69
649.494	314.69
649.698	331.69
649.903	320.69
650.107	290.69
650.312	312.69
650.516	300.69
650.721	277.69
650.925	276.69
651.13	266.69
651.334	267.69
651.539	263.69
651.743	271.69
651.947	272.69
652.152	282.69
652.356	267.69
652.56	241.69
652.764	248.69
652.969	259.69
653.173	238.69
653.377	261.69
653.581	246.69
653.785	253.69
653.99	246.69
654.194	245.69
654.398	231.69
654.602	226.69
654.806	224.69
655.01	242.69
655.214	238.69
655.418	231.69
655.622	252.69
655.826	223.69
656.03	236.69
656.234	251.69
656.438	264.69
656.642	257.69
656.846	253.69
657.049	230.69
657.253	206.69
657.457	188.69
657.661	183.69
657.865	176.69
658.068	176.69
658.272	173.69
658.476	172.69
658.68	154.69
658.883	160.69
659.087	143.69
659.291	137.69
659.494	131.69
659.698	137.69
659.901	143.69
660.105	132.69
660.309	116.69
660.512	126.69
660.716	130.69
660.919	129.69
661.123	120.69
661.326	120.69
661.53	119.69
661.733	124.69
661.936	108.69
662.14	101.69
662.343	94.69
662.546	103.69
662.75	99.69
662.953	92.69
663.156	105.69
663.36	103.69
663.563	100.69
663.766	104.69
663.969	103.69
664.173	86.69
664.376	94.69
664.579	92.69
664.782	83.69
664.985	83.69
665.188	97.69
665.391	86.69
665.594	91.69
665.797	87.69
666	87.69
666.203	96.69
666.406	95.69
666.609	87.69
666.812	94.69
667.015	95.69
667.218	92.69
667.421	99.69
667.624	91.69
667.827	88.69
668.03	91.69
668.232	87.69
668.435	93.69
668.638	87.69
668.841	99.69
669.043	84.69
669.246	87.69
669.449	82.69
669.651	88.69
669.854	90.69
670.057	79.69
670.259	92.69
670.462	88.69
670.665	96.69
670.867	97.69
671.07	79.69
671.272	85.69
671.475	98.69
671.677	94.69
671.88	90.69
672.082	86.69
672.284	87.69
672.487	95.69
672.689	85.69
672.892	92.69
