Data from UnknownNail75mm.07152019.Lampedge.EN10.5scans.P1_HRD10591_15-18-25-731.txt Node
Date: Mon Jul 15 15:18:25 EDT 2019
User: cochatt
Spectrometer: HR+D1059
Trigger mode: 1
Integration Time (sec): 1.000000E-1
Scans to average: 1
Electric dark correction enabled: true
Nonlinearity correction enabled: false
Boxcar width: 0
XAxis mode: Wavelengths
Number of Pixels in Spectrum: 2048
>>>>>Begin Spectral Data<<<<<
223.165	-14.75
223.4	-14.75
223.635	-14.75
223.869	-18.75
224.104	-11.75
224.338	-10.75
224.573	-10.75
224.808	-20.75
225.042	-11.75
225.277	-0.75
225.511	-14.75
225.746	4.25
225.98	12.25
226.215	14.25
226.449	20.25
226.683	3.25
226.918	23.25
227.152	37.25
227.387	26.25
227.621	36.25
227.856	38.25
228.09	42.25
228.324	49.25
228.559	49.25
228.793	94.25
229.027	199.25
229.262	203.25
229.496	230.25
229.73	213.25
229.964	226.25
230.199	240.25
230.433	257.25
230.667	263.25
230.901	259.25
231.136	282.25
231.37	291.25
231.604	293.25
231.838	311.25
232.072	303.25
232.306	332.25
232.541	347.25
232.775	369.25
233.009	405.25
233.243	468.25
233.477	520.25
233.711	545.25
233.945	532.25
234.179	542.25
234.413	611.25
234.647	648.25
234.881	764.25
235.115	730.25
235.349	692.25
235.583	632.25
235.817	623.25
236.051	668.25
236.285	725.25
236.519	817.25
236.753	767.25
236.987	765.25
237.221	708.25
237.455	740.25
237.689	771.25
237.922	825.25
238.156	831.25
238.39	996.25
238.624	1163.25
238.858	1081.25
239.091	913.25
239.325	915.25
239.559	856.25
239.793	932.25
240.027	1126.25
240.26	1095.25
240.494	1082.25
240.728	1055.25
240.961	1220.25
241.195	1175.25
241.429	1130.25
241.662	1125.25
241.896	963.25
242.13	820.25
242.363	781.25
242.597	828.25
242.83	1003.25
243.064	965.25
243.298	1053.25
243.531	1146.25
243.765	1171.25
243.998	1127.25
244.232	1069.25
244.465	1060.25
244.699	1035.25
244.932	1195.25
245.166	1154.25
245.399	997.25
245.633	944.25
245.866	996.25
246.099	1076.25
246.333	1301.25
246.566	1392.25
246.8	1404.25
247.033	1343.25
247.266	1250.25
247.5	1249.25
247.733	1255.25
247.966	1229.25
248.2	1258.25
248.433	1401.25
248.666	1498.25
248.899	1483.25
249.133	1496.25
249.366	1772.25
249.599	1909.25
249.832	1765.25
250.066	1487.25
250.299	1544.25
250.532	1510.25
250.765	1464.25
250.998	1339.25
251.231	1245.25
251.465	1338.25
251.698	1425.25
251.931	1395.25
252.164	1386.25
252.397	1586.25
252.63	1821.25
252.863	2053.25
253.096	2153.25
253.329	2026.25
253.562	1938.25
253.795	2166.25
254.028	2382.25
254.261	2473.25
254.494	2230.25
254.727	2012.25
254.96	1952.25
255.193	2032.25
255.426	2008.25
255.659	1508.25
255.892	1282.25
256.124	1344.25
256.357	1595.25
256.59	1975.25
256.823	1933.25
257.056	1603.25
257.289	1468.25
257.521	1460.25
257.754	1533.25
257.987	1598.25
258.22	1563.25
258.452	1498.25
258.685	1781.25
258.918	2023.25
259.151	1987.25
259.383	1833.25
259.616	2125.25
259.849	2145.25
260.081	2659.25
260.314	3199.25
260.547	2389.25
260.779	2109.25
261.012	2424.25
261.244	2526.25
261.477	2595.25
261.71	2662.25
261.942	2095.25
262.175	1961.25
262.407	1923.25
262.64	2033.25
262.872	2379.25
263.105	2708.25
263.337	2865.25
263.57	2531.25
263.802	1625.25
264.035	1249.25
264.267	1138.25
264.499	1099.25
264.732	1067.25
264.964	1090.25
265.197	1076.25
265.429	1107.25
265.661	1039.25
265.894	1055.25
266.126	1070.25
266.358	1208.25
266.591	1449.25
266.823	1807.25
267.055	1743.25
267.287	1396.25
267.52	1167.25
267.752	1143.25
267.984	1124.25
268.216	1175.25
268.448	1303.25
268.681	1428.25
268.913	1504.25
269.145	1359.25
269.377	1467.25
269.609	1613.25
269.841	1516.25
270.073	1402.25
270.306	1395.25
270.538	1567.25
270.77	1739.25
271.002	1760.25
271.234	1758.25
271.466	1930.25
271.698	2187.25
271.93	2145.25
272.162	2021.25
272.394	1998.25
272.626	1899.25
272.858	2119.25
273.09	2311.25
273.322	2200.25
273.553	2119.25
273.785	2483.25
274.017	3267.25
274.249	3991.25
274.481	4078.25
274.713	4311.25
274.945	5047.25
275.176	5050.25
275.408	4391.25
275.64	4064.25
275.872	4071.25
276.104	3018.25
276.335	2169.25
276.567	2013.25
276.799	2188.25
277.031	2502.25
277.262	2351.25
277.494	1815.25
277.726	1639.25
277.957	1787.25
278.189	1925.25
278.421	1943.25
278.652	1972.25
278.884	1788.25
279.115	1575.25
279.347	1471.25
279.579	1380.25
279.81	1433.25
280.042	1381.25
280.273	1370.25
280.505	1297.25
280.736	1273.25
280.968	1272.25
281.199	1242.25
281.431	1292.25
281.662	1295.25
281.894	1212.25
282.125	1210.25
282.356	1224.25
282.588	1277.25
282.819	1331.25
283.051	1482.25
283.282	1625.25
283.513	1739.25
283.745	1722.25
283.976	1711.25
284.207	1820.25
284.439	1865.25
284.67	1764.25
284.901	1758.25
285.132	1730.25
285.364	1661.25
285.595	1669.25
285.826	1763.25
286.057	1866.25
286.288	1692.25
286.52	1481.25
286.751	1418.25
286.982	1443.25
287.213	1546.25
287.444	1721.25
287.675	1729.25
287.906	1544.25
288.138	1470.25
288.369	1455.25
288.6	1464.25
288.831	1449.25
289.062	1344.25
289.293	1309.25
289.524	1329.25
289.755	1415.25
289.986	1383.25
290.217	1308.25
290.448	1218.25
290.679	1201.25
290.91	1202.25
291.141	1206.25
291.371	1208.25
291.602	1220.25
291.833	1201.25
292.064	1259.25
292.295	1274.25
292.526	1340.25
292.757	1396.25
292.987	1403.25
293.218	1331.25
293.449	1311.25
293.68	1305.25
293.91	1351.25
294.141	1337.25
294.372	1393.25
294.603	1506.25
294.833	1719.25
295.064	1856.25
295.295	1763.25
295.525	1539.25
295.756	1495.25
295.987	1357.25
296.217	1431.25
296.448	1441.25
296.679	1556.25
296.909	1691.25
297.14	1699.25
297.37	1661.25
297.601	1568.25
297.831	1442.25
298.062	1441.25
298.292	1649.25
298.523	1946.25
298.753	2235.25
298.984	1930.25
299.214	1523.25
299.445	1437.25
299.675	1484.25
299.905	1535.25
300.136	1631.25
300.366	1718.25
300.597	1760.25
300.827	1578.25
301.057	1498.25
301.288	1498.25
301.518	1397.25
301.748	1459.25
301.979	1658.25
302.209	1953.25
302.439	1991.25
302.669	1679.25
302.9	1553.25
303.13	1418.25
303.36	1415.25
303.59	1379.25
303.82	1378.25
304.051	1469.25
304.281	1437.25
304.511	1376.25
304.741	1381.25
304.971	1453.25
305.201	1440.25
305.431	1364.25
305.661	1390.25
305.891	1508.25
306.121	1626.25
306.352	1484.25
306.582	1435.25
306.812	1404.25
307.042	1427.25
307.272	1384.25
307.502	1314.25
307.731	1406.25
307.961	1495.25
308.191	1456.25
308.421	1332.25
308.651	1302.25
308.881	1281.25
309.111	1229.25
309.341	1250.25
309.571	1273.25
309.8	1293.25
310.03	1369.25
310.26	1453.25
310.49	1403.25
310.72	1249.25
310.949	1243.25
311.179	1240.25
311.409	1251.25
311.639	1267.25
311.868	1317.25
312.098	1293.25
312.328	1305.25
312.557	1281.25
312.787	1292.25
313.017	1285.25
313.246	1287.25
313.476	1299.25
313.706	1384.25
313.935	1355.25
314.165	1327.25
314.394	1331.25
314.624	1339.25
314.853	1340.25
315.083	1375.25
315.312	1419.25
315.542	1573.25
315.771	1565.25
316.001	1456.25
316.23	1417.25
316.46	1435.25
316.689	1444.25
316.919	1472.25
317.148	1515.25
317.377	1428.25
317.607	1436.25
317.836	1464.25
318.065	1551.25
318.295	1584.25
318.524	1491.25
318.753	1518.25
318.983	1483.25
319.212	1503.25
319.441	1551.25
319.67	1714.25
319.9	1636.25
320.129	1573.25
320.358	1461.25
320.587	1465.25
320.816	1512.25
321.046	1661.25
321.275	1819.25
321.504	1986.25
321.733	1833.25
321.962	1729.25
322.191	1719.25
322.42	1746.25
322.649	1813.25
322.878	1912.25
323.108	1886.25
323.337	1705.25
323.566	1635.25
323.795	1574.25
324.024	1554.25
324.253	1507.25
324.482	1477.25
324.71	1511.25
324.939	1523.25
325.168	1545.25
325.397	1453.25
325.626	1521.25
325.855	1568.25
326.084	1618.25
326.313	1548.25
326.542	1434.25
326.77	1454.25
326.999	1430.25
327.228	1423.25
327.457	1431.25
327.686	1451.25
327.914	1474.25
328.143	1498.25
328.372	1467.25
328.6	1508.25
328.829	1521.25
329.058	1554.25
329.287	1495.25
329.515	1457.25
329.744	1405.25
329.972	1427.25
330.201	1441.25
330.43	1462.25
330.658	1527.25
330.887	1612.25
331.115	1553.25
331.344	1483.25
331.572	1427.25
331.801	1443.25
332.03	1433.25
332.258	1497.25
332.486	1550.25
332.715	1573.25
332.943	1611.25
333.172	1638.25
333.4	1683.25
333.629	1712.25
333.857	1720.25
334.085	1669.25
334.314	1688.25
334.542	1649.25
334.771	1610.25
334.999	1618.25
335.227	1627.25
335.455	1569.25
335.684	1587.25
335.912	1599.25
336.14	1559.25
336.369	1538.25
336.597	1538.25
336.825	1563.25
337.053	1583.25
337.281	1625.25
337.51	1532.25
337.738	1529.25
337.966	1513.25
338.194	1527.25
338.422	1509.25
338.65	1489.25
338.878	1456.25
339.106	1451.25
339.334	1532.25
339.562	1574.25
339.79	1500.25
340.018	1486.25
340.246	1544.25
340.474	1569.25
340.702	1629.25
340.93	1748.25
341.158	1676.25
341.386	1601.25
341.614	1583.25
341.842	1600.25
342.07	1575.25
342.298	1565.25
342.526	1619.25
342.754	1765.25
342.981	1767.25
343.209	1678.25
343.437	1643.25
343.665	1698.25
343.893	1884.25
344.12	2158.25
344.348	2296.25
344.576	2055.25
344.804	1801.25
345.031	1655.25
345.259	1622.25
345.487	1573.25
345.714	1539.25
345.942	1532.25
346.17	1555.25
346.397	1549.25
346.625	1540.25
346.853	1612.25
347.08	1563.25
347.308	1568.25
347.535	1610.25
347.763	1731.25
347.99	1647.25
348.218	1496.25
348.445	1501.25
348.673	1482.25
348.9	1519.25
349.128	1642.25
349.355	1691.25
349.583	1586.25
349.81	1587.25
350.037	1531.25
350.265	1443.25
350.492	1427.25
350.72	1380.25
350.947	1421.25
351.174	1429.25
351.402	1437.25
351.629	1504.25
351.856	1505.25
352.083	1463.25
352.311	1568.25
352.538	1648.25
352.765	1679.25
352.992	1639.25
353.22	1574.25
353.447	1570.25
353.674	1572.25
353.901	1612.25
354.128	1608.25
354.355	1645.25
354.583	1594.25
354.81	1506.25
355.037	1532.25
355.264	1601.25
355.491	1730.25
355.718	1909.25
355.945	1857.25
356.172	1740.25
356.399	1741.25
356.626	1998.25
356.853	2322.25
357.08	2515.25
357.307	2596.25
357.534	2002.25
357.761	1843.25
357.988	2035.25
358.215	2612.25
358.441	2913.25
358.668	2483.25
358.895	2266.25
359.122	1838.25
359.349	1561.25
359.576	1485.25
359.802	1463.25
360.029	1475.25
360.256	1561.25
360.483	1697.25
360.709	2034.25
360.936	2301.25
361.163	2203.25
361.39	1833.25
361.616	1687.25
361.843	1956.25
362.07	2275.25
362.296	2147.25
362.523	1823.25
362.749	1631.25
362.976	1636.25
363.203	1955.25
363.429	2149.25
363.656	1794.25
363.882	1619.25
364.109	1611.25
364.335	1559.25
364.562	1619.25
364.788	1759.25
365.015	2105.25
365.241	1888.25
365.468	1627.25
365.694	1424.25
365.92	1396.25
366.147	1329.25
366.373	1353.25
366.599	1318.25
366.826	1323.25
367.052	1408.25
367.278	1413.25
367.505	1388.25
367.731	1472.25
367.957	1557.25
368.184	1669.25
368.41	1655.25
368.636	1686.25
368.862	1728.25
369.089	1686.25
369.315	1522.25
369.541	1512.25
369.767	1529.25
369.993	1465.25
370.219	1456.25
370.445	1612.25
370.672	1693.25
370.898	1850.25
371.124	1866.25
371.35	1636.25
371.576	1565.25
371.802	1636.25
372.028	1952.25
372.254	2273.25
372.48	2007.25
372.706	1812.25
372.932	1875.25
373.158	1961.25
373.384	2240.25
373.61	2976.25
373.835	3125.25
374.061	2373.25
374.287	1958.25
374.513	2198.25
374.739	2613.25
374.965	2823.25
375.191	2739.25
375.416	2062.25
375.642	1800.25
375.868	2065.25
376.094	2306.25
376.319	1999.25
376.545	2184.25
376.771	2289.25
376.997	1965.25
377.222	1547.25
377.448	1353.25
377.674	1305.25
377.899	1379.25
378.125	1373.25
378.35	1370.25
378.576	1410.25
378.802	1494.25
379.027	1628.25
379.253	1509.25
379.478	1548.25
379.704	1697.25
379.929	1801.25
380.155	1808.25
380.38	1568.25
380.606	1540.25
380.831	1669.25
381.057	1591.25
381.282	1603.25
381.507	1872.25
381.733	2283.25
381.958	2465.25
382.184	2663.25
382.409	2748.25
382.634	2593.25
382.86	2839.25
383.085	2388.25
383.31	1879.25
383.535	1955.25
383.761	2070.25
383.986	1943.25
384.211	2295.25
384.436	2252.25
384.662	1807.25
384.887	1813.25
385.112	1782.25
385.337	1798.25
385.562	1682.25
385.787	1812.25
386.013	2075.25
386.238	2105.25
386.463	1826.25
386.688	1695.25
386.913	1704.25
387.138	1564.25
387.363	1700.25
387.588	1750.25
387.813	1743.25
388.038	1923.25
388.263	1764.25
388.488	1675.25
388.713	1929.25
388.938	2138.25
389.163	1811.25
389.387	1659.25
389.612	1659.25
389.837	1687.25
390.062	1749.25
390.287	1758.25
390.512	1729.25
390.736	1662.25
390.961	1590.25
391.186	1515.25
391.411	1547.25
391.636	1598.25
391.86	1673.25
392.085	1796.25
392.31	1880.25
392.534	1799.25
392.759	1753.25
392.984	1809.25
393.208	1857.25
393.433	1768.25
393.658	1739.25
393.882	1591.25
394.107	1541.25
394.331	1523.25
394.556	1516.25
394.78	1570.25
395.005	1648.25
395.229	1636.25
395.454	1653.25
395.678	1668.25
395.903	1723.25
396.127	1626.25
396.352	1602.25
396.576	1621.25
396.801	1723.25
397.025	1943.25
397.249	1927.25
397.474	1688.25
397.698	1630.25
397.922	1662.25
398.147	1630.25
398.371	1650.25
398.595	1747.25
398.82	1745.25
399.044	1802.25
399.268	1977.25
399.492	2183.25
399.717	2364.25
399.941	2420.25
400.165	2277.25
400.389	2073.25
400.613	2056.25
400.837	2025.25
401.062	1853.25
401.286	1747.25
401.51	1770.25
401.734	1728.25
401.958	1725.25
402.182	1742.25
402.406	1839.25
402.63	1775.25
402.854	1835.25
403.078	1861.25
403.302	1971.25
403.526	1965.25
403.75	1958.25
403.974	1924.25
404.198	1999.25
404.422	2125.25
404.645	2593.25
404.869	2787.25
405.093	2126.25
405.317	1902.25
405.541	1886.25
405.765	1883.25
405.988	1904.25
406.212	2038.25
406.436	2348.25
406.66	2637.25
406.883	2177.25
407.107	2317.25
407.331	2585.25
407.555	2521.25
407.778	2199.25
408.002	2059.25
408.226	2027.25
408.449	1993.25
408.673	1952.25
408.896	1895.25
409.12	1841.25
409.344	1851.25
409.567	1814.25
409.791	1833.25
410.014	1853.25
410.238	1777.25
410.461	1779.25
410.685	1811.25
410.908	1772.25
411.132	1816.25
411.355	1758.25
411.578	1786.25
411.802	1818.25
412.025	1905.25
412.249	1936.25
412.472	1820.25
412.695	1792.25
412.919	1735.25
413.142	1813.25
413.365	1908.25
413.589	1960.25
413.812	1806.25
414.035	1792.25
414.258	1865.25
414.482	2008.25
414.705	2071.25
414.928	1791.25
415.151	1728.25
415.374	1725.25
415.597	1780.25
415.821	1800.25
416.044	1729.25
416.267	1676.25
416.49	1639.25
416.713	1647.25
416.936	1657.25
417.159	1634.25
417.382	1675.25
417.605	1698.25
417.828	1758.25
418.051	1751.25
418.274	1779.25
418.497	1839.25
418.72	1830.25
418.943	1881.25
419.166	1948.25
419.389	2007.25
419.611	1963.25
419.834	1938.25
420.057	2139.25
420.28	2107.25
420.503	1943.25
420.726	1767.25
420.948	1700.25
421.171	1700.25
421.394	1688.25
421.617	1695.25
421.839	1726.25
422.062	1803.25
422.285	1773.25
422.507	1823.25
422.73	1841.25
422.953	1894.25
423.175	1829.25
423.398	1816.25
423.621	1853.25
423.843	1939.25
424.066	1869.25
424.288	1750.25
424.511	1743.25
424.733	1772.25
424.956	1828.25
425.178	1934.25
425.401	1929.25
425.623	1722.25
425.846	1658.25
426.068	1774.25
426.291	1973.25
426.513	1756.25
426.735	1669.25
426.958	1700.25
427.18	1921.25
427.402	2347.25
427.625	1899.25
427.847	1585.25
428.069	1525.25
428.292	1584.25
428.514	1577.25
428.736	1525.25
428.958	1514.25
429.181	1504.25
429.403	1486.25
429.625	1589.25
429.847	1513.25
430.069	1607.25
430.292	1631.25
430.514	1624.25
430.736	1738.25
430.958	2143.25
431.18	1923.25
431.402	1578.25
431.624	1522.25
431.846	1540.25
432.068	1540.25
432.29	1608.25
432.512	1731.25
432.734	2149.25
432.956	1975.25
433.178	1629.25
433.4	1511.25
433.622	1541.25
433.844	1559.25
434.066	1534.25
434.287	1492.25
434.509	1527.25
434.731	1593.25
434.953	1611.25
435.175	1612.25
435.397	1695.25
435.618	1583.25
435.84	1551.25
436.062	1541.25
436.284	1465.25
436.505	1459.25
436.727	1486.25
436.949	1464.25
437.17	1495.25
437.392	1441.25
437.614	1470.25
437.835	1449.25
438.057	1507.25
438.278	1704.25
438.5	2302.25
438.721	2277.25
438.943	1659.25
439.165	1503.25
439.386	1474.25
439.608	1450.25
439.829	1444.25
440.05	1481.25
440.272	1571.25
440.493	1797.25
440.715	2107.25
440.936	1777.25
441.158	1615.25
441.379	1645.25
441.6	1806.25
441.822	1921.25
442.043	1683.25
442.264	1631.25
442.486	1627.25
442.707	1636.25
442.928	1671.25
443.149	1669.25
443.371	1585.25
443.592	1645.25
443.813	1644.25
444.034	1667.25
444.255	1770.25
444.476	1865.25
444.698	1887.25
444.919	1884.25
445.14	1905.25
445.361	1774.25
445.582	1669.25
445.803	1615.25
446.024	1607.25
446.245	1605.25
446.466	1575.25
446.687	1507.25
446.908	1601.25
447.129	1515.25
447.35	1515.25
447.571	1452.25
447.792	1457.25
448.013	1489.25
448.234	1418.25
448.455	1468.25
448.675	1396.25
448.896	1427.25
449.117	1393.25
449.338	1394.25
449.559	1453.25
449.779	1443.25
450	1451.25
450.221	1457.25
450.442	1480.25
450.662	1458.25
450.883	1485.25
451.104	1453.25
451.324	1424.25
451.545	1452.25
451.766	1460.25
451.986	1410.25
452.207	1419.25
452.428	1423.25
452.648	1405.25
452.869	1431.25
453.089	1425.25
453.31	1444.25
453.53	1370.25
453.751	1355.25
453.971	1326.25
454.192	1312.25
454.412	1280.25
454.633	1294.25
454.853	1278.25
455.073	1305.25
455.294	1315.25
455.514	1296.25
455.734	1278.25
455.955	1260.25
456.175	1300.25
456.395	1298.25
456.616	1256.25
456.836	1272.25
457.056	1297.25
457.276	1239.25
457.497	1250.25
457.717	1246.25
457.937	1265.25
458.157	1292.25
458.377	1309.25
458.598	1344.25
458.818	1373.25
459.038	1370.25
459.258	1433.25
459.478	1485.25
459.698	1515.25
459.918	1524.25
460.138	1620.25
460.358	1645.25
460.578	1622.25
460.798	1674.25
461.018	1689.25
461.238	1681.25
461.458	1677.25
461.678	1700.25
461.898	1753.25
462.118	1749.25
462.338	1808.25
462.558	1859.25
462.777	1894.25
462.997	2032.25
463.217	2112.25
463.437	2113.25
463.657	2037.25
463.876	1971.25
464.096	1932.25
464.316	1913.25
464.536	1969.25
464.755	1938.25
464.975	1895.25
465.195	1826.25
465.414	1803.25
465.634	1831.25
465.854	1834.25
466.073	1735.25
466.293	1690.25
466.512	1773.25
466.732	1865.25
466.951	1939.25
467.171	1705.25
467.391	1671.25
467.61	1608.25
467.829	1780.25
468.049	1780.25
468.268	1691.25
468.488	1635.25
468.707	1715.25
468.927	2029.25
469.146	2115.25
469.365	1926.25
469.585	1743.25
469.804	1874.25
470.023	2029.25
470.243	1815.25
470.462	1763.25
470.681	1778.25
470.901	1764.25
471.12	1803.25
471.339	1835.25
471.558	1734.25
471.777	1757.25
471.997	1860.25
472.216	2023.25
472.435	1999.25
472.654	1832.25
472.873	1775.25
473.092	1819.25
473.311	1904.25
473.53	1793.25
473.749	1726.25
473.968	1804.25
474.187	1764.25
474.406	1731.25
474.625	1739.25
474.844	1823.25
475.063	1931.25
475.282	1849.25
475.501	1855.25
475.72	1829.25
475.939	1826.25
476.158	1989.25
476.377	2132.25
476.596	2431.25
476.814	2463.25
477.033	2209.25
477.252	2032.25
477.471	1887.25
477.69	1896.25
477.908	2144.25
478.127	2153.25
478.346	1994.25
478.564	1978.25
478.783	1979.25
479.002	2091.25
479.22	2395.25
479.439	2658.25
479.658	2314.25
479.876	2184.25
480.095	2337.25
480.313	2362.25
480.532	2213.25
480.751	2172.25
480.969	2199.25
481.188	2455.25
481.406	2435.25
481.624	2347.25
481.843	2135.25
482.061	2032.25
482.28	2258.25
482.498	2388.25
482.717	2171.25
482.935	2124.25
483.153	1995.25
483.372	1895.25
483.59	1837.25
483.808	1937.25
484.027	1916.25
484.245	1872.25
484.463	1877.25
484.681	1920.25
484.9	2080.25
485.118	2141.25
485.336	2101.25
485.554	1984.25
485.772	2051.25
485.99	2213.25
486.209	2357.25
486.427	2229.25
486.645	2192.25
486.863	2308.25
487.081	2330.25
487.299	2497.25
487.517	2399.25
487.735	2186.25
487.953	2192.25
488.171	2331.25
488.389	2168.25
488.607	2035.25
488.825	2064.25
489.043	2230.25
489.261	2673.25
489.479	2786.25
489.696	2373.25
489.914	2177.25
490.132	2101.25
490.35	2077.25
490.568	2065.25
490.786	1980.25
491.003	2007.25
491.221	2104.25
491.439	2075.25
491.657	2044.25
491.874	2251.25
492.092	2649.25
492.31	2999.25
492.527	2764.25
492.745	2675.25
492.963	2409.25
493.18	2412.25
493.398	2433.25
493.615	2370.25
493.833	2238.25
494.05	2185.25
494.268	2339.25
494.485	2282.25
494.703	2265.25
494.92	2287.25
495.138	2239.25
495.355	2264.25
495.573	2255.25
495.79	2493.25
496.008	3259.25
496.225	2727.25
496.442	2490.25
496.66	2477.25
496.877	2671.25
497.094	2611.25
497.312	2431.25
497.529	2509.25
497.746	2505.25
497.963	2652.25
498.181	2827.25
498.398	3090.25
498.615	3235.25
498.832	3388.25
499.049	3463.25
499.267	3253.25
499.484	3376.25
499.701	3551.25
499.918	3939.25
500.135	4363.25
500.352	4562.25
500.569	4763.25
500.786	4833.25
501.003	4609.25
501.22	4168.25
501.437	3807.25
501.654	3495.25
501.871	3291.25
502.088	3239.25
502.305	2990.25
502.522	2978.25
502.739	3002.25
502.956	2759.25
503.172	2667.25
503.389	2516.25
503.606	2424.25
503.823	2410.25
504.04	2449.25
504.256	2489.25
504.473	2623.25
504.69	2653.25
504.907	2674.25
505.123	2623.25
505.34	2710.25
505.557	2641.25
505.773	2507.25
505.99	2418.25
506.207	2497.25
506.423	2274.25
506.64	2148.25
506.856	2260.25
507.073	2496.25
507.289	2432.25
507.506	2412.25
507.722	2571.25
507.939	2567.25
508.155	2607.25
508.372	2321.25
508.588	2281.25
508.805	2178.25
509.021	2206.25
509.238	2112.25
509.454	2095.25
509.67	2151.25
509.887	2168.25
510.103	2387.25
510.319	2359.25
510.536	2076.25
510.752	1891.25
510.968	1852.25
511.184	1809.25
511.401	1839.25
511.617	1778.25
511.833	1790.25
512.049	1825.25
512.265	1919.25
512.481	2009.25
512.698	2209.25
512.914	2403.25
513.13	2136.25
513.346	2017.25
513.562	2155.25
513.778	2091.25
513.994	2025.25
514.21	2129.25
514.426	2082.25
514.642	1997.25
514.858	1940.25
515.074	2063.25
515.29	2125.25
515.506	2081.25
515.721	2101.25
515.937	2105.25
516.153	2053.25
516.369	2086.25
516.585	2223.25
516.801	2465.25
517.016	2869.25
517.232	2845.25
517.448	2911.25
517.664	2636.25
517.879	2503.25
518.095	2401.25
518.311	2343.25
518.527	2393.25
518.742	2489.25
518.958	2401.25
519.173	2267.25
519.389	2337.25
519.605	2388.25
519.82	2549.25
520.036	2928.25
520.251	2795.25
520.467	2316.25
520.682	2077.25
520.898	2015.25
521.113	2067.25
521.329	2143.25
521.544	2296.25
521.76	2424.25
521.975	2203.25
522.19	2084.25
522.406	2154.25
522.621	2463.25
522.836	2525.25
523.052	2649.25
523.267	2171.25
523.482	2206.25
523.698	2287.25
523.913	2120.25
524.128	2011.25
524.343	1953.25
524.559	1988.25
524.774	1896.25
524.989	1901.25
525.204	2001.25
525.419	2289.25
525.634	2001.25
525.849	2101.25
526.064	2102.25
526.28	2210.25
526.495	2460.25
526.71	2299.25
526.925	2195.25
527.14	2411.25
527.355	2229.25
527.57	1799.25
527.785	1735.25
527.999	1701.25
528.214	1691.25
528.429	1710.25
528.644	1742.25
528.859	1641.25
529.074	1601.25
529.289	1599.25
529.503	1598.25
529.718	1596.25
529.933	1571.25
530.148	1548.25
530.363	1580.25
530.577	1628.25
530.792	1561.25
531.007	1545.25
531.221	1520.25
531.436	1559.25
531.651	1579.25
531.865	1642.25
532.08	1617.25
532.295	1569.25
532.509	1659.25
532.724	1838.25
532.938	1960.25
533.153	2206.25
533.367	1837.25
533.582	1826.25
533.796	1700.25
534.011	1589.25
534.225	1648.25
534.44	1584.25
534.654	1496.25
534.868	1521.25
535.083	1490.25
535.297	1519.25
535.511	1460.25
535.726	1486.25
535.94	1506.25
536.154	1519.25
536.369	1550.25
536.583	1547.25
536.797	1663.25
537.011	1690.25
537.225	1825.25
537.44	1939.25
537.654	1573.25
537.868	1497.25
538.082	1515.25
538.296	1540.25
538.51	1631.25
538.724	1672.25
538.938	1605.25
539.153	1498.25
539.367	1491.25
539.581	1522.25
539.795	1559.25
540.009	1639.25
540.222	1551.25
540.436	1569.25
540.65	1720.25
540.864	1753.25
541.078	1657.25
541.292	1633.25
541.506	1580.25
541.72	1650.25
541.934	1559.25
542.147	1529.25
542.361	1540.25
542.575	1661.25
542.789	1641.25
543.002	1566.25
543.216	1788.25
543.43	1569.25
543.644	1585.25
543.857	1534.25
544.071	1504.25
544.285	1500.25
544.498	1494.25
544.712	1526.25
544.925	1664.25
545.139	1563.25
545.352	1472.25
545.566	1534.25
545.779	1823.25
545.993	1611.25
546.206	1501.25
546.42	1532.25
546.633	1504.25
546.847	1451.25
547.06	1433.25
547.274	1458.25
547.487	1514.25
547.7	1596.25
547.914	1651.25
548.127	1846.25
548.34	1821.25
548.554	1625.25
548.767	1691.25
548.98	1755.25
549.193	1652.25
549.407	1730.25
549.62	1975.25
549.833	1899.25
550.046	1914.25
550.259	1892.25
550.473	1617.25
550.686	1599.25
550.899	1691.25
551.112	1646.25
551.325	1773.25
551.538	1799.25
551.751	1557.25
551.964	1405.25
552.177	1391.25
552.39	1392.25
552.603	1427.25
552.816	1422.25
553.029	1423.25
553.242	1421.25
553.455	1490.25
553.667	1572.25
553.88	1595.25
554.093	1506.25
554.306	1417.25
554.519	1379.25
554.732	1303.25
554.944	1267.25
555.157	1259.25
555.37	1260.25
555.583	1250.25
555.795	1249.25
556.008	1260.25
556.221	1311.25
556.433	1244.25
556.646	1232.25
556.859	1267.25
557.071	1293.25
557.284	1293.25
557.496	1304.25
557.709	1207.25
557.921	1211.25
558.134	1172.25
558.346	1149.25
558.559	1135.25
558.771	1183.25
558.984	1277.25
559.196	1177.25
559.409	1122.25
559.621	1117.25
559.833	1111.25
560.046	1108.25
560.258	1090.25
560.47	1092.25
560.683	1085.25
560.895	1075.25
561.107	1099.25
561.32	1087.25
561.532	1101.25
561.744	1240.25
561.956	1238.25
562.168	1100.25
562.381	1105.25
562.593	1099.25
562.805	1129.25
563.017	1107.25
563.229	1101.25
563.441	1076.25
563.653	1081.25
563.865	1091.25
564.077	1085.25
564.289	1101.25
564.501	1109.25
564.713	1118.25
564.925	1146.25
565.137	1143.25
565.349	1171.25
565.561	1215.25
565.773	1253.25
565.985	1305.25
566.197	1387.25
566.408	1431.25
566.62	1532.25
566.832	1585.25
567.044	1565.25
567.255	1562.25
567.467	1649.25
567.679	1697.25
567.891	1765.25
568.102	1775.25
568.314	1763.25
568.526	1640.25
568.737	1504.25
568.949	1359.25
569.161	1277.25
569.372	1241.25
569.584	1188.25
569.795	1169.25
570.007	1159.25
570.218	1136.25
570.43	1083.25
570.641	1056.25
570.853	1082.25
571.064	1097.25
571.276	1088.25
571.487	1119.25
571.698	1069.25
571.91	1051.25
572.121	986.25
572.333	977.25
572.544	940.25
572.755	920.25
572.966	902.25
573.178	921.25
573.389	917.25
573.6	904.25
573.811	867.25
574.023	894.25
574.234	863.25
574.445	938.25
574.656	896.25
574.867	919.25
575.078	905.25
575.289	874.25
575.501	903.25
575.712	845.25
575.923	835.25
576.134	854.25
576.345	859.25
576.556	880.25
576.767	847.25
576.978	855.25
577.188	842.25
577.399	825.25
577.61	810.25
577.821	829.25
578.032	798.25
578.243	789.25
578.454	776.25
578.665	793.25
578.875	796.25
579.086	773.25
579.297	798.25
579.508	775.25
579.718	803.25
579.929	760.25
580.14	764.25
580.35	764.25
580.561	785.25
580.772	791.25
580.982	754.25
581.193	754.25
581.403	755.25
581.614	737.25
581.825	721.25
582.035	751.25
582.246	731.25
582.456	754.25
582.667	739.25
582.877	737.25
583.087	754.25
583.298	741.25
583.508	722.25
583.719	724.25
583.929	746.25
584.139	731.25
584.35	720.25
584.56	708.25
584.77	728.25
584.981	721.25
585.191	727.25
585.401	749.25
585.611	717.25
585.821	734.25
586.032	733.25
586.242	727.25
586.452	731.25
586.662	714.25
586.872	725.25
587.082	715.25
587.292	704.25
587.502	697.25
587.713	733.25
587.923	733.25
588.133	717.25
588.343	697.25
588.553	728.25
588.762	737.25
588.972	697.25
589.182	737.25
589.392	736.25
589.602	734.25
589.812	753.25
590.022	760.25
590.232	745.25
590.441	735.25
590.651	745.25
590.861	722.25
591.071	761.25
591.281	727.25
591.49	745.25
591.7	772.25
591.91	773.25
592.119	769.25
592.329	803.25
592.539	783.25
592.748	798.25
592.958	811.25
593.167	870.25
593.377	896.25
593.587	905.25
593.796	879.25
594.006	881.25
594.215	893.25
594.424	917.25
594.634	856.25
594.843	836.25
595.053	823.25
595.262	781.25
595.472	739.25
595.681	751.25
595.89	719.25
596.1	704.25
596.309	678.25
596.518	704.25
596.727	708.25
596.937	671.25
597.146	728.25
597.355	705.25
597.564	705.25
597.774	674.25
597.983	654.25
598.192	625.25
598.401	641.25
598.61	658.25
598.819	642.25
599.028	627.25
599.237	620.25
599.446	599.25
599.655	607.25
599.864	621.25
600.073	598.25
600.282	624.25
600.491	620.25
600.7	621.25
600.909	616.25
601.118	595.25
601.327	594.25
601.536	601.25
601.745	597.25
601.953	570.25
602.162	589.25
602.371	581.25
602.58	593.25
602.789	573.25
602.997	595.25
603.206	573.25
603.415	558.25
603.623	543.25
603.832	548.25
604.041	547.25
604.249	574.25
604.458	599.25
604.666	550.25
604.875	553.25
605.084	563.25
605.292	542.25
605.501	573.25
605.709	559.25
605.918	545.25
606.126	555.25
606.334	531.25
606.543	539.25
606.751	506.25
606.96	564.25
607.168	540.25
607.376	523.25
607.585	525.25
607.793	530.25
608.001	521.25
608.21	543.25
608.418	525.25
608.626	507.25
608.834	506.25
609.043	523.25
609.251	517.25
609.459	522.25
609.667	540.25
609.875	525.25
610.083	511.25
610.291	525.25
610.499	525.25
610.707	530.25
610.916	498.25
611.124	519.25
611.332	525.25
611.54	535.25
611.748	538.25
611.955	548.25
612.163	553.25
612.371	502.25
612.579	492.25
612.787	519.25
612.995	522.25
613.203	515.25
613.411	505.25
613.618	498.25
613.826	510.25
614.034	513.25
614.242	491.25
614.449	489.25
614.657	500.25
614.865	511.25
615.072	498.25
615.28	483.25
615.488	508.25
615.695	489.25
615.903	500.25
616.111	507.25
616.318	489.25
616.526	495.25
616.733	493.25
616.941	512.25
617.148	503.25
617.356	473.25
617.563	474.25
617.771	484.25
617.978	472.25
618.185	487.25
618.393	496.25
618.6	478.25
618.807	496.25
619.015	487.25
619.222	493.25
619.429	485.25
619.637	504.25
619.844	483.25
620.051	468.25
620.258	468.25
620.466	457.25
620.673	427.25
620.88	448.25
621.087	427.25
621.294	436.25
621.501	442.25
621.708	433.25
621.915	442.25
622.122	455.25
622.329	449.25
622.536	445.25
622.743	445.25
622.95	458.25
623.157	469.25
623.364	493.25
623.571	453.25
623.778	452.25
623.985	432.25
624.192	440.25
624.399	429.25
624.606	421.25
624.812	449.25
625.019	433.25
625.226	425.25
625.433	436.25
625.639	437.25
625.846	405.25
626.053	404.25
626.259	408.25
626.466	422.25
626.673	402.25
626.879	402.25
627.086	405.25
627.293	401.25
627.499	420.25
627.706	417.25
627.912	396.25
628.119	391.25
628.325	421.25
628.532	401.25
628.738	393.25
628.945	384.25
629.151	393.25
629.357	403.25
629.564	419.25
629.77	387.25
629.976	389.25
630.183	382.25
630.389	397.25
630.595	384.25
630.802	399.25
631.008	388.25
631.214	366.25
631.42	377.25
631.627	374.25
631.833	358.25
632.039	391.25
632.245	363.25
632.451	373.25
632.657	370.25
632.863	371.25
633.069	372.25
633.275	374.25
633.481	383.25
633.688	371.25
633.893	363.25
634.099	363.25
634.305	341.25
634.511	366.25
634.717	355.25
634.923	358.25
635.129	354.25
635.335	330.25
635.541	351.25
635.747	349.25
635.952	336.25
636.158	356.25
636.364	352.25
636.57	361.25
636.775	335.25
636.981	352.25
637.187	335.25
637.392	348.25
637.598	335.25
637.804	345.25
638.009	354.25
638.215	321.25
638.421	350.25
638.626	346.25
638.832	337.25
639.037	349.25
639.243	342.25
639.448	347.25
639.654	357.25
639.859	331.25
640.065	347.25
640.27	352.25
640.475	332.25
640.681	323.25
640.886	320.25
641.091	349.25
641.297	332.25
641.502	330.25
641.707	298.25
641.913	301.25
642.118	330.25
642.323	327.25
642.528	314.25
642.733	319.25
642.939	319.25
643.144	304.25
643.349	327.25
643.554	329.25
643.759	309.25
643.964	293.25
644.169	305.25
644.374	306.25
644.579	318.25
644.784	306.25
644.989	314.25
645.194	309.25
645.399	318.25
645.604	302.25
645.809	301.25
646.014	318.25
646.219	311.25
646.423	315.25
646.628	323.25
646.833	301.25
647.038	318.25
647.243	327.25
647.447	313.25
647.652	335.25
647.857	332.25
648.062	329.25
648.266	329.25
648.471	323.25
648.676	329.25
648.88	323.25
649.085	324.25
649.289	323.25
649.494	317.25
649.698	341.25
649.903	319.25
650.107	307.25
650.312	307.25
650.516	294.25
650.721	287.25
650.925	258.25
651.13	272.25
651.334	273.25
651.539	273.25
651.743	253.25
651.947	263.25
652.152	267.25
652.356	261.25
652.56	251.25
652.764	226.25
652.969	223.25
653.173	252.25
653.377	233.25
653.581	230.25
653.785	245.25
653.99	242.25
654.194	235.25
654.398	236.25
654.602	245.25
654.806	221.25
655.01	232.25
655.214	230.25
655.418	214.25
655.622	229.25
655.826	223.25
656.03	235.25
656.234	258.25
656.438	263.25
656.642	260.25
656.846	238.25
657.049	221.25
657.253	229.25
657.457	208.25
657.661	180.25
657.865	184.25
658.068	171.25
658.272	172.25
658.476	152.25
658.68	159.25
658.883	151.25
659.087	145.25
659.291	143.25
659.494	139.25
659.698	129.25
659.901	121.25
660.105	127.25
660.309	124.25
660.512	117.25
660.716	121.25
660.919	111.25
661.123	126.25
661.326	114.25
661.53	96.25
661.733	114.25
661.936	120.25
662.14	106.25
662.343	105.25
662.546	107.25
662.75	114.25
662.953	113.25
663.156	102.25
663.36	109.25
663.563	98.25
663.766	109.25
663.969	87.25
664.173	100.25
664.376	94.25
664.579	103.25
664.782	91.25
664.985	91.25
665.188	85.25
665.391	104.25
665.594	77.25
665.797	88.25
666	91.25
666.203	94.25
666.406	91.25
666.609	98.25
666.812	89.25
667.015	82.25
667.218	91.25
667.421	93.25
667.624	76.25
667.827	92.25
668.03	81.25
668.232	89.25
668.435	87.25
668.638	101.25
668.841	88.25
669.043	85.25
669.246	87.25
669.449	101.25
669.651	96.25
669.854	87.25
670.057	84.25
670.259	88.25
670.462	80.25
670.665	87.25
670.867	96.25
671.07	97.25
671.272	86.25
671.475	89.25
671.677	96.25
671.88	98.25
672.082	89.25
672.284	90.25
672.487	88.25
672.689	78.25
672.892	89.25
