Data from UnknownNail75mm.07152019.Lampedge.EN5.5scans.P1_HRD10591_15-16-25-730.txt Node
Date: Mon Jul 15 15:16:25 EDT 2019
User: cochatt
Spectrometer: HR+D1059
Trigger mode: 1
Integration Time (sec): 1.000000E-1
Scans to average: 1
Electric dark correction enabled: true
Nonlinearity correction enabled: false
Boxcar width: 0
XAxis mode: Wavelengths
Number of Pixels in Spectrum: 2048
>>>>>Begin Spectral Data<<<<<
223.165	-11.88
223.4	-11.88
223.635	-11.88
223.869	-14.88
224.104	-33.88
224.338	-8.88
224.573	-19.88
224.808	-9.88
225.042	7.12
225.277	-16.88
225.511	6.12
225.746	4.12
225.98	6.12
226.215	14.12
226.449	5.12
226.683	22.12
226.918	28.12
227.152	23.12
227.387	30.12
227.621	36.12
227.856	48.12
228.09	50.12
228.324	45.12
228.559	63.12
228.793	84.12
229.027	115.12
229.262	105.12
229.496	111.12
229.73	130.12
229.964	130.12
230.199	131.12
230.433	141.12
230.667	142.12
230.901	142.12
231.136	168.12
231.37	167.12
231.604	163.12
231.838	175.12
232.072	163.12
232.306	154.12
232.541	172.12
232.775	175.12
233.009	206.12
233.243	229.12
233.477	241.12
233.711	262.12
233.945	266.12
234.179	239.12
234.413	279.12
234.647	300.12
234.881	380.12
235.115	338.12
235.349	314.12
235.583	288.12
235.817	271.12
236.051	309.12
236.285	323.12
236.519	383.12
236.753	371.12
236.987	339.12
237.221	325.12
237.455	306.12
237.689	321.12
237.922	360.12
238.156	356.12
238.39	437.12
238.624	518.12
238.858	486.12
239.091	398.12
239.325	391.12
239.559	362.12
239.793	414.12
240.027	492.12
240.26	466.12
240.494	431.12
240.728	442.12
240.961	545.12
241.195	491.12
241.429	485.12
241.662	478.12
241.896	391.12
242.13	349.12
242.363	348.12
242.597	356.12
242.83	419.12
243.064	416.12
243.298	429.12
243.531	463.12
243.765	511.12
243.998	488.12
244.232	436.12
244.465	434.12
244.699	419.12
244.932	489.12
245.166	478.12
245.399	400.12
245.633	379.12
245.866	398.12
246.099	442.12
246.333	520.12
246.566	560.12
246.8	564.12
247.033	540.12
247.266	510.12
247.5	504.12
247.733	504.12
247.966	476.12
248.2	513.12
248.433	545.12
248.666	598.12
248.899	627.12
249.133	621.12
249.366	724.12
249.599	786.12
249.832	711.12
250.066	576.12
250.299	614.12
250.532	580.12
250.765	551.12
250.998	519.12
251.231	506.12
251.465	545.12
251.698	570.12
251.931	547.12
252.164	550.12
252.397	637.12
252.63	705.12
252.863	823.12
253.096	879.12
253.329	826.12
253.562	766.12
253.795	850.12
254.028	934.12
254.261	991.12
254.494	867.12
254.727	768.12
254.96	719.12
255.193	812.12
255.426	778.12
255.659	590.12
255.892	500.12
256.124	526.12
256.357	613.12
256.59	772.12
256.823	742.12
257.056	631.12
257.289	567.12
257.521	547.12
257.754	570.12
257.987	643.12
258.22	614.12
258.452	605.12
258.685	697.12
258.918	814.12
259.151	765.12
259.383	715.12
259.616	801.12
259.849	871.12
260.081	1104.12
260.314	1339.12
260.547	952.12
260.779	854.12
261.012	1000.12
261.244	984.12
261.477	1057.12
261.71	1045.12
261.942	826.12
262.175	784.12
262.407	723.12
262.64	798.12
262.872	919.12
263.105	1048.12
263.337	1122.12
263.57	1028.12
263.802	640.12
264.035	499.12
264.267	474.12
264.499	439.12
264.732	429.12
264.964	426.12
265.197	424.12
265.429	420.12
265.661	424.12
265.894	409.12
266.126	432.12
266.358	497.12
266.591	558.12
266.823	675.12
267.055	637.12
267.287	524.12
267.52	475.12
267.752	459.12
267.984	439.12
268.216	470.12
268.448	502.12
268.681	543.12
268.913	542.12
269.145	534.12
269.377	555.12
269.609	614.12
269.841	562.12
270.073	536.12
270.306	546.12
270.538	576.12
270.77	650.12
271.002	628.12
271.234	639.12
271.466	707.12
271.698	804.12
271.93	798.12
272.162	771.12
272.394	746.12
272.626	747.12
272.858	774.12
273.09	879.12
273.322	809.12
273.553	773.12
273.785	910.12
274.017	1228.12
274.249	1550.12
274.481	1528.12
274.713	1687.12
274.945	2002.12
275.176	2080.12
275.408	1780.12
275.64	1578.12
275.872	1564.12
276.104	1178.12
276.335	811.12
276.567	756.12
276.799	805.12
277.031	954.12
277.262	883.12
277.494	694.12
277.726	636.12
277.957	631.12
278.189	696.12
278.421	716.12
278.652	731.12
278.884	691.12
279.115	602.12
279.347	566.12
279.579	573.12
279.81	571.12
280.042	538.12
280.273	552.12
280.505	530.12
280.736	517.12
280.968	514.12
281.199	494.12
281.431	522.12
281.662	507.12
281.894	509.12
282.125	496.12
282.356	510.12
282.588	532.12
282.819	544.12
283.051	576.12
283.282	622.12
283.513	652.12
283.745	633.12
283.976	617.12
284.207	650.12
284.439	701.12
284.67	643.12
284.901	622.12
285.132	638.12
285.364	622.12
285.595	620.12
285.826	638.12
286.057	660.12
286.288	636.12
286.52	568.12
286.751	548.12
286.982	568.12
287.213	597.12
287.444	629.12
287.675	658.12
287.906	586.12
288.138	574.12
288.369	556.12
288.6	591.12
288.831	562.12
289.062	548.12
289.293	552.12
289.524	515.12
289.755	543.12
289.986	556.12
290.217	515.12
290.448	508.12
290.679	500.12
290.91	494.12
291.141	496.12
291.371	489.12
291.602	473.12
291.833	478.12
292.064	514.12
292.295	524.12
292.526	528.12
292.757	543.12
292.987	559.12
293.218	525.12
293.449	537.12
293.68	530.12
293.91	574.12
294.141	561.12
294.372	552.12
294.603	582.12
294.833	651.12
295.064	702.12
295.295	681.12
295.525	597.12
295.756	561.12
295.987	556.12
296.217	566.12
296.448	563.12
296.679	605.12
296.909	675.12
297.14	644.12
297.37	645.12
297.601	633.12
297.831	565.12
298.062	570.12
298.292	628.12
298.523	743.12
298.753	822.12
298.984	706.12
299.214	606.12
299.445	568.12
299.675	604.12
299.905	610.12
300.136	619.12
300.366	698.12
300.597	668.12
300.827	597.12
301.057	610.12
301.288	589.12
301.518	562.12
301.748	593.12
301.979	656.12
302.209	761.12
302.439	801.12
302.669	667.12
302.9	644.12
303.13	594.12
303.36	584.12
303.59	548.12
303.82	577.12
304.051	610.12
304.281	568.12
304.511	562.12
304.741	588.12
304.971	615.12
305.201	584.12
305.431	544.12
305.661	563.12
305.891	602.12
306.121	642.12
306.352	624.12
306.582	554.12
306.812	561.12
307.042	578.12
307.272	545.12
307.502	526.12
307.731	556.12
307.961	565.12
308.191	549.12
308.421	540.12
308.651	516.12
308.881	513.12
309.111	517.12
309.341	521.12
309.571	544.12
309.8	527.12
310.03	549.12
310.26	570.12
310.49	544.12
310.72	508.12
310.949	541.12
311.179	514.12
311.409	535.12
311.639	544.12
311.868	508.12
312.098	519.12
312.328	507.12
312.557	526.12
312.787	560.12
313.017	542.12
313.246	548.12
313.476	528.12
313.706	560.12
313.935	567.12
314.165	542.12
314.394	544.12
314.624	548.12
314.853	526.12
315.083	564.12
315.312	579.12
315.542	586.12
315.771	622.12
316.001	556.12
316.23	585.12
316.46	572.12
316.689	568.12
316.919	583.12
317.148	588.12
317.377	582.12
317.607	584.12
317.836	593.12
318.065	618.12
318.295	602.12
318.524	590.12
318.753	596.12
318.983	607.12
319.212	605.12
319.441	610.12
319.67	644.12
319.9	614.12
320.129	606.12
320.358	580.12
320.587	574.12
320.816	596.12
321.046	609.12
321.275	688.12
321.504	730.12
321.733	698.12
321.962	664.12
322.191	664.12
322.42	668.12
322.649	687.12
322.878	736.12
323.108	701.12
323.337	664.12
323.566	622.12
323.795	635.12
324.024	607.12
324.253	599.12
324.482	608.12
324.71	591.12
324.939	619.12
325.168	614.12
325.397	582.12
325.626	596.12
325.855	608.12
326.084	628.12
326.313	611.12
326.542	600.12
326.77	595.12
326.999	591.12
327.228	561.12
327.457	580.12
327.686	577.12
327.914	590.12
328.143	587.12
328.372	613.12
328.6	606.12
328.829	595.12
329.058	624.12
329.287	585.12
329.515	603.12
329.744	588.12
329.972	590.12
330.201	570.12
330.43	606.12
330.658	619.12
330.887	635.12
331.115	613.12
331.344	594.12
331.572	607.12
331.801	613.12
332.03	613.12
332.258	612.12
332.486	640.12
332.715	662.12
332.943	664.12
333.172	684.12
333.4	683.12
333.629	724.12
333.857	704.12
334.085	709.12
334.314	680.12
334.542	694.12
334.771	673.12
334.999	666.12
335.227	677.12
335.455	688.12
335.684	658.12
335.912	642.12
336.14	658.12
336.369	639.12
336.597	664.12
336.825	631.12
337.053	675.12
337.281	643.12
337.51	623.12
337.738	608.12
337.966	609.12
338.194	640.12
338.422	628.12
338.65	610.12
338.878	616.12
339.106	600.12
339.334	614.12
339.562	628.12
339.79	609.12
340.018	603.12
340.246	604.12
340.474	632.12
340.702	638.12
340.93	688.12
341.158	666.12
341.386	623.12
341.614	629.12
341.842	616.12
342.07	635.12
342.298	640.12
342.526	629.12
342.754	676.12
342.981	707.12
343.209	667.12
343.437	652.12
343.665	692.12
343.893	779.12
344.12	888.12
344.348	934.12
344.576	800.12
344.804	738.12
345.031	688.12
345.259	638.12
345.487	620.12
345.714	602.12
345.942	634.12
346.17	616.12
346.397	619.12
346.625	640.12
346.853	639.12
347.08	642.12
347.308	629.12
347.535	658.12
347.763	686.12
347.99	658.12
348.218	594.12
348.445	586.12
348.673	599.12
348.9	623.12
349.128	645.12
349.355	654.12
349.583	645.12
349.81	614.12
350.037	599.12
350.265	588.12
350.492	583.12
350.72	551.12
350.947	577.12
351.174	578.12
351.402	595.12
351.629	616.12
351.856	601.12
352.083	600.12
352.311	600.12
352.538	630.12
352.765	662.12
352.992	632.12
353.22	623.12
353.447	621.12
353.674	615.12
353.901	618.12
354.128	638.12
354.355	633.12
354.583	637.12
354.81	588.12
355.037	607.12
355.264	612.12
355.491	657.12
355.718	718.12
355.945	694.12
356.172	705.12
356.399	698.12
356.626	776.12
356.853	909.12
357.08	970.12
357.307	990.12
357.534	780.12
357.761	703.12
357.988	813.12
358.215	1000.12
358.441	1125.12
358.668	927.12
358.895	846.12
359.122	691.12
359.349	618.12
359.576	594.12
359.802	622.12
360.029	588.12
360.256	607.12
360.483	662.12
360.709	783.12
360.936	830.12
361.163	855.12
361.39	704.12
361.616	652.12
361.843	731.12
362.07	868.12
362.296	779.12
362.523	711.12
362.749	678.12
362.976	679.12
363.203	765.12
363.429	833.12
363.656	694.12
363.882	628.12
364.109	611.12
364.335	622.12
364.562	628.12
364.788	710.12
365.015	829.12
365.241	748.12
365.468	664.12
365.694	590.12
365.92	593.12
366.147	558.12
366.373	572.12
366.599	565.12
366.826	565.12
367.052	557.12
367.278	578.12
367.505	558.12
367.731	592.12
367.957	631.12
368.184	629.12
368.41	638.12
368.636	664.12
368.862	700.12
369.089	645.12
369.315	625.12
369.541	592.12
369.767	598.12
369.993	571.12
370.219	605.12
370.445	630.12
370.672	695.12
370.898	717.12
371.124	739.12
371.35	670.12
371.576	615.12
371.802	672.12
372.028	814.12
372.254	940.12
372.48	808.12
372.706	723.12
372.932	742.12
373.158	780.12
373.384	906.12
373.61	1169.12
373.835	1235.12
374.061	935.12
374.287	808.12
374.513	880.12
374.739	1061.12
374.965	1168.12
375.191	1132.12
375.416	850.12
375.642	740.12
375.868	841.12
376.094	909.12
376.319	808.12
376.545	878.12
376.771	863.12
376.997	737.12
377.222	627.12
377.448	573.12
377.674	595.12
377.899	566.12
378.125	558.12
378.35	558.12
378.576	576.12
378.802	624.12
379.027	635.12
379.253	599.12
379.478	611.12
379.704	702.12
379.929	702.12
380.155	723.12
380.38	655.12
380.606	634.12
380.831	672.12
381.057	630.12
381.282	644.12
381.507	762.12
381.733	902.12
381.958	962.12
382.184	1043.12
382.409	1092.12
382.634	1040.12
382.86	1132.12
383.085	925.12
383.31	755.12
383.535	793.12
383.761	840.12
383.986	762.12
384.211	871.12
384.436	902.12
384.662	735.12
384.887	713.12
385.112	739.12
385.337	738.12
385.562	719.12
385.787	782.12
386.013	890.12
386.238	873.12
386.463	774.12
386.688	712.12
386.913	702.12
387.138	683.12
387.363	704.12
387.588	696.12
387.813	714.12
388.038	784.12
388.263	738.12
388.488	720.12
388.713	778.12
388.938	837.12
389.163	740.12
389.387	687.12
389.612	674.12
389.837	708.12
390.062	708.12
390.287	726.12
390.512	745.12
390.736	690.12
390.961	664.12
391.186	628.12
391.411	636.12
391.636	690.12
391.86	710.12
392.085	735.12
392.31	758.12
392.534	772.12
392.759	750.12
392.984	779.12
393.208	833.12
393.433	828.12
393.658	828.12
393.882	690.12
394.107	650.12
394.331	680.12
394.556	647.12
394.78	660.12
395.005	664.12
395.229	672.12
395.454	709.12
395.678	716.12
395.903	702.12
396.127	695.12
396.352	659.12
396.576	708.12
396.801	778.12
397.025	830.12
397.249	831.12
397.474	716.12
397.698	698.12
397.922	702.12
398.147	684.12
398.371	706.12
398.595	699.12
398.82	754.12
399.044	787.12
399.268	826.12
399.492	924.12
399.717	990.12
399.941	1022.12
400.165	945.12
400.389	867.12
400.613	852.12
400.837	826.12
401.062	756.12
401.286	728.12
401.51	735.12
401.734	753.12
401.958	747.12
402.182	737.12
402.406	742.12
402.63	743.12
402.854	767.12
403.078	782.12
403.302	800.12
403.526	854.12
403.75	837.12
403.974	786.12
404.198	826.12
404.422	892.12
404.645	1017.12
404.869	1118.12
405.093	886.12
405.317	801.12
405.541	791.12
405.765	784.12
405.988	822.12
406.212	844.12
406.436	943.12
406.66	1032.12
406.883	899.12
407.107	913.12
407.331	1056.12
407.555	1026.12
407.778	897.12
408.002	884.12
408.226	866.12
408.449	836.12
408.673	838.12
408.896	799.12
409.12	801.12
409.344	791.12
409.567	778.12
409.791	774.12
410.014	752.12
410.238	773.12
410.461	803.12
410.685	758.12
410.908	763.12
411.132	752.12
411.355	756.12
411.578	742.12
411.802	769.12
412.025	800.12
412.249	806.12
412.472	779.12
412.695	759.12
412.919	750.12
413.142	757.12
413.365	786.12
413.589	792.12
413.812	740.12
414.035	709.12
414.258	757.12
414.482	828.12
414.705	836.12
414.928	754.12
415.151	732.12
415.374	734.12
415.597	719.12
415.821	716.12
416.044	758.12
416.267	698.12
416.49	714.12
416.713	706.12
416.936	681.12
417.159	688.12
417.382	737.12
417.605	730.12
417.828	741.12
418.051	742.12
418.274	772.12
418.497	759.12
418.72	757.12
418.943	787.12
419.166	804.12
419.389	826.12
419.611	828.12
419.834	834.12
420.057	847.12
420.28	816.12
420.503	814.12
420.726	722.12
420.948	707.12
421.171	707.12
421.394	714.12
421.617	698.12
421.839	705.12
422.062	754.12
422.285	716.12
422.507	742.12
422.73	762.12
422.953	798.12
423.175	755.12
423.398	752.12
423.621	756.12
423.843	800.12
424.066	743.12
424.288	723.12
424.511	768.12
424.733	743.12
424.956	761.12
425.178	783.12
425.401	790.12
425.623	741.12
425.846	684.12
426.068	744.12
426.291	752.12
426.513	720.12
426.735	688.12
426.958	721.12
427.18	768.12
427.402	927.12
427.625	788.12
427.847	682.12
428.069	671.12
428.292	668.12
428.514	668.12
428.736	662.12
428.958	629.12
429.181	634.12
429.403	624.12
429.625	661.12
429.847	662.12
430.069	656.12
430.292	680.12
430.514	672.12
430.736	704.12
430.958	857.12
431.18	807.12
431.402	666.12
431.624	680.12
431.846	657.12
432.068	663.12
432.29	652.12
432.512	710.12
432.734	830.12
432.956	842.12
433.178	701.12
433.4	660.12
433.622	664.12
433.844	638.12
434.066	631.12
434.287	645.12
434.509	638.12
434.731	662.12
434.953	694.12
435.175	690.12
435.397	709.12
435.618	683.12
435.84	666.12
436.062	660.12
436.284	651.12
436.505	621.12
436.727	621.12
436.949	644.12
437.17	655.12
437.392	642.12
437.614	644.12
437.835	641.12
438.057	637.12
438.278	715.12
438.5	959.12
438.721	922.12
438.943	722.12
439.165	644.12
439.386	616.12
439.608	631.12
439.829	622.12
440.05	644.12
440.272	670.12
440.493	754.12
440.715	848.12
440.936	736.12
441.158	691.12
441.379	675.12
441.6	726.12
441.822	802.12
442.043	727.12
442.264	722.12
442.486	688.12
442.707	666.12
442.928	705.12
443.149	707.12
443.371	699.12
443.592	681.12
443.813	692.12
444.034	712.12
444.255	722.12
444.476	762.12
444.698	779.12
444.919	817.12
445.14	910.12
445.361	807.12
445.582	722.12
445.803	692.12
446.024	683.12
446.245	671.12
446.466	662.12
446.687	660.12
446.908	678.12
447.129	650.12
447.35	626.12
447.571	590.12
447.792	616.12
448.013	626.12
448.234	602.12
448.455	607.12
448.675	606.12
448.896	586.12
449.117	587.12
449.338	606.12
449.559	614.12
449.779	619.12
450	613.12
450.221	600.12
450.442	586.12
450.662	592.12
450.883	638.12
451.104	633.12
451.324	598.12
451.545	634.12
451.766	604.12
451.986	598.12
452.207	586.12
452.428	619.12
452.648	608.12
452.869	606.12
453.089	606.12
453.31	609.12
453.53	588.12
453.751	580.12
453.971	574.12
454.192	562.12
454.412	562.12
454.633	563.12
454.853	569.12
455.073	562.12
455.294	538.12
455.514	554.12
455.734	552.12
455.955	550.12
456.175	535.12
456.395	542.12
456.616	540.12
456.836	534.12
457.056	563.12
457.276	549.12
457.497	539.12
457.717	535.12
457.937	564.12
458.157	560.12
458.377	581.12
458.598	562.12
458.818	595.12
459.038	606.12
459.258	613.12
459.478	641.12
459.698	646.12
459.918	684.12
460.138	700.12
460.358	693.12
460.578	728.12
460.798	714.12
461.018	732.12
461.238	708.12
461.458	711.12
461.678	707.12
461.898	745.12
462.118	744.12
462.338	788.12
462.558	792.12
462.777	807.12
462.997	809.12
463.217	877.12
463.437	915.12
463.657	867.12
463.876	858.12
464.096	832.12
464.316	828.12
464.536	838.12
464.755	801.12
464.975	808.12
465.195	762.12
465.414	751.12
465.634	750.12
465.854	743.12
466.073	731.12
466.293	700.12
466.512	750.12
466.732	780.12
466.951	766.12
467.171	720.12
467.391	690.12
467.61	685.12
467.829	757.12
468.049	720.12
468.268	682.12
468.488	686.12
468.707	734.12
468.927	833.12
469.146	912.12
469.365	788.12
469.585	748.12
469.804	795.12
470.023	869.12
470.243	765.12
470.462	735.12
470.681	718.12
470.901	729.12
471.12	748.12
471.339	729.12
471.558	728.12
471.777	741.12
471.997	764.12
472.216	848.12
472.435	854.12
472.654	747.12
472.873	726.12
473.092	754.12
473.311	799.12
473.53	727.12
473.749	677.12
473.968	720.12
474.187	716.12
474.406	706.12
474.625	718.12
474.844	753.12
475.063	800.12
475.282	743.12
475.501	740.12
475.72	744.12
475.939	771.12
476.158	806.12
476.377	874.12
476.596	994.12
476.814	1059.12
477.033	896.12
477.252	820.12
477.471	789.12
477.69	800.12
477.908	876.12
478.127	910.12
478.346	815.12
478.564	818.12
478.783	806.12
479.002	844.12
479.22	962.12
479.439	1138.12
479.658	933.12
479.876	906.12
480.095	974.12
480.313	985.12
480.532	927.12
480.751	909.12
480.969	902.12
481.188	1062.12
481.406	1071.12
481.624	969.12
481.843	852.12
482.061	801.12
482.28	926.12
482.498	999.12
482.717	898.12
482.935	878.12
483.153	824.12
483.372	787.12
483.59	754.12
483.808	768.12
484.027	787.12
484.245	753.12
484.463	784.12
484.681	790.12
484.9	849.12
485.118	892.12
485.336	848.12
485.554	795.12
485.772	818.12
485.99	897.12
486.209	918.12
486.427	909.12
486.645	904.12
486.863	938.12
487.081	928.12
487.299	964.12
487.517	948.12
487.735	861.12
487.953	871.12
488.171	929.12
488.389	872.12
488.607	825.12
488.825	800.12
489.043	891.12
489.261	1038.12
489.479	1056.12
489.696	936.12
489.914	879.12
490.132	845.12
490.35	814.12
490.568	823.12
490.786	771.12
491.003	833.12
491.221	865.12
491.439	844.12
491.657	839.12
491.874	918.12
492.092	1022.12
492.31	1088.12
492.527	1056.12
492.745	1036.12
492.963	968.12
493.18	961.12
493.398	940.12
493.615	986.12
493.833	901.12
494.05	929.12
494.268	909.12
494.485	908.12
494.703	904.12
494.92	909.12
495.138	894.12
495.355	908.12
495.573	895.12
495.79	972.12
496.008	1155.12
496.225	1050.12
496.442	982.12
496.66	978.12
496.877	1048.12
497.094	1046.12
497.312	995.12
497.529	994.12
497.746	1006.12
497.963	1061.12
498.181	1147.12
498.398	1214.12
498.615	1318.12
498.832	1371.12
499.049	1441.12
499.267	1334.12
499.484	1395.12
499.701	1502.12
499.918	1622.12
500.135	1795.12
500.352	1884.12
500.569	1945.12
500.786	1956.12
501.003	1919.12
501.22	1692.12
501.437	1566.12
501.654	1430.12
501.871	1331.12
502.088	1274.12
502.305	1210.12
502.522	1207.12
502.739	1191.12
502.956	1084.12
503.172	1058.12
503.389	1015.12
503.606	957.12
503.823	975.12
504.04	981.12
504.256	1025.12
504.473	1054.12
504.69	1062.12
504.907	1052.12
505.123	1016.12
505.34	1076.12
505.557	1071.12
505.773	984.12
505.99	963.12
506.207	1008.12
506.423	926.12
506.64	859.12
506.856	878.12
507.073	982.12
507.289	968.12
507.506	970.12
507.722	1020.12
507.939	1018.12
508.155	1030.12
508.372	915.12
508.588	884.12
508.805	866.12
509.021	869.12
509.238	831.12
509.454	836.12
509.67	826.12
509.887	856.12
510.103	919.12
510.319	921.12
510.536	859.12
510.752	771.12
510.968	743.12
511.184	717.12
511.401	722.12
511.617	708.12
511.833	715.12
512.049	720.12
512.265	780.12
512.481	798.12
512.698	892.12
512.914	958.12
513.13	860.12
513.346	782.12
513.562	838.12
513.778	798.12
513.994	775.12
514.21	774.12
514.426	809.12
514.642	798.12
514.858	751.12
515.074	810.12
515.29	848.12
515.506	845.12
515.721	860.12
515.937	834.12
516.153	823.12
516.369	826.12
516.585	842.12
516.801	962.12
517.016	1060.12
517.232	1039.12
517.448	1130.12
517.664	1056.12
517.879	982.12
518.095	956.12
518.311	946.12
518.527	980.12
518.742	1031.12
518.958	997.12
519.173	884.12
519.389	891.12
519.605	923.12
519.82	1016.12
520.036	1185.12
520.251	1164.12
520.467	907.12
520.682	837.12
520.898	818.12
521.113	814.12
521.329	847.12
521.544	926.12
521.76	970.12
521.975	830.12
522.19	790.12
522.406	844.12
522.621	975.12
522.836	989.12
523.052	981.12
523.267	854.12
523.482	830.12
523.698	864.12
523.913	860.12
524.128	779.12
524.343	757.12
524.559	782.12
524.774	768.12
524.989	743.12
525.204	796.12
525.419	882.12
525.634	829.12
525.849	820.12
526.064	844.12
526.28	912.12
526.495	992.12
526.71	909.12
526.925	828.12
527.14	896.12
527.355	846.12
527.57	694.12
527.785	687.12
527.999	674.12
528.214	677.12
528.429	706.12
528.644	689.12
528.859	661.12
529.074	669.12
529.289	656.12
529.503	666.12
529.718	675.12
529.933	646.12
530.148	663.12
530.363	626.12
530.577	642.12
530.792	621.12
531.007	625.12
531.221	609.12
531.436	636.12
531.651	657.12
531.865	660.12
532.08	657.12
532.295	658.12
532.509	670.12
532.724	690.12
532.938	760.12
533.153	854.12
533.367	737.12
533.582	704.12
533.796	684.12
534.011	639.12
534.225	657.12
534.44	668.12
534.654	631.12
534.868	644.12
535.083	623.12
535.297	604.12
535.511	611.12
535.726	631.12
535.94	628.12
536.154	626.12
536.369	605.12
536.583	639.12
536.797	641.12
537.011	636.12
537.225	687.12
537.44	744.12
537.654	635.12
537.868	634.12
538.082	607.12
538.296	645.12
538.51	659.12
538.724	671.12
538.938	642.12
539.153	623.12
539.367	613.12
539.581	629.12
539.795	611.12
540.009	632.12
540.222	640.12
540.436	628.12
540.65	664.12
540.864	689.12
541.078	650.12
541.292	668.12
541.506	645.12
541.72	642.12
541.934	627.12
542.147	605.12
542.361	664.12
542.575	690.12
542.789	675.12
543.002	640.12
543.216	724.12
543.43	650.12
543.644	639.12
543.857	645.12
544.071	639.12
544.285	628.12
544.498	635.12
544.712	652.12
544.925	664.12
545.139	636.12
545.352	614.12
545.566	647.12
545.779	735.12
545.993	656.12
546.206	633.12
546.42	612.12
546.633	607.12
546.847	623.12
547.06	616.12
547.274	596.12
547.487	635.12
547.7	684.12
547.914	689.12
548.127	791.12
548.34	730.12
548.554	696.12
548.767	704.12
548.98	748.12
549.193	666.12
549.407	750.12
549.62	879.12
549.833	835.12
550.046	798.12
550.259	806.12
550.473	701.12
550.686	658.12
550.899	688.12
551.112	684.12
551.325	769.12
551.538	789.12
551.751	656.12
551.964	607.12
552.177	579.12
552.39	599.12
552.603	600.12
552.816	626.12
553.029	611.12
553.242	623.12
553.455	636.12
553.667	670.12
553.88	697.12
554.093	630.12
554.306	612.12
554.519	588.12
554.732	580.12
554.944	563.12
555.157	532.12
555.37	553.12
555.583	524.12
555.795	555.12
556.008	561.12
556.221	550.12
556.433	525.12
556.646	514.12
556.859	518.12
557.071	547.12
557.284	550.12
557.496	534.12
557.709	517.12
557.921	523.12
558.134	490.12
558.346	496.12
558.559	488.12
558.771	506.12
558.984	542.12
559.196	498.12
559.409	506.12
559.621	481.12
559.833	478.12
560.046	484.12
560.258	496.12
560.47	491.12
560.683	501.12
560.895	466.12
561.107	442.12
561.32	461.12
561.532	485.12
561.744	501.12
561.956	497.12
562.168	472.12
562.381	482.12
562.593	500.12
562.805	481.12
563.017	487.12
563.229	483.12
563.441	473.12
563.653	467.12
563.865	490.12
564.077	486.12
564.289	492.12
564.501	508.12
564.713	493.12
564.925	490.12
565.137	478.12
565.349	524.12
565.561	558.12
565.773	536.12
565.985	588.12
566.197	594.12
566.408	630.12
566.62	681.12
566.832	681.12
567.044	687.12
567.255	704.12
567.467	712.12
567.679	730.12
567.891	767.12
568.102	773.12
568.314	741.12
568.526	703.12
568.737	653.12
568.949	614.12
569.161	580.12
569.372	536.12
569.584	528.12
569.795	506.12
570.007	488.12
570.218	481.12
570.43	501.12
570.641	498.12
570.853	480.12
571.064	492.12
571.276	472.12
571.487	471.12
571.698	469.12
571.91	460.12
572.121	452.12
572.333	430.12
572.544	418.12
572.755	434.12
572.966	411.12
573.178	404.12
573.389	403.12
573.6	386.12
573.811	422.12
574.023	399.12
574.234	420.12
574.445	422.12
574.656	430.12
574.867	411.12
575.078	415.12
575.289	391.12
575.501	407.12
575.712	384.12
575.923	385.12
576.134	398.12
576.345	358.12
576.556	399.12
576.767	386.12
576.978	378.12
577.188	388.12
577.399	389.12
577.61	383.12
577.821	374.12
578.032	361.12
578.243	344.12
578.454	359.12
578.665	383.12
578.875	387.12
579.086	359.12
579.297	358.12
579.508	371.12
579.718	373.12
579.929	367.12
580.14	373.12
580.35	334.12
580.561	363.12
580.772	349.12
580.982	361.12
581.193	366.12
581.403	355.12
581.614	342.12
581.825	349.12
582.035	351.12
582.246	348.12
582.456	342.12
582.667	343.12
582.877	354.12
583.087	344.12
583.298	348.12
583.508	349.12
583.719	346.12
583.929	359.12
584.139	344.12
584.35	350.12
584.56	338.12
584.77	338.12
584.981	347.12
585.191	338.12
585.401	344.12
585.611	334.12
585.821	338.12
586.032	338.12
586.242	348.12
586.452	332.12
586.662	324.12
586.872	319.12
587.082	316.12
587.292	319.12
587.502	334.12
587.713	345.12
587.923	338.12
588.133	349.12
588.343	335.12
588.553	326.12
588.762	358.12
588.972	326.12
589.182	328.12
589.392	344.12
589.602	347.12
589.812	356.12
590.022	358.12
590.232	347.12
590.441	351.12
590.651	335.12
590.861	343.12
591.071	323.12
591.281	346.12
591.49	355.12
591.7	360.12
591.91	385.12
592.119	355.12
592.329	375.12
592.539	364.12
592.748	380.12
592.958	384.12
593.167	403.12
593.377	418.12
593.587	433.12
593.796	420.12
594.006	403.12
594.215	404.12
594.424	416.12
594.634	401.12
594.843	402.12
595.053	374.12
595.262	350.12
595.472	366.12
595.681	354.12
595.89	342.12
596.1	339.12
596.309	336.12
596.518	315.12
596.727	332.12
596.937	326.12
597.146	326.12
597.355	318.12
597.564	326.12
597.774	304.12
597.983	305.12
598.192	310.12
598.401	307.12
598.61	299.12
598.819	310.12
599.028	282.12
599.237	302.12
599.446	301.12
599.655	286.12
599.864	283.12
600.073	303.12
600.282	295.12
600.491	284.12
600.7	306.12
600.909	290.12
601.118	288.12
601.327	290.12
601.536	292.12
601.745	295.12
601.953	291.12
602.162	288.12
602.371	283.12
602.58	280.12
602.789	297.12
602.997	279.12
603.206	277.12
603.415	258.12
603.623	286.12
603.832	277.12
604.041	280.12
604.249	297.12
604.458	306.12
604.666	267.12
604.875	253.12
605.084	276.12
605.292	276.12
605.501	280.12
605.709	288.12
605.918	269.12
606.126	270.12
606.334	271.12
606.543	284.12
606.751	281.12
606.96	271.12
607.168	256.12
607.376	272.12
607.585	271.12
607.793	253.12
608.001	276.12
608.21	257.12
608.418	260.12
608.626	260.12
608.834	279.12
609.043	263.12
609.251	285.12
609.459	259.12
609.667	268.12
609.875	254.12
610.083	255.12
610.291	275.12
610.499	270.12
610.707	267.12
610.916	261.12
611.124	270.12
611.332	271.12
611.54	292.12
611.748	280.12
611.955	271.12
612.163	250.12
612.371	280.12
612.579	260.12
612.787	252.12
612.995	252.12
613.203	244.12
613.411	247.12
613.618	255.12
613.826	260.12
614.034	281.12
614.242	256.12
614.449	259.12
614.657	250.12
614.865	254.12
615.072	264.12
615.28	244.12
615.488	248.12
615.695	257.12
615.903	248.12
616.111	267.12
616.318	249.12
616.526	248.12
616.733	260.12
616.941	266.12
617.148	262.12
617.356	243.12
617.563	253.12
617.771	251.12
617.978	251.12
618.185	268.12
618.393	254.12
618.6	234.12
618.807	240.12
619.015	244.12
619.222	240.12
619.429	245.12
619.637	246.12
619.844	245.12
620.051	233.12
620.258	233.12
620.466	232.12
620.673	231.12
620.88	251.12
621.087	234.12
621.294	242.12
621.501	220.12
621.708	232.12
621.915	243.12
622.122	240.12
622.329	249.12
622.536	231.12
622.743	251.12
622.95	237.12
623.157	250.12
623.364	222.12
623.571	218.12
623.778	230.12
623.985	227.12
624.192	233.12
624.399	215.12
624.606	235.12
624.812	216.12
625.019	207.12
625.226	212.12
625.433	234.12
625.639	235.12
625.846	234.12
626.053	213.12
626.259	214.12
626.466	246.12
626.673	226.12
626.879	230.12
627.086	210.12
627.293	213.12
627.499	199.12
627.706	208.12
627.912	216.12
628.119	217.12
628.325	220.12
628.532	209.12
628.738	209.12
628.945	198.12
629.151	230.12
629.357	223.12
629.564	198.12
629.77	219.12
629.976	206.12
630.183	207.12
630.389	219.12
630.595	215.12
630.802	202.12
631.008	215.12
631.214	222.12
631.42	212.12
631.627	199.12
631.833	198.12
632.039	200.12
632.245	196.12
632.451	182.12
632.657	182.12
632.863	206.12
633.069	195.12
633.275	214.12
633.481	202.12
633.688	202.12
633.893	211.12
634.099	199.12
634.305	197.12
634.511	202.12
634.717	180.12
634.923	186.12
635.129	193.12
635.335	204.12
635.541	208.12
635.747	211.12
635.952	188.12
636.158	218.12
636.364	204.12
636.57	191.12
636.775	206.12
636.981	191.12
637.187	187.12
637.392	195.12
637.598	197.12
637.804	210.12
638.009	190.12
638.215	190.12
638.421	190.12
638.626	197.12
638.832	188.12
639.037	190.12
639.243	192.12
639.448	188.12
639.654	203.12
639.859	184.12
640.065	176.12
640.27	198.12
640.475	195.12
640.681	180.12
640.886	190.12
641.091	179.12
641.297	192.12
641.502	179.12
641.707	182.12
641.913	172.12
642.118	169.12
642.323	168.12
642.528	188.12
642.733	180.12
642.939	171.12
643.144	166.12
643.349	171.12
643.554	186.12
643.759	165.12
643.964	179.12
644.169	177.12
644.374	176.12
644.579	165.12
644.784	187.12
644.989	182.12
645.194	195.12
645.399	180.12
645.604	180.12
645.809	182.12
646.014	170.12
646.219	182.12
646.423	168.12
646.628	181.12
646.833	178.12
647.038	177.12
647.243	188.12
647.447	166.12
647.652	176.12
647.857	178.12
648.062	184.12
648.266	173.12
648.471	179.12
648.676	176.12
648.88	186.12
649.085	190.12
649.289	178.12
649.494	174.12
649.698	162.12
649.903	172.12
650.107	169.12
650.312	167.12
650.516	150.12
650.721	168.12
650.925	150.12
651.13	155.12
651.334	166.12
651.539	146.12
651.743	169.12
651.947	158.12
652.152	153.12
652.356	154.12
652.56	172.12
652.764	142.12
652.969	151.12
653.173	155.12
653.377	148.12
653.581	140.12
653.785	140.12
653.99	135.12
654.194	140.12
654.398	130.12
654.602	143.12
654.806	160.12
655.01	150.12
655.214	144.12
655.418	138.12
655.622	143.12
655.826	147.12
656.03	164.12
656.234	162.12
656.438	166.12
656.642	163.12
656.846	151.12
657.049	132.12
657.253	138.12
657.457	130.12
657.661	121.12
657.865	133.12
658.068	115.12
658.272	120.12
658.476	129.12
658.68	115.12
658.883	114.12
659.087	105.12
659.291	123.12
659.494	110.12
659.698	99.12
659.901	98.12
660.105	91.12
660.309	114.12
660.512	125.12
660.716	100.12
660.919	96.12
661.123	100.12
661.326	98.12
661.53	93.12
661.733	84.12
661.936	102.12
662.14	90.12
662.343	102.12
662.546	88.12
662.75	93.12
662.953	88.12
663.156	95.12
663.36	102.12
663.563	88.12
663.766	77.12
663.969	93.12
664.173	102.12
664.376	68.12
664.579	95.12
664.782	92.12
664.985	96.12
665.188	94.12
665.391	96.12
665.594	106.12
665.797	90.12
666	87.12
666.203	91.12
666.406	96.12
666.609	96.12
666.812	89.12
667.015	85.12
667.218	91.12
667.421	95.12
667.624	82.12
667.827	92.12
668.03	81.12
668.232	82.12
668.435	91.12
668.638	100.12
668.841	96.12
669.043	91.12
669.246	78.12
669.449	102.12
669.651	91.12
669.854	89.12
670.057	102.12
670.259	80.12
670.462	92.12
670.665	86.12
670.867	88.12
671.07	71.12
671.272	104.12
671.475	88.12
671.677	90.12
671.88	90.12
672.082	80.12
672.284	86.12
672.487	97.12
672.689	93.12
672.892	97.12
