Data from UnknownNail75mm.07152019.Lampedge.EN7.5scans.P1_HRD10591_15-17-38-731.txt Node
Date: Mon Jul 15 15:17:38 EDT 2019
User: cochatt
Spectrometer: HR+D1059
Trigger mode: 1
Integration Time (sec): 1.000000E-1
Scans to average: 1
Electric dark correction enabled: true
Nonlinearity correction enabled: false
Boxcar width: 0
XAxis mode: Wavelengths
Number of Pixels in Spectrum: 2048
>>>>>Begin Spectral Data<<<<<
223.165	-14.88
223.4	-14.88
223.635	-14.88
223.869	-3.88
224.104	-19.88
224.338	-9.88
224.573	-20.88
224.808	-6.88
225.042	-8.88
225.277	1.12
225.511	9.12
225.746	-5.88
225.98	-5.88
226.215	6.12
226.449	8.12
226.683	13.12
226.918	31.12
227.152	28.12
227.387	34.12
227.621	29.12
227.856	52.12
228.09	50.12
228.324	46.12
228.559	42.12
228.793	74.12
229.027	121.12
229.262	144.12
229.496	152.12
229.73	163.12
229.964	157.12
230.199	166.12
230.433	181.12
230.667	175.12
230.901	183.12
231.136	193.12
231.37	206.12
231.604	215.12
231.838	212.12
232.072	205.12
232.306	197.12
232.541	220.12
232.775	238.12
233.009	269.12
233.243	317.12
233.477	312.12
233.711	371.12
233.945	368.12
234.179	335.12
234.413	382.12
234.647	429.12
234.881	501.12
235.115	454.12
235.349	473.12
235.583	404.12
235.817	400.12
236.051	397.12
236.285	457.12
236.519	506.12
236.753	473.12
236.987	489.12
237.221	458.12
237.455	439.12
237.689	477.12
237.922	526.12
238.156	532.12
238.39	600.12
238.624	749.12
238.858	676.12
239.091	542.12
239.325	573.12
239.559	560.12
239.793	594.12
240.027	733.12
240.26	716.12
240.494	666.12
240.728	670.12
240.961	782.12
241.195	758.12
241.429	716.12
241.662	683.12
241.896	589.12
242.13	524.12
242.363	520.12
242.597	522.12
242.83	610.12
243.064	591.12
243.298	655.12
243.531	729.12
243.765	723.12
243.998	714.12
244.232	644.12
244.465	650.12
244.699	657.12
244.932	736.12
245.166	732.12
245.399	610.12
245.633	562.12
245.866	593.12
246.099	640.12
246.333	760.12
246.566	858.12
246.8	887.12
247.033	820.12
247.266	768.12
247.5	755.12
247.733	710.12
247.966	723.12
248.2	744.12
248.433	837.12
248.666	906.12
248.899	908.12
249.133	897.12
249.366	1056.12
249.599	1145.12
249.832	1047.12
250.066	931.12
250.299	933.12
250.532	890.12
250.765	862.12
250.998	803.12
251.231	733.12
251.465	802.12
251.698	906.12
251.931	815.12
252.164	843.12
252.397	978.12
252.63	1076.12
252.863	1213.12
253.096	1290.12
253.329	1213.12
253.562	1172.12
253.795	1276.12
254.028	1453.12
254.261	1482.12
254.494	1368.12
254.727	1180.12
254.96	1109.12
255.193	1211.12
255.426	1174.12
255.659	878.12
255.892	748.12
256.124	770.12
256.357	950.12
256.59	1172.12
256.823	1181.12
257.056	966.12
257.289	878.12
257.521	856.12
257.754	903.12
257.987	960.12
258.22	933.12
258.452	912.12
258.685	1059.12
258.918	1224.12
259.151	1182.12
259.383	1095.12
259.616	1234.12
259.849	1303.12
260.081	1664.12
260.314	1967.12
260.547	1447.12
260.779	1247.12
261.012	1503.12
261.244	1478.12
261.477	1532.12
261.71	1589.12
261.942	1248.12
262.175	1135.12
262.407	1134.12
262.64	1161.12
262.872	1413.12
263.105	1650.12
263.337	1751.12
263.57	1556.12
263.802	999.12
264.035	762.12
264.267	708.12
264.499	655.12
264.732	664.12
264.964	656.12
265.197	631.12
265.429	632.12
265.661	631.12
265.894	633.12
266.126	672.12
266.358	721.12
266.591	864.12
266.823	1094.12
267.055	1022.12
267.287	790.12
267.52	714.12
267.752	666.12
267.984	685.12
268.216	710.12
268.448	792.12
268.681	867.12
268.913	891.12
269.145	824.12
269.377	872.12
269.609	911.12
269.841	864.12
270.073	847.12
270.306	872.12
270.538	900.12
270.77	1013.12
271.002	1026.12
271.234	1054.12
271.466	1151.12
271.698	1241.12
271.93	1243.12
272.162	1167.12
272.394	1120.12
272.626	1128.12
272.858	1214.12
273.09	1338.12
273.322	1288.12
273.553	1206.12
273.785	1442.12
274.017	1896.12
274.249	2358.12
274.481	2396.12
274.713	2596.12
274.945	2985.12
275.176	3104.12
275.408	2636.12
275.64	2415.12
275.872	2452.12
276.104	1857.12
276.335	1278.12
276.567	1182.12
276.799	1270.12
277.031	1442.12
277.262	1344.12
277.494	1064.12
277.726	1002.12
277.957	1010.12
278.189	1116.12
278.421	1120.12
278.652	1127.12
278.884	1048.12
279.115	931.12
279.347	900.12
279.579	857.12
279.81	838.12
280.042	828.12
280.273	831.12
280.505	780.12
280.736	754.12
280.968	751.12
281.199	790.12
281.431	767.12
281.662	784.12
281.894	714.12
282.125	730.12
282.356	737.12
282.588	785.12
282.819	820.12
283.051	892.12
283.282	962.12
283.513	1007.12
283.745	948.12
283.976	965.12
284.207	1013.12
284.439	1081.12
284.67	1015.12
284.901	1000.12
285.132	1023.12
285.364	999.12
285.595	982.12
285.826	1057.12
286.057	1098.12
286.288	981.12
286.52	891.12
286.751	857.12
286.982	852.12
287.213	927.12
287.444	989.12
287.675	994.12
287.906	953.12
288.138	889.12
288.369	860.12
288.6	886.12
288.831	836.12
289.062	832.12
289.293	780.12
289.524	809.12
289.755	848.12
289.986	814.12
290.217	800.12
290.448	752.12
290.679	756.12
290.91	739.12
291.141	756.12
291.371	750.12
291.602	750.12
291.833	749.12
292.064	751.12
292.295	767.12
292.526	804.12
292.757	850.12
292.987	844.12
293.218	808.12
293.449	816.12
293.68	789.12
293.91	802.12
294.141	832.12
294.372	840.12
294.603	911.12
294.833	1028.12
295.064	1070.12
295.295	1057.12
295.525	913.12
295.756	903.12
295.987	850.12
296.217	866.12
296.448	904.12
296.679	933.12
296.909	999.12
297.14	1019.12
297.37	980.12
297.601	974.12
297.831	863.12
298.062	882.12
298.292	973.12
298.523	1160.12
298.753	1237.12
298.984	1150.12
299.214	943.12
299.445	896.12
299.675	855.12
299.905	956.12
300.136	961.12
300.366	1017.12
300.597	1039.12
300.827	955.12
301.057	978.12
301.288	914.12
301.518	843.12
301.748	878.12
301.979	1001.12
302.209	1157.12
302.439	1180.12
302.669	1013.12
302.9	928.12
303.13	878.12
303.36	870.12
303.59	842.12
303.82	870.12
304.051	877.12
304.281	863.12
304.511	840.12
304.741	845.12
304.971	878.12
305.201	831.12
305.431	824.12
305.661	888.12
305.891	895.12
306.121	949.12
306.352	932.12
306.582	874.12
306.812	857.12
307.042	868.12
307.272	803.12
307.502	808.12
307.731	860.12
307.961	865.12
308.191	867.12
308.421	828.12
308.651	829.12
308.881	788.12
309.111	752.12
309.341	768.12
309.571	794.12
309.8	808.12
310.03	826.12
310.26	879.12
310.49	830.12
310.72	794.12
310.949	761.12
311.179	782.12
311.409	788.12
311.639	798.12
311.868	798.12
312.098	816.12
312.328	796.12
312.557	804.12
312.787	790.12
313.017	791.12
313.246	831.12
313.476	793.12
313.706	860.12
313.935	856.12
314.165	826.12
314.394	827.12
314.624	841.12
314.853	846.12
315.083	840.12
315.312	898.12
315.542	934.12
315.771	930.12
316.001	895.12
316.23	870.12
316.46	876.12
316.689	891.12
316.919	923.12
317.148	901.12
317.377	895.12
317.607	860.12
317.836	919.12
318.065	913.12
318.295	933.12
318.524	924.12
318.753	923.12
318.983	909.12
319.212	934.12
319.441	938.12
319.67	998.12
319.9	961.12
320.129	931.12
320.358	903.12
320.587	878.12
320.816	891.12
321.046	930.12
321.275	1066.12
321.504	1119.12
321.733	1089.12
321.962	1013.12
322.191	1009.12
322.42	1035.12
322.649	1023.12
322.878	1073.12
323.108	1066.12
323.337	992.12
323.566	962.12
323.795	961.12
324.024	917.12
324.253	898.12
324.482	907.12
324.71	910.12
324.939	937.12
325.168	941.12
325.397	900.12
325.626	912.12
325.855	924.12
326.084	960.12
326.313	926.12
326.542	888.12
326.77	924.12
326.999	902.12
327.228	885.12
327.457	883.12
327.686	882.12
327.914	882.12
328.143	918.12
328.372	898.12
328.6	912.12
328.829	937.12
329.058	926.12
329.287	888.12
329.515	930.12
329.744	896.12
329.972	890.12
330.201	895.12
330.43	910.12
330.658	958.12
330.887	992.12
331.115	944.12
331.344	914.12
331.572	902.12
331.801	907.12
332.03	893.12
332.258	947.12
332.486	949.12
332.715	1015.12
332.943	974.12
333.172	1022.12
333.4	1058.12
333.629	1064.12
333.857	1112.12
334.085	1084.12
334.314	1069.12
334.542	1057.12
334.771	1036.12
334.999	1040.12
335.227	1023.12
335.455	1008.12
335.684	1000.12
335.912	987.12
336.14	999.12
336.369	965.12
336.597	998.12
336.825	976.12
337.053	1013.12
337.281	997.12
337.51	959.12
337.738	952.12
337.966	941.12
338.194	956.12
338.422	911.12
338.65	953.12
338.878	934.12
339.106	922.12
339.334	961.12
339.562	957.12
339.79	924.12
340.018	945.12
340.246	951.12
340.474	954.12
340.702	998.12
340.93	1020.12
341.158	989.12
341.386	975.12
341.614	964.12
341.842	977.12
342.07	958.12
342.298	948.12
342.526	984.12
342.754	1071.12
342.981	1040.12
343.209	986.12
343.437	992.12
343.665	1064.12
343.893	1170.12
344.12	1325.12
344.348	1380.12
344.576	1222.12
344.804	1085.12
345.031	1001.12
345.259	974.12
345.487	994.12
345.714	972.12
345.942	951.12
346.17	951.12
346.397	900.12
346.625	937.12
346.853	972.12
347.08	948.12
347.308	977.12
347.535	988.12
347.763	1078.12
347.99	1001.12
348.218	942.12
348.445	889.12
348.673	930.12
348.9	924.12
349.128	1017.12
349.355	1014.12
349.583	954.12
349.81	952.12
350.037	920.12
350.265	889.12
350.492	871.12
350.72	873.12
350.947	865.12
351.174	876.12
351.402	901.12
351.629	914.12
351.856	916.12
352.083	917.12
352.311	939.12
352.538	961.12
352.765	996.12
352.992	984.12
353.22	914.12
353.447	910.12
353.674	942.12
353.901	966.12
354.128	973.12
354.355	962.12
354.583	958.12
354.81	906.12
355.037	935.12
355.264	962.12
355.491	1008.12
355.718	1085.12
355.945	1085.12
356.172	1049.12
356.399	1064.12
356.626	1192.12
356.853	1366.12
357.08	1418.12
357.307	1480.12
357.534	1166.12
357.761	1105.12
357.988	1234.12
358.215	1480.12
358.441	1698.12
358.668	1409.12
358.895	1300.12
359.122	1060.12
359.349	959.12
359.576	909.12
359.802	904.12
360.029	905.12
360.256	965.12
360.483	1053.12
360.709	1176.12
360.936	1289.12
361.163	1279.12
361.39	1062.12
361.616	1014.12
361.843	1109.12
362.07	1299.12
362.296	1255.12
362.523	1070.12
362.749	988.12
362.976	985.12
363.203	1138.12
363.429	1242.12
363.656	1064.12
363.882	942.12
364.109	943.12
364.335	934.12
364.562	954.12
364.788	1066.12
365.015	1239.12
365.241	1143.12
365.468	943.12
365.694	887.12
365.92	820.12
366.147	822.12
366.373	835.12
366.599	831.12
366.826	843.12
367.052	846.12
367.278	902.12
367.505	861.12
367.731	895.12
367.957	970.12
368.184	988.12
368.41	997.12
368.636	998.12
368.862	1005.12
369.089	991.12
369.315	923.12
369.541	920.12
369.767	904.12
369.993	874.12
370.219	893.12
370.445	925.12
370.672	1033.12
370.898	1103.12
371.124	1110.12
371.35	993.12
371.576	947.12
371.802	1018.12
372.028	1169.12
372.254	1362.12
372.48	1179.12
372.706	1118.12
372.932	1121.12
373.158	1184.12
373.384	1351.12
373.61	1726.12
373.835	1834.12
374.061	1416.12
374.287	1183.12
374.513	1302.12
374.739	1550.12
374.965	1684.12
375.191	1671.12
375.416	1281.12
375.642	1094.12
375.868	1213.12
376.094	1350.12
376.319	1227.12
376.545	1289.12
376.771	1324.12
376.997	1156.12
377.222	950.12
377.448	864.12
377.674	836.12
377.899	846.12
378.125	837.12
378.35	826.12
378.576	862.12
378.802	896.12
379.027	957.12
379.253	954.12
379.478	946.12
379.704	1010.12
379.929	1085.12
380.155	1081.12
380.38	993.12
380.606	948.12
380.831	962.12
381.057	997.12
381.282	993.12
381.507	1132.12
381.733	1378.12
381.958	1420.12
382.184	1538.12
382.409	1610.12
382.634	1571.12
382.86	1639.12
383.085	1402.12
383.31	1148.12
383.535	1237.12
383.761	1215.12
383.986	1179.12
384.211	1335.12
384.436	1346.12
384.662	1083.12
384.887	1100.12
385.112	1099.12
385.337	1112.12
385.562	1058.12
385.787	1142.12
386.013	1274.12
386.238	1311.12
386.463	1144.12
386.688	1085.12
386.913	1046.12
387.138	1016.12
387.363	1045.12
387.588	1090.12
387.813	1077.12
388.038	1197.12
388.263	1102.12
388.488	1025.12
388.713	1173.12
388.938	1298.12
389.163	1106.12
389.387	996.12
389.612	1009.12
389.837	1054.12
390.062	1043.12
390.287	1100.12
390.512	1072.12
390.736	1036.12
390.961	991.12
391.186	946.12
391.411	974.12
391.636	1009.12
391.86	1073.12
392.085	1120.12
392.31	1140.12
392.534	1123.12
392.759	1113.12
392.984	1139.12
393.208	1192.12
393.433	1138.12
393.658	1107.12
393.882	997.12
394.107	964.12
394.331	975.12
394.556	977.12
394.78	972.12
395.005	1017.12
395.229	1029.12
395.454	1044.12
395.678	1067.12
395.903	1063.12
396.127	1037.12
396.352	1001.12
396.576	1003.12
396.801	1101.12
397.025	1201.12
397.249	1152.12
397.474	1054.12
397.698	1032.12
397.922	1050.12
398.147	1024.12
398.371	1047.12
398.595	1091.12
398.82	1112.12
399.044	1157.12
399.268	1238.12
399.492	1389.12
399.717	1534.12
399.941	1505.12
400.165	1416.12
400.389	1315.12
400.613	1300.12
400.837	1243.12
401.062	1185.12
401.286	1109.12
401.51	1116.12
401.734	1136.12
401.958	1133.12
402.182	1124.12
402.406	1154.12
402.63	1130.12
402.854	1176.12
403.078	1180.12
403.302	1269.12
403.526	1303.12
403.75	1233.12
403.974	1245.12
404.198	1272.12
404.422	1360.12
404.645	1588.12
404.869	1692.12
405.093	1359.12
405.317	1222.12
405.541	1190.12
405.765	1186.12
405.988	1207.12
406.212	1261.12
406.436	1478.12
406.66	1578.12
406.883	1374.12
407.107	1425.12
407.331	1626.12
407.555	1545.12
407.778	1402.12
408.002	1329.12
408.226	1323.12
408.449	1248.12
408.673	1224.12
408.896	1225.12
409.12	1182.12
409.344	1183.12
409.567	1167.12
409.791	1193.12
410.014	1140.12
410.238	1158.12
410.461	1162.12
410.685	1142.12
410.908	1137.12
411.132	1166.12
411.355	1106.12
411.578	1114.12
411.802	1120.12
412.025	1186.12
412.249	1157.12
412.472	1166.12
412.695	1137.12
412.919	1114.12
413.142	1141.12
413.365	1217.12
413.589	1192.12
413.812	1126.12
414.035	1132.12
414.258	1157.12
414.482	1223.12
414.705	1255.12
414.928	1115.12
415.151	1120.12
415.374	1096.12
415.597	1140.12
415.821	1125.12
416.044	1108.12
416.267	1079.12
416.49	1070.12
416.713	1060.12
416.936	1033.12
417.159	1082.12
417.382	1101.12
417.605	1076.12
417.828	1107.12
418.051	1108.12
418.274	1108.12
418.497	1119.12
418.72	1119.12
418.943	1177.12
419.166	1197.12
419.389	1249.12
419.611	1223.12
419.834	1228.12
420.057	1271.12
420.28	1250.12
420.503	1204.12
420.726	1082.12
420.948	1073.12
421.171	1108.12
421.394	1086.12
421.617	1052.12
421.839	1072.12
422.062	1129.12
422.285	1124.12
422.507	1139.12
422.73	1160.12
422.953	1164.12
423.175	1137.12
423.398	1136.12
423.621	1164.12
423.843	1188.12
424.066	1148.12
424.288	1110.12
424.511	1118.12
424.733	1087.12
424.956	1133.12
425.178	1187.12
425.401	1225.12
425.623	1112.12
425.846	1070.12
426.068	1132.12
426.291	1218.12
426.513	1151.12
426.735	1049.12
426.958	1061.12
427.18	1200.12
427.402	1358.12
427.625	1182.12
427.847	1024.12
428.069	972.12
428.292	1021.12
428.514	992.12
428.736	983.12
428.958	923.12
429.181	962.12
429.403	970.12
429.625	1037.12
429.847	981.12
430.069	1016.12
430.292	1031.12
430.514	1000.12
430.736	1112.12
430.958	1259.12
431.18	1158.12
431.402	974.12
431.624	960.12
431.846	974.12
432.068	981.12
432.29	1017.12
432.512	1059.12
432.734	1324.12
432.956	1207.12
433.178	1005.12
433.4	986.12
433.622	985.12
433.844	1013.12
434.066	975.12
434.287	977.12
434.509	981.12
434.731	1004.12
434.953	1020.12
435.175	1021.12
435.397	1080.12
435.618	1014.12
435.84	1019.12
436.062	973.12
436.284	964.12
436.505	936.12
436.727	935.12
436.949	952.12
437.17	957.12
437.392	952.12
437.614	933.12
437.835	960.12
438.057	977.12
438.278	1083.12
438.5	1385.12
438.721	1334.12
438.943	1003.12
439.165	946.12
439.386	935.12
439.608	937.12
439.829	959.12
440.05	976.12
440.272	983.12
440.493	1089.12
440.715	1318.12
440.936	1114.12
441.158	1010.12
441.379	1030.12
441.6	1121.12
441.822	1169.12
442.043	1088.12
442.264	1051.12
442.486	1022.12
442.707	1022.12
442.928	1055.12
443.149	1070.12
443.371	1072.12
443.592	1033.12
443.813	1042.12
444.034	1038.12
444.255	1123.12
444.476	1200.12
444.698	1208.12
444.919	1215.12
445.14	1338.12
445.361	1177.12
445.582	1057.12
445.803	1003.12
446.024	1007.12
446.245	1029.12
446.466	1003.12
446.687	994.12
446.908	1022.12
447.129	966.12
447.35	914.12
447.571	915.12
447.792	934.12
448.013	921.12
448.234	873.12
448.455	916.12
448.675	890.12
448.896	888.12
449.117	870.12
449.338	912.12
449.559	922.12
449.779	919.12
450	901.12
450.221	902.12
450.442	929.12
450.662	928.12
450.883	938.12
451.104	937.12
451.324	908.12
451.545	910.12
451.766	892.12
451.986	900.12
452.207	884.12
452.428	897.12
452.648	885.12
452.869	916.12
453.089	905.12
453.31	900.12
453.53	870.12
453.751	884.12
453.971	833.12
454.192	844.12
454.412	846.12
454.633	806.12
454.853	811.12
455.073	842.12
455.294	847.12
455.514	854.12
455.734	823.12
455.955	814.12
456.175	840.12
456.395	833.12
456.616	816.12
456.836	806.12
457.056	810.12
457.276	804.12
457.497	829.12
457.717	842.12
457.937	843.12
458.157	862.12
458.377	861.12
458.598	872.12
458.818	904.12
459.038	891.12
459.258	904.12
459.478	943.12
459.698	976.12
459.918	1016.12
460.138	1028.12
460.358	1076.12
460.578	1078.12
460.798	1077.12
461.018	1061.12
461.238	1093.12
461.458	1053.12
461.678	1112.12
461.898	1131.12
462.118	1113.12
462.338	1147.12
462.558	1168.12
462.777	1201.12
462.997	1294.12
463.217	1370.12
463.437	1414.12
463.657	1281.12
463.876	1234.12
464.096	1239.12
464.316	1240.12
464.536	1288.12
464.755	1272.12
464.975	1205.12
465.195	1181.12
465.414	1173.12
465.634	1147.12
465.854	1156.12
466.073	1071.12
466.293	1040.12
466.512	1112.12
466.732	1154.12
466.951	1183.12
467.171	1113.12
467.391	1034.12
467.61	1018.12
467.829	1128.12
468.049	1130.12
468.268	1036.12
468.488	1036.12
468.707	1098.12
468.927	1281.12
469.146	1380.12
469.365	1219.12
469.585	1121.12
469.804	1149.12
470.023	1268.12
470.243	1134.12
470.462	1124.12
470.681	1087.12
470.901	1109.12
471.12	1145.12
471.339	1135.12
471.558	1073.12
471.777	1098.12
471.997	1146.12
472.216	1273.12
472.435	1243.12
472.654	1169.12
472.873	1084.12
473.092	1141.12
473.311	1213.12
473.53	1144.12
473.749	1089.12
473.968	1101.12
474.187	1100.12
474.406	1078.12
474.625	1099.12
474.844	1106.12
475.063	1182.12
475.282	1161.12
475.501	1143.12
475.72	1134.12
475.939	1163.12
476.158	1215.12
476.377	1314.12
476.596	1522.12
476.814	1620.12
477.033	1390.12
477.252	1252.12
477.471	1207.12
477.69	1209.12
477.908	1322.12
478.127	1382.12
478.346	1262.12
478.564	1200.12
478.783	1254.12
479.002	1304.12
479.22	1455.12
479.439	1648.12
479.658	1517.12
479.876	1397.12
480.095	1492.12
480.313	1508.12
480.532	1409.12
480.751	1381.12
480.969	1404.12
481.188	1578.12
481.406	1578.12
481.624	1478.12
481.843	1352.12
482.061	1271.12
482.28	1424.12
482.498	1521.12
482.717	1328.12
482.935	1354.12
483.153	1257.12
483.372	1184.12
483.59	1165.12
483.808	1189.12
484.027	1200.12
484.245	1175.12
484.463	1154.12
484.681	1206.12
484.9	1279.12
485.118	1331.12
485.336	1290.12
485.554	1232.12
485.772	1281.12
485.99	1351.12
486.209	1439.12
486.427	1397.12
486.645	1367.12
486.863	1423.12
487.081	1414.12
487.299	1519.12
487.517	1439.12
487.735	1372.12
487.953	1334.12
488.171	1421.12
488.389	1352.12
488.607	1270.12
488.825	1266.12
489.043	1348.12
489.261	1622.12
489.479	1659.12
489.696	1460.12
489.914	1369.12
490.132	1331.12
490.35	1297.12
490.568	1246.12
490.786	1210.12
491.003	1252.12
491.221	1317.12
491.439	1278.12
491.657	1285.12
491.874	1374.12
492.092	1599.12
492.31	1719.12
492.527	1637.12
492.745	1619.12
492.963	1472.12
493.18	1478.12
493.398	1467.12
493.615	1462.12
493.833	1401.12
494.05	1376.12
494.268	1426.12
494.485	1422.12
494.703	1406.12
494.92	1428.12
495.138	1400.12
495.355	1367.12
495.573	1417.12
495.79	1461.12
496.008	1858.12
496.225	1656.12
496.442	1496.12
496.66	1595.12
496.877	1606.12
497.094	1571.12
497.312	1509.12
497.529	1536.12
497.746	1539.12
497.963	1658.12
498.181	1764.12
498.398	1878.12
498.615	1994.12
498.832	2147.12
499.049	2157.12
499.267	2083.12
499.484	2082.12
499.701	2237.12
499.918	2495.12
500.135	2810.12
500.352	2928.12
500.569	3037.12
500.786	3055.12
501.003	2939.12
501.22	2635.12
501.437	2406.12
501.654	2194.12
501.871	2044.12
502.088	1998.12
502.305	1838.12
502.522	1856.12
502.739	1845.12
502.956	1681.12
503.172	1623.12
503.389	1584.12
503.606	1518.12
503.823	1529.12
504.04	1518.12
504.256	1558.12
504.473	1626.12
504.69	1622.12
504.907	1623.12
505.123	1600.12
505.34	1716.12
505.557	1629.12
505.773	1517.12
505.99	1482.12
506.207	1560.12
506.423	1431.12
506.64	1317.12
506.856	1375.12
507.073	1566.12
507.289	1452.12
507.506	1507.12
507.722	1555.12
507.939	1557.12
508.155	1583.12
508.372	1436.12
508.588	1382.12
508.805	1304.12
509.021	1323.12
509.238	1286.12
509.454	1272.12
509.67	1273.12
509.887	1347.12
510.103	1452.12
510.319	1439.12
510.536	1289.12
510.752	1171.12
510.968	1156.12
511.184	1110.12
511.401	1150.12
511.617	1094.12
511.833	1092.12
512.049	1134.12
512.265	1188.12
512.481	1207.12
512.698	1320.12
512.914	1456.12
513.13	1297.12
513.346	1204.12
513.562	1294.12
513.778	1264.12
513.994	1251.12
514.21	1262.12
514.426	1214.12
514.642	1204.12
514.858	1210.12
515.074	1232.12
515.29	1263.12
515.506	1280.12
515.721	1282.12
515.937	1289.12
516.153	1244.12
516.369	1238.12
516.585	1321.12
516.801	1504.12
517.016	1749.12
517.232	1676.12
517.448	1801.12
517.664	1656.12
517.879	1521.12
518.095	1491.12
518.311	1456.12
518.527	1458.12
518.742	1501.12
518.958	1493.12
519.173	1345.12
519.389	1422.12
519.605	1443.12
519.82	1586.12
520.036	1833.12
520.251	1724.12
520.467	1422.12
520.682	1278.12
520.898	1204.12
521.113	1254.12
521.329	1350.12
521.544	1416.12
521.76	1512.12
521.975	1318.12
522.19	1258.12
522.406	1294.12
522.621	1476.12
522.836	1526.12
523.052	1541.12
523.267	1332.12
523.482	1292.12
523.698	1344.12
523.913	1281.12
524.128	1172.12
524.343	1168.12
524.559	1180.12
524.774	1146.12
524.989	1120.12
525.204	1226.12
525.419	1370.12
525.634	1243.12
525.849	1280.12
526.064	1272.12
526.28	1322.12
526.495	1499.12
526.71	1402.12
526.925	1259.12
527.14	1397.12
527.355	1305.12
527.57	1108.12
527.785	1076.12
527.999	1053.12
528.214	1051.12
528.429	1009.12
528.644	1064.12
528.859	1020.12
529.074	1021.12
529.289	993.12
529.503	981.12
529.718	964.12
529.933	969.12
530.148	989.12
530.363	1009.12
530.577	996.12
530.792	954.12
531.007	985.12
531.221	973.12
531.436	975.12
531.651	957.12
531.865	1001.12
532.08	972.12
532.295	1000.12
532.509	1008.12
532.724	1116.12
532.938	1182.12
533.153	1282.12
533.367	1110.12
533.582	1069.12
533.796	1060.12
534.011	1006.12
534.225	981.12
534.44	964.12
534.654	948.12
534.868	951.12
535.083	925.12
535.297	946.12
535.511	928.12
535.726	950.12
535.94	950.12
536.154	955.12
536.369	929.12
536.583	952.12
536.797	1016.12
537.011	1006.12
537.225	1068.12
537.44	1143.12
537.654	957.12
537.868	921.12
538.082	920.12
538.296	942.12
538.51	961.12
538.724	1012.12
538.938	987.12
539.153	944.12
539.367	926.12
539.581	945.12
539.795	951.12
540.009	983.12
540.222	953.12
540.436	937.12
540.65	985.12
540.864	1061.12
541.078	996.12
541.292	998.12
541.506	977.12
541.72	981.12
541.934	975.12
542.147	947.12
542.361	941.12
542.575	1013.12
542.789	1033.12
543.002	974.12
543.216	1103.12
543.43	993.12
543.644	970.12
543.857	954.12
544.071	973.12
544.285	940.12
544.498	936.12
544.712	941.12
544.925	1003.12
545.139	940.12
545.352	918.12
545.566	960.12
545.779	1071.12
545.993	989.12
546.206	968.12
546.42	975.12
546.633	913.12
546.847	909.12
547.06	910.12
547.274	914.12
547.487	936.12
547.7	1005.12
547.914	1046.12
548.127	1166.12
548.34	1132.12
548.554	1006.12
548.767	1001.12
548.98	1081.12
549.193	1009.12
549.407	1089.12
549.62	1245.12
549.833	1208.12
550.046	1212.12
550.259	1226.12
550.473	1056.12
550.686	998.12
550.899	1068.12
551.112	1030.12
551.325	1112.12
551.538	1128.12
551.751	978.12
551.964	903.12
552.177	876.12
552.39	896.12
552.603	905.12
552.816	938.12
553.029	944.12
553.242	941.12
553.455	960.12
553.667	998.12
553.88	995.12
554.093	964.12
554.306	895.12
554.519	875.12
554.732	844.12
554.944	819.12
555.157	801.12
555.37	798.12
555.583	810.12
555.795	796.12
556.008	796.12
556.221	828.12
556.433	811.12
556.646	767.12
556.859	796.12
557.071	811.12
557.284	812.12
557.496	784.12
557.709	778.12
557.921	772.12
558.134	736.12
558.346	730.12
558.559	734.12
558.771	746.12
558.984	799.12
559.196	753.12
559.409	712.12
559.621	714.12
559.833	707.12
560.046	712.12
560.258	705.12
560.47	710.12
560.683	703.12
560.895	675.12
561.107	709.12
561.32	710.12
561.532	671.12
561.744	765.12
561.956	760.12
562.168	728.12
562.381	704.12
562.593	696.12
562.805	732.12
563.017	718.12
563.229	703.12
563.441	700.12
563.653	725.12
563.865	729.12
564.077	709.12
564.289	728.12
564.501	725.12
564.713	725.12
564.925	711.12
565.137	748.12
565.349	769.12
565.561	788.12
565.773	798.12
565.985	829.12
566.197	905.12
566.408	937.12
566.62	1001.12
566.832	1032.12
567.044	1012.12
567.255	1030.12
567.467	1040.12
567.679	1098.12
567.891	1144.12
568.102	1176.12
568.314	1158.12
568.526	1090.12
568.737	988.12
568.949	919.12
569.161	842.12
569.372	828.12
569.584	786.12
569.795	726.12
570.007	726.12
570.218	722.12
570.43	704.12
570.641	712.12
570.853	702.12
571.064	721.12
571.276	729.12
571.487	684.12
571.698	701.12
571.91	704.12
572.121	667.12
572.333	633.12
572.544	622.12
572.755	597.12
572.966	575.12
573.178	614.12
573.389	595.12
573.6	596.12
573.811	596.12
574.023	593.12
574.234	588.12
574.445	592.12
574.656	608.12
574.867	585.12
575.078	594.12
575.289	588.12
575.501	593.12
575.712	555.12
575.923	550.12
576.134	555.12
576.345	550.12
576.556	565.12
576.767	544.12
576.978	570.12
577.188	558.12
577.399	560.12
577.61	551.12
577.821	529.12
578.032	529.12
578.243	504.12
578.454	513.12
578.665	522.12
578.875	506.12
579.086	536.12
579.297	520.12
579.508	513.12
579.718	523.12
579.929	505.12
580.14	506.12
580.35	504.12
580.561	519.12
580.772	484.12
580.982	490.12
581.193	502.12
581.403	522.12
581.614	480.12
581.825	506.12
582.035	497.12
582.246	504.12
582.456	493.12
582.667	504.12
582.877	464.12
583.087	480.12
583.298	483.12
583.508	505.12
583.719	487.12
583.929	499.12
584.139	475.12
584.35	491.12
584.56	465.12
584.77	465.12
584.981	487.12
585.191	475.12
585.401	496.12
585.611	500.12
585.821	468.12
586.032	506.12
586.242	477.12
586.452	497.12
586.662	477.12
586.872	470.12
587.082	484.12
587.292	477.12
587.502	485.12
587.713	486.12
587.923	482.12
588.133	495.12
588.343	477.12
588.553	469.12
588.762	466.12
588.972	451.12
589.182	491.12
589.392	493.12
589.602	483.12
589.812	504.12
590.022	509.12
590.232	511.12
590.441	499.12
590.651	473.12
590.861	483.12
591.071	516.12
591.281	503.12
591.49	482.12
591.7	509.12
591.91	506.12
592.119	517.12
592.329	528.12
592.539	514.12
592.748	558.12
592.958	556.12
593.167	569.12
593.377	568.12
593.587	593.12
593.796	586.12
594.006	573.12
594.215	587.12
594.424	618.12
594.634	598.12
594.843	564.12
595.053	539.12
595.262	521.12
595.472	524.12
595.681	516.12
595.89	481.12
596.1	460.12
596.309	455.12
596.518	477.12
596.727	473.12
596.937	459.12
597.146	459.12
597.355	470.12
597.564	461.12
597.774	459.12
597.983	430.12
598.192	418.12
598.401	430.12
598.61	410.12
598.819	433.12
599.028	419.12
599.237	407.12
599.446	394.12
599.655	425.12
599.864	411.12
600.073	422.12
600.282	436.12
600.491	405.12
600.7	418.12
600.909	419.12
601.118	414.12
601.327	401.12
601.536	420.12
601.745	418.12
601.953	415.12
602.162	392.12
602.371	400.12
602.58	383.12
602.789	397.12
602.997	402.12
603.206	386.12
603.415	372.12
603.623	383.12
603.832	384.12
604.041	388.12
604.249	398.12
604.458	394.12
604.666	394.12
604.875	374.12
605.084	369.12
605.292	383.12
605.501	392.12
605.709	358.12
605.918	373.12
606.126	362.12
606.334	364.12
606.543	380.12
606.751	361.12
606.96	375.12
607.168	342.12
607.376	351.12
607.585	358.12
607.793	358.12
608.001	361.12
608.21	351.12
608.418	341.12
608.626	364.12
608.834	364.12
609.043	356.12
609.251	359.12
609.459	345.12
609.667	376.12
609.875	367.12
610.083	372.12
610.291	352.12
610.499	358.12
610.707	352.12
610.916	355.12
611.124	367.12
611.332	379.12
611.54	376.12
611.748	373.12
611.955	385.12
612.163	365.12
612.371	358.12
612.579	344.12
612.787	339.12
612.995	362.12
613.203	359.12
613.411	343.12
613.618	354.12
613.826	372.12
614.034	367.12
614.242	345.12
614.449	340.12
614.657	339.12
614.865	330.12
615.072	346.12
615.28	349.12
615.488	332.12
615.695	362.12
615.903	371.12
616.111	360.12
616.318	329.12
616.526	338.12
616.733	346.12
616.941	351.12
617.148	329.12
617.356	346.12
617.563	322.12
617.771	344.12
617.978	331.12
618.185	316.12
618.393	339.12
618.6	329.12
618.807	322.12
619.015	336.12
619.222	329.12
619.429	329.12
619.637	339.12
619.844	333.12
620.051	328.12
620.258	329.12
620.466	334.12
620.673	299.12
620.88	305.12
621.087	312.12
621.294	308.12
621.501	325.12
621.708	304.12
621.915	298.12
622.122	312.12
622.329	315.12
622.536	309.12
622.743	311.12
622.95	304.12
623.157	330.12
623.364	311.12
623.571	310.12
623.778	317.12
623.985	313.12
624.192	301.12
624.399	294.12
624.606	295.12
624.812	300.12
625.019	305.12
625.226	290.12
625.433	309.12
625.639	305.12
625.846	306.12
626.053	287.12
626.259	278.12
626.466	284.12
626.673	277.12
626.879	288.12
627.086	284.12
627.293	288.12
627.499	274.12
627.706	291.12
627.912	280.12
628.119	286.12
628.325	285.12
628.532	282.12
628.738	298.12
628.945	267.12
629.151	282.12
629.357	282.12
629.564	280.12
629.77	271.12
629.976	263.12
630.183	281.12
630.389	283.12
630.595	280.12
630.802	276.12
631.008	261.12
631.214	277.12
631.42	271.12
631.627	252.12
631.833	268.12
632.039	281.12
632.245	259.12
632.451	253.12
632.657	255.12
632.863	238.12
633.069	258.12
633.275	262.12
633.481	258.12
633.688	264.12
633.893	257.12
634.099	264.12
634.305	258.12
634.511	245.12
634.717	240.12
634.923	238.12
635.129	248.12
635.335	244.12
635.541	246.12
635.747	238.12
635.952	249.12
636.158	250.12
636.364	242.12
636.57	237.12
636.775	251.12
636.981	256.12
637.187	232.12
637.392	222.12
637.598	231.12
637.804	241.12
638.009	232.12
638.215	242.12
638.421	235.12
638.626	240.12
638.832	249.12
639.037	228.12
639.243	229.12
639.448	229.12
639.654	250.12
639.859	242.12
640.065	230.12
640.27	252.12
640.475	233.12
640.681	229.12
640.886	238.12
641.091	241.12
641.297	230.12
641.502	228.12
641.707	238.12
641.913	225.12
642.118	221.12
642.323	220.12
642.528	221.12
642.733	222.12
642.939	234.12
643.144	214.12
643.349	221.12
643.554	236.12
643.759	215.12
643.964	227.12
644.169	215.12
644.374	231.12
644.579	210.12
644.784	207.12
644.989	222.12
645.194	221.12
645.399	216.12
645.604	226.12
645.809	217.12
646.014	209.12
646.219	207.12
646.423	223.12
646.628	240.12
646.833	225.12
647.038	220.12
647.243	223.12
647.447	227.12
647.652	228.12
647.857	234.12
648.062	240.12
648.266	236.12
648.471	243.12
648.676	240.12
648.88	232.12
649.085	232.12
649.289	227.12
649.494	225.12
649.698	235.12
649.903	226.12
650.107	212.12
650.312	207.12
650.516	210.12
650.721	203.12
650.925	213.12
651.13	203.12
651.334	197.12
651.539	181.12
651.743	189.12
651.947	205.12
652.152	201.12
652.356	176.12
652.56	183.12
652.764	176.12
652.969	201.12
653.173	186.12
653.377	189.12
653.581	169.12
653.785	167.12
653.99	163.12
654.194	189.12
654.398	175.12
654.602	170.12
654.806	193.12
655.01	168.12
655.214	172.12
655.418	160.12
655.622	175.12
655.826	176.12
656.03	171.12
656.234	186.12
656.438	182.12
656.642	184.12
656.846	204.12
657.049	170.12
657.253	152.12
657.457	158.12
657.661	148.12
657.865	153.12
658.068	142.12
658.272	146.12
658.476	134.12
658.68	127.12
658.883	121.12
659.087	115.12
659.291	103.12
659.494	106.12
659.698	110.12
659.901	108.12
660.105	112.12
660.309	95.12
660.512	106.12
660.716	97.12
660.919	96.12
661.123	104.12
661.326	94.12
661.53	108.12
661.733	96.12
661.936	100.12
662.14	104.12
662.343	91.12
662.546	102.12
662.75	99.12
662.953	85.12
663.156	93.12
663.36	85.12
663.563	75.12
663.766	72.12
663.969	88.12
664.173	87.12
664.376	103.12
664.579	92.12
664.782	94.12
664.985	93.12
665.188	98.12
665.391	100.12
665.594	72.12
665.797	85.12
666	78.12
666.203	82.12
666.406	95.12
666.609	75.12
666.812	75.12
667.015	83.12
667.218	69.12
667.421	92.12
667.624	93.12
667.827	92.12
668.03	87.12
668.232	93.12
668.435	89.12
668.638	77.12
668.841	87.12
669.043	76.12
669.246	92.12
669.449	81.12
669.651	95.12
669.854	84.12
670.057	84.12
670.259	79.12
670.462	82.12
670.665	89.12
670.867	90.12
671.07	86.12
671.272	87.12
671.475	85.12
671.677	102.12
671.88	81.12
672.082	86.12
672.284	89.12
672.487	74.12
672.689	93.12
672.892	91.12
