Data from WStandard_LampEnergy10_LIBS07252019.E.O._I.C._HRD10591_15-55-16-928.txt Node
Date: Thu Jul 25 15:55:16 EDT 2019
User: cochatt
Spectrometer: HR+D1059
Trigger mode: 1
Integration Time (sec): 1.000000E-1
Scans to average: 1
Electric dark correction enabled: true
Nonlinearity correction enabled: false
Boxcar width: 0
XAxis mode: Wavelengths
Number of Pixels in Spectrum: 2048
>>>>>Begin Spectral Data<<<<<
223.165	-11.25
223.4	-11.25
223.635	-11.25
223.869	-13.25
224.104	-13.25
224.338	-19.25
224.573	-4.25
224.808	-18.25
225.042	-8.25
225.277	-12.25
225.511	8.75
225.746	-3.25
225.98	-2.25
226.215	6.75
226.449	13.75
226.683	23.75
226.918	22.75
227.152	29.75
227.387	34.75
227.621	54.75
227.856	49.75
228.09	55.75
228.324	63.75
228.559	60.75
228.793	96.75
229.027	138.75
229.262	144.75
229.496	156.75
229.73	155.75
229.964	176.75
230.199	182.75
230.433	172.75
230.667	186.75
230.901	201.75
231.136	183.75
231.37	171.75
231.604	176.75
231.838	175.75
232.072	194.75
232.306	194.75
232.541	192.75
232.775	195.75
233.009	219.75
233.243	212.75
233.477	187.75
233.711	194.75
233.945	194.75
234.179	190.75
234.413	212.75
234.647	216.75
234.881	199.75
235.115	206.75
235.349	194.75
235.583	195.75
235.817	171.75
236.051	210.75
236.285	205.75
236.519	220.75
236.753	230.75
236.987	238.75
237.221	254.75
237.455	236.75
237.689	251.75
237.922	218.75
238.156	225.75
238.39	223.75
238.624	224.75
238.858	232.75
239.091	237.75
239.325	268.75
239.559	287.75
239.793	307.75
240.027	312.75
240.26	294.75
240.494	244.75
240.728	243.75
240.961	239.75
241.195	248.75
241.429	262.75
241.662	266.75
241.896	256.75
242.13	246.75
242.363	287.75
242.597	272.75
242.83	287.75
243.064	291.75
243.298	286.75
243.531	294.75
243.765	288.75
243.998	276.75
244.232	256.75
244.465	236.75
244.699	244.75
244.932	282.75
245.166	318.75
245.399	302.75
245.633	299.75
245.866	285.75
246.099	277.75
246.333	301.75
246.566	307.75
246.8	290.75
247.033	335.75
247.266	326.75
247.5	298.75
247.733	338.75
247.966	346.75
248.2	356.75
248.433	349.75
248.666	347.75
248.899	399.75
249.133	439.75
249.366	471.75
249.599	392.75
249.832	378.75
250.066	389.75
250.299	374.75
250.532	344.75
250.765	338.75
250.998	335.75
251.231	366.75
251.465	361.75
251.698	343.75
251.931	357.75
252.164	362.75
252.397	363.75
252.63	350.75
252.863	331.75
253.096	331.75
253.329	326.75
253.562	338.75
253.795	363.75
254.028	372.75
254.261	346.75
254.494	352.75
254.727	328.75
254.96	344.75
255.193	384.75
255.426	405.75
255.659	469.75
255.892	459.75
256.124	411.75
256.357	388.75
256.59	398.75
256.823	393.75
257.056	411.75
257.289	487.75
257.521	499.75
257.754	452.75
257.987	464.75
258.22	472.75
258.452	456.75
258.685	406.75
258.918	395.75
259.151	392.75
259.383	373.75
259.616	348.75
259.849	384.75
260.081	423.75
260.314	450.75
260.547	456.75
260.779	477.75
261.012	433.75
261.244	420.75
261.477	387.75
261.71	409.75
261.942	423.75
262.175	412.75
262.407	424.75
262.64	394.75
262.872	380.75
263.105	366.75
263.337	388.75
263.57	370.75
263.802	387.75
264.035	357.75
264.267	355.75
264.499	336.75
264.732	374.75
264.964	388.75
265.197	392.75
265.429	410.75
265.661	438.75
265.894	482.75
266.126	499.75
266.358	473.75
266.591	478.75
266.823	498.75
267.055	483.75
267.287	446.75
267.52	436.75
267.752	442.75
267.984	437.75
268.216	486.75
268.448	468.75
268.681	449.75
268.913	452.75
269.145	398.75
269.377	428.75
269.609	431.75
269.841	511.75
270.073	583.75
270.306	626.75
270.538	650.75
270.77	533.75
271.002	485.75
271.234	489.75
271.466	495.75
271.698	539.75
271.93	623.75
272.162	575.75
272.394	545.75
272.626	516.75
272.858	469.75
273.09	428.75
273.322	424.75
273.553	395.75
273.785	406.75
274.017	414.75
274.249	431.75
274.481	429.75
274.713	403.75
274.945	406.75
275.176	416.75
275.408	406.75
275.64	399.75
275.872	408.75
276.104	446.75
276.335	511.75
276.567	540.75
276.799	527.75
277.031	487.75
277.262	498.75
277.494	506.75
277.726	542.75
277.957	527.75
278.189	473.75
278.421	441.75
278.652	418.75
278.884	442.75
279.115	428.75
279.347	414.75
279.579	424.75
279.81	451.75
280.042	481.75
280.273	498.75
280.505	503.75
280.736	502.75
280.968	471.75
281.199	432.75
281.431	429.75
281.662	421.75
281.894	436.75
282.125	446.75
282.356	460.75
282.588	448.75
282.819	466.75
283.051	500.75
283.282	517.75
283.513	516.75
283.745	444.75
283.976	434.75
284.207	436.75
284.439	444.75
284.67	439.75
284.901	482.75
285.132	472.75
285.364	447.75
285.595	468.75
285.826	463.75
286.057	471.75
286.288	452.75
286.52	478.75
286.751	498.75
286.982	505.75
287.213	489.75
287.444	434.75
287.675	444.75
287.906	480.75
288.138	479.75
288.369	480.75
288.6	447.75
288.831	426.75
289.062	436.75
289.293	450.75
289.524	474.75
289.755	475.75
289.986	463.75
290.217	446.75
290.448	450.75
290.679	455.75
290.91	468.75
291.141	480.75
291.371	491.75
291.602	485.75
291.833	487.75
292.064	505.75
292.295	501.75
292.526	515.75
292.757	520.75
292.987	501.75
293.218	466.75
293.449	533.75
293.68	577.75
293.91	586.75
294.141	562.75
294.372	540.75
294.603	570.75
294.833	569.75
295.064	545.75
295.295	489.75
295.525	468.75
295.756	462.75
295.987	422.75
296.217	453.75
296.448	469.75
296.679	470.75
296.909	459.75
297.14	454.75
297.37	493.75
297.601	495.75
297.831	530.75
298.062	504.75
298.292	487.75
298.523	479.75
298.753	460.75
298.984	487.75
299.214	489.75
299.445	502.75
299.675	504.75
299.905	509.75
300.136	485.75
300.366	474.75
300.597	462.75
300.827	464.75
301.057	511.75
301.288	502.75
301.518	510.75
301.748	538.75
301.979	536.75
302.209	562.75
302.439	584.75
302.669	561.75
302.9	575.75
303.13	511.75
303.36	512.75
303.59	513.75
303.82	516.75
304.051	526.75
304.281	519.75
304.511	545.75
304.741	571.75
304.971	636.75
305.201	646.75
305.431	587.75
305.661	490.75
305.891	466.75
306.121	469.75
306.352	483.75
306.582	503.75
306.812	534.75
307.042	584.75
307.272	575.75
307.502	610.75
307.731	640.75
307.961	632.75
308.191	599.75
308.421	535.75
308.651	495.75
308.881	491.75
309.111	497.75
309.341	484.75
309.571	505.75
309.8	494.75
310.03	479.75
310.26	517.75
310.49	483.75
310.72	504.75
310.949	530.75
311.179	521.75
311.409	532.75
311.639	532.75
311.868	506.75
312.098	515.75
312.328	512.75
312.557	499.75
312.787	518.75
313.017	525.75
313.246	525.75
313.476	543.75
313.706	561.75
313.935	538.75
314.165	542.75
314.394	543.75
314.624	593.75
314.853	632.75
315.083	623.75
315.312	628.75
315.542	586.75
315.771	545.75
316.001	549.75
316.23	579.75
316.46	574.75
316.689	564.75
316.919	540.75
317.148	495.75
317.377	518.75
317.607	590.75
317.836	642.75
318.065	666.75
318.295	634.75
318.524	617.75
318.753	596.75
318.983	588.75
319.212	550.75
319.441	557.75
319.67	571.75
319.9	558.75
320.129	611.75
320.358	640.75
320.587	614.75
320.816	605.75
321.046	617.75
321.275	579.75
321.504	621.75
321.733	643.75
321.962	609.75
322.191	573.75
322.42	562.75
322.649	588.75
322.878	562.75
323.108	574.75
323.337	600.75
323.566	566.75
323.795	598.75
324.024	571.75
324.253	557.75
324.482	578.75
324.71	564.75
324.939	550.75
325.168	536.75
325.397	572.75
325.626	575.75
325.855	592.75
326.084	588.75
326.313	575.75
326.542	581.75
326.77	613.75
326.999	590.75
327.228	552.75
327.457	527.75
327.686	548.75
327.914	571.75
328.143	571.75
328.372	562.75
328.6	563.75
328.829	572.75
329.058	559.75
329.287	584.75
329.515	572.75
329.744	600.75
329.972	635.75
330.201	634.75
330.43	601.75
330.658	597.75
330.887	578.75
331.115	575.75
331.344	621.75
331.572	582.75
331.801	589.75
332.03	606.75
332.258	614.75
332.486	589.75
332.715	618.75
332.943	603.75
333.172	598.75
333.4	598.75
333.629	634.75
333.857	711.75
334.085	754.75
334.314	825.75
334.542	820.75
334.771	752.75
334.999	712.75
335.227	631.75
335.455	646.75
335.684	642.75
335.912	671.75
336.14	690.75
336.369	634.75
336.597	604.75
336.825	640.75
337.053	645.75
337.281	685.75
337.51	673.75
337.738	707.75
337.966	650.75
338.194	586.75
338.422	591.75
338.65	610.75
338.878	581.75
339.106	586.75
339.334	573.75
339.562	576.75
339.79	626.75
340.018	624.75
340.246	638.75
340.474	629.75
340.702	619.75
340.93	641.75
341.158	610.75
341.386	621.75
341.614	600.75
341.842	604.75
342.07	618.75
342.298	599.75
342.526	592.75
342.754	578.75
342.981	599.75
343.209	587.75
343.437	583.75
343.665	610.75
343.893	622.75
344.12	638.75
344.348	648.75
344.576	607.75
344.804	604.75
345.031	588.75
345.259	593.75
345.487	592.75
345.714	558.75
345.942	551.75
346.17	582.75
346.397	553.75
346.625	580.75
346.853	558.75
347.08	568.75
347.308	565.75
347.535	586.75
347.763	563.75
347.99	582.75
348.218	578.75
348.445	563.75
348.673	570.75
348.9	602.75
349.128	612.75
349.355	615.75
349.583	618.75
349.81	582.75
350.037	537.75
350.265	541.75
350.492	526.75
350.72	552.75
350.947	574.75
351.174	607.75
351.402	578.75
351.629	538.75
351.856	539.75
352.083	550.75
352.311	572.75
352.538	536.75
352.765	598.75
352.992	583.75
353.22	564.75
353.447	543.75
353.674	582.75
353.901	578.75
354.128	557.75
354.355	562.75
354.583	618.75
354.81	615.75
355.037	599.75
355.264	601.75
355.491	568.75
355.718	559.75
355.945	578.75
356.172	582.75
356.399	572.75
356.626	559.75
356.853	597.75
357.08	642.75
357.307	708.75
357.534	655.75
357.761	603.75
357.988	576.75
358.215	553.75
358.441	572.75
358.668	539.75
358.895	569.75
359.122	618.75
359.349	660.75
359.576	617.75
359.802	558.75
360.029	537.75
360.256	553.75
360.483	581.75
360.709	613.75
360.936	621.75
361.163	630.75
361.39	692.75
361.616	690.75
361.843	695.75
362.07	643.75
362.296	580.75
362.523	566.75
362.749	575.75
362.976	580.75
363.203	590.75
363.429	571.75
363.656	567.75
363.882	602.75
364.109	662.75
364.335	660.75
364.562	623.75
364.788	607.75
365.015	573.75
365.241	555.75
365.468	588.75
365.694	612.75
365.92	624.75
366.147	592.75
366.373	565.75
366.599	553.75
366.826	564.75
367.052	564.75
367.278	581.75
367.505	593.75
367.731	598.75
367.957	619.75
368.184	628.75
368.41	692.75
368.636	674.75
368.862	680.75
369.089	697.75
369.315	638.75
369.541	617.75
369.767	596.75
369.993	603.75
370.219	600.75
370.445	604.75
370.672	655.75
370.898	666.75
371.124	638.75
371.35	635.75
371.576	643.75
371.802	679.75
372.028	651.75
372.254	614.75
372.48	598.75
372.706	611.75
372.932	598.75
373.158	633.75
373.384	639.75
373.61	644.75
373.835	663.75
374.061	647.75
374.287	644.75
374.513	647.75
374.739	648.75
374.965	645.75
375.191	638.75
375.416	657.75
375.642	683.75
375.868	701.75
376.094	730.75
376.319	669.75
376.545	666.75
376.771	707.75
376.997	727.75
377.222	695.75
377.448	677.75
377.674	676.75
377.899	678.75
378.125	712.75
378.35	696.75
378.576	649.75
378.802	638.75
379.027	640.75
379.253	659.75
379.478	650.75
379.704	644.75
379.929	631.75
380.155	646.75
380.38	661.75
380.606	654.75
380.831	666.75
381.057	702.75
381.282	675.75
381.507	712.75
381.733	722.75
381.958	760.75
382.184	696.75
382.409	672.75
382.634	696.75
382.86	682.75
383.085	696.75
383.31	703.75
383.535	780.75
383.761	786.75
383.986	769.75
384.211	740.75
384.436	756.75
384.662	772.75
384.887	790.75
385.112	755.75
385.337	767.75
385.562	739.75
385.787	749.75
386.013	773.75
386.238	750.75
386.463	754.75
386.688	855.75
386.913	898.75
387.138	843.75
387.363	812.75
387.588	771.75
387.813	772.75
388.038	821.75
388.263	814.75
388.488	776.75
388.713	728.75
388.938	734.75
389.163	755.75
389.387	749.75
389.612	735.75
389.837	770.75
390.062	788.75
390.287	741.75
390.512	744.75
390.736	772.75
390.961	773.75
391.186	756.75
391.411	754.75
391.636	766.75
391.86	764.75
392.085	775.75
392.31	751.75
392.534	747.75
392.759	773.75
392.984	744.75
393.208	777.75
393.433	812.75
393.658	868.75
393.882	822.75
394.107	772.75
394.331	754.75
394.556	788.75
394.78	783.75
395.005	815.75
395.229	812.75
395.454	877.75
395.678	877.75
395.903	837.75
396.127	810.75
396.352	838.75
396.576	838.75
396.801	868.75
397.025	826.75
397.249	851.75
397.474	831.75
397.698	827.75
397.922	885.75
398.147	886.75
398.371	917.75
398.595	903.75
398.82	869.75
399.044	895.75
399.268	934.75
399.492	989.75
399.717	997.75
399.941	1007.75
400.165	972.75
400.389	972.75
400.613	1015.75
400.837	1136.75
401.062	1219.75
401.286	1018.75
401.51	1000.75
401.734	1000.75
401.958	984.75
402.182	899.75
402.406	884.75
402.63	854.75
402.854	898.75
403.078	877.75
403.302	925.75
403.526	954.75
403.75	885.75
403.974	956.75
404.198	948.75
404.422	994.75
404.645	1016.75
404.869	962.75
405.093	926.75
405.317	922.75
405.541	927.75
405.765	950.75
405.988	950.75
406.212	954.75
406.436	964.75
406.66	984.75
406.883	1036.75
407.107	1193.75
407.331	1212.75
407.555	1258.75
407.778	1134.75
408.002	1004.75
408.226	992.75
408.449	986.75
408.673	959.75
408.896	953.75
409.12	966.75
409.344	935.75
409.567	937.75
409.791	938.75
410.014	982.75
410.238	1042.75
410.461	1050.75
410.685	942.75
410.908	934.75
411.132	978.75
411.355	939.75
411.578	932.75
411.802	944.75
412.025	967.75
412.249	924.75
412.472	916.75
412.695	923.75
412.919	912.75
413.142	920.75
413.365	904.75
413.589	950.75
413.812	989.75
414.035	982.75
414.258	947.75
414.482	912.75
414.705	936.75
414.928	912.75
415.151	933.75
415.374	950.75
415.597	951.75
415.821	939.75
416.044	960.75
416.267	950.75
416.49	910.75
416.713	960.75
416.936	971.75
417.159	999.75
417.382	974.75
417.605	927.75
417.828	921.75
418.051	962.75
418.274	944.75
418.497	939.75
418.72	946.75
418.943	927.75
419.166	946.75
419.389	974.75
419.611	1000.75
419.834	937.75
420.057	930.75
420.28	923.75
420.503	943.75
420.726	981.75
420.948	908.75
421.171	906.75
421.394	971.75
421.617	998.75
421.839	1002.75
422.062	989.75
422.285	924.75
422.507	934.75
422.73	902.75
422.953	890.75
423.175	883.75
423.398	899.75
423.621	935.75
423.843	906.75
424.066	939.75
424.288	1026.75
424.511	1031.75
424.733	1022.75
424.956	937.75
425.178	952.75
425.401	950.75
425.623	959.75
425.846	958.75
426.068	986.75
426.291	964.75
426.513	958.75
426.735	970.75
426.958	1022.75
427.18	1074.75
427.402	1004.75
427.625	1050.75
427.847	973.75
428.069	938.75
428.292	894.75
428.514	904.75
428.736	874.75
428.958	892.75
429.181	933.75
429.403	1108.75
429.625	1238.75
429.847	1053.75
430.069	967.75
430.292	1040.75
430.514	1028.75
430.736	956.75
430.958	976.75
431.18	935.75
431.402	875.75
431.624	850.75
431.846	812.75
432.068	734.75
432.29	744.75
432.512	785.75
432.734	886.75
432.956	960.75
433.178	972.75
433.4	979.75
433.622	929.75
433.844	913.75
434.066	859.75
434.287	793.75
434.509	790.75
434.731	838.75
434.953	918.75
435.175	944.75
435.397	921.75
435.618	892.75
435.84	837.75
436.062	850.75
436.284	903.75
436.505	943.75
436.727	946.75
436.949	939.75
437.17	922.75
437.392	886.75
437.614	860.75
437.835	812.75
438.057	811.75
438.278	843.75
438.5	845.75
438.721	895.75
438.943	950.75
439.165	927.75
439.386	922.75
439.608	954.75
439.829	958.75
440.05	986.75
440.272	956.75
440.493	958.75
440.715	973.75
440.936	1045.75
441.158	1078.75
441.379	1036.75
441.6	1027.75
441.822	1015.75
442.043	1015.75
442.264	997.75
442.486	976.75
442.707	974.75
442.928	956.75
443.149	988.75
443.371	1005.75
443.592	1036.75
443.813	1037.75
444.034	1034.75
444.255	1029.75
444.476	1038.75
444.698	1069.75
444.919	1030.75
445.14	1129.75
445.361	1091.75
445.582	1095.75
445.803	1047.75
446.024	1067.75
446.245	1082.75
446.466	1060.75
446.687	1063.75
446.908	1039.75
447.129	994.75
447.35	1026.75
447.571	1004.75
447.792	950.75
448.013	975.75
448.234	969.75
448.455	998.75
448.675	997.75
448.896	922.75
449.117	916.75
449.338	935.75
449.559	968.75
449.779	971.75
450	1050.75
450.221	1040.75
450.442	1039.75
450.662	943.75
450.883	882.75
451.104	859.75
451.324	871.75
451.545	918.75
451.766	858.75
451.986	830.75
452.207	849.75
452.428	813.75
452.648	790.75
452.869	790.75
453.089	803.75
453.31	792.75
453.53	786.75
453.751	724.75
453.971	672.75
454.192	725.75
454.412	788.75
454.633	790.75
454.853	798.75
455.073	752.75
455.294	779.75
455.514	759.75
455.734	743.75
455.955	766.75
456.175	780.75
456.395	733.75
456.616	729.75
456.836	768.75
457.056	737.75
457.276	710.75
457.497	714.75
457.717	706.75
457.937	723.75
458.157	710.75
458.377	700.75
458.598	686.75
458.818	679.75
459.038	719.75
459.258	720.75
459.478	741.75
459.698	696.75
459.918	750.75
460.138	820.75
460.358	820.75
460.578	833.75
460.798	876.75
461.018	916.75
461.238	893.75
461.458	877.75
461.678	830.75
461.898	832.75
462.118	855.75
462.338	890.75
462.558	874.75
462.777	854.75
462.997	887.75
463.217	918.75
463.437	895.75
463.657	847.75
463.876	828.75
464.096	836.75
464.316	849.75
464.536	892.75
464.755	870.75
464.975	891.75
465.195	865.75
465.414	863.75
465.634	872.75
465.854	912.75
466.073	973.75
466.293	943.75
466.512	879.75
466.732	890.75
466.951	913.75
467.171	935.75
467.391	901.75
467.61	895.75
467.829	901.75
468.049	957.75
468.268	1076.75
468.488	950.75
468.707	915.75
468.927	916.75
469.146	896.75
469.365	898.75
469.585	918.75
469.804	934.75
470.023	944.75
470.243	969.75
470.462	909.75
470.681	939.75
470.901	934.75
471.12	968.75
471.339	947.75
471.558	916.75
471.777	921.75
471.997	899.75
472.216	850.75
472.435	802.75
472.654	761.75
472.873	794.75
473.092	848.75
473.311	834.75
473.53	815.75
473.749	824.75
473.968	836.75
474.187	848.75
474.406	848.75
474.625	858.75
474.844	872.75
475.063	869.75
475.282	848.75
475.501	840.75
475.72	853.75
475.939	916.75
476.158	898.75
476.377	880.75
476.596	856.75
476.814	832.75
477.033	819.75
477.252	857.75
477.471	905.75
477.69	950.75
477.908	938.75
478.127	989.75
478.346	1001.75
478.564	1017.75
478.783	1019.75
479.002	1052.75
479.22	1021.75
479.439	1034.75
479.658	1078.75
479.876	997.75
480.095	933.75
480.313	904.75
480.532	899.75
480.751	877.75
480.969	842.75
481.188	809.75
481.406	800.75
481.624	787.75
481.843	812.75
482.061	855.75
482.28	865.75
482.498	899.75
482.717	874.75
482.935	906.75
483.153	985.75
483.372	1034.75
483.59	1013.75
483.808	972.75
484.027	960.75
484.245	985.75
484.463	1218.75
484.681	1286.75
484.9	1021.75
485.118	973.75
485.336	964.75
485.554	930.75
485.772	908.75
485.99	899.75
486.209	913.75
486.427	924.75
486.645	942.75
486.863	1024.75
487.081	1054.75
487.299	1022.75
487.517	1037.75
487.735	1123.75
487.953	1212.75
488.171	1178.75
488.389	1160.75
488.607	1103.75
488.825	1158.75
489.043	1086.75
489.261	961.75
489.479	1039.75
489.696	1061.75
489.914	1050.75
490.132	1042.75
490.35	1089.75
490.568	1170.75
490.786	1145.75
491.003	1186.75
491.221	1252.75
491.439	1301.75
491.657	1332.75
491.874	1390.75
492.092	1439.75
492.31	1511.75
492.527	1427.75
492.745	1368.75
492.963	1317.75
493.18	1303.75
493.398	1353.75
493.615	1323.75
493.833	1283.75
494.05	1231.75
494.268	1259.75
494.485	1274.75
494.703	1239.75
494.92	1212.75
495.138	1238.75
495.355	1274.75
495.573	1261.75
495.79	1292.75
496.008	1269.75
496.225	1234.75
496.442	1238.75
496.66	1227.75
496.877	1219.75
497.094	1229.75
497.312	1240.75
497.529	1197.75
497.746	1237.75
497.963	1269.75
498.181	1314.75
498.398	1286.75
498.615	1211.75
498.832	1158.75
499.049	1130.75
499.267	1171.75
499.484	1262.75
499.701	1378.75
499.918	1392.75
500.135	1522.75
500.352	1580.75
500.569	1576.75
500.786	1692.75
501.003	1570.75
501.22	1458.75
501.437	1419.75
501.654	1434.75
501.871	1358.75
502.088	1229.75
502.305	1188.75
502.522	1153.75
502.739	1102.75
502.956	1084.75
503.172	1093.75
503.389	1039.75
503.606	987.75
503.823	1022.75
504.04	982.75
504.256	1023.75
504.473	1010.75
504.69	1049.75
504.907	973.75
505.123	1007.75
505.34	1092.75
505.557	1355.75
505.773	1123.75
505.99	970.75
506.207	900.75
506.423	901.75
506.64	910.75
506.856	954.75
507.073	1055.75
507.289	1085.75
507.506	987.75
507.722	860.75
507.939	857.75
508.155	878.75
508.372	867.75
508.588	820.75
508.805	803.75
509.021	785.75
509.238	772.75
509.454	770.75
509.67	771.75
509.887	749.75
510.103	751.75
510.319	738.75
510.536	798.75
510.752	772.75
510.968	773.75
511.184	789.75
511.401	763.75
511.617	700.75
511.833	749.75
512.049	732.75
512.265	724.75
512.481	733.75
512.698	761.75
512.914	770.75
513.13	763.75
513.346	732.75
513.562	721.75
513.778	719.75
513.994	747.75
514.21	772.75
514.426	792.75
514.642	806.75
514.858	761.75
515.074	736.75
515.29	710.75
515.506	751.75
515.721	724.75
515.937	777.75
516.153	799.75
516.369	790.75
516.585	747.75
516.801	721.75
517.016	739.75
517.232	771.75
517.448	776.75
517.664	818.75
517.879	797.75
518.095	811.75
518.311	795.75
518.527	757.75
518.742	758.75
518.958	747.75
519.173	764.75
519.389	783.75
519.605	767.75
519.82	794.75
520.036	793.75
520.251	756.75
520.467	776.75
520.682	844.75
520.898	836.75
521.113	736.75
521.329	736.75
521.544	785.75
521.76	750.75
521.975	730.75
522.19	726.75
522.406	747.75
522.621	961.75
522.836	902.75
523.052	752.75
523.267	754.75
523.482	768.75
523.698	754.75
523.913	770.75
524.128	769.75
524.343	824.75
524.559	833.75
524.774	806.75
524.989	754.75
525.204	750.75
525.419	730.75
525.634	729.75
525.849	748.75
526.064	737.75
526.28	743.75
526.495	679.75
526.71	635.75
526.925	649.75
527.14	631.75
527.355	623.75
527.57	638.75
527.785	670.75
527.999	683.75
528.214	672.75
528.429	702.75
528.644	740.75
528.859	804.75
529.074	833.75
529.289	874.75
529.503	891.75
529.718	819.75
529.933	734.75
530.148	688.75
530.363	656.75
530.577	640.75
530.792	641.75
531.007	641.75
531.221	626.75
531.436	652.75
531.651	657.75
531.865	681.75
532.08	660.75
532.295	613.75
532.509	604.75
532.724	629.75
532.938	658.75
533.153	685.75
533.367	707.75
533.582	722.75
533.796	757.75
534.011	700.75
534.225	680.75
534.44	659.75
534.654	649.75
534.868	655.75
535.083	691.75
535.297	699.75
535.511	672.75
535.726	695.75
535.94	676.75
536.154	682.75
536.369	639.75
536.583	639.75
536.797	648.75
537.011	631.75
537.225	591.75
537.44	593.75
537.654	678.75
537.868	652.75
538.082	623.75
538.296	609.75
538.51	618.75
538.724	664.75
538.938	702.75
539.153	748.75
539.367	741.75
539.581	693.75
539.795	688.75
540.009	655.75
540.222	646.75
540.436	679.75
540.65	743.75
540.864	833.75
541.078	835.75
541.292	859.75
541.506	931.75
541.72	976.75
541.934	1046.75
542.147	1068.75
542.361	1011.75
542.575	923.75
542.789	831.75
543.002	762.75
543.216	751.75
543.43	766.75
543.644	830.75
543.857	891.75
544.071	896.75
544.285	918.75
544.498	920.75
544.712	913.75
544.925	926.75
545.139	958.75
545.352	950.75
545.566	932.75
545.779	958.75
545.993	958.75
546.206	972.75
546.42	958.75
546.633	914.75
546.847	932.75
547.06	938.75
547.274	970.75
547.487	988.75
547.7	988.75
547.914	1013.75
548.127	982.75
548.34	966.75
548.554	926.75
548.767	950.75
548.98	914.75
549.193	944.75
549.407	973.75
549.62	972.75
549.833	932.75
550.046	907.75
550.259	909.75
550.473	907.75
550.686	878.75
550.899	861.75
551.112	834.75
551.325	819.75
551.538	824.75
551.751	886.75
551.964	694.75
552.177	722.75
552.39	795.75
552.603	828.75
552.816	871.75
553.029	902.75
553.242	900.75
553.455	902.75
553.667	918.75
553.88	910.75
554.093	887.75
554.306	879.75
554.519	854.75
554.732	841.75
554.944	810.75
555.157	835.75
555.37	813.75
555.583	790.75
555.795	815.75
556.008	762.75
556.221	723.75
556.433	738.75
556.646	747.75
556.859	723.75
557.071	751.75
557.284	756.75
557.496	768.75
557.709	767.75
557.921	767.75
558.134	760.75
558.346	745.75
558.559	731.75
558.771	726.75
558.984	718.75
559.196	684.75
559.409	695.75
559.621	668.75
559.833	650.75
560.046	700.75
560.258	692.75
560.47	693.75
560.683	652.75
560.895	672.75
561.107	666.75
561.32	667.75
561.532	678.75
561.744	677.75
561.956	686.75
562.168	681.75
562.381	646.75
562.593	661.75
562.805	654.75
563.017	652.75
563.229	636.75
563.441	643.75
563.653	647.75
563.865	627.75
564.077	626.75
564.289	602.75
564.501	627.75
564.713	626.75
564.925	649.75
565.137	704.75
565.349	604.75
565.561	621.75
565.773	636.75
565.985	611.75
566.197	649.75
566.408	690.75
566.62	690.75
566.832	675.75
567.044	683.75
567.255	668.75
567.467	648.75
567.679	656.75
567.891	644.75
568.102	629.75
568.314	564.75
568.526	545.75
568.737	528.75
568.949	489.75
569.161	463.75
569.372	456.75
569.584	480.75
569.795	463.75
570.007	476.75
570.218	431.75
570.43	451.75
570.641	474.75
570.853	476.75
571.064	474.75
571.276	499.75
571.487	462.75
571.698	462.75
571.91	496.75
572.121	462.75
572.333	443.75
572.544	442.75
572.755	434.75
572.966	408.75
573.178	396.75
573.389	399.75
573.6	418.75
573.811	439.75
574.023	418.75
574.234	390.75
574.445	420.75
574.656	403.75
574.867	400.75
575.078	400.75
575.289	407.75
575.501	391.75
575.712	375.75
575.923	414.75
576.134	406.75
576.345	393.75
576.556	416.75
576.767	439.75
576.978	411.75
577.188	388.75
577.399	406.75
577.61	394.75
577.821	382.75
578.032	378.75
578.243	379.75
578.454	381.75
578.665	367.75
578.875	338.75
579.086	350.75
579.297	336.75
579.508	341.75
579.718	332.75
579.929	350.75
580.14	347.75
580.35	346.75
580.561	374.75
580.772	407.75
580.982	375.75
581.193	362.75
581.403	342.75
581.614	366.75
581.825	355.75
582.035	348.75
582.246	349.75
582.456	364.75
582.667	364.75
582.877	356.75
583.087	357.75
583.298	334.75
583.508	349.75
583.719	330.75
583.929	318.75
584.139	319.75
584.35	328.75
584.56	330.75
584.77	335.75
584.981	339.75
585.191	327.75
585.401	338.75
585.611	325.75
585.821	352.75
586.032	313.75
586.242	316.75
586.452	327.75
586.662	323.75
586.872	311.75
587.082	340.75
587.292	340.75
587.502	343.75
587.713	336.75
587.923	323.75
588.133	324.75
588.343	318.75
588.553	313.75
588.762	310.75
588.972	328.75
589.182	325.75
589.392	318.75
589.602	335.75
589.812	324.75
590.022	316.75
590.232	312.75
590.441	330.75
590.651	301.75
590.861	292.75
591.071	315.75
591.281	314.75
591.49	311.75
591.7	308.75
591.91	312.75
592.119	329.75
592.329	326.75
592.539	336.75
592.748	340.75
592.958	308.75
593.167	339.75
593.377	329.75
593.587	344.75
593.796	318.75
594.006	335.75
594.215	335.75
594.424	329.75
594.634	340.75
594.843	345.75
595.053	374.75
595.262	334.75
595.472	330.75
595.681	318.75
595.89	333.75
596.1	312.75
596.309	333.75
596.518	319.75
596.727	334.75
596.937	323.75
597.146	312.75
597.355	326.75
597.564	314.75
597.774	325.75
597.983	272.75
598.192	296.75
598.401	311.75
598.61	298.75
598.819	310.75
599.028	303.75
599.237	308.75
599.446	302.75
599.655	284.75
599.864	305.75
600.073	302.75
600.282	309.75
600.491	298.75
600.7	306.75
600.909	298.75
601.118	310.75
601.327	328.75
601.536	364.75
601.745	368.75
601.953	342.75
602.162	370.75
602.371	356.75
602.58	353.75
602.789	362.75
602.997	363.75
603.206	358.75
603.415	368.75
603.623	357.75
603.832	343.75
604.041	339.75
604.249	340.75
604.458	306.75
604.666	306.75
604.875	304.75
605.084	320.75
605.292	355.75
605.501	371.75
605.709	347.75
605.918	357.75
606.126	374.75
606.334	352.75
606.543	380.75
606.751	358.75
606.96	372.75
607.168	385.75
607.376	352.75
607.585	352.75
607.793	348.75
608.001	350.75
608.21	366.75
608.418	382.75
608.626	378.75
608.834	358.75
609.043	363.75
609.251	360.75
609.459	367.75
609.667	344.75
609.875	372.75
610.083	380.75
610.291	392.75
610.499	364.75
610.707	363.75
610.916	364.75
611.124	350.75
611.332	378.75
611.54	366.75
611.748	368.75
611.955	367.75
612.163	351.75
612.371	371.75
612.579	376.75
612.787	371.75
612.995	375.75
613.203	375.75
613.411	344.75
613.618	363.75
613.826	356.75
614.034	395.75
614.242	359.75
614.449	357.75
614.657	358.75
614.865	383.75
615.072	367.75
615.28	361.75
615.488	372.75
615.695	376.75
615.903	375.75
616.111	357.75
616.318	362.75
616.526	362.75
616.733	357.75
616.941	373.75
617.148	351.75
617.356	358.75
617.563	363.75
617.771	344.75
617.978	324.75
618.185	335.75
618.393	354.75
618.6	343.75
618.807	349.75
619.015	342.75
619.222	350.75
619.429	331.75
619.637	331.75
619.844	320.75
620.051	314.75
620.258	314.75
620.466	320.75
620.673	327.75
620.88	328.75
621.087	305.75
621.294	323.75
621.501	313.75
621.708	308.75
621.915	317.75
622.122	322.75
622.329	314.75
622.536	328.75
622.743	316.75
622.95	315.75
623.157	317.75
623.364	328.75
623.571	310.75
623.778	348.75
623.985	312.75
624.192	324.75
624.399	320.75
624.606	323.75
624.812	312.75
625.019	295.75
625.226	308.75
625.433	284.75
625.639	261.75
625.846	286.75
626.053	276.75
626.259	258.75
626.466	268.75
626.673	251.75
626.879	242.75
627.086	242.75
627.293	254.75
627.499	281.75
627.706	295.75
627.912	307.75
628.119	299.75
628.325	303.75
628.532	288.75
628.738	288.75
628.945	289.75
629.151	285.75
629.357	292.75
629.564	272.75
629.77	278.75
629.976	286.75
630.183	264.75
630.389	275.75
630.595	287.75
630.802	283.75
631.008	296.75
631.214	280.75
631.42	280.75
631.627	261.75
631.833	260.75
632.039	266.75
632.245	282.75
632.451	258.75
632.657	280.75
632.863	280.75
633.069	275.75
633.275	280.75
633.481	271.75
633.688	250.75
633.893	266.75
634.099	253.75
634.305	271.75
634.511	255.75
634.717	256.75
634.923	219.75
635.129	230.75
635.335	232.75
635.541	228.75
635.747	249.75
635.952	254.75
636.158	248.75
636.364	246.75
636.57	267.75
636.775	269.75
636.981	279.75
637.187	286.75
637.392	266.75
637.598	277.75
637.804	284.75
638.009	278.75
638.215	254.75
638.421	256.75
638.626	275.75
638.832	275.75
639.037	245.75
639.243	264.75
639.448	266.75
639.654	246.75
639.859	259.75
640.065	237.75
640.27	261.75
640.475	260.75
640.681	260.75
640.886	257.75
641.091	274.75
641.297	270.75
641.502	254.75
641.707	251.75
641.913	247.75
642.118	255.75
642.323	239.75
642.528	240.75
642.733	258.75
642.939	261.75
643.144	235.75
643.349	248.75
643.554	249.75
643.759	246.75
643.964	262.75
644.169	264.75
644.374	230.75
644.579	242.75
644.784	238.75
644.989	259.75
645.194	250.75
645.399	245.75
645.604	235.75
645.809	266.75
646.014	253.75
646.219	251.75
646.423	232.75
646.628	254.75
646.833	242.75
647.038	228.75
647.243	239.75
647.447	242.75
647.652	240.75
647.857	257.75
648.062	241.75
648.266	247.75
648.471	244.75
648.676	250.75
648.88	247.75
649.085	236.75
649.289	248.75
649.494	251.75
649.698	220.75
649.903	239.75
650.107	244.75
650.312	236.75
650.516	237.75
650.721	234.75
650.925	223.75
651.13	219.75
651.334	202.75
651.539	229.75
651.743	232.75
651.947	221.75
652.152	215.75
652.356	216.75
652.56	212.75
652.764	221.75
652.969	215.75
653.173	207.75
653.377	212.75
653.581	226.75
653.785	222.75
653.99	203.75
654.194	228.75
654.398	212.75
654.602	215.75
654.806	207.75
655.01	208.75
655.214	188.75
655.418	211.75
655.622	197.75
655.826	206.75
656.03	223.75
656.234	237.75
656.438	214.75
656.642	230.75
656.846	220.75
657.049	214.75
657.253	220.75
657.457	211.75
657.661	168.75
657.865	182.75
658.068	175.75
658.272	172.75
658.476	162.75
658.68	164.75
658.883	150.75
659.087	151.75
659.291	134.75
659.494	143.75
659.698	144.75
659.901	131.75
660.105	141.75
660.309	123.75
660.512	134.75
660.716	117.75
660.919	126.75
661.123	127.75
661.326	123.75
661.53	115.75
661.733	107.75
661.936	110.75
662.14	101.75
662.343	106.75
662.546	91.75
662.75	110.75
662.953	87.75
663.156	87.75
663.36	104.75
663.563	79.75
663.766	90.75
663.969	84.75
664.173	93.75
664.376	99.75
664.579	85.75
664.782	97.75
664.985	99.75
665.188	76.75
665.391	93.75
665.594	84.75
665.797	91.75
666	87.75
666.203	80.75
666.406	72.75
666.609	94.75
666.812	80.75
667.015	81.75
667.218	94.75
667.421	83.75
667.624	83.75
667.827	77.75
668.03	82.75
668.232	100.75
668.435	90.75
668.638	89.75
668.841	85.75
669.043	97.75
669.246	96.75
669.449	88.75
669.651	103.75
669.854	96.75
670.057	76.75
670.259	83.75
670.462	91.75
670.665	81.75
670.867	90.75
671.07	88.75
671.272	92.75
671.475	81.75
671.677	77.75
671.88	86.75
672.082	90.75
672.284	89.75
672.487	76.75
672.689	80.75
672.892	89.75
