Data from WStandard_LampEnergy10_LIBS07252019.E.O._I.C._HRD10591_15-53-30-928.txt Node
Date: Thu Jul 25 15:53:30 EDT 2019
User: cochatt
Spectrometer: HR+D1059
Trigger mode: 1
Integration Time (sec): 1.000000E-1
Scans to average: 1
Electric dark correction enabled: true
Nonlinearity correction enabled: false
Boxcar width: 0
XAxis mode: Wavelengths
Number of Pixels in Spectrum: 2048
>>>>>Begin Spectral Data<<<<<
223.165	-14.75
223.4	-14.75
223.635	-14.75
223.869	-18.75
224.104	-10.75
224.338	-20.75
224.573	-6.75
224.808	-14.75
225.042	-6.75
225.277	-9.75
225.511	4.25
225.746	5.25
225.98	1.25
226.215	13.25
226.449	7.25
226.683	9.25
226.918	30.25
227.152	32.25
227.387	44.25
227.621	28.25
227.856	28.25
228.09	42.25
228.324	44.25
228.559	39.25
228.793	70.25
229.027	140.25
229.262	133.25
229.496	140.25
229.73	145.25
229.964	162.25
230.199	165.25
230.433	168.25
230.667	180.25
230.901	199.25
231.136	184.25
231.37	185.25
231.604	174.25
231.838	170.25
232.072	154.25
232.306	160.25
232.541	195.25
232.775	202.25
233.009	220.25
233.243	202.25
233.477	195.25
233.711	193.25
233.945	185.25
234.179	194.25
234.413	207.25
234.647	202.25
234.881	199.25
235.115	184.25
235.349	182.25
235.583	205.25
235.817	197.25
236.051	188.25
236.285	188.25
236.519	199.25
236.753	222.25
236.987	252.25
237.221	244.25
237.455	237.25
237.689	241.25
237.922	216.25
238.156	219.25
238.39	229.25
238.624	233.25
238.858	260.25
239.091	256.25
239.325	279.25
239.559	285.25
239.793	300.25
240.027	311.25
240.26	304.25
240.494	247.25
240.728	246.25
240.961	231.25
241.195	243.25
241.429	261.25
241.662	272.25
241.896	238.25
242.13	258.25
242.363	267.25
242.597	270.25
242.83	270.25
243.064	275.25
243.298	280.25
243.531	279.25
243.765	274.25
243.998	265.25
244.232	255.25
244.465	240.25
244.699	254.25
244.932	265.25
245.166	299.25
245.399	288.25
245.633	296.25
245.866	260.25
246.099	301.25
246.333	296.25
246.566	310.25
246.8	324.25
247.033	326.25
247.266	324.25
247.5	333.25
247.733	329.25
247.966	318.25
248.2	373.25
248.433	368.25
248.666	356.25
248.899	372.25
249.133	421.25
249.366	445.25
249.599	391.25
249.832	381.25
250.066	351.25
250.299	360.25
250.532	344.25
250.765	301.25
250.998	333.25
251.231	334.25
251.465	353.25
251.698	351.25
251.931	349.25
252.164	352.25
252.397	361.25
252.63	367.25
252.863	337.25
253.096	332.25
253.329	340.25
253.562	343.25
253.795	368.25
254.028	358.25
254.261	342.25
254.494	316.25
254.727	334.25
254.96	370.25
255.193	391.25
255.426	424.25
255.659	471.25
255.892	444.25
256.124	398.25
256.357	372.25
256.59	384.25
256.823	416.25
257.056	411.25
257.289	486.25
257.521	501.25
257.754	468.25
257.987	470.25
258.22	484.25
258.452	465.25
258.685	399.25
258.918	397.25
259.151	407.25
259.383	369.25
259.616	348.25
259.849	359.25
260.081	418.25
260.314	456.25
260.547	470.25
260.779	470.25
261.012	435.25
261.244	418.25
261.477	404.25
261.71	414.25
261.942	393.25
262.175	385.25
262.407	414.25
262.64	397.25
262.872	370.25
263.105	372.25
263.337	380.25
263.57	373.25
263.802	367.25
264.035	334.25
264.267	333.25
264.499	343.25
264.732	362.25
264.964	402.25
265.197	399.25
265.429	414.25
265.661	462.25
265.894	502.25
266.126	485.25
266.358	470.25
266.591	475.25
266.823	483.25
267.055	468.25
267.287	461.25
267.52	453.25
267.752	447.25
267.984	450.25
268.216	475.25
268.448	487.25
268.681	468.25
268.913	437.25
269.145	413.25
269.377	410.25
269.609	467.25
269.841	523.25
270.073	568.25
270.306	629.25
270.538	660.25
270.77	538.25
271.002	479.25
271.234	473.25
271.466	487.25
271.698	544.25
271.93	598.25
272.162	602.25
272.394	559.25
272.626	519.25
272.858	456.25
273.09	411.25
273.322	418.25
273.553	387.25
273.785	416.25
274.017	419.25
274.249	429.25
274.481	453.25
274.713	433.25
274.945	417.25
275.176	428.25
275.408	401.25
275.64	417.25
275.872	418.25
276.104	433.25
276.335	497.25
276.567	528.25
276.799	525.25
277.031	503.25
277.262	499.25
277.494	505.25
277.726	531.25
277.957	510.25
278.189	482.25
278.421	456.25
278.652	436.25
278.884	436.25
279.115	419.25
279.347	461.25
279.579	433.25
279.81	471.25
280.042	497.25
280.273	514.25
280.505	489.25
280.736	513.25
280.968	494.25
281.199	426.25
281.431	419.25
281.662	420.25
281.894	420.25
282.125	442.25
282.356	447.25
282.588	463.25
282.819	459.25
283.051	504.25
283.282	506.25
283.513	498.25
283.745	454.25
283.976	419.25
284.207	426.25
284.439	456.25
284.67	452.25
284.901	462.25
285.132	461.25
285.364	468.25
285.595	480.25
285.826	454.25
286.057	446.25
286.288	452.25
286.52	469.25
286.751	487.25
286.982	498.25
287.213	449.25
287.444	437.25
287.675	440.25
287.906	465.25
288.138	500.25
288.369	452.25
288.6	454.25
288.831	446.25
289.062	432.25
289.293	448.25
289.524	450.25
289.755	462.25
289.986	448.25
290.217	460.25
290.448	424.25
290.679	446.25
290.91	468.25
291.141	494.25
291.371	483.25
291.602	476.25
291.833	471.25
292.064	493.25
292.295	474.25
292.526	504.25
292.757	501.25
292.987	506.25
293.218	484.25
293.449	552.25
293.68	583.25
293.91	586.25
294.141	563.25
294.372	536.25
294.603	561.25
294.833	554.25
295.064	561.25
295.295	505.25
295.525	472.25
295.756	464.25
295.987	418.25
296.217	457.25
296.448	440.25
296.679	463.25
296.909	455.25
297.14	475.25
297.37	502.25
297.601	513.25
297.831	525.25
298.062	549.25
298.292	486.25
298.523	483.25
298.753	458.25
298.984	464.25
299.214	480.25
299.445	503.25
299.675	494.25
299.905	511.25
300.136	476.25
300.366	462.25
300.597	473.25
300.827	458.25
301.057	477.25
301.288	509.25
301.518	499.25
301.748	516.25
301.979	550.25
302.209	562.25
302.439	594.25
302.669	597.25
302.9	552.25
303.13	525.25
303.36	511.25
303.59	524.25
303.82	526.25
304.051	512.25
304.281	543.25
304.511	523.25
304.741	592.25
304.971	596.25
305.201	625.25
305.431	571.25
305.661	494.25
305.891	464.25
306.121	460.25
306.352	478.25
306.582	512.25
306.812	558.25
307.042	549.25
307.272	572.25
307.502	600.25
307.731	621.25
307.961	638.25
308.191	553.25
308.421	520.25
308.651	496.25
308.881	513.25
309.111	508.25
309.341	511.25
309.571	489.25
309.8	505.25
310.03	494.25
310.26	492.25
310.49	483.25
310.72	512.25
310.949	517.25
311.179	509.25
311.409	502.25
311.639	514.25
311.868	526.25
312.098	498.25
312.328	505.25
312.557	518.25
312.787	505.25
313.017	518.25
313.246	508.25
313.476	514.25
313.706	538.25
313.935	520.25
314.165	553.25
314.394	574.25
314.624	596.25
314.853	618.25
315.083	646.25
315.312	633.25
315.542	589.25
315.771	532.25
316.001	551.25
316.23	582.25
316.46	596.25
316.689	548.25
316.919	517.25
317.148	516.25
317.377	552.25
317.607	598.25
317.836	652.25
318.065	655.25
318.295	632.25
318.524	613.25
318.753	589.25
318.983	553.25
319.212	549.25
319.441	547.25
319.67	558.25
319.9	572.25
320.129	612.25
320.358	590.25
320.587	613.25
320.816	607.25
321.046	585.25
321.275	588.25
321.504	614.25
321.733	615.25
321.962	603.25
322.191	562.25
322.42	556.25
322.649	567.25
322.878	537.25
323.108	566.25
323.337	581.25
323.566	561.25
323.795	580.25
324.024	574.25
324.253	540.25
324.482	552.25
324.71	553.25
324.939	526.25
325.168	569.25
325.397	579.25
325.626	581.25
325.855	580.25
326.084	577.25
326.313	564.25
326.542	565.25
326.77	593.25
326.999	596.25
327.228	534.25
327.457	531.25
327.686	521.25
327.914	556.25
328.143	553.25
328.372	543.25
328.6	554.25
328.829	537.25
329.058	553.25
329.287	574.25
329.515	578.25
329.744	577.25
329.972	611.25
330.201	604.25
330.43	590.25
330.658	576.25
330.887	599.25
331.115	589.25
331.344	600.25
331.572	585.25
331.801	589.25
332.03	592.25
332.258	605.25
332.486	610.25
332.715	610.25
332.943	612.25
333.172	582.25
333.4	614.25
333.629	633.25
333.857	675.25
334.085	760.25
334.314	848.25
334.542	810.25
334.771	758.25
334.999	708.25
335.227	662.25
335.455	620.25
335.684	629.25
335.912	678.25
336.14	669.25
336.369	658.25
336.597	621.25
336.825	616.25
337.053	649.25
337.281	691.25
337.51	694.25
337.738	701.25
337.966	658.25
338.194	604.25
338.422	582.25
338.65	585.25
338.878	606.25
339.106	585.25
339.334	581.25
339.562	561.25
339.79	604.25
340.018	638.25
340.246	622.25
340.474	632.25
340.702	632.25
340.93	632.25
341.158	596.25
341.386	613.25
341.614	614.25
341.842	616.25
342.07	585.25
342.298	603.25
342.526	616.25
342.754	572.25
342.981	566.25
343.209	580.25
343.437	574.25
343.665	611.25
343.893	609.25
344.12	632.25
344.348	656.25
344.576	633.25
344.804	596.25
345.031	591.25
345.259	596.25
345.487	571.25
345.714	544.25
345.942	553.25
346.17	578.25
346.397	571.25
346.625	584.25
346.853	568.25
347.08	551.25
347.308	548.25
347.535	573.25
347.763	603.25
347.99	581.25
348.218	548.25
348.445	567.25
348.673	566.25
348.9	577.25
349.128	604.25
349.355	607.25
349.583	605.25
349.81	573.25
350.037	529.25
350.265	530.25
350.492	553.25
350.72	569.25
350.947	592.25
351.174	570.25
351.402	553.25
351.629	536.25
351.856	527.25
352.083	540.25
352.311	531.25
352.538	536.25
352.765	585.25
352.992	576.25
353.22	571.25
353.447	542.25
353.674	550.25
353.901	552.25
354.128	559.25
354.355	550.25
354.583	602.25
354.81	599.25
355.037	595.25
355.264	572.25
355.491	571.25
355.718	561.25
355.945	553.25
356.172	554.25
356.399	552.25
356.626	542.25
356.853	593.25
357.08	646.25
357.307	686.25
357.534	632.25
357.761	589.25
357.988	534.25
358.215	548.25
358.441	544.25
358.668	558.25
358.895	556.25
359.122	612.25
359.349	661.25
359.576	592.25
359.802	570.25
360.029	562.25
360.256	537.25
360.483	556.25
360.709	571.25
360.936	624.25
361.163	632.25
361.39	685.25
361.616	735.25
361.843	708.25
362.07	634.25
362.296	594.25
362.523	566.25
362.749	588.25
362.976	599.25
363.203	601.25
363.429	596.25
363.656	563.25
363.882	606.25
364.109	675.25
364.335	678.25
364.562	628.25
364.788	608.25
365.015	572.25
365.241	576.25
365.468	586.25
365.694	599.25
365.92	615.25
366.147	583.25
366.373	576.25
366.599	563.25
366.826	562.25
367.052	576.25
367.278	578.25
367.505	589.25
367.731	582.25
367.957	596.25
368.184	647.25
368.41	675.25
368.636	674.25
368.862	680.25
369.089	670.25
369.315	641.25
369.541	622.25
369.767	591.25
369.993	586.25
370.219	591.25
370.445	633.25
370.672	669.25
370.898	676.25
371.124	646.25
371.35	637.25
371.576	660.25
371.802	690.25
372.028	633.25
372.254	614.25
372.48	598.25
372.706	597.25
372.932	585.25
373.158	622.25
373.384	624.25
373.61	657.25
373.835	661.25
374.061	639.25
374.287	636.25
374.513	654.25
374.739	629.25
374.965	654.25
375.191	634.25
375.416	649.25
375.642	668.25
375.868	690.25
376.094	688.25
376.319	691.25
376.545	632.25
376.771	669.25
376.997	678.25
377.222	678.25
377.448	667.25
377.674	676.25
377.899	671.25
378.125	709.25
378.35	680.25
378.576	640.25
378.802	612.25
379.027	617.25
379.253	641.25
379.478	640.25
379.704	640.25
379.929	631.25
380.155	650.25
380.38	653.25
380.606	670.25
380.831	668.25
381.057	692.25
381.282	710.25
381.507	695.25
381.733	735.25
381.958	732.25
382.184	675.25
382.409	662.25
382.634	676.25
382.86	675.25
383.085	713.25
383.31	718.25
383.535	801.25
383.761	783.25
383.986	768.25
384.211	736.25
384.436	748.25
384.662	777.25
384.887	768.25
385.112	726.25
385.337	738.25
385.562	739.25
385.787	725.25
386.013	778.25
386.238	740.25
386.463	770.25
386.688	852.25
386.913	866.25
387.138	810.25
387.363	770.25
387.588	769.25
387.813	782.25
388.038	798.25
388.263	802.25
388.488	766.25
388.713	720.25
388.938	712.25
389.163	753.25
389.387	742.25
389.612	740.25
389.837	742.25
390.062	768.25
390.287	775.25
390.512	749.25
390.736	743.25
390.961	724.25
391.186	744.25
391.411	752.25
391.636	779.25
391.86	736.25
392.085	766.25
392.31	769.25
392.534	778.25
392.759	747.25
392.984	777.25
393.208	760.25
393.433	790.25
393.658	824.25
393.882	806.25
394.107	775.25
394.331	773.25
394.556	743.25
394.78	776.25
395.005	780.25
395.229	842.25
395.454	901.25
395.678	884.25
395.903	828.25
396.127	830.25
396.352	836.25
396.576	868.25
396.801	854.25
397.025	847.25
397.249	826.25
397.474	832.25
397.698	826.25
397.922	906.25
398.147	861.25
398.371	936.25
398.595	927.25
398.82	860.25
399.044	869.25
399.268	920.25
399.492	996.25
399.717	979.25
399.941	1028.25
400.165	988.25
400.389	970.25
400.613	995.25
400.837	1140.25
401.062	1168.25
401.286	1019.25
401.51	958.25
401.734	963.25
401.958	936.25
402.182	890.25
402.406	871.25
402.63	878.25
402.854	873.25
403.078	908.25
403.302	884.25
403.526	917.25
403.75	917.25
403.974	946.25
404.198	952.25
404.422	999.25
404.645	1020.25
404.869	981.25
405.093	942.25
405.317	908.25
405.541	935.25
405.765	950.25
405.988	935.25
406.212	937.25
406.436	977.25
406.66	987.25
406.883	1053.25
407.107	1136.25
407.331	1240.25
407.555	1294.25
407.778	1154.25
408.002	986.25
408.226	967.25
408.449	963.25
408.673	949.25
408.896	952.25
409.12	946.25
409.344	974.25
409.567	943.25
409.791	912.25
410.014	993.25
410.238	994.25
410.461	1074.25
410.685	974.25
410.908	944.25
411.132	937.25
411.355	934.25
411.578	943.25
411.802	961.25
412.025	928.25
412.249	918.25
412.472	894.25
412.695	920.25
412.919	897.25
413.142	932.25
413.365	929.25
413.589	954.25
413.812	991.25
414.035	1001.25
414.258	930.25
414.482	926.25
414.705	931.25
414.928	926.25
415.151	928.25
415.374	947.25
415.597	919.25
415.821	969.25
416.044	952.25
416.267	942.25
416.49	912.25
416.713	927.25
416.936	941.25
417.159	1001.25
417.382	977.25
417.605	938.25
417.828	951.25
418.051	944.25
418.274	936.25
418.497	911.25
418.72	908.25
418.943	917.25
419.166	957.25
419.389	1004.25
419.611	969.25
419.834	938.25
420.057	952.25
420.28	938.25
420.503	937.25
420.726	960.25
420.948	970.25
421.171	905.25
421.394	938.25
421.617	983.25
421.839	1018.25
422.062	974.25
422.285	918.25
422.507	914.25
422.73	924.25
422.953	882.25
423.175	891.25
423.398	918.25
423.621	914.25
423.843	937.25
424.066	973.25
424.288	1017.25
424.511	1050.25
424.733	1026.25
424.956	944.25
425.178	925.25
425.401	948.25
425.623	933.25
425.846	924.25
426.068	973.25
426.291	970.25
426.513	960.25
426.735	967.25
426.958	1014.25
427.18	1048.25
427.402	998.25
427.625	1047.25
427.847	1011.25
428.069	965.25
428.292	964.25
428.514	892.25
428.736	891.25
428.958	906.25
429.181	932.25
429.403	1072.25
429.625	1236.25
429.847	1065.25
430.069	963.25
430.292	1057.25
430.514	1027.25
430.736	961.25
430.958	979.25
431.18	949.25
431.402	909.25
431.624	853.25
431.846	814.25
432.068	733.25
432.29	762.25
432.512	791.25
432.734	878.25
432.956	920.25
433.178	981.25
433.4	989.25
433.622	942.25
433.844	918.25
434.066	842.25
434.287	804.25
434.509	780.25
434.731	847.25
434.953	924.25
435.175	934.25
435.397	922.25
435.618	907.25
435.84	836.25
436.062	845.25
436.284	920.25
436.505	920.25
436.727	959.25
436.949	920.25
437.17	898.25
437.392	892.25
437.614	844.25
437.835	801.25
438.057	807.25
438.278	832.25
438.5	858.25
438.721	900.25
438.943	935.25
439.165	945.25
439.386	922.25
439.608	941.25
439.829	945.25
440.05	980.25
440.272	939.25
440.493	956.25
440.715	991.25
440.936	1005.25
441.158	1070.25
441.379	1047.25
441.6	1055.25
441.822	1045.25
442.043	1011.25
442.264	992.25
442.486	977.25
442.707	960.25
442.928	944.25
443.149	988.25
443.371	992.25
443.592	1060.25
443.813	998.25
444.034	993.25
444.255	992.25
444.476	1024.25
444.698	1042.25
444.919	1052.25
445.14	1143.25
445.361	1084.25
445.582	1097.25
445.803	1064.25
446.024	1054.25
446.245	1096.25
446.466	1040.25
446.687	1054.25
446.908	1061.25
447.129	1004.25
447.35	1028.25
447.571	1024.25
447.792	987.25
448.013	948.25
448.234	973.25
448.455	997.25
448.675	1005.25
448.896	912.25
449.117	900.25
449.338	924.25
449.559	956.25
449.779	990.25
450	1009.25
450.221	1020.25
450.442	1053.25
450.662	916.25
450.883	903.25
451.104	880.25
451.324	907.25
451.545	898.25
451.766	879.25
451.986	835.25
452.207	827.25
452.428	800.25
452.648	801.25
452.869	802.25
453.089	775.25
453.31	768.25
453.53	781.25
453.751	750.25
453.971	716.25
454.192	728.25
454.412	782.25
454.633	792.25
454.853	812.25
455.073	751.25
455.294	776.25
455.514	773.25
455.734	757.25
455.955	745.25
456.175	762.25
456.395	740.25
456.616	736.25
456.836	747.25
457.056	739.25
457.276	721.25
457.497	689.25
457.717	677.25
457.937	704.25
458.157	711.25
458.377	711.25
458.598	686.25
458.818	678.25
459.038	680.25
459.258	729.25
459.478	716.25
459.698	707.25
459.918	765.25
460.138	808.25
460.358	834.25
460.578	823.25
460.798	865.25
461.018	912.25
461.238	888.25
461.458	841.25
461.678	831.25
461.898	825.25
462.118	833.25
462.338	832.25
462.558	832.25
462.777	850.25
462.997	875.25
463.217	862.25
463.437	864.25
463.657	830.25
463.876	836.25
464.096	859.25
464.316	857.25
464.536	845.25
464.755	885.25
464.975	885.25
465.195	870.25
465.414	879.25
465.634	886.25
465.854	876.25
466.073	950.25
466.293	944.25
466.512	856.25
466.732	881.25
466.951	912.25
467.171	931.25
467.391	868.25
467.61	897.25
467.829	927.25
468.049	1013.25
468.268	1068.25
468.488	987.25
468.707	923.25
468.927	910.25
469.146	896.25
469.365	906.25
469.585	912.25
469.804	943.25
470.023	953.25
470.243	956.25
470.462	936.25
470.681	916.25
470.901	931.25
471.12	960.25
471.339	910.25
471.558	917.25
471.777	925.25
471.997	890.25
472.216	869.25
472.435	766.25
472.654	787.25
472.873	780.25
473.092	839.25
473.311	837.25
473.53	844.25
473.749	824.25
473.968	834.25
474.187	830.25
474.406	839.25
474.625	873.25
474.844	898.25
475.063	876.25
475.282	872.25
475.501	840.25
475.72	850.25
475.939	895.25
476.158	865.25
476.377	870.25
476.596	822.25
476.814	847.25
477.033	830.25
477.252	855.25
477.471	924.25
477.69	932.25
477.908	934.25
478.127	977.25
478.346	1048.25
478.564	984.25
478.783	1000.25
479.002	1031.25
479.22	1016.25
479.439	1047.25
479.658	1052.25
479.876	1004.25
480.095	904.25
480.313	906.25
480.532	878.25
480.751	856.25
480.969	811.25
481.188	809.25
481.406	808.25
481.624	781.25
481.843	793.25
482.061	842.25
482.28	876.25
482.498	876.25
482.717	881.25
482.935	898.25
483.153	978.25
483.372	1070.25
483.59	1044.25
483.808	966.25
484.027	935.25
484.245	997.25
484.463	1220.25
484.681	1296.25
484.9	1088.25
485.118	983.25
485.336	945.25
485.554	930.25
485.772	918.25
485.99	920.25
486.209	905.25
486.427	946.25
486.645	955.25
486.863	1015.25
487.081	1038.25
487.299	1004.25
487.517	1033.25
487.735	1116.25
487.953	1212.25
488.171	1162.25
488.389	1168.25
488.607	1089.25
488.825	1176.25
489.043	1069.25
489.261	990.25
489.479	1040.25
489.696	1044.25
489.914	1047.25
490.132	1051.25
490.35	1110.25
490.568	1173.25
490.786	1171.25
491.003	1194.25
491.221	1255.25
491.439	1306.25
491.657	1336.25
491.874	1377.25
492.092	1455.25
492.31	1524.25
492.527	1502.25
492.745	1376.25
492.963	1366.25
493.18	1345.25
493.398	1348.25
493.615	1349.25
493.833	1308.25
494.05	1258.25
494.268	1283.25
494.485	1211.25
494.703	1244.25
494.92	1266.25
495.138	1235.25
495.355	1249.25
495.573	1276.25
495.79	1277.25
496.008	1308.25
496.225	1256.25
496.442	1198.25
496.66	1244.25
496.877	1220.25
497.094	1247.25
497.312	1274.25
497.529	1173.25
497.746	1230.25
497.963	1284.25
498.181	1338.25
498.398	1240.25
498.615	1207.25
498.832	1186.25
499.049	1184.25
499.267	1159.25
499.484	1271.25
499.701	1386.25
499.918	1391.25
500.135	1478.25
500.352	1586.25
500.569	1590.25
500.786	1712.25
501.003	1566.25
501.22	1427.25
501.437	1432.25
501.654	1400.25
501.871	1324.25
502.088	1214.25
502.305	1191.25
502.522	1126.25
502.739	1095.25
502.956	1097.25
503.172	1051.25
503.389	1022.25
503.606	1004.25
503.823	1006.25
504.04	995.25
504.256	995.25
504.473	999.25
504.69	1040.25
504.907	1031.25
505.123	999.25
505.34	1063.25
505.557	1378.25
505.773	1133.25
505.99	957.25
506.207	911.25
506.423	887.25
506.64	884.25
506.856	937.25
507.073	1046.25
507.289	1103.25
507.506	1030.25
507.722	901.25
507.939	864.25
508.155	884.25
508.372	873.25
508.588	831.25
508.805	808.25
509.021	798.25
509.238	758.25
509.454	744.25
509.67	737.25
509.887	746.25
510.103	776.25
510.319	771.25
510.536	770.25
510.752	772.25
510.968	745.25
511.184	820.25
511.401	787.25
511.617	706.25
511.833	704.25
512.049	679.25
512.265	712.25
512.481	723.25
512.698	761.25
512.914	794.25
513.13	756.25
513.346	721.25
513.562	713.25
513.778	714.25
513.994	754.25
514.21	753.25
514.426	753.25
514.642	801.25
514.858	761.25
515.074	727.25
515.29	740.25
515.506	745.25
515.721	737.25
515.937	753.25
516.153	812.25
516.369	765.25
516.585	741.25
516.801	753.25
517.016	731.25
517.232	781.25
517.448	784.25
517.664	785.25
517.879	782.25
518.095	807.25
518.311	776.25
518.527	752.25
518.742	761.25
518.958	729.25
519.173	753.25
519.389	798.25
519.605	784.25
519.82	794.25
520.036	804.25
520.251	763.25
520.467	782.25
520.682	793.25
520.898	812.25
521.113	729.25
521.329	720.25
521.544	793.25
521.76	759.25
521.975	725.25
522.19	700.25
522.406	729.25
522.621	916.25
522.836	880.25
523.052	727.25
523.267	734.25
523.482	751.25
523.698	752.25
523.913	748.25
524.128	761.25
524.343	817.25
524.559	852.25
524.774	793.25
524.989	757.25
525.204	771.25
525.419	774.25
525.634	759.25
525.849	751.25
526.064	706.25
526.28	728.25
526.495	671.25
526.71	660.25
526.925	615.25
527.14	632.25
527.355	632.25
527.57	636.25
527.785	661.25
527.999	678.25
528.214	688.25
528.429	711.25
528.644	749.25
528.859	800.25
529.074	856.25
529.289	870.25
529.503	876.25
529.718	804.25
529.933	760.25
530.148	673.25
530.363	654.25
530.577	631.25
530.792	625.25
531.007	646.25
531.221	622.25
531.436	648.25
531.651	664.25
531.865	690.25
532.08	651.25
532.295	638.25
532.509	607.25
532.724	622.25
532.938	663.25
533.153	710.25
533.367	732.25
533.582	733.25
533.796	734.25
534.011	711.25
534.225	668.25
534.44	612.25
534.654	660.25
534.868	631.25
535.083	676.25
535.297	703.25
535.511	680.25
535.726	709.25
535.94	684.25
536.154	633.25
536.369	652.25
536.583	615.25
536.797	607.25
537.011	631.25
537.225	636.25
537.44	628.25
537.654	648.25
537.868	642.25
538.082	605.25
538.296	610.25
538.51	626.25
538.724	655.25
538.938	725.25
539.153	751.25
539.367	749.25
539.581	718.25
539.795	690.25
540.009	638.25
540.222	625.25
540.436	681.25
540.65	750.25
540.864	798.25
541.078	849.25
541.292	858.25
541.506	899.25
541.72	974.25
541.934	1024.25
542.147	1089.25
542.361	1027.25
542.575	908.25
542.789	848.25
543.002	778.25
543.216	758.25
543.43	777.25
543.644	837.25
543.857	924.25
544.071	893.25
544.285	967.25
544.498	920.25
544.712	962.25
544.925	944.25
545.139	988.25
545.352	939.25
545.566	944.25
545.779	939.25
545.993	958.25
546.206	980.25
546.42	959.25
546.633	965.25
546.847	981.25
547.06	941.25
547.274	996.25
547.487	1008.25
547.7	1013.25
547.914	1000.25
548.127	973.25
548.34	972.25
548.554	928.25
548.767	927.25
548.98	905.25
549.193	925.25
549.407	980.25
549.62	973.25
549.833	943.25
550.046	926.25
550.259	934.25
550.473	884.25
550.686	889.25
550.899	868.25
551.112	838.25
551.325	835.25
551.538	827.25
551.751	857.25
551.964	722.25
552.177	744.25
552.39	798.25
552.603	860.25
552.816	867.25
553.029	884.25
553.242	907.25
553.455	901.25
553.667	926.25
553.88	890.25
554.093	896.25
554.306	857.25
554.519	846.25
554.732	823.25
554.944	815.25
555.157	806.25
555.37	822.25
555.583	802.25
555.795	780.25
556.008	747.25
556.221	704.25
556.433	714.25
556.646	744.25
556.859	732.25
557.071	743.25
557.284	765.25
557.496	746.25
557.709	758.25
557.921	735.25
558.134	750.25
558.346	737.25
558.559	720.25
558.771	720.25
558.984	694.25
559.196	669.25
559.409	709.25
559.621	689.25
559.833	676.25
560.046	684.25
560.258	690.25
560.47	687.25
560.683	668.25
560.895	660.25
561.107	682.25
561.32	672.25
561.532	690.25
561.744	688.25
561.956	691.25
562.168	670.25
562.381	636.25
562.593	638.25
562.805	671.25
563.017	631.25
563.229	650.25
563.441	652.25
563.653	628.25
563.865	641.25
564.077	613.25
564.289	607.25
564.501	627.25
564.713	648.25
564.925	662.25
565.137	657.25
565.349	617.25
565.561	614.25
565.773	621.25
565.985	654.25
566.197	648.25
566.408	690.25
566.62	677.25
566.832	658.25
567.044	676.25
567.255	661.25
567.467	672.25
567.679	673.25
567.891	637.25
568.102	608.25
568.314	578.25
568.526	546.25
568.737	519.25
568.949	506.25
569.161	506.25
569.372	455.25
569.584	453.25
569.795	456.25
570.007	436.25
570.218	432.25
570.43	453.25
570.641	451.25
570.853	461.25
571.064	490.25
571.276	495.25
571.487	456.25
571.698	461.25
571.91	485.25
572.121	469.25
572.333	468.25
572.544	448.25
572.755	407.25
572.966	412.25
573.178	404.25
573.389	395.25
573.6	411.25
573.811	441.25
574.023	412.25
574.234	402.25
574.445	378.25
574.656	388.25
574.867	383.25
575.078	405.25
575.289	402.25
575.501	394.25
575.712	362.25
575.923	398.25
576.134	423.25
576.345	406.25
576.556	404.25
576.767	406.25
576.978	397.25
577.188	375.25
577.399	385.25
577.61	372.25
577.821	380.25
578.032	370.25
578.243	357.25
578.454	357.25
578.665	354.25
578.875	350.25
579.086	341.25
579.297	338.25
579.508	380.25
579.718	327.25
579.929	360.25
580.14	338.25
580.35	321.25
580.561	376.25
580.772	382.25
580.982	362.25
581.193	359.25
581.403	349.25
581.614	326.25
581.825	343.25
582.035	331.25
582.246	339.25
582.456	342.25
582.667	372.25
582.877	328.25
583.087	340.25
583.298	345.25
583.508	342.25
583.719	303.25
583.929	341.25
584.139	330.25
584.35	302.25
584.56	324.25
584.77	328.25
584.981	334.25
585.191	342.25
585.401	334.25
585.611	323.25
585.821	337.25
586.032	316.25
586.242	323.25
586.452	303.25
586.662	325.25
586.872	322.25
587.082	325.25
587.292	311.25
587.502	320.25
587.713	326.25
587.923	329.25
588.133	331.25
588.343	335.25
588.553	318.25
588.762	315.25
588.972	304.25
589.182	314.25
589.392	305.25
589.602	327.25
589.812	325.25
590.022	289.25
590.232	305.25
590.441	332.25
590.651	328.25
590.861	300.25
591.071	308.25
591.281	308.25
591.49	306.25
591.7	318.25
591.91	296.25
592.119	305.25
592.329	321.25
592.539	348.25
592.748	331.25
592.958	311.25
593.167	310.25
593.377	319.25
593.587	336.25
593.796	320.25
594.006	337.25
594.215	328.25
594.424	338.25
594.634	325.25
594.843	361.25
595.053	335.25
595.262	330.25
595.472	319.25
595.681	328.25
595.89	313.25
596.1	313.25
596.309	307.25
596.518	339.25
596.727	341.25
596.937	331.25
597.146	328.25
597.355	309.25
597.564	301.25
597.774	294.25
597.983	296.25
598.192	274.25
598.401	279.25
598.61	279.25
598.819	290.25
599.028	304.25
599.237	315.25
599.446	293.25
599.655	282.25
599.864	281.25
600.073	296.25
600.282	285.25
600.491	292.25
600.7	297.25
600.909	296.25
601.118	310.25
601.327	318.25
601.536	368.25
601.745	359.25
601.953	336.25
602.162	346.25
602.371	364.25
602.58	353.25
602.789	353.25
602.997	349.25
603.206	341.25
603.415	348.25
603.623	351.25
603.832	348.25
604.041	334.25
604.249	321.25
604.458	317.25
604.666	309.25
604.875	305.25
605.084	326.25
605.292	334.25
605.501	331.25
605.709	365.25
605.918	364.25
606.126	374.25
606.334	358.25
606.543	360.25
606.751	357.25
606.96	356.25
607.168	367.25
607.376	355.25
607.585	343.25
607.793	337.25
608.001	348.25
608.21	336.25
608.418	371.25
608.626	341.25
608.834	372.25
609.043	372.25
609.251	373.25
609.459	358.25
609.667	361.25
609.875	376.25
610.083	374.25
610.291	371.25
610.499	380.25
610.707	376.25
610.916	359.25
611.124	376.25
611.332	366.25
611.54	375.25
611.748	360.25
611.955	344.25
612.163	356.25
612.371	350.25
612.579	348.25
612.787	345.25
612.995	340.25
613.203	363.25
613.411	353.25
613.618	343.25
613.826	350.25
614.034	350.25
614.242	368.25
614.449	353.25
614.657	386.25
614.865	367.25
615.072	373.25
615.28	363.25
615.488	369.25
615.695	375.25
615.903	362.25
616.111	366.25
616.318	356.25
616.526	356.25
616.733	350.25
616.941	348.25
617.148	355.25
617.356	376.25
617.563	361.25
617.771	341.25
617.978	337.25
618.185	336.25
618.393	341.25
618.6	337.25
618.807	351.25
619.015	340.25
619.222	334.25
619.429	313.25
619.637	303.25
619.844	290.25
620.051	313.25
620.258	319.25
620.466	349.25
620.673	310.25
620.88	306.25
621.087	292.25
621.294	298.25
621.501	314.25
621.708	318.25
621.915	306.25
622.122	322.25
622.329	306.25
622.536	324.25
622.743	321.25
622.95	330.25
623.157	312.25
623.364	331.25
623.571	325.25
623.778	321.25
623.985	336.25
624.192	317.25
624.399	307.25
624.606	326.25
624.812	304.25
625.019	306.25
625.226	288.25
625.433	278.25
625.639	280.25
625.846	259.25
626.053	256.25
626.259	245.25
626.466	252.25
626.673	238.25
626.879	233.25
627.086	253.25
627.293	265.25
627.499	278.25
627.706	296.25
627.912	305.25
628.119	304.25
628.325	285.25
628.532	306.25
628.738	303.25
628.945	318.25
629.151	289.25
629.357	270.25
629.564	306.25
629.77	278.25
629.976	262.25
630.183	252.25
630.389	273.25
630.595	283.25
630.802	277.25
631.008	293.25
631.214	275.25
631.42	274.25
631.627	272.25
631.833	232.25
632.039	266.25
632.245	278.25
632.451	262.25
632.657	278.25
632.863	270.25
633.069	276.25
633.275	248.25
633.481	252.25
633.688	256.25
633.893	254.25
634.099	252.25
634.305	256.25
634.511	238.25
634.717	238.25
634.923	222.25
635.129	235.25
635.335	230.25
635.541	242.25
635.747	257.25
635.952	249.25
636.158	268.25
636.364	259.25
636.57	258.25
636.775	286.25
636.981	254.25
637.187	256.25
637.392	245.25
637.598	240.25
637.804	265.25
638.009	244.25
638.215	247.25
638.421	240.25
638.626	254.25
638.832	244.25
639.037	245.25
639.243	231.25
639.448	243.25
639.654	240.25
639.859	236.25
640.065	262.25
640.27	247.25
640.475	262.25
640.681	258.25
640.886	240.25
641.091	253.25
641.297	256.25
641.502	283.25
641.707	264.25
641.913	266.25
642.118	246.25
642.323	241.25
642.528	254.25
642.733	251.25
642.939	247.25
643.144	239.25
643.349	222.25
643.554	247.25
643.759	228.25
643.964	238.25
644.169	237.25
644.374	228.25
644.579	246.25
644.784	241.25
644.989	235.25
645.194	234.25
645.399	232.25
645.604	249.25
645.809	230.25
646.014	240.25
646.219	237.25
646.423	245.25
646.628	225.25
646.833	236.25
647.038	248.25
647.243	256.25
647.447	233.25
647.652	241.25
647.857	242.25
648.062	242.25
648.266	232.25
648.471	230.25
648.676	266.25
648.88	250.25
649.085	243.25
649.289	240.25
649.494	241.25
649.698	241.25
649.903	241.25
650.107	217.25
650.312	243.25
650.516	234.25
650.721	215.25
650.925	233.25
651.13	217.25
651.334	219.25
651.539	217.25
651.743	227.25
651.947	234.25
652.152	219.25
652.356	220.25
652.56	227.25
652.764	226.25
652.969	198.25
653.173	199.25
653.377	204.25
653.581	202.25
653.785	219.25
653.99	213.25
654.194	205.25
654.398	189.25
654.602	209.25
654.806	195.25
655.01	214.25
655.214	202.25
655.418	203.25
655.622	202.25
655.826	204.25
656.03	203.25
656.234	231.25
656.438	215.25
656.642	235.25
656.846	230.25
657.049	210.25
657.253	193.25
657.457	170.25
657.661	176.25
657.865	163.25
658.068	162.25
658.272	161.25
658.476	139.25
658.68	145.25
658.883	155.25
659.087	143.25
659.291	135.25
659.494	136.25
659.698	130.25
659.901	136.25
660.105	132.25
660.309	124.25
660.512	114.25
660.716	126.25
660.919	117.25
661.123	108.25
661.326	104.25
661.53	115.25
661.733	103.25
661.936	96.25
662.14	94.25
662.343	97.25
662.546	105.25
662.75	83.25
662.953	92.25
663.156	89.25
663.36	80.25
663.563	82.25
663.766	77.25
663.969	83.25
664.173	96.25
664.376	78.25
664.579	80.25
664.782	81.25
664.985	85.25
665.188	82.25
665.391	70.25
665.594	89.25
665.797	90.25
666	82.25
666.203	85.25
666.406	80.25
666.609	92.25
666.812	69.25
667.015	67.25
667.218	83.25
667.421	78.25
667.624	88.25
667.827	91.25
668.03	75.25
668.232	66.25
668.435	68.25
668.638	83.25
668.841	86.25
669.043	81.25
669.246	77.25
669.449	77.25
669.651	88.25
669.854	72.25
670.057	87.25
670.259	75.25
670.462	95.25
670.665	76.25
670.867	81.25
671.07	75.25
671.272	95.25
671.475	86.25
671.677	80.25
671.88	73.25
672.082	71.25
672.284	73.25
672.487	73.25
672.689	92.25
672.892	90.25
