Data from WStandard_LampEnergy5.5LIBS07252019.E.O._I.C._HRD10591_16-07-36-919.txt Node
Date: Thu Jul 25 16:07:36 EDT 2019
User: cochatt
Spectrometer: HR+D1059
Trigger mode: 1
Integration Time (sec): 1.000000E-1
Scans to average: 1
Electric dark correction enabled: true
Nonlinearity correction enabled: false
Boxcar width: 0
XAxis mode: Wavelengths
Number of Pixels in Spectrum: 2048
>>>>>Begin Spectral Data<<<<<
223.165	-11.5
223.4	-11.5
223.635	-11.5
223.869	-11.5
224.104	-16.5
224.338	-24.5
224.573	-4.5
224.808	-29.5
225.042	-4.5
225.277	2.5
225.511	-10.5
225.746	6.5
225.98	8.5
226.215	11.5
226.449	14.5
226.683	19.5
226.918	26.5
227.152	23.5
227.387	46.5
227.621	37.5
227.856	47.5
228.09	44.5
228.324	56.5
228.559	72.5
228.793	154.5
229.027	368.5
229.262	388.5
229.496	402.5
229.73	398.5
229.964	451.5
230.199	491.5
230.433	510.5
230.667	526.5
230.901	565.5
231.136	485.5
231.37	484.5
231.604	486.5
231.838	478.5
232.072	488.5
232.306	475.5
232.541	487.5
232.775	562.5
233.009	656.5
233.243	599.5
233.477	518.5
233.711	578.5
233.945	606.5
234.179	573.5
234.413	624.5
234.647	641.5
234.881	623.5
235.115	558.5
235.349	581.5
235.583	588.5
235.817	600.5
236.051	566.5
236.285	590.5
236.519	606.5
236.753	715.5
236.987	698.5
237.221	715.5
237.455	774.5
237.689	762.5
237.922	726.5
238.156	661.5
238.39	695.5
238.624	753.5
238.858	788.5
239.091	807.5
239.325	848.5
239.559	963.5
239.793	1008.5
240.027	1104.5
240.26	1069.5
240.494	786.5
240.728	740.5
240.961	780.5
241.195	782.5
241.429	841.5
241.662	855.5
241.896	806.5
242.13	816.5
242.363	895.5
242.597	962.5
242.83	931.5
243.064	921.5
243.298	995.5
243.531	970.5
243.765	953.5
243.998	971.5
244.232	874.5
244.465	827.5
244.699	794.5
244.932	958.5
245.166	1092.5
245.399	1032.5
245.633	903.5
245.866	933.5
246.099	973.5
246.333	1006.5
246.566	997.5
246.8	1102.5
247.033	1238.5
247.266	1169.5
247.5	1084.5
247.733	1114.5
247.966	1183.5
248.2	1282.5
248.433	1218.5
248.666	1231.5
248.899	1371.5
249.133	1622.5
249.366	1842.5
249.599	1511.5
249.832	1332.5
250.066	1298.5
250.299	1379.5
250.532	1274.5
250.765	1115.5
250.998	1212.5
251.231	1226.5
251.465	1318.5
251.698	1232.5
251.931	1223.5
252.164	1240.5
252.397	1307.5
252.63	1328.5
252.863	1125.5
253.096	1122.5
253.329	1200.5
253.562	1255.5
253.795	1340.5
254.028	1334.5
254.261	1228.5
254.494	1226.5
254.727	1151.5
254.96	1176.5
255.193	1280.5
255.426	1455.5
255.659	1688.5
255.892	1770.5
256.124	1447.5
256.357	1400.5
256.59	1508.5
256.823	1513.5
257.056	1475.5
257.289	1806.5
257.521	1986.5
257.754	1798.5
257.987	1662.5
258.22	1855.5
258.452	1826.5
258.685	1499.5
258.918	1436.5
259.151	1464.5
259.383	1410.5
259.616	1254.5
259.849	1294.5
260.081	1456.5
260.314	1624.5
260.547	1748.5
260.779	1805.5
261.012	1686.5
261.244	1506.5
261.477	1411.5
261.71	1479.5
261.942	1466.5
262.175	1437.5
262.407	1515.5
262.64	1444.5
262.872	1366.5
263.105	1325.5
263.337	1340.5
263.57	1367.5
263.802	1350.5
264.035	1317.5
264.267	1189.5
264.499	1198.5
264.732	1243.5
264.964	1382.5
265.197	1396.5
265.429	1438.5
265.661	1639.5
265.894	1808.5
266.126	1891.5
266.358	1652.5
266.591	1706.5
266.823	1917.5
267.055	1743.5
267.287	1676.5
267.52	1630.5
267.752	1573.5
267.984	1616.5
268.216	1695.5
268.448	1723.5
268.681	1726.5
268.913	1586.5
269.145	1487.5
269.377	1460.5
269.609	1576.5
269.841	1856.5
270.073	2140.5
270.306	2358.5
270.538	2511.5
270.77	2155.5
271.002	1853.5
271.234	1741.5
271.466	1695.5
271.698	1929.5
271.93	2288.5
272.162	2313.5
272.394	2064.5
272.626	2024.5
272.858	1767.5
273.09	1524.5
273.322	1498.5
273.553	1428.5
273.785	1431.5
274.017	1490.5
274.249	1616.5
274.481	1643.5
274.713	1471.5
274.945	1477.5
275.176	1478.5
275.408	1488.5
275.64	1458.5
275.872	1437.5
276.104	1541.5
276.335	1726.5
276.567	1977.5
276.799	1989.5
277.031	1797.5
277.262	1680.5
277.494	1696.5
277.726	1972.5
277.957	1956.5
278.189	1749.5
278.421	1646.5
278.652	1575.5
278.884	1526.5
279.115	1559.5
279.347	1580.5
279.579	1508.5
279.81	1477.5
280.042	1678.5
280.273	1814.5
280.505	1891.5
280.736	1884.5
280.968	1812.5
281.199	1571.5
281.431	1477.5
281.662	1514.5
281.894	1500.5
282.125	1547.5
282.356	1620.5
282.588	1650.5
282.819	1608.5
283.051	1743.5
283.282	1865.5
283.513	1795.5
283.745	1579.5
283.976	1510.5
284.207	1475.5
284.439	1522.5
284.67	1550.5
284.901	1592.5
285.132	1631.5
285.364	1595.5
285.595	1605.5
285.826	1579.5
286.057	1547.5
286.288	1542.5
286.52	1602.5
286.751	1744.5
286.982	1794.5
287.213	1660.5
287.444	1527.5
287.675	1507.5
287.906	1554.5
288.138	1713.5
288.369	1671.5
288.6	1579.5
288.831	1518.5
289.062	1525.5
289.293	1566.5
289.524	1586.5
289.755	1636.5
289.986	1641.5
290.217	1528.5
290.448	1497.5
290.679	1586.5
290.91	1597.5
291.141	1635.5
291.371	1687.5
291.602	1718.5
291.833	1632.5
292.064	1705.5
292.295	1686.5
292.526	1694.5
292.757	1757.5
292.987	1705.5
293.218	1611.5
293.449	1716.5
293.68	1984.5
293.91	2153.5
294.141	1995.5
294.372	1823.5
294.603	1886.5
294.833	1998.5
295.064	1863.5
295.295	1711.5
295.525	1671.5
295.756	1560.5
295.987	1472.5
296.217	1513.5
296.448	1556.5
296.679	1573.5
296.909	1572.5
297.14	1529.5
297.37	1524.5
297.601	1678.5
297.831	1780.5
298.062	1830.5
298.292	1650.5
298.523	1570.5
298.753	1602.5
298.984	1615.5
299.214	1586.5
299.445	1632.5
299.675	1705.5
299.905	1695.5
300.136	1631.5
300.366	1601.5
300.597	1542.5
300.827	1528.5
301.057	1592.5
301.288	1663.5
301.518	1680.5
301.748	1702.5
301.979	1802.5
302.209	1783.5
302.439	1942.5
302.669	2036.5
302.9	1943.5
303.13	1721.5
303.36	1704.5
303.59	1718.5
303.82	1695.5
304.051	1704.5
304.281	1692.5
304.511	1685.5
304.741	1762.5
304.971	1998.5
305.201	2185.5
305.431	2040.5
305.661	1690.5
305.891	1519.5
306.121	1492.5
306.352	1559.5
306.582	1641.5
306.812	1699.5
307.042	1891.5
307.272	1893.5
307.502	1946.5
307.731	2068.5
307.961	2251.5
308.191	2090.5
308.421	1782.5
308.651	1688.5
308.881	1624.5
309.111	1657.5
309.341	1635.5
309.571	1626.5
309.8	1662.5
310.03	1677.5
310.26	1616.5
310.49	1589.5
310.72	1644.5
310.949	1711.5
311.179	1744.5
311.409	1707.5
311.639	1701.5
311.868	1649.5
312.098	1682.5
312.328	1650.5
312.557	1629.5
312.787	1681.5
313.017	1729.5
313.246	1749.5
313.476	1729.5
313.706	1725.5
313.935	1738.5
314.165	1765.5
314.394	1808.5
314.624	1909.5
314.853	1979.5
315.083	2081.5
315.312	2157.5
315.542	1996.5
315.771	1768.5
316.001	1730.5
316.23	1875.5
316.46	1862.5
316.689	1871.5
316.919	1729.5
317.148	1698.5
317.377	1672.5
317.607	1783.5
317.836	2060.5
318.065	2127.5
318.295	1999.5
318.524	1968.5
318.753	1873.5
318.983	1846.5
319.212	1821.5
319.441	1791.5
319.67	1717.5
319.9	1771.5
320.129	1885.5
320.358	1938.5
320.587	2031.5
320.816	2018.5
321.046	1940.5
321.275	1860.5
321.504	1845.5
321.733	1994.5
321.962	1998.5
322.191	1803.5
322.42	1812.5
322.649	1783.5
322.878	1753.5
323.108	1787.5
323.337	1842.5
323.566	1866.5
323.795	1857.5
324.024	1878.5
324.253	1834.5
324.482	1843.5
324.71	1768.5
324.939	1693.5
325.168	1722.5
325.397	1757.5
325.626	1843.5
325.855	1826.5
326.084	1775.5
326.313	1770.5
326.542	1798.5
326.77	1885.5
326.999	1859.5
327.228	1829.5
327.457	1701.5
327.686	1697.5
327.914	1742.5
328.143	1800.5
328.372	1806.5
328.6	1821.5
328.829	1761.5
329.058	1743.5
329.287	1746.5
329.515	1797.5
329.744	1774.5
329.972	1897.5
330.201	1987.5
330.43	1966.5
330.658	1889.5
330.887	1900.5
331.115	1879.5
331.344	1894.5
331.572	1851.5
331.801	1873.5
332.03	1860.5
332.258	1900.5
332.486	1947.5
332.715	1946.5
332.943	1951.5
333.172	1879.5
333.4	1920.5
333.629	1974.5
333.857	2110.5
334.085	2219.5
334.314	2577.5
334.542	2828.5
334.771	2674.5
334.999	2291.5
335.227	2156.5
335.455	2064.5
335.684	2011.5
335.912	2074.5
336.14	2159.5
336.369	2071.5
336.597	1962.5
336.825	1885.5
337.053	2004.5
337.281	2064.5
337.51	2175.5
337.738	2282.5
337.966	2156.5
338.194	1954.5
338.422	1871.5
338.65	1887.5
338.878	1837.5
339.106	1837.5
339.334	1807.5
339.562	1754.5
339.79	1833.5
340.018	1931.5
340.246	2023.5
340.474	2035.5
340.702	1959.5
340.93	1934.5
341.158	1961.5
341.386	1920.5
341.614	1851.5
341.842	1849.5
342.07	1880.5
342.298	1887.5
342.526	1899.5
342.754	1872.5
342.981	1799.5
343.209	1879.5
343.437	1838.5
343.665	1845.5
343.893	1922.5
344.12	1967.5
344.348	2006.5
344.576	1988.5
344.804	1842.5
345.031	1863.5
345.259	1887.5
345.487	1821.5
345.714	1744.5
345.942	1708.5
346.17	1745.5
346.397	1774.5
346.625	1784.5
346.853	1690.5
347.08	1658.5
347.308	1675.5
347.535	1725.5
347.763	1775.5
347.99	1740.5
348.218	1647.5
348.445	1676.5
348.673	1728.5
348.9	1800.5
349.128	1805.5
349.355	1880.5
349.583	1878.5
349.81	1783.5
350.037	1651.5
350.265	1649.5
350.492	1668.5
350.72	1677.5
350.947	1722.5
351.174	1796.5
351.402	1720.5
351.629	1613.5
351.856	1624.5
352.083	1599.5
352.311	1592.5
352.538	1620.5
352.765	1718.5
352.992	1794.5
353.22	1773.5
353.447	1673.5
353.674	1684.5
353.901	1772.5
354.128	1656.5
354.355	1668.5
354.583	1709.5
354.81	1769.5
355.037	1766.5
355.264	1774.5
355.491	1726.5
355.718	1754.5
355.945	1720.5
356.172	1673.5
356.399	1690.5
356.626	1675.5
356.853	1711.5
357.08	1849.5
357.307	2050.5
357.534	2056.5
357.761	1809.5
357.988	1660.5
358.215	1594.5
358.441	1650.5
358.668	1622.5
358.895	1646.5
359.122	1753.5
359.349	1917.5
359.576	1911.5
359.802	1739.5
360.029	1664.5
360.256	1647.5
360.483	1646.5
360.709	1706.5
360.936	1788.5
361.163	1832.5
361.39	2000.5
361.616	2207.5
361.843	2082.5
362.07	1999.5
362.296	1728.5
362.523	1676.5
362.749	1675.5
362.976	1718.5
363.203	1791.5
363.429	1722.5
363.656	1657.5
363.882	1690.5
364.109	1899.5
364.335	2046.5
364.562	1895.5
364.788	1836.5
365.015	1719.5
365.241	1678.5
365.468	1696.5
365.694	1773.5
365.92	1837.5
366.147	1802.5
366.373	1666.5
366.599	1653.5
366.826	1679.5
367.052	1655.5
367.278	1688.5
367.505	1716.5
367.731	1733.5
367.957	1707.5
368.184	1810.5
368.41	1901.5
368.636	1892.5
368.862	1923.5
369.089	1914.5
369.315	1875.5
369.541	1794.5
369.767	1766.5
369.993	1673.5
370.219	1688.5
370.445	1727.5
370.672	1850.5
370.898	1963.5
371.124	1947.5
371.35	1779.5
371.576	1846.5
371.802	1898.5
372.028	1853.5
372.254	1784.5
372.48	1738.5
372.706	1714.5
372.932	1673.5
373.158	1704.5
373.384	1769.5
373.61	1815.5
373.835	1895.5
374.061	1803.5
374.287	1812.5
374.513	1792.5
374.739	1819.5
374.965	1823.5
375.191	1863.5
375.416	1807.5
375.642	1838.5
375.868	1914.5
376.094	2002.5
376.319	1907.5
376.545	1785.5
376.771	1840.5
376.997	1915.5
377.222	1895.5
377.448	1810.5
377.674	1870.5
377.899	1873.5
378.125	1956.5
378.35	1994.5
378.576	1825.5
378.802	1777.5
379.027	1723.5
379.253	1758.5
379.478	1757.5
379.704	1740.5
379.929	1725.5
380.155	1742.5
380.38	1781.5
380.606	1830.5
380.831	1806.5
381.057	1917.5
381.282	1935.5
381.507	1855.5
381.733	1983.5
381.958	2114.5
382.184	1930.5
382.409	1850.5
382.634	1830.5
382.86	1799.5
383.085	1902.5
383.31	1881.5
383.535	2058.5
383.761	2190.5
383.986	2120.5
384.211	2027.5
384.436	1967.5
384.662	2063.5
384.887	2165.5
385.112	2077.5
385.337	2073.5
385.562	2059.5
385.787	2070.5
386.013	2095.5
386.238	2088.5
386.463	2082.5
386.688	2211.5
386.913	2341.5
387.138	2344.5
387.363	2156.5
387.588	2147.5
387.813	2106.5
388.038	2070.5
388.263	2185.5
388.488	2106.5
388.713	2024.5
388.938	1960.5
389.163	1975.5
389.387	1994.5
389.612	2038.5
389.837	2062.5
390.062	2049.5
390.287	2076.5
390.512	2023.5
390.736	1998.5
390.961	1950.5
391.186	1945.5
391.411	1958.5
391.636	1982.5
391.86	2013.5
392.085	2020.5
392.31	2015.5
392.534	2040.5
392.759	2091.5
392.984	2050.5
393.208	2034.5
393.433	2078.5
393.658	2182.5
393.882	2214.5
394.107	2076.5
394.331	1998.5
394.556	2057.5
394.78	2043.5
395.005	2133.5
395.229	2206.5
395.454	2333.5
395.678	2390.5
395.903	2236.5
396.127	2155.5
396.352	2164.5
396.576	2243.5
396.801	2258.5
397.025	2203.5
397.249	2259.5
397.474	2182.5
397.698	2194.5
397.922	2222.5
398.147	2341.5
398.371	2448.5
398.595	2394.5
398.82	2315.5
399.044	2379.5
399.268	2471.5
399.492	2658.5
399.717	2761.5
399.941	2757.5
400.165	2701.5
400.389	2618.5
400.613	2574.5
400.837	2797.5
401.062	3258.5
401.286	2801.5
401.51	2536.5
401.734	2681.5
401.958	2554.5
402.182	2376.5
402.406	2324.5
402.63	2324.5
402.854	2311.5
403.078	2376.5
403.302	2383.5
403.526	2427.5
403.75	2402.5
403.974	2450.5
404.198	2395.5
404.422	2498.5
404.645	2674.5
404.869	2604.5
405.093	2347.5
405.317	2356.5
405.541	2454.5
405.765	2442.5
405.988	2449.5
406.212	2530.5
406.436	2550.5
406.66	2632.5
406.883	2623.5
407.107	2911.5
407.331	3177.5
407.555	3401.5
407.778	3211.5
408.002	2645.5
408.226	2528.5
408.449	2599.5
408.673	2494.5
408.896	2466.5
409.12	2538.5
409.344	2478.5
409.567	2360.5
409.791	2450.5
410.014	2483.5
410.238	2597.5
410.461	2740.5
410.685	2537.5
410.908	2376.5
411.132	2382.5
411.355	2409.5
411.578	2360.5
411.802	2356.5
412.025	2395.5
412.249	2390.5
412.472	2296.5
412.695	2323.5
412.919	2265.5
413.142	2256.5
413.365	2327.5
413.589	2377.5
413.812	2428.5
414.035	2554.5
414.258	2354.5
414.482	2335.5
414.705	2336.5
414.928	2293.5
415.151	2310.5
415.374	2274.5
415.597	2384.5
415.821	2367.5
416.044	2463.5
416.267	2470.5
416.49	2216.5
416.713	2207.5
416.936	2292.5
417.159	2421.5
417.382	2477.5
417.605	2237.5
417.828	2368.5
418.051	2371.5
418.274	2337.5
418.497	2255.5
418.72	2251.5
418.943	2210.5
419.166	2370.5
419.389	2466.5
419.611	2322.5
419.834	2267.5
420.057	2298.5
420.28	2267.5
420.503	2239.5
420.726	2314.5
420.948	2282.5
421.171	2196.5
421.394	2247.5
421.617	2372.5
421.839	2279.5
422.062	2287.5
422.285	2219.5
422.507	2216.5
422.73	2136.5
422.953	2178.5
423.175	2116.5
423.398	2180.5
423.621	2223.5
423.843	2254.5
424.066	2280.5
424.288	2346.5
424.511	2407.5
424.733	2330.5
424.956	2130.5
425.178	2128.5
425.401	2143.5
425.623	2206.5
425.846	2180.5
426.068	2265.5
426.291	2312.5
426.513	2274.5
426.735	2304.5
426.958	2406.5
427.18	2597.5
427.402	2338.5
427.625	2402.5
427.847	2417.5
428.069	2296.5
428.292	2211.5
428.514	2150.5
428.736	2151.5
428.958	2132.5
429.181	2180.5
429.403	2423.5
429.625	3002.5
429.847	2661.5
430.069	2207.5
430.292	2420.5
430.514	2550.5
430.736	2317.5
430.958	2468.5
431.18	2392.5
431.402	2182.5
431.624	2132.5
431.846	2182.5
432.068	2118.5
432.29	2155.5
432.512	2210.5
432.734	2217.5
432.956	2228.5
433.178	2365.5
433.4	2311.5
433.622	2358.5
433.844	2214.5
434.066	2126.5
434.287	2128.5
434.509	2210.5
434.731	2346.5
434.953	2489.5
435.175	2436.5
435.397	2283.5
435.618	2303.5
435.84	2275.5
436.062	2222.5
436.284	2253.5
436.505	2285.5
436.727	2347.5
436.949	2271.5
437.17	2182.5
437.392	2202.5
437.614	2180.5
437.835	2121.5
438.057	2254.5
438.278	2358.5
438.5	2197.5
438.721	2126.5
438.943	2169.5
439.165	2172.5
439.386	2093.5
439.608	2134.5
439.829	2142.5
440.05	2179.5
440.272	2094.5
440.493	2111.5
440.715	2173.5
440.936	2263.5
441.158	2526.5
441.379	2520.5
441.6	2405.5
441.822	2367.5
442.043	2310.5
442.264	2302.5
442.486	2155.5
442.707	2142.5
442.928	2142.5
443.149	2192.5
443.371	2358.5
443.592	2436.5
443.813	2373.5
444.034	2354.5
444.255	2393.5
444.476	2435.5
444.698	2450.5
444.919	2431.5
445.14	2502.5
445.361	2465.5
445.582	2618.5
445.803	2463.5
446.024	2363.5
446.245	2438.5
446.466	2428.5
446.687	2278.5
446.908	2252.5
447.129	2146.5
447.35	2256.5
447.571	2204.5
447.792	2138.5
448.013	2078.5
448.234	2125.5
448.455	2287.5
448.675	2278.5
448.896	2082.5
449.117	2046.5
449.338	2110.5
449.559	2187.5
449.779	2360.5
450	2562.5
450.221	2749.5
450.442	2638.5
450.662	2382.5
450.883	2007.5
451.104	1996.5
451.324	2106.5
451.545	2170.5
451.766	2116.5
451.986	1996.5
452.207	2028.5
452.428	1929.5
452.648	1934.5
452.869	1995.5
453.089	2117.5
453.31	2123.5
453.53	2179.5
453.751	2105.5
453.971	1995.5
454.192	1999.5
454.412	2158.5
454.633	2074.5
454.853	2035.5
455.073	1896.5
455.294	1858.5
455.514	1849.5
455.734	1875.5
455.955	1994.5
456.175	1928.5
456.395	1968.5
456.616	2009.5
456.836	2052.5
457.056	1994.5
457.276	1961.5
457.497	1899.5
457.717	1821.5
457.937	1888.5
458.157	1929.5
458.377	1948.5
458.598	1963.5
458.818	1970.5
459.038	2079.5
459.258	2202.5
459.478	2187.5
459.698	2102.5
459.918	2204.5
460.138	2255.5
460.358	2331.5
460.578	2300.5
460.798	2396.5
461.018	2538.5
461.238	2430.5
461.458	2298.5
461.678	2382.5
461.898	2263.5
462.118	2203.5
462.338	2258.5
462.558	2290.5
462.777	2290.5
462.997	2428.5
463.217	2578.5
463.437	2576.5
463.657	2342.5
463.876	2351.5
464.096	2292.5
464.316	2254.5
464.536	2346.5
464.755	2389.5
464.975	2396.5
465.195	2328.5
465.414	2467.5
465.634	2450.5
465.854	2268.5
466.073	2426.5
466.293	2421.5
466.512	2145.5
466.732	2080.5
466.951	2186.5
467.171	2217.5
467.391	2096.5
467.61	2031.5
467.829	2126.5
468.049	2220.5
468.268	2528.5
468.488	2378.5
468.707	2259.5
468.927	2193.5
469.146	2091.5
469.365	2082.5
469.585	2072.5
469.804	2076.5
470.023	2124.5
470.243	2153.5
470.462	2079.5
470.681	2065.5
470.901	2139.5
471.12	2131.5
471.339	2083.5
471.558	2068.5
471.777	2025.5
471.997	2072.5
472.216	2098.5
472.435	2008.5
472.654	2030.5
472.873	2141.5
473.092	2294.5
473.311	2134.5
473.53	2014.5
473.749	2016.5
473.968	2061.5
474.187	2213.5
474.406	2272.5
474.625	2150.5
474.844	2144.5
475.063	2123.5
475.282	2216.5
475.501	2124.5
475.72	2149.5
475.939	2246.5
476.158	2226.5
476.377	2141.5
476.596	2137.5
476.814	2210.5
477.033	2220.5
477.252	2306.5
477.471	2390.5
477.69	2263.5
477.908	2210.5
478.127	2349.5
478.346	2578.5
478.564	2562.5
478.783	2478.5
479.002	2566.5
479.22	2544.5
479.439	2642.5
479.658	2948.5
479.876	2964.5
480.095	2568.5
480.313	2427.5
480.532	2338.5
480.751	2391.5
480.969	2462.5
481.188	2416.5
481.406	2377.5
481.624	2361.5
481.843	2386.5
482.061	2428.5
482.28	2449.5
482.498	2428.5
482.717	2438.5
482.935	2321.5
483.153	2328.5
483.372	2342.5
483.59	2338.5
483.808	2366.5
484.027	2408.5
484.245	2534.5
484.463	2907.5
484.681	3362.5
484.9	2632.5
485.118	2467.5
485.336	2375.5
485.554	2462.5
485.772	2580.5
485.99	2584.5
486.209	2569.5
486.427	2526.5
486.645	2547.5
486.863	2544.5
487.081	2552.5
487.299	2631.5
487.517	2581.5
487.735	2474.5
487.953	2454.5
488.171	2434.5
488.389	2455.5
488.607	2460.5
488.825	2703.5
489.043	2776.5
489.261	2466.5
489.479	2610.5
489.696	2654.5
489.914	2644.5
490.132	2518.5
490.35	2383.5
490.568	2594.5
490.786	2522.5
491.003	2372.5
491.221	2448.5
491.439	2623.5
491.657	2570.5
491.874	2544.5
492.092	2568.5
492.31	2584.5
492.527	2551.5
492.745	2507.5
492.963	2535.5
493.18	2607.5
493.398	2803.5
493.615	2912.5
493.833	2592.5
494.05	2564.5
494.268	2521.5
494.485	2653.5
494.703	2592.5
494.92	2510.5
495.138	2527.5
495.355	2550.5
495.573	2646.5
495.79	2835.5
496.008	2866.5
496.225	2729.5
496.442	2653.5
496.66	2738.5
496.877	2712.5
497.094	2837.5
497.312	2852.5
497.529	2791.5
497.746	2852.5
497.963	3330.5
498.181	3769.5
498.398	3436.5
498.615	3426.5
498.832	3336.5
499.049	3307.5
499.267	3272.5
499.484	3541.5
499.701	3810.5
499.918	3829.5
500.135	4098.5
500.352	4399.5
500.569	4328.5
500.786	4588.5
501.003	4326.5
501.22	3912.5
501.437	3813.5
501.654	3796.5
501.871	3714.5
502.088	3248.5
502.305	3273.5
502.522	3184.5
502.739	2918.5
502.956	2841.5
503.172	2853.5
503.389	2748.5
503.606	2711.5
503.823	2758.5
504.04	2727.5
504.256	2693.5
504.473	2760.5
504.69	2843.5
504.907	2694.5
505.123	2518.5
505.34	2637.5
505.557	3408.5
505.773	2968.5
505.99	2458.5
506.207	2347.5
506.423	2350.5
506.64	2324.5
506.856	2306.5
507.073	2594.5
507.289	2842.5
507.506	2698.5
507.722	2359.5
507.939	2240.5
508.155	2213.5
508.372	2303.5
508.588	2219.5
508.805	2134.5
509.021	2143.5
509.238	2078.5
509.454	2094.5
509.67	2127.5
509.887	2099.5
510.103	2093.5
510.319	2133.5
510.536	2219.5
510.752	2307.5
510.968	2287.5
511.184	2445.5
511.401	2370.5
511.617	2126.5
511.833	2037.5
512.049	2044.5
512.265	2074.5
512.481	1999.5
512.698	2119.5
512.914	2281.5
513.13	2172.5
513.346	2070.5
513.562	2025.5
513.778	2063.5
513.994	2226.5
514.21	2265.5
514.426	2245.5
514.642	2519.5
514.858	2398.5
515.074	2134.5
515.29	2053.5
515.506	2174.5
515.721	2199.5
515.937	2180.5
516.153	2518.5
516.369	2379.5
516.585	2241.5
516.801	2157.5
517.016	2130.5
517.232	2201.5
517.448	2284.5
517.664	2316.5
517.879	2272.5
518.095	2425.5
518.311	2271.5
518.527	2153.5
518.742	2104.5
518.958	2065.5
519.173	2054.5
519.389	2113.5
519.605	2119.5
519.82	2109.5
520.036	2121.5
520.251	2105.5
520.467	2111.5
520.682	2263.5
520.898	2402.5
521.113	2134.5
521.329	2055.5
521.544	2235.5
521.76	2083.5
521.975	2045.5
522.19	1996.5
522.406	1942.5
522.621	2328.5
522.836	2434.5
523.052	1951.5
523.267	1961.5
523.482	2002.5
523.698	1912.5
523.913	1854.5
524.128	1865.5
524.343	2017.5
524.559	2060.5
524.774	1881.5
524.989	1869.5
525.204	1893.5
525.419	1846.5
525.634	1811.5
525.849	1849.5
526.064	1856.5
526.28	1908.5
526.495	1830.5
526.71	1804.5
526.925	1786.5
527.14	1829.5
527.355	1764.5
527.57	1770.5
527.785	1843.5
527.999	1742.5
528.214	1754.5
528.429	1753.5
528.644	1766.5
528.859	1792.5
529.074	1792.5
529.289	1769.5
529.503	1814.5
529.718	1838.5
529.933	1831.5
530.148	1724.5
530.363	1744.5
530.577	1775.5
530.792	1789.5
531.007	1820.5
531.221	1743.5
531.436	1816.5
531.651	1899.5
531.865	1957.5
532.08	1918.5
532.295	1740.5
532.509	1678.5
532.724	1721.5
532.938	1805.5
533.153	1930.5
533.367	1807.5
533.582	1772.5
533.796	1718.5
534.011	1770.5
534.225	1839.5
534.44	1782.5
534.654	1762.5
534.868	1728.5
535.083	1859.5
535.297	1818.5
535.511	1769.5
535.726	1747.5
535.94	1754.5
536.154	1705.5
536.369	1730.5
536.583	1716.5
536.797	1668.5
537.011	1726.5
537.225	1687.5
537.44	1652.5
537.654	1730.5
537.868	1659.5
538.082	1616.5
538.296	1569.5
538.51	1613.5
538.724	1616.5
538.938	1627.5
539.153	1682.5
539.367	1687.5
539.581	1682.5
539.795	1769.5
540.009	1722.5
540.222	1674.5
540.436	1732.5
540.65	1881.5
540.864	1858.5
541.078	1767.5
541.292	1653.5
541.506	1645.5
541.72	1668.5
541.934	1662.5
542.147	1725.5
542.361	1670.5
542.575	1628.5
542.789	1554.5
543.002	1588.5
543.216	1612.5
543.43	1699.5
543.644	1751.5
543.857	1827.5
544.071	1723.5
544.285	1672.5
544.498	1628.5
544.712	1645.5
544.925	1670.5
545.139	1734.5
545.352	1600.5
545.566	1558.5
545.779	1553.5
545.993	1574.5
546.206	1646.5
546.42	1542.5
546.633	1544.5
546.847	1568.5
547.06	1539.5
547.274	1537.5
547.487	1515.5
547.7	1559.5
547.914	1565.5
548.127	1607.5
548.34	1598.5
548.554	1570.5
548.767	1570.5
548.98	1567.5
549.193	1553.5
549.407	1613.5
549.62	1629.5
549.833	1557.5
550.046	1562.5
550.259	1542.5
550.473	1548.5
550.686	1500.5
550.899	1505.5
551.112	1503.5
551.325	1515.5
551.538	1583.5
551.751	1881.5
551.964	1544.5
552.177	1482.5
552.39	1502.5
552.603	1559.5
552.816	1534.5
553.029	1604.5
553.242	1672.5
553.455	1616.5
553.667	1584.5
553.88	1542.5
554.093	1551.5
554.306	1457.5
554.519	1442.5
554.732	1451.5
554.944	1470.5
555.157	1486.5
555.37	1449.5
555.583	1468.5
555.795	1409.5
556.008	1410.5
556.221	1365.5
556.433	1350.5
556.646	1346.5
556.859	1354.5
557.071	1340.5
557.284	1324.5
557.496	1343.5
557.709	1321.5
557.921	1314.5
558.134	1293.5
558.346	1307.5
558.559	1268.5
558.771	1249.5
558.984	1282.5
559.196	1225.5
559.409	1265.5
559.621	1262.5
559.833	1278.5
560.046	1336.5
560.258	1300.5
560.47	1291.5
560.683	1258.5
560.895	1283.5
561.107	1257.5
561.32	1326.5
561.532	1332.5
561.744	1224.5
561.956	1293.5
562.168	1277.5
562.381	1225.5
562.593	1212.5
562.805	1250.5
563.017	1240.5
563.229	1248.5
563.441	1277.5
563.653	1265.5
563.865	1238.5
564.077	1233.5
564.289	1227.5
564.501	1295.5
564.713	1289.5
564.925	1332.5
565.137	1433.5
565.349	1319.5
565.561	1315.5
565.773	1340.5
565.985	1385.5
566.197	1428.5
566.408	1540.5
566.62	1526.5
566.832	1498.5
567.044	1542.5
567.255	1506.5
567.467	1511.5
567.679	1610.5
567.891	1616.5
568.102	1583.5
568.314	1533.5
568.526	1470.5
568.737	1378.5
568.949	1340.5
569.161	1292.5
569.372	1241.5
569.584	1213.5
569.795	1245.5
570.007	1223.5
570.218	1188.5
570.43	1145.5
570.641	1141.5
570.853	1162.5
571.064	1170.5
571.276	1122.5
571.487	1103.5
571.698	1066.5
571.91	1066.5
572.121	1050.5
572.333	1061.5
572.544	1064.5
572.755	1013.5
572.966	1020.5
573.178	1026.5
573.389	1028.5
573.6	1072.5
573.811	1138.5
574.023	1039.5
574.234	1012.5
574.445	970.5
574.656	960.5
574.867	956.5
575.078	963.5
575.289	954.5
575.501	944.5
575.712	961.5
575.923	952.5
576.134	951.5
576.345	941.5
576.556	939.5
576.767	909.5
576.978	940.5
577.188	899.5
577.399	884.5
577.61	899.5
577.821	856.5
578.032	877.5
578.243	895.5
578.454	887.5
578.665	861.5
578.875	868.5
579.086	841.5
579.297	859.5
579.508	930.5
579.718	884.5
579.929	842.5
580.14	846.5
580.35	850.5
580.561	875.5
580.772	956.5
580.982	851.5
581.193	847.5
581.403	839.5
581.614	797.5
581.825	823.5
582.035	816.5
582.246	813.5
582.456	846.5
582.667	813.5
582.877	835.5
583.087	805.5
583.298	798.5
583.508	802.5
583.719	796.5
583.929	832.5
584.139	804.5
584.35	779.5
584.56	787.5
584.77	782.5
584.981	802.5
585.191	790.5
585.401	828.5
585.611	810.5
585.821	798.5
586.032	775.5
586.242	780.5
586.452	772.5
586.662	790.5
586.872	749.5
587.082	773.5
587.292	838.5
587.502	811.5
587.713	818.5
587.923	782.5
588.133	757.5
588.343	784.5
588.553	783.5
588.762	755.5
588.972	781.5
589.182	788.5
589.392	770.5
589.602	776.5
589.812	794.5
590.022	749.5
590.232	742.5
590.441	761.5
590.651	778.5
590.861	740.5
591.071	742.5
591.281	741.5
591.49	775.5
591.7	745.5
591.91	772.5
592.119	741.5
592.329	775.5
592.539	780.5
592.748	793.5
592.958	772.5
593.167	811.5
593.377	792.5
593.587	796.5
593.796	803.5
594.006	790.5
594.215	806.5
594.424	783.5
594.634	780.5
594.843	774.5
595.053	789.5
595.262	758.5
595.472	761.5
595.681	751.5
595.89	743.5
596.1	703.5
596.309	727.5
596.518	690.5
596.727	722.5
596.937	701.5
597.146	686.5
597.355	683.5
597.564	698.5
597.774	668.5
597.983	665.5
598.192	646.5
598.401	642.5
598.61	635.5
598.819	663.5
599.028	662.5
599.237	628.5
599.446	653.5
599.655	628.5
599.864	615.5
600.073	648.5
600.282	615.5
600.491	605.5
600.7	602.5
600.909	640.5
601.118	650.5
601.327	646.5
601.536	621.5
601.745	631.5
601.953	614.5
602.162	608.5
602.371	645.5
602.58	594.5
602.789	624.5
602.997	636.5
603.206	635.5
603.415	588.5
603.623	612.5
603.832	588.5
604.041	592.5
604.249	600.5
604.458	620.5
604.666	591.5
604.875	599.5
605.084	600.5
605.292	610.5
605.501	603.5
605.709	596.5
605.918	564.5
606.126	564.5
606.334	583.5
606.543	602.5
606.751	607.5
606.96	595.5
607.168	572.5
607.376	574.5
607.585	581.5
607.793	576.5
608.001	560.5
608.21	588.5
608.418	555.5
608.626	554.5
608.834	547.5
609.043	567.5
609.251	570.5
609.459	569.5
609.667	582.5
609.875	570.5
610.083	560.5
610.291	596.5
610.499	588.5
610.707	586.5
610.916	571.5
611.124	536.5
611.332	536.5
611.54	531.5
611.748	559.5
611.955	526.5
612.163	547.5
612.371	563.5
612.579	520.5
612.787	532.5
612.995	536.5
613.203	526.5
613.411	516.5
613.618	526.5
613.826	543.5
614.034	551.5
614.242	545.5
614.449	540.5
614.657	507.5
614.865	538.5
615.072	534.5
615.28	518.5
615.488	548.5
615.695	559.5
615.903	550.5
616.111	527.5
616.318	542.5
616.526	529.5
616.733	522.5
616.941	520.5
617.148	522.5
617.356	525.5
617.563	521.5
617.771	514.5
617.978	505.5
618.185	518.5
618.393	494.5
618.6	502.5
618.807	488.5
619.015	528.5
619.222	523.5
619.429	495.5
619.637	492.5
619.844	482.5
620.051	512.5
620.258	494.5
620.466	494.5
620.673	470.5
620.88	462.5
621.087	481.5
621.294	484.5
621.501	494.5
621.708	482.5
621.915	464.5
622.122	492.5
622.329	484.5
622.536	478.5
622.743	479.5
622.95	471.5
623.157	454.5
623.364	451.5
623.571	463.5
623.778	470.5
623.985	476.5
624.192	476.5
624.399	457.5
624.606	449.5
624.812	474.5
625.019	455.5
625.226	463.5
625.433	454.5
625.639	440.5
625.846	434.5
626.053	436.5
626.259	451.5
626.466	427.5
626.673	412.5
626.879	403.5
627.086	440.5
627.293	419.5
627.499	420.5
627.706	435.5
627.912	418.5
628.119	408.5
628.325	427.5
628.532	422.5
628.738	428.5
628.945	429.5
629.151	447.5
629.357	434.5
629.564	406.5
629.77	415.5
629.976	386.5
630.183	405.5
630.389	394.5
630.595	414.5
630.802	391.5
631.008	386.5
631.214	384.5
631.42	366.5
631.627	394.5
631.833	384.5
632.039	382.5
632.245	383.5
632.451	373.5
632.657	386.5
632.863	390.5
633.069	388.5
633.275	377.5
633.481	380.5
633.688	388.5
633.893	365.5
634.099	376.5
634.305	356.5
634.511	351.5
634.717	359.5
634.923	363.5
635.129	361.5
635.335	366.5
635.541	362.5
635.747	369.5
635.952	371.5
636.158	360.5
636.364	359.5
636.57	375.5
636.775	380.5
636.981	361.5
637.187	358.5
637.392	385.5
637.598	374.5
637.804	376.5
638.009	366.5
638.215	374.5
638.421	342.5
638.626	351.5
638.832	363.5
639.037	352.5
639.243	346.5
639.448	342.5
639.654	340.5
639.859	355.5
640.065	333.5
640.27	346.5
640.475	325.5
640.681	351.5
640.886	339.5
641.091	339.5
641.297	350.5
641.502	328.5
641.707	332.5
641.913	336.5
642.118	340.5
642.323	334.5
642.528	314.5
642.733	341.5
642.939	333.5
643.144	346.5
643.349	344.5
643.554	323.5
643.759	326.5
643.964	312.5
644.169	327.5
644.374	316.5
644.579	338.5
644.784	337.5
644.989	327.5
645.194	341.5
645.399	325.5
645.604	304.5
645.809	317.5
646.014	328.5
646.219	332.5
646.423	309.5
646.628	343.5
646.833	326.5
647.038	331.5
647.243	334.5
647.447	314.5
647.652	326.5
647.857	314.5
648.062	336.5
648.266	320.5
648.471	323.5
648.676	338.5
648.88	333.5
649.085	323.5
649.289	326.5
649.494	330.5
649.698	307.5
649.903	301.5
650.107	330.5
650.312	317.5
650.516	301.5
650.721	294.5
650.925	297.5
651.13	310.5
651.334	299.5
651.539	273.5
651.743	272.5
651.947	267.5
652.152	279.5
652.356	265.5
652.56	259.5
652.764	262.5
652.969	268.5
653.173	275.5
653.377	263.5
653.581	259.5
653.785	267.5
653.99	285.5
654.194	258.5
654.398	269.5
654.602	242.5
654.806	234.5
655.01	253.5
655.214	246.5
655.418	248.5
655.622	265.5
655.826	254.5
656.03	272.5
656.234	277.5
656.438	278.5
656.642	279.5
656.846	264.5
657.049	253.5
657.253	235.5
657.457	225.5
657.661	209.5
657.865	196.5
658.068	199.5
658.272	175.5
658.476	174.5
658.68	162.5
658.883	160.5
659.087	144.5
659.291	144.5
659.494	132.5
659.698	121.5
659.901	132.5
660.105	134.5
660.309	125.5
660.512	126.5
660.716	114.5
660.919	126.5
661.123	119.5
661.326	108.5
661.53	114.5
661.733	103.5
661.936	90.5
662.14	94.5
662.343	95.5
662.546	94.5
662.75	86.5
662.953	106.5
663.156	95.5
663.36	87.5
663.563	86.5
663.766	91.5
663.969	89.5
664.173	88.5
664.376	98.5
664.579	91.5
664.782	76.5
664.985	89.5
665.188	77.5
665.391	97.5
665.594	84.5
665.797	105.5
666	72.5
666.203	86.5
666.406	88.5
666.609	94.5
666.812	90.5
667.015	74.5
667.218	71.5
667.421	85.5
667.624	91.5
667.827	93.5
668.03	84.5
668.232	67.5
668.435	86.5
668.638	97.5
668.841	80.5
669.043	92.5
669.246	79.5
669.449	81.5
669.651	84.5
669.854	105.5
670.057	90.5
670.259	80.5
670.462	97.5
670.665	93.5
670.867	71.5
671.07	82.5
671.272	94.5
671.475	99.5
671.677	93.5
671.88	95.5
672.082	86.5
672.284	74.5
672.487	94.5
672.689	62.5
672.892	72.5
