Data from WStandard_LampEnergy5.5LIBS07252019.E.O._I.C._HRD10591_16-07-16-920.txt Node
Date: Thu Jul 25 16:07:16 EDT 2019
User: cochatt
Spectrometer: HR+D1059
Trigger mode: 1
Integration Time (sec): 1.000000E-1
Scans to average: 1
Electric dark correction enabled: true
Nonlinearity correction enabled: false
Boxcar width: 0
XAxis mode: Wavelengths
Number of Pixels in Spectrum: 2048
>>>>>Begin Spectral Data<<<<<
223.165	-10.38
223.4	-10.38
223.635	-10.38
223.869	-6.38
224.104	-14.38
224.338	-8.38
224.573	-19.38
224.808	-13.38
225.042	-21.38
225.277	7.62
225.511	-3.38
225.746	-10.38
225.98	-4.38
226.215	15.62
226.449	25.62
226.683	16.62
226.918	23.62
227.152	22.62
227.387	27.62
227.621	40.62
227.856	33.62
228.09	51.62
228.324	53.62
228.559	49.62
228.793	139.62
229.027	367.62
229.262	385.62
229.496	365.62
229.73	405.62
229.964	449.62
230.199	487.62
230.433	485.62
230.667	525.62
230.901	538.62
231.136	482.62
231.37	476.62
231.604	490.62
231.838	485.62
232.072	473.62
232.306	439.62
232.541	515.62
232.775	563.62
233.009	633.62
233.243	600.62
233.477	533.62
233.711	561.62
233.945	576.62
234.179	570.62
234.413	617.62
234.647	667.62
234.881	604.62
235.115	572.62
235.349	586.62
235.583	580.62
235.817	582.62
236.051	562.62
236.285	577.62
236.519	618.62
236.753	674.62
236.987	745.62
237.221	712.62
237.455	777.62
237.689	756.62
237.922	731.62
238.156	666.62
238.39	693.62
238.624	736.62
238.858	772.62
239.091	800.62
239.325	825.62
239.559	972.62
239.793	1002.62
240.027	1109.62
240.26	1100.62
240.494	799.62
240.728	748.62
240.961	753.62
241.195	765.62
241.429	858.62
241.662	879.62
241.896	785.62
242.13	813.62
242.363	883.62
242.597	972.62
242.83	895.62
243.064	959.62
243.298	1013.62
243.531	955.62
243.765	931.62
243.998	957.62
244.232	848.62
244.465	804.62
244.699	806.62
244.932	951.62
245.166	1057.62
245.399	1029.62
245.633	928.62
245.866	913.62
246.099	988.62
246.333	987.62
246.566	998.62
246.8	1075.62
247.033	1253.62
247.266	1137.62
247.5	1099.62
247.733	1065.62
247.966	1160.62
248.2	1303.62
248.433	1247.62
248.666	1279.62
248.899	1383.62
249.133	1591.62
249.366	1836.62
249.599	1487.62
249.832	1278.62
250.066	1326.62
250.299	1345.62
250.532	1279.62
250.765	1095.62
250.998	1184.62
251.231	1255.62
251.465	1259.62
251.698	1222.62
251.931	1211.62
252.164	1229.62
252.397	1314.62
252.63	1312.62
252.863	1122.62
253.096	1089.62
253.329	1194.62
253.562	1252.62
253.795	1355.62
254.028	1324.62
254.261	1244.62
254.494	1191.62
254.727	1133.62
254.96	1195.62
255.193	1332.62
255.426	1506.62
255.659	1692.62
255.892	1737.62
256.124	1432.62
256.357	1367.62
256.59	1471.62
256.823	1535.62
257.056	1504.62
257.289	1784.62
257.521	2004.62
257.754	1781.62
257.987	1647.62
258.22	1897.62
258.452	1851.62
258.685	1455.62
258.918	1433.62
259.151	1476.62
259.383	1443.62
259.616	1226.62
259.849	1273.62
260.081	1449.62
260.314	1612.62
260.547	1839.62
260.779	1813.62
261.012	1709.62
261.244	1496.62
261.477	1397.62
261.71	1452.62
261.942	1479.62
262.175	1422.62
262.407	1517.62
262.64	1468.62
262.872	1364.62
263.105	1308.62
263.337	1341.62
263.57	1386.62
263.802	1378.62
264.035	1277.62
264.267	1210.62
264.499	1156.62
264.732	1253.62
264.964	1352.62
265.197	1420.62
265.429	1472.62
265.661	1664.62
265.894	1831.62
266.126	1905.62
266.358	1637.62
266.591	1728.62
266.823	1871.62
267.055	1690.62
267.287	1659.62
267.52	1599.62
267.752	1603.62
267.984	1644.62
268.216	1665.62
268.448	1732.62
268.681	1737.62
268.913	1567.62
269.145	1476.62
269.377	1452.62
269.609	1573.62
269.841	1834.62
270.073	2111.62
270.306	2372.62
270.538	2516.62
270.77	2155.62
271.002	1783.62
271.234	1720.62
271.466	1731.62
271.698	1903.62
271.93	2328.62
272.162	2338.62
272.394	2104.62
272.626	2018.62
272.858	1749.62
273.09	1515.62
273.322	1485.62
273.553	1438.62
273.785	1427.62
274.017	1518.62
274.249	1647.62
274.481	1633.62
274.713	1491.62
274.945	1485.62
275.176	1475.62
275.408	1456.62
275.64	1425.62
275.872	1385.62
276.104	1495.62
276.335	1701.62
276.567	1978.62
276.799	1991.62
277.031	1765.62
277.262	1651.62
277.494	1749.62
277.726	1899.62
277.957	1925.62
278.189	1745.62
278.421	1641.62
278.652	1567.62
278.884	1555.62
279.115	1537.62
279.347	1575.62
279.579	1519.62
279.81	1472.62
280.042	1691.62
280.273	1847.62
280.505	1839.62
280.736	1911.62
280.968	1804.62
281.199	1565.62
281.431	1499.62
281.662	1514.62
281.894	1519.62
282.125	1532.62
282.356	1596.62
282.588	1618.62
282.819	1594.62
283.051	1717.62
283.282	1845.62
283.513	1797.62
283.745	1583.62
283.976	1461.62
284.207	1463.62
284.439	1509.62
284.67	1520.62
284.901	1585.62
285.132	1596.62
285.364	1547.62
285.595	1591.62
285.826	1584.62
286.057	1600.62
286.288	1553.62
286.52	1573.62
286.751	1709.62
286.982	1811.62
287.213	1628.62
287.444	1522.62
287.675	1480.62
287.906	1596.62
288.138	1700.62
288.369	1667.62
288.6	1571.62
288.831	1529.62
289.062	1530.62
289.293	1555.62
289.524	1544.62
289.755	1646.62
289.986	1618.62
290.217	1475.62
290.448	1540.62
290.679	1587.62
290.91	1594.62
291.141	1615.62
291.371	1685.62
291.602	1677.62
291.833	1651.62
292.064	1673.62
292.295	1703.62
292.526	1700.62
292.757	1788.62
292.987	1691.62
293.218	1590.62
293.449	1745.62
293.68	1949.62
293.91	2122.62
294.141	1961.62
294.372	1798.62
294.603	1864.62
294.833	1983.62
295.064	1870.62
295.295	1717.62
295.525	1699.62
295.756	1547.62
295.987	1444.62
296.217	1524.62
296.448	1547.62
296.679	1567.62
296.909	1512.62
297.14	1513.62
297.37	1547.62
297.601	1634.62
297.831	1796.62
298.062	1797.62
298.292	1596.62
298.523	1589.62
298.753	1562.62
298.984	1557.62
299.214	1580.62
299.445	1612.62
299.675	1642.62
299.905	1662.62
300.136	1617.62
300.366	1595.62
300.597	1546.62
300.827	1525.62
301.057	1580.62
301.288	1698.62
301.518	1670.62
301.748	1731.62
301.979	1770.62
302.209	1794.62
302.439	1933.62
302.669	2001.62
302.9	1877.62
303.13	1700.62
303.36	1657.62
303.59	1720.62
303.82	1684.62
304.051	1671.62
304.281	1658.62
304.511	1691.62
304.741	1754.62
304.971	1998.62
305.201	2166.62
305.431	1973.62
305.661	1662.62
305.891	1500.62
306.121	1473.62
306.352	1543.62
306.582	1636.62
306.812	1719.62
307.042	1888.62
307.272	1858.62
307.502	1928.62
307.731	2101.62
307.961	2227.62
308.191	2105.62
308.421	1785.62
308.651	1670.62
308.881	1625.62
309.111	1616.62
309.341	1593.62
309.571	1598.62
309.8	1640.62
310.03	1587.62
310.26	1601.62
310.49	1577.62
310.72	1643.62
310.949	1709.62
311.179	1721.62
311.409	1725.62
311.639	1667.62
311.868	1619.62
312.098	1653.62
312.328	1661.62
312.557	1592.62
312.787	1676.62
313.017	1711.62
313.246	1700.62
313.476	1683.62
313.706	1760.62
313.935	1725.62
314.165	1730.62
314.394	1780.62
314.624	1864.62
314.853	2021.62
315.083	2051.62
315.312	2173.62
315.542	2024.62
315.771	1746.62
316.001	1718.62
316.23	1835.62
316.46	1828.62
316.689	1807.62
316.919	1730.62
317.148	1623.62
317.377	1703.62
317.607	1781.62
317.836	2027.62
318.065	2090.62
318.295	2012.62
318.524	1943.62
318.753	1877.62
318.983	1827.62
319.212	1807.62
319.441	1767.62
319.67	1746.62
319.9	1740.62
320.129	1851.62
320.358	1932.62
320.587	2031.62
320.816	1987.62
321.046	1952.62
321.275	1853.62
321.504	1864.62
321.733	2001.62
321.962	1960.62
322.191	1803.62
322.42	1815.62
322.649	1767.62
322.878	1761.62
323.108	1763.62
323.337	1844.62
323.566	1824.62
323.795	1822.62
324.024	1825.62
324.253	1796.62
324.482	1834.62
324.71	1789.62
324.939	1684.62
325.168	1699.62
325.397	1753.62
325.626	1841.62
325.855	1846.62
326.084	1785.62
326.313	1780.62
326.542	1807.62
326.77	1862.62
326.999	1850.62
327.228	1802.62
327.457	1675.62
327.686	1680.62
327.914	1725.62
328.143	1779.62
328.372	1790.62
328.6	1783.62
328.829	1731.62
329.058	1717.62
329.287	1722.62
329.515	1784.62
329.744	1779.62
329.972	1894.62
330.201	2007.62
330.43	1939.62
330.658	1852.62
330.887	1897.62
331.115	1891.62
331.344	1911.62
331.572	1852.62
331.801	1855.62
332.03	1853.62
332.258	1869.62
332.486	1845.62
332.715	1904.62
332.943	1929.62
333.172	1843.62
333.4	1912.62
333.629	1914.62
333.857	2050.62
334.085	2251.62
334.314	2533.62
334.542	2820.62
334.771	2590.62
334.999	2266.62
335.227	2131.62
335.455	2011.62
335.684	2004.62
335.912	1993.62
336.14	2107.62
336.369	2035.62
336.597	1896.62
336.825	1879.62
337.053	1947.62
337.281	2077.62
337.51	2108.62
337.738	2271.62
337.966	2156.62
338.194	1949.62
338.422	1868.62
338.65	1819.62
338.878	1822.62
339.106	1837.62
339.334	1771.62
339.562	1708.62
339.79	1765.62
340.018	1931.62
340.246	1997.62
340.474	2000.62
340.702	1891.62
340.93	1947.62
341.158	1890.62
341.386	1863.62
341.614	1887.62
341.842	1883.62
342.07	1892.62
342.298	1887.62
342.526	1893.62
342.754	1799.62
342.981	1798.62
343.209	1840.62
343.437	1806.62
343.665	1828.62
343.893	1880.62
344.12	1986.62
344.348	2020.62
344.576	1883.62
344.804	1841.62
345.031	1861.62
345.259	1876.62
345.487	1811.62
345.714	1730.62
345.942	1671.62
346.17	1729.62
346.397	1733.62
346.625	1839.62
346.853	1634.62
347.08	1647.62
347.308	1653.62
347.535	1713.62
347.763	1784.62
347.99	1734.62
348.218	1616.62
348.445	1664.62
348.673	1719.62
348.9	1767.62
349.128	1781.62
349.355	1864.62
349.583	1829.62
349.81	1727.62
350.037	1619.62
350.265	1571.62
350.492	1629.62
350.72	1708.62
350.947	1739.62
351.174	1787.62
351.402	1699.62
351.629	1593.62
351.856	1592.62
352.083	1548.62
352.311	1587.62
352.538	1619.62
352.765	1714.62
352.992	1823.62
353.22	1707.62
353.447	1646.62
353.674	1673.62
353.901	1710.62
354.128	1693.62
354.355	1656.62
354.583	1767.62
354.81	1759.62
355.037	1741.62
355.264	1747.62
355.491	1699.62
355.718	1706.62
355.945	1691.62
356.172	1651.62
356.399	1625.62
356.626	1644.62
356.853	1694.62
357.08	1817.62
357.307	2018.62
357.534	2059.62
357.761	1809.62
357.988	1641.62
358.215	1579.62
358.441	1602.62
358.668	1604.62
358.895	1647.62
359.122	1719.62
359.349	1911.62
359.576	1931.62
359.802	1725.62
360.029	1637.62
360.256	1599.62
360.483	1655.62
360.709	1673.62
360.936	1729.62
361.163	1808.62
361.39	1963.62
361.616	2154.62
361.843	2068.62
362.07	1974.62
362.296	1711.62
362.523	1644.62
362.749	1687.62
362.976	1700.62
363.203	1738.62
363.429	1701.62
363.656	1605.62
363.882	1675.62
364.109	1819.62
364.335	2058.62
364.562	1935.62
364.788	1811.62
365.015	1723.62
365.241	1605.62
365.468	1732.62
365.694	1755.62
365.92	1829.62
366.147	1749.62
366.373	1670.62
366.599	1623.62
366.826	1613.62
367.052	1646.62
367.278	1688.62
367.505	1709.62
367.731	1731.62
367.957	1715.62
368.184	1750.62
368.41	1900.62
368.636	1911.62
368.862	1891.62
369.089	1978.62
369.315	1892.62
369.541	1754.62
369.767	1687.62
369.993	1643.62
370.219	1666.62
370.445	1698.62
370.672	1797.62
370.898	1899.62
371.124	1928.62
371.35	1751.62
371.576	1831.62
371.802	1938.62
372.028	1804.62
372.254	1761.62
372.48	1692.62
372.706	1661.62
372.932	1692.62
373.158	1699.62
373.384	1729.62
373.61	1799.62
373.835	1905.62
374.061	1786.62
374.287	1766.62
374.513	1756.62
374.739	1798.62
374.965	1775.62
375.191	1814.62
375.416	1809.62
375.642	1805.62
375.868	1925.62
376.094	1955.62
376.319	1923.62
376.545	1756.62
376.771	1769.62
376.997	1901.62
377.222	1880.62
377.448	1833.62
377.674	1858.62
377.899	1855.62
378.125	2012.62
378.35	1969.62
378.576	1791.62
378.802	1689.62
379.027	1705.62
379.253	1733.62
379.478	1740.62
379.704	1749.62
379.929	1750.62
380.155	1727.62
380.38	1796.62
380.606	1776.62
380.831	1795.62
381.057	1866.62
381.282	1900.62
381.507	1848.62
381.733	1955.62
381.958	2050.62
382.184	1887.62
382.409	1783.62
382.634	1871.62
382.86	1849.62
383.085	1852.62
383.31	1851.62
383.535	1974.62
383.761	2167.62
383.986	2096.62
384.211	1959.62
384.436	1929.62
384.662	2022.62
384.887	2111.62
385.112	2040.62
385.337	2012.62
385.562	2007.62
385.787	2013.62
386.013	2087.62
386.238	2071.62
386.463	2065.62
386.688	2147.62
386.913	2315.62
387.138	2274.62
387.363	2111.62
387.588	2059.62
387.813	2017.62
388.038	2057.62
388.263	2168.62
388.488	2091.62
388.713	1947.62
388.938	1929.62
389.163	1950.62
389.387	1993.62
389.612	2031.62
389.837	2033.62
390.062	2053.62
390.287	2066.62
390.512	1983.62
390.736	1975.62
390.961	1931.62
391.186	1919.62
391.411	1909.62
391.636	1973.62
391.86	2005.62
392.085	2004.62
392.31	1976.62
392.534	1990.62
392.759	2050.62
392.984	2004.62
393.208	1992.62
393.433	2069.62
393.658	2155.62
393.882	2171.62
394.107	2038.62
394.331	2014.62
394.556	1978.62
394.78	2041.62
395.005	2073.62
395.229	2160.62
395.454	2325.62
395.678	2348.62
395.903	2223.62
396.127	2120.62
396.352	2146.62
396.576	2215.62
396.801	2259.62
397.025	2177.62
397.249	2209.62
397.474	2168.62
397.698	2138.62
397.922	2178.62
398.147	2317.62
398.371	2381.62
398.595	2397.62
398.82	2297.62
399.044	2347.62
399.268	2416.62
399.492	2558.62
399.717	2699.62
399.941	2708.62
400.165	2663.62
400.389	2598.62
400.613	2549.62
400.837	2774.62
401.062	3209.62
401.286	2761.62
401.51	2515.62
401.734	2671.62
401.958	2593.62
402.182	2349.62
402.406	2275.62
402.63	2262.62
402.854	2296.62
403.078	2296.62
403.302	2368.62
403.526	2396.62
403.75	2390.62
403.974	2421.62
404.198	2426.62
404.422	2466.62
404.645	2629.62
404.869	2591.62
405.093	2381.62
405.317	2315.62
405.541	2412.62
405.765	2432.62
405.988	2395.62
406.212	2439.62
406.436	2498.62
406.66	2556.62
406.883	2565.62
407.107	2871.62
407.331	3147.62
407.555	3425.62
407.778	3139.62
408.002	2603.62
408.226	2521.62
408.449	2503.62
408.673	2451.62
408.896	2468.62
409.12	2475.62
409.344	2435.62
409.567	2352.62
409.791	2419.62
410.014	2499.62
410.238	2567.62
410.461	2693.62
410.685	2431.62
410.908	2281.62
411.132	2388.62
411.355	2423.62
411.578	2306.62
411.802	2369.62
412.025	2413.62
412.249	2365.62
412.472	2259.62
412.695	2267.62
412.919	2274.62
413.142	2290.62
413.365	2309.62
413.589	2346.62
413.812	2441.62
414.035	2543.62
414.258	2345.62
414.482	2319.62
414.705	2284.62
414.928	2240.62
415.151	2259.62
415.374	2294.62
415.597	2318.62
415.821	2352.62
416.044	2458.62
416.267	2421.62
416.49	2212.62
416.713	2158.62
416.936	2279.62
417.159	2342.62
417.382	2343.62
417.605	2256.62
417.828	2282.62
418.051	2338.62
418.274	2288.62
418.497	2167.62
418.72	2204.62
418.943	2200.62
419.166	2357.62
419.389	2483.62
419.611	2344.62
419.834	2236.62
420.057	2308.62
420.28	2211.62
420.503	2226.62
420.726	2293.62
420.948	2234.62
421.171	2162.62
421.394	2189.62
421.617	2292.62
421.839	2266.62
422.062	2249.62
422.285	2175.62
422.507	2152.62
422.73	2122.62
422.953	2087.62
423.175	2084.62
423.398	2137.62
423.621	2177.62
423.843	2215.62
424.066	2213.62
424.288	2328.62
424.511	2364.62
424.733	2311.62
424.956	2106.62
425.178	2062.62
425.401	2122.62
425.623	2185.62
425.846	2120.62
426.068	2226.62
426.291	2287.62
426.513	2325.62
426.735	2248.62
426.958	2437.62
427.18	2563.62
427.402	2315.62
427.625	2409.62
427.847	2443.62
428.069	2275.62
428.292	2152.62
428.514	2089.62
428.736	2072.62
428.958	2126.62
429.181	2133.62
429.403	2380.62
429.625	2987.62
429.847	2603.62
430.069	2205.62
430.292	2372.62
430.514	2523.62
430.736	2315.62
430.958	2390.62
431.18	2298.62
431.402	2193.62
431.624	2110.62
431.846	2133.62
432.068	2067.62
432.29	2082.62
432.512	2171.62
432.734	2208.62
432.956	2237.62
433.178	2293.62
433.4	2262.62
433.622	2283.62
433.844	2199.62
434.066	2109.62
434.287	2111.62
434.509	2220.62
434.731	2305.62
434.953	2473.62
435.175	2417.62
435.397	2252.62
435.618	2266.62
435.84	2301.62
436.062	2208.62
436.284	2271.62
436.505	2254.62
436.727	2288.62
436.949	2250.62
437.17	2153.62
437.392	2161.62
437.614	2144.62
437.835	2083.62
438.057	2264.62
438.278	2372.62
438.5	2188.62
438.721	2140.62
438.943	2123.62
439.165	2111.62
439.386	2068.62
439.608	2107.62
439.829	2128.62
440.05	2137.62
440.272	2103.62
440.493	2089.62
440.715	2085.62
440.936	2265.62
441.158	2492.62
441.379	2439.62
441.6	2332.62
441.822	2316.62
442.043	2272.62
442.264	2203.62
442.486	2161.62
442.707	2087.62
442.928	2103.62
443.149	2216.62
443.371	2337.62
443.592	2382.62
443.813	2307.62
444.034	2353.62
444.255	2327.62
444.476	2406.62
444.698	2428.62
444.919	2408.62
445.14	2487.62
445.361	2487.62
445.582	2574.62
445.803	2401.62
446.024	2377.62
446.245	2453.62
446.466	2367.62
446.687	2237.62
446.908	2241.62
447.129	2152.62
447.35	2201.62
447.571	2157.62
447.792	2134.62
448.013	2056.62
448.234	2152.62
448.455	2250.62
448.675	2249.62
448.896	2073.62
449.117	2007.62
449.338	2097.62
449.559	2144.62
449.779	2330.62
450	2561.62
450.221	2747.62
450.442	2628.62
450.662	2311.62
450.883	2057.62
451.104	2008.62
451.324	2047.62
451.545	2098.62
451.766	2130.62
451.986	1983.62
452.207	1935.62
452.428	1898.62
452.648	1894.62
452.869	1968.62
453.089	2083.62
453.31	2097.62
453.53	2111.62
453.751	2074.62
453.971	1931.62
454.192	1985.62
454.412	2143.62
454.633	2057.62
454.853	1974.62
455.073	1859.62
455.294	1812.62
455.514	1845.62
455.734	1882.62
455.955	1919.62
456.175	1926.62
456.395	1934.62
456.616	1921.62
456.836	2032.62
457.056	1951.62
457.276	1931.62
457.497	1869.62
457.717	1838.62
457.937	1847.62
458.157	1923.62
458.377	1892.62
458.598	1900.62
458.818	1923.62
459.038	2041.62
459.258	2168.62
459.478	2204.62
459.698	2089.62
459.918	2141.62
460.138	2241.62
460.358	2244.62
460.578	2264.62
460.798	2376.62
461.018	2504.62
461.238	2385.62
461.458	2246.62
461.678	2296.62
461.898	2257.62
462.118	2180.62
462.338	2304.62
462.558	2282.62
462.777	2214.62
462.997	2355.62
463.217	2491.62
463.437	2541.62
463.657	2342.62
463.876	2313.62
464.096	2286.62
464.316	2261.62
464.536	2325.62
464.755	2427.62
464.975	2430.62
465.195	2346.62
465.414	2413.62
465.634	2464.62
465.854	2272.62
466.073	2425.62
466.293	2389.62
466.512	2084.62
466.732	2085.62
466.951	2221.62
467.171	2182.62
467.391	2053.62
467.61	2019.62
467.829	2057.62
468.049	2205.62
468.268	2478.62
468.488	2346.62
468.707	2220.62
468.927	2176.62
469.146	2075.62
469.365	2077.62
469.585	2101.62
469.804	2032.62
470.023	2070.62
470.243	2063.62
470.462	2108.62
470.681	2017.62
470.901	2082.62
471.12	2109.62
471.339	2039.62
471.558	2043.62
471.777	2001.62
471.997	2021.62
472.216	2039.62
472.435	1987.62
472.654	2038.62
472.873	2122.62
473.092	2231.62
473.311	2123.62
473.53	1952.62
473.749	1967.62
473.968	2053.62
474.187	2187.62
474.406	2244.62
474.625	2159.62
474.844	2081.62
475.063	2095.62
475.282	2176.62
475.501	2103.62
475.72	2063.62
475.939	2258.62
476.158	2189.62
476.377	2103.62
476.596	2106.62
476.814	2197.62
477.033	2164.62
477.252	2309.62
477.471	2364.62
477.69	2239.62
477.908	2187.62
478.127	2364.62
478.346	2493.62
478.564	2508.62
478.783	2455.62
479.002	2595.62
479.22	2510.62
479.439	2598.62
479.658	2958.62
479.876	2936.62
480.095	2534.62
480.313	2455.62
480.532	2289.62
480.751	2326.62
480.969	2429.62
481.188	2355.62
481.406	2340.62
481.624	2253.62
481.843	2328.62
482.061	2394.62
482.28	2385.62
482.498	2468.62
482.717	2429.62
482.935	2272.62
483.153	2373.62
483.372	2253.62
483.59	2273.62
483.808	2327.62
484.027	2415.62
484.245	2547.62
484.463	2874.62
484.681	3379.62
484.9	2628.62
485.118	2392.62
485.336	2328.62
485.554	2425.62
485.772	2598.62
485.99	2493.62
486.209	2547.62
486.427	2526.62
486.645	2475.62
486.863	2453.62
487.081	2565.62
487.299	2580.62
487.517	2566.62
487.735	2404.62
487.953	2435.62
488.171	2409.62
488.389	2405.62
488.607	2434.62
488.825	2671.62
489.043	2776.62
489.261	2419.62
489.479	2581.62
489.696	2641.62
489.914	2576.62
490.132	2489.62
490.35	2432.62
490.568	2586.62
490.786	2513.62
491.003	2403.62
491.221	2443.62
491.439	2567.62
491.657	2505.62
491.874	2498.62
492.092	2565.62
492.31	2540.62
492.527	2510.62
492.745	2471.62
492.963	2451.62
493.18	2515.62
493.398	2802.62
493.615	2881.62
493.833	2620.62
494.05	2509.62
494.268	2523.62
494.485	2615.62
494.703	2583.62
494.92	2468.62
495.138	2471.62
495.355	2548.62
495.573	2641.62
495.79	2851.62
496.008	2814.62
496.225	2636.62
496.442	2611.62
496.66	2729.62
496.877	2680.62
497.094	2787.62
497.312	2792.62
497.529	2756.62
497.746	2833.62
497.963	3281.62
498.181	3689.62
498.398	3475.62
498.615	3389.62
498.832	3241.62
499.049	3204.62
499.267	3234.62
499.484	3414.62
499.701	3727.62
499.918	3727.62
500.135	4059.62
500.352	4302.62
500.569	4286.62
500.786	4503.62
501.003	4232.62
501.22	3871.62
501.437	3709.62
501.654	3741.62
501.871	3665.62
502.088	3236.62
502.305	3237.62
502.522	3109.62
502.739	2920.62
502.956	2758.62
503.172	2830.62
503.389	2743.62
503.606	2640.62
503.823	2659.62
504.04	2659.62
504.256	2636.62
504.473	2689.62
504.69	2779.62
504.907	2659.62
505.123	2487.62
505.34	2643.62
505.557	3363.62
505.773	2945.62
505.99	2459.62
506.207	2326.62
506.423	2287.62
506.64	2245.62
506.856	2341.62
507.073	2582.62
507.289	2853.62
507.506	2743.62
507.722	2327.62
507.939	2199.62
508.155	2248.62
508.372	2275.62
508.588	2194.62
508.805	2140.62
509.021	2079.62
509.238	2054.62
509.454	2036.62
509.67	2099.62
509.887	2084.62
510.103	2041.62
510.319	2119.62
510.536	2235.62
510.752	2305.62
510.968	2289.62
511.184	2395.62
511.401	2376.62
511.617	2070.62
511.833	1983.62
512.049	2008.62
512.265	2045.62
512.481	2013.62
512.698	2088.62
512.914	2270.62
513.13	2175.62
513.346	2054.62
513.562	2041.62
513.778	2046.62
513.994	2161.62
514.21	2175.62
514.426	2227.62
514.642	2465.62
514.858	2319.62
515.074	2116.62
515.29	2071.62
515.506	2101.62
515.721	2157.62
515.937	2195.62
516.153	2447.62
516.369	2371.62
516.585	2247.62
516.801	2140.62
517.016	2111.62
517.232	2181.62
517.448	2247.62
517.664	2281.62
517.879	2291.62
518.095	2346.62
518.311	2264.62
518.527	2137.62
518.742	2098.62
518.958	2044.62
519.173	2039.62
519.389	2065.62
519.605	2119.62
519.82	2083.62
520.036	2159.62
520.251	2024.62
520.467	2057.62
520.682	2207.62
520.898	2360.62
521.113	2071.62
521.329	1971.62
521.544	2171.62
521.76	2090.62
521.975	1976.62
522.19	1907.62
522.406	1941.62
522.621	2372.62
522.836	2355.62
523.052	1959.62
523.267	1955.62
523.482	1980.62
523.698	1850.62
523.913	1788.62
524.128	1876.62
524.343	1996.62
524.559	2035.62
524.774	1910.62
524.989	1880.62
525.204	1869.62
525.419	1825.62
525.634	1816.62
525.849	1833.62
526.064	1860.62
526.28	1868.62
526.495	1828.62
526.71	1798.62
526.925	1829.62
527.14	1769.62
527.355	1761.62
527.57	1739.62
527.785	1846.62
527.999	1760.62
528.214	1744.62
528.429	1666.62
528.644	1745.62
528.859	1750.62
529.074	1725.62
529.289	1741.62
529.503	1834.62
529.718	1784.62
529.933	1815.62
530.148	1716.62
530.363	1713.62
530.577	1757.62
530.792	1776.62
531.007	1813.62
531.221	1753.62
531.436	1849.62
531.651	1857.62
531.865	1926.62
532.08	1843.62
532.295	1755.62
532.509	1683.62
532.724	1731.62
532.938	1799.62
533.153	1919.62
533.367	1813.62
533.582	1791.62
533.796	1734.62
534.011	1792.62
534.225	1771.62
534.44	1715.62
534.654	1708.62
534.868	1701.62
535.083	1810.62
535.297	1773.62
535.511	1734.62
535.726	1753.62
535.94	1735.62
536.154	1703.62
536.369	1742.62
536.583	1669.62
536.797	1657.62
537.011	1708.62
537.225	1669.62
537.44	1652.62
537.654	1719.62
537.868	1667.62
538.082	1562.62
538.296	1571.62
538.51	1601.62
538.724	1613.62
538.938	1594.62
539.153	1644.62
539.367	1625.62
539.581	1610.62
539.795	1723.62
540.009	1686.62
540.222	1653.62
540.436	1693.62
540.65	1846.62
540.864	1869.62
541.078	1752.62
541.292	1631.62
541.506	1648.62
541.72	1639.62
541.934	1628.62
542.147	1711.62
542.361	1637.62
542.575	1611.62
542.789	1595.62
543.002	1551.62
543.216	1554.62
543.43	1690.62
543.644	1741.62
543.857	1802.62
544.071	1725.62
544.285	1660.62
544.498	1648.62
544.712	1659.62
544.925	1649.62
545.139	1716.62
545.352	1608.62
545.566	1558.62
545.779	1517.62
545.993	1537.62
546.206	1595.62
546.42	1544.62
546.633	1542.62
546.847	1485.62
547.06	1507.62
547.274	1518.62
547.487	1526.62
547.7	1520.62
547.914	1521.62
548.127	1565.62
548.34	1610.62
548.554	1580.62
548.767	1570.62
548.98	1555.62
549.193	1544.62
549.407	1644.62
549.62	1668.62
549.833	1537.62
550.046	1549.62
550.259	1559.62
550.473	1483.62
550.686	1513.62
550.899	1532.62
551.112	1479.62
551.325	1474.62
551.538	1596.62
551.751	1855.62
551.964	1513.62
552.177	1455.62
552.39	1485.62
552.603	1521.62
552.816	1502.62
553.029	1579.62
553.242	1641.62
553.455	1546.62
553.667	1533.62
553.88	1536.62
554.093	1491.62
554.306	1451.62
554.519	1410.62
554.732	1449.62
554.944	1465.62
555.157	1503.62
555.37	1409.62
555.583	1473.62
555.795	1383.62
556.008	1346.62
556.221	1349.62
556.433	1335.62
556.646	1333.62
556.859	1303.62
557.071	1306.62
557.284	1314.62
557.496	1328.62
557.709	1302.62
557.921	1244.62
558.134	1302.62
558.346	1311.62
558.559	1277.62
558.771	1273.62
558.984	1231.62
559.196	1192.62
559.409	1224.62
559.621	1234.62
559.833	1264.62
560.046	1320.62
560.258	1302.62
560.47	1252.62
560.683	1280.62
560.895	1258.62
561.107	1287.62
561.32	1297.62
561.532	1280.62
561.744	1237.62
561.956	1265.62
562.168	1212.62
562.381	1194.62
562.593	1219.62
562.805	1222.62
563.017	1222.62
563.229	1232.62
563.441	1253.62
563.653	1242.62
563.865	1251.62
564.077	1212.62
564.289	1264.62
564.501	1218.62
564.713	1288.62
564.925	1317.62
565.137	1427.62
565.349	1340.62
565.561	1318.62
565.773	1315.62
565.985	1309.62
566.197	1405.62
566.408	1496.62
566.62	1501.62
566.832	1519.62
567.044	1500.62
567.255	1497.62
567.467	1499.62
567.679	1559.62
567.891	1628.62
568.102	1569.62
568.314	1498.62
568.526	1438.62
568.737	1395.62
568.949	1297.62
569.161	1245.62
569.372	1228.62
569.584	1194.62
569.795	1196.62
570.007	1219.62
570.218	1143.62
570.43	1110.62
570.641	1159.62
570.853	1147.62
571.064	1114.62
571.276	1099.62
571.487	1102.62
571.698	1071.62
571.91	1056.62
572.121	1041.62
572.333	1014.62
572.544	986.62
572.755	988.62
572.966	992.62
573.178	996.62
573.389	995.62
573.6	1035.62
573.811	1095.62
574.023	1002.62
574.234	1019.62
574.445	951.62
574.656	960.62
574.867	949.62
575.078	963.62
575.289	937.62
575.501	928.62
575.712	917.62
575.923	945.62
576.134	947.62
576.345	922.62
576.556	917.62
576.767	913.62
576.978	890.62
577.188	874.62
577.399	861.62
577.61	863.62
577.821	873.62
578.032	837.62
578.243	875.62
578.454	859.62
578.665	849.62
578.875	847.62
579.086	852.62
579.297	828.62
579.508	903.62
579.718	880.62
579.929	840.62
580.14	823.62
580.35	818.62
580.561	855.62
580.772	928.62
580.982	897.62
581.193	848.62
581.403	775.62
581.614	815.62
581.825	795.62
582.035	811.62
582.246	820.62
582.456	825.62
582.667	836.62
582.877	799.62
583.087	796.62
583.298	777.62
583.508	801.62
583.719	809.62
583.929	822.62
584.139	796.62
584.35	774.62
584.56	767.62
584.77	787.62
584.981	786.62
585.191	797.62
585.401	844.62
585.611	797.62
585.821	775.62
586.032	755.62
586.242	770.62
586.452	752.62
586.662	785.62
586.872	760.62
587.082	731.62
587.292	801.62
587.502	792.62
587.713	796.62
587.923	764.62
588.133	782.62
588.343	775.62
588.553	761.62
588.762	738.62
588.972	738.62
589.182	777.62
589.392	769.62
589.602	777.62
589.812	785.62
590.022	715.62
590.232	721.62
590.441	751.62
590.651	758.62
590.861	734.62
591.071	729.62
591.281	738.62
591.49	744.62
591.7	743.62
591.91	746.62
592.119	724.62
592.329	769.62
592.539	811.62
592.748	775.62
592.958	776.62
593.167	787.62
593.377	795.62
593.587	802.62
593.796	777.62
594.006	777.62
594.215	762.62
594.424	780.62
594.634	761.62
594.843	749.62
595.053	795.62
595.262	769.62
595.472	743.62
595.681	738.62
595.89	707.62
596.1	696.62
596.309	716.62
596.518	687.62
596.727	695.62
596.937	700.62
597.146	641.62
597.355	655.62
597.564	663.62
597.774	663.62
597.983	644.62
598.192	657.62
598.401	664.62
598.61	636.62
598.819	639.62
599.028	633.62
599.237	643.62
599.446	614.62
599.655	615.62
599.864	613.62
600.073	624.62
600.282	639.62
600.491	608.62
600.7	611.62
600.909	597.62
601.118	608.62
601.327	630.62
601.536	627.62
601.745	593.62
601.953	600.62
602.162	614.62
602.371	619.62
602.58	599.62
602.789	596.62
602.997	605.62
603.206	589.62
603.415	592.62
603.623	589.62
603.832	605.62
604.041	565.62
604.249	571.62
604.458	555.62
604.666	593.62
604.875	608.62
605.084	578.62
605.292	588.62
605.501	578.62
605.709	539.62
605.918	553.62
606.126	559.62
606.334	567.62
606.543	585.62
606.751	580.62
606.96	565.62
607.168	550.62
607.376	539.62
607.585	557.62
607.793	571.62
608.001	569.62
608.21	567.62
608.418	577.62
608.626	563.62
608.834	579.62
609.043	559.62
609.251	568.62
609.459	546.62
609.667	553.62
609.875	549.62
610.083	539.62
610.291	567.62
610.499	572.62
610.707	559.62
610.916	530.62
611.124	545.62
611.332	545.62
611.54	535.62
611.748	521.62
611.955	532.62
612.163	537.62
612.371	526.62
612.579	540.62
612.787	525.62
612.995	521.62
613.203	548.62
613.411	529.62
613.618	534.62
613.826	535.62
614.034	531.62
614.242	539.62
614.449	522.62
614.657	545.62
614.865	535.62
615.072	547.62
615.28	518.62
615.488	517.62
615.695	551.62
615.903	544.62
616.111	512.62
616.318	518.62
616.526	518.62
616.733	496.62
616.941	492.62
617.148	490.62
617.356	516.62
617.563	490.62
617.771	513.62
617.978	521.62
618.185	502.62
618.393	485.62
618.6	487.62
618.807	524.62
619.015	515.62
619.222	495.62
619.429	497.62
619.637	503.62
619.844	493.62
620.051	484.62
620.258	489.62
620.466	480.62
620.673	484.62
620.88	456.62
621.087	462.62
621.294	450.62
621.501	472.62
621.708	468.62
621.915	444.62
622.122	473.62
622.329	483.62
622.536	464.62
622.743	467.62
622.95	456.62
623.157	462.62
623.364	453.62
623.571	449.62
623.778	450.62
623.985	460.62
624.192	471.62
624.399	469.62
624.606	460.62
624.812	443.62
625.019	419.62
625.226	466.62
625.433	440.62
625.639	440.62
625.846	437.62
626.053	420.62
626.259	410.62
626.466	413.62
626.673	403.62
626.879	399.62
627.086	425.62
627.293	424.62
627.499	420.62
627.706	408.62
627.912	427.62
628.119	416.62
628.325	423.62
628.532	416.62
628.738	407.62
628.945	419.62
629.151	410.62
629.357	432.62
629.564	409.62
629.77	412.62
629.976	411.62
630.183	403.62
630.389	391.62
630.595	409.62
630.802	394.62
631.008	393.62
631.214	391.62
631.42	402.62
631.627	366.62
631.833	366.62
632.039	392.62
632.245	391.62
632.451	340.62
632.657	367.62
632.863	371.62
633.069	382.62
633.275	381.62
633.481	373.62
633.688	345.62
633.893	362.62
634.099	344.62
634.305	339.62
634.511	348.62
634.717	343.62
634.923	352.62
635.129	347.62
635.335	347.62
635.541	370.62
635.747	369.62
635.952	374.62
636.158	347.62
636.364	344.62
636.57	333.62
636.775	359.62
636.981	345.62
637.187	348.62
637.392	344.62
637.598	372.62
637.804	368.62
638.009	351.62
638.215	332.62
638.421	339.62
638.626	343.62
638.832	333.62
639.037	336.62
639.243	347.62
639.448	339.62
639.654	332.62
639.859	338.62
640.065	338.62
640.27	347.62
640.475	337.62
640.681	337.62
640.886	328.62
641.091	360.62
641.297	339.62
641.502	329.62
641.707	345.62
641.913	352.62
642.118	329.62
642.323	334.62
642.528	332.62
642.733	343.62
642.939	328.62
643.144	327.62
643.349	327.62
643.554	303.62
643.759	319.62
643.964	326.62
644.169	323.62
644.374	333.62
644.579	349.62
644.784	318.62
644.989	341.62
645.194	321.62
645.399	304.62
645.604	306.62
645.809	333.62
646.014	315.62
646.219	328.62
646.423	316.62
646.628	333.62
646.833	330.62
647.038	316.62
647.243	331.62
647.447	307.62
647.652	321.62
647.857	313.62
648.062	308.62
648.266	322.62
648.471	337.62
648.676	328.62
648.88	310.62
649.085	320.62
649.289	317.62
649.494	316.62
649.698	318.62
649.903	286.62
650.107	299.62
650.312	310.62
650.516	293.62
650.721	289.62
650.925	297.62
651.13	281.62
651.334	280.62
651.539	281.62
651.743	270.62
651.947	282.62
652.152	269.62
652.356	270.62
652.56	267.62
652.764	287.62
652.969	251.62
653.173	259.62
653.377	252.62
653.581	272.62
653.785	255.62
653.99	245.62
654.194	239.62
654.398	239.62
654.602	251.62
654.806	243.62
655.01	234.62
655.214	239.62
655.418	259.62
655.622	258.62
655.826	252.62
656.03	256.62
656.234	264.62
656.438	280.62
656.642	259.62
656.846	263.62
657.049	239.62
657.253	235.62
657.457	195.62
657.661	203.62
657.865	192.62
658.068	170.62
658.272	166.62
658.476	159.62
658.68	156.62
658.883	145.62
659.087	146.62
659.291	138.62
659.494	127.62
659.698	129.62
659.901	118.62
660.105	138.62
660.309	118.62
660.512	125.62
660.716	116.62
660.919	117.62
661.123	122.62
661.326	111.62
661.53	104.62
661.733	94.62
661.936	108.62
662.14	88.62
662.343	95.62
662.546	88.62
662.75	96.62
662.953	97.62
663.156	86.62
663.36	114.62
663.563	90.62
663.766	97.62
663.969	94.62
664.173	89.62
664.376	87.62
664.579	100.62
664.782	89.62
664.985	90.62
665.188	71.62
665.391	83.62
665.594	83.62
665.797	89.62
666	74.62
666.203	67.62
666.406	92.62
666.609	83.62
666.812	96.62
667.015	91.62
667.218	82.62
667.421	96.62
667.624	80.62
667.827	91.62
668.03	70.62
668.232	91.62
668.435	84.62
668.638	68.62
668.841	92.62
669.043	86.62
669.246	81.62
669.449	83.62
669.651	92.62
669.854	84.62
670.057	84.62
670.259	83.62
670.462	81.62
670.665	87.62
670.867	77.62
671.07	84.62
671.272	99.62
671.475	86.62
671.677	89.62
671.88	75.62
672.082	79.62
672.284	73.62
672.487	91.62
672.689	73.62
672.892	77.62
