Data from WStandard_LampEnergy8_LIBS07252019.E.O._I.C._HRD10591_16-00-34-930.txt Node
Date: Thu Jul 25 16:00:34 EDT 2019
User: cochatt
Spectrometer: HR+D1059
Trigger mode: 1
Integration Time (sec): 1.000000E-1
Scans to average: 1
Electric dark correction enabled: true
Nonlinearity correction enabled: false
Boxcar width: 0
XAxis mode: Wavelengths
Number of Pixels in Spectrum: 2048
>>>>>Begin Spectral Data<<<<<
223.165	-5.19
223.4	-5.19
223.635	-5.19
223.869	-24.19
224.104	-19.19
224.338	-12.19
224.573	-11.19
224.808	-17.19
225.042	-7.19
225.277	-4.19
225.511	-10.19
225.746	-4.19
225.98	20.81
226.215	15.81
226.449	-4.19
226.683	13.81
226.918	30.81
227.152	37.81
227.387	33.81
227.621	29.81
227.856	50.81
228.09	50.81
228.324	39.81
228.559	64.81
228.793	106.81
229.027	194.81
229.262	196.81
229.496	218.81
229.73	199.81
229.964	234.81
230.199	254.81
230.433	259.81
230.667	287.81
230.901	292.81
231.136	269.81
231.37	253.81
231.604	275.81
231.838	263.81
232.072	265.81
232.306	254.81
232.541	290.81
232.775	302.81
233.009	310.81
233.243	308.81
233.477	288.81
233.711	313.81
233.945	296.81
234.179	285.81
234.413	321.81
234.647	319.81
234.881	302.81
235.115	296.81
235.349	306.81
235.583	290.81
235.817	308.81
236.051	293.81
236.285	303.81
236.519	335.81
236.753	321.81
236.987	335.81
237.221	354.81
237.455	356.81
237.689	365.81
237.922	341.81
238.156	317.81
238.39	343.81
238.624	350.81
238.858	375.81
239.091	393.81
239.325	427.81
239.559	457.81
239.793	490.81
240.027	507.81
240.26	496.81
240.494	391.81
240.728	368.81
240.961	365.81
241.195	390.81
241.429	416.81
241.662	419.81
241.896	384.81
242.13	382.81
242.363	426.81
242.597	456.81
242.83	422.81
243.064	454.81
243.298	465.81
243.531	448.81
243.765	448.81
243.998	456.81
244.232	406.81
244.465	410.81
244.699	395.81
244.932	455.81
245.166	488.81
245.399	461.81
245.633	463.81
245.866	449.81
246.099	470.81
246.333	461.81
246.566	465.81
246.8	537.81
247.033	568.81
247.266	506.81
247.5	503.81
247.733	531.81
247.966	545.81
248.2	587.81
248.433	580.81
248.666	615.81
248.899	646.81
249.133	723.81
249.366	810.81
249.599	664.81
249.832	606.81
250.066	618.81
250.299	637.81
250.532	590.81
250.765	549.81
250.998	557.81
251.231	573.81
251.465	563.81
251.698	573.81
251.931	578.81
252.164	578.81
252.397	609.81
252.63	594.81
252.863	513.81
253.096	512.81
253.329	553.81
253.562	590.81
253.795	604.81
254.028	596.81
254.261	569.81
254.494	562.81
254.727	531.81
254.96	577.81
255.193	610.81
255.426	705.81
255.659	763.81
255.892	789.81
256.124	655.81
256.357	619.81
256.59	673.81
256.823	699.81
257.056	708.81
257.289	814.81
257.521	866.81
257.754	793.81
257.987	779.81
258.22	819.81
258.452	797.81
258.685	675.81
258.918	645.81
259.151	664.81
259.383	638.81
259.616	585.81
259.849	605.81
260.081	661.81
260.314	761.81
260.547	805.81
260.779	791.81
261.012	739.81
261.244	689.81
261.477	653.81
261.71	651.81
261.942	661.81
262.175	660.81
262.407	671.81
262.64	655.81
262.872	613.81
263.105	593.81
263.337	623.81
263.57	625.81
263.802	618.81
264.035	584.81
264.267	567.81
264.499	551.81
264.732	631.81
264.964	641.81
265.197	649.81
265.429	670.81
265.661	807.81
265.894	838.81
266.126	823.81
266.358	761.81
266.591	801.81
266.823	837.81
267.055	765.81
267.287	769.81
267.52	742.81
267.752	739.81
267.984	729.81
268.216	779.81
268.448	788.81
268.681	763.81
268.913	738.81
269.145	678.81
269.377	696.81
269.609	737.81
269.841	846.81
270.073	979.81
270.306	1083.81
270.538	1077.81
270.77	937.81
271.002	835.81
271.234	795.81
271.466	825.81
271.698	888.81
271.93	1027.81
272.162	983.81
272.394	909.81
272.626	869.81
272.858	803.81
273.09	710.81
273.322	683.81
273.553	658.81
273.785	667.81
274.017	702.81
274.249	747.81
274.481	771.81
274.713	702.81
274.945	687.81
275.176	681.81
275.408	673.81
275.64	655.81
275.872	688.81
276.104	696.81
276.335	803.81
276.567	910.81
276.799	894.81
277.031	829.81
277.262	790.81
277.494	813.81
277.726	865.81
277.957	866.81
278.189	792.81
278.421	735.81
278.652	711.81
278.884	689.81
279.115	720.81
279.347	736.81
279.579	714.81
279.81	723.81
280.042	805.81
280.273	842.81
280.505	869.81
280.736	881.81
280.968	809.81
281.199	745.81
281.431	696.81
281.662	694.81
281.894	712.81
282.125	732.81
282.356	739.81
282.588	776.81
282.819	751.81
283.051	818.81
283.282	898.81
283.513	824.81
283.745	720.81
283.976	713.81
284.207	729.81
284.439	715.81
284.67	739.81
284.901	763.81
285.132	753.81
285.364	748.81
285.595	767.81
285.826	751.81
286.057	718.81
286.288	737.81
286.52	795.81
286.751	839.81
286.982	849.81
287.213	776.81
287.444	718.81
287.675	738.81
287.906	779.81
288.138	798.81
288.369	793.81
288.6	754.81
288.831	739.81
289.062	734.81
289.293	742.81
289.524	778.81
289.755	774.81
289.986	766.81
290.217	728.81
290.448	755.81
290.679	761.81
290.91	773.81
291.141	778.81
291.371	801.81
291.602	811.81
291.833	787.81
292.064	837.81
292.295	821.81
292.526	831.81
292.757	872.81
292.987	814.81
293.218	806.81
293.449	868.81
293.68	969.81
293.91	988.81
294.141	951.81
294.372	892.81
294.603	917.81
294.833	955.81
295.064	907.81
295.295	845.81
295.525	808.81
295.756	733.81
295.987	706.81
296.217	758.81
296.448	733.81
296.679	773.81
296.909	761.81
297.14	791.81
297.37	773.81
297.601	838.81
297.831	872.81
298.062	859.81
298.292	774.81
298.523	755.81
298.753	779.81
298.984	774.81
299.214	779.81
299.445	799.81
299.675	839.81
299.905	827.81
300.136	814.81
300.366	756.81
300.597	780.81
300.827	779.81
301.057	783.81
301.288	827.81
301.518	821.81
301.748	873.81
301.979	898.81
302.209	899.81
302.439	974.81
302.669	978.81
302.9	909.81
303.13	832.81
303.36	849.81
303.59	843.81
303.82	834.81
304.051	833.81
304.281	856.81
304.511	863.81
304.741	926.81
304.971	999.81
305.201	1047.81
305.431	963.81
305.661	837.81
305.891	772.81
306.121	736.81
306.352	788.81
306.582	851.81
306.812	899.81
307.042	937.81
307.272	940.81
307.502	1019.81
307.731	1058.81
307.961	1045.81
308.191	1002.81
308.421	882.81
308.651	807.81
308.881	802.81
309.111	786.81
309.341	831.81
309.571	806.81
309.8	821.81
310.03	804.81
310.26	790.81
310.49	819.81
310.72	845.81
310.949	885.81
311.179	891.81
311.409	867.81
311.639	835.81
311.868	824.81
312.098	856.81
312.328	840.81
312.557	804.81
312.787	830.81
313.017	836.81
313.246	879.81
313.476	856.81
313.706	861.81
313.935	907.81
314.165	885.81
314.394	933.81
314.624	958.81
314.853	1042.81
315.083	1035.81
315.312	1026.81
315.542	951.81
315.771	880.81
316.001	906.81
316.23	914.81
316.46	937.81
316.689	914.81
316.919	848.81
317.148	853.81
317.377	879.81
317.607	950.81
317.836	1038.81
318.065	1037.81
318.295	1008.81
318.524	953.81
318.753	938.81
318.983	933.81
319.212	910.81
319.441	911.81
319.67	887.81
319.9	895.81
320.129	961.81
320.358	1001.81
320.587	1025.81
320.816	1001.81
321.046	982.81
321.275	938.81
321.504	974.81
321.733	1034.81
321.962	981.81
322.191	932.81
322.42	890.81
322.649	902.81
322.878	907.81
323.108	927.81
323.337	914.81
323.566	962.81
323.795	971.81
324.024	903.81
324.253	880.81
324.482	945.81
324.71	916.81
324.939	857.81
325.168	891.81
325.397	919.81
325.626	943.81
325.855	954.81
326.084	890.81
326.313	919.81
326.542	933.81
326.77	953.81
326.999	935.81
327.228	922.81
327.457	882.81
327.686	860.81
327.914	890.81
328.143	915.81
328.372	922.81
328.6	920.81
328.829	868.81
329.058	895.81
329.287	921.81
329.515	933.81
329.744	939.81
329.972	979.81
330.201	1000.81
330.43	989.81
330.658	973.81
330.887	981.81
331.115	975.81
331.344	962.81
331.572	944.81
331.801	990.81
332.03	969.81
332.258	970.81
332.486	998.81
332.715	982.81
332.943	1010.81
333.172	957.81
333.4	993.81
333.629	1026.81
333.857	1071.81
334.085	1229.81
334.314	1340.81
334.542	1363.81
334.771	1266.81
334.999	1117.81
335.227	1060.81
335.455	1061.81
335.684	1051.81
335.912	1045.81
336.14	1069.81
336.369	1066.81
336.597	999.81
336.825	1010.81
337.053	1054.81
337.281	1089.81
337.51	1135.81
337.738	1140.81
337.966	1103.81
338.194	1025.81
338.422	996.81
338.65	981.81
338.878	952.81
339.106	935.81
339.334	901.81
339.562	916.81
339.79	921.81
340.018	1002.81
340.246	1031.81
340.474	1032.81
340.702	1018.81
340.93	998.81
341.158	988.81
341.386	1010.81
341.614	989.81
341.842	979.81
342.07	977.81
342.298	977.81
342.526	984.81
342.754	969.81
342.981	960.81
343.209	968.81
343.437	960.81
343.665	954.81
343.893	1026.81
344.12	1037.81
344.348	1055.81
344.576	1018.81
344.804	969.81
345.031	974.81
345.259	962.81
345.487	925.81
345.714	922.81
345.942	925.81
346.17	893.81
346.397	943.81
346.625	926.81
346.853	888.81
347.08	849.81
347.308	883.81
347.535	895.81
347.763	921.81
347.99	893.81
348.218	890.81
348.445	899.81
348.673	915.81
348.9	961.81
349.128	979.81
349.355	997.81
349.583	959.81
349.81	912.81
350.037	851.81
350.265	874.81
350.492	884.81
350.72	891.81
350.947	929.81
351.174	900.81
351.402	881.81
351.629	847.81
351.856	841.81
352.083	881.81
352.311	872.81
352.538	888.81
352.765	932.81
352.992	939.81
353.22	892.81
353.447	860.81
353.674	885.81
353.901	897.81
354.128	892.81
354.355	911.81
354.583	957.81
354.81	957.81
355.037	974.81
355.264	946.81
355.491	913.81
355.718	885.81
355.945	916.81
356.172	886.81
356.399	871.81
356.626	897.81
356.853	931.81
357.08	1045.81
357.307	1099.81
357.534	1042.81
357.761	941.81
357.988	897.81
358.215	831.81
358.441	851.81
358.668	872.81
358.895	897.81
359.122	957.81
359.349	1053.81
359.576	974.81
359.802	919.81
360.029	898.81
360.256	887.81
360.483	887.81
360.709	963.81
360.936	969.81
361.163	981.81
361.39	1083.81
361.616	1142.81
361.843	1115.81
362.07	1041.81
362.296	921.81
362.523	890.81
362.749	895.81
362.976	920.81
363.203	936.81
363.429	888.81
363.656	884.81
363.882	950.81
364.109	1048.81
364.335	1077.81
364.562	1017.81
364.788	955.81
365.015	904.81
365.241	890.81
365.468	918.81
365.694	953.81
365.92	987.81
366.147	958.81
366.373	910.81
366.599	901.81
366.826	881.81
367.052	879.81
367.278	891.81
367.505	921.81
367.731	961.81
367.957	923.81
368.184	1009.81
368.41	1049.81
368.636	1034.81
368.862	1022.81
369.089	1031.81
369.315	1003.81
369.541	958.81
369.767	960.81
369.993	924.81
370.219	915.81
370.445	923.81
370.672	1009.81
370.898	1040.81
371.124	1036.81
371.35	1021.81
371.576	1017.81
371.802	1027.81
372.028	982.81
372.254	935.81
372.48	924.81
372.706	906.81
372.932	944.81
373.158	961.81
373.384	991.81
373.61	1032.81
373.835	1021.81
374.061	1001.81
374.287	981.81
374.513	972.81
374.739	956.81
374.965	982.81
375.191	986.81
375.416	1004.81
375.642	984.81
375.868	1081.81
376.094	1079.81
376.319	1066.81
376.545	982.81
376.771	1015.81
376.997	1066.81
377.222	1035.81
377.448	1001.81
377.674	1016.81
377.899	1033.81
378.125	1074.81
378.35	1045.81
378.576	999.81
378.802	948.81
379.027	937.81
379.253	977.81
379.478	953.81
379.704	953.81
379.929	992.81
380.155	1026.81
380.38	987.81
380.606	999.81
380.831	1031.81
381.057	1070.81
381.282	1047.81
381.507	1042.81
381.733	1105.81
381.958	1101.81
382.184	1031.81
382.409	1024.81
382.634	1021.81
382.86	990.81
383.085	1027.81
383.31	1073.81
383.535	1152.81
383.761	1227.81
383.986	1133.81
384.211	1105.81
384.436	1111.81
384.662	1163.81
384.887	1215.81
385.112	1126.81
385.337	1128.81
385.562	1120.81
385.787	1109.81
386.013	1157.81
386.238	1131.81
386.463	1165.81
386.688	1243.81
386.913	1293.81
387.138	1238.81
387.363	1163.81
387.588	1176.81
387.813	1136.81
388.038	1159.81
388.263	1199.81
388.488	1135.81
388.713	1058.81
388.938	1069.81
389.163	1085.81
389.387	1146.81
389.612	1094.81
389.837	1098.81
390.062	1125.81
390.287	1099.81
390.512	1092.81
390.736	1103.81
390.961	1058.81
391.186	1070.81
391.411	1091.81
391.636	1097.81
391.86	1112.81
392.085	1118.81
392.31	1108.81
392.534	1099.81
392.759	1127.81
392.984	1106.81
393.208	1144.81
393.433	1191.81
393.658	1184.81
393.882	1192.81
394.107	1124.81
394.331	1106.81
394.556	1116.81
394.78	1122.81
395.005	1214.81
395.229	1228.81
395.454	1285.81
395.678	1319.81
395.903	1222.81
396.127	1200.81
396.352	1213.81
396.576	1223.81
396.801	1221.81
397.025	1221.81
397.249	1230.81
397.474	1198.81
397.698	1197.81
397.922	1258.81
398.147	1295.81
398.371	1359.81
398.595	1335.81
398.82	1301.81
399.044	1289.81
399.268	1378.81
399.492	1410.81
399.717	1483.81
399.941	1455.81
400.165	1458.81
400.389	1409.81
400.613	1474.81
400.837	1634.81
401.062	1739.81
401.286	1526.81
401.51	1445.81
401.734	1430.81
401.958	1407.81
402.182	1313.81
402.406	1285.81
402.63	1255.81
402.854	1257.81
403.078	1286.81
403.302	1312.81
403.526	1318.81
403.75	1338.81
403.974	1354.81
404.198	1365.81
404.422	1397.81
404.645	1449.81
404.869	1395.81
405.093	1305.81
405.317	1288.81
405.541	1338.81
405.765	1317.81
405.988	1335.81
406.212	1358.81
406.436	1361.81
406.66	1422.81
406.883	1452.81
407.107	1631.81
407.331	1777.81
407.555	1880.81
407.778	1624.81
408.002	1427.81
408.226	1406.81
408.449	1397.81
408.673	1309.81
408.896	1372.81
409.12	1363.81
409.344	1356.81
409.567	1312.81
409.791	1347.81
410.014	1361.81
410.238	1448.81
410.461	1498.81
410.685	1368.81
410.908	1342.81
411.132	1327.81
411.355	1317.81
411.578	1310.81
411.802	1305.81
412.025	1361.81
412.249	1348.81
412.472	1271.81
412.695	1263.81
412.919	1280.81
413.142	1264.81
413.365	1276.81
413.589	1347.81
413.812	1350.81
414.035	1391.81
414.258	1307.81
414.482	1290.81
414.705	1278.81
414.928	1277.81
415.151	1252.81
415.374	1279.81
415.597	1316.81
415.821	1315.81
416.044	1373.81
416.267	1302.81
416.49	1250.81
416.713	1256.81
416.936	1304.81
417.159	1362.81
417.382	1327.81
417.605	1255.81
417.828	1315.81
418.051	1346.81
418.274	1306.81
418.497	1253.81
418.72	1242.81
418.943	1229.81
419.166	1320.81
419.389	1366.81
419.611	1303.81
419.834	1301.81
420.057	1315.81
420.28	1242.81
420.503	1254.81
420.726	1307.81
420.948	1290.81
421.171	1239.81
421.394	1287.81
421.617	1327.81
421.839	1297.81
422.062	1340.81
422.285	1267.81
422.507	1259.81
422.73	1215.81
422.953	1210.81
423.175	1201.81
423.398	1230.81
423.621	1233.81
423.843	1230.81
424.066	1289.81
424.288	1334.81
424.511	1378.81
424.733	1331.81
424.956	1227.81
425.178	1226.81
425.401	1225.81
425.623	1243.81
425.846	1248.81
426.068	1320.81
426.291	1347.81
426.513	1315.81
426.735	1280.81
426.958	1413.81
427.18	1442.81
427.402	1364.81
427.625	1368.81
427.847	1335.81
428.069	1285.81
428.292	1239.81
428.514	1204.81
428.736	1183.81
428.958	1217.81
429.181	1231.81
429.403	1474.81
429.625	1683.81
429.847	1443.81
430.069	1280.81
430.292	1432.81
430.514	1426.81
430.736	1341.81
430.958	1364.81
431.18	1280.81
431.402	1194.81
431.624	1199.81
431.846	1167.81
432.068	1101.81
432.29	1114.81
432.512	1178.81
432.734	1231.81
432.956	1272.81
433.178	1318.81
433.4	1288.81
433.622	1310.81
433.844	1220.81
434.066	1167.81
434.287	1153.81
434.509	1189.81
434.731	1211.81
434.953	1341.81
435.175	1287.81
435.397	1263.81
435.618	1262.81
435.84	1225.81
436.062	1194.81
436.284	1257.81
436.505	1277.81
436.727	1292.81
436.949	1240.81
437.17	1238.81
437.392	1214.81
437.614	1213.81
437.835	1137.81
438.057	1199.81
438.278	1239.81
438.5	1217.81
438.721	1213.81
438.943	1224.81
439.165	1219.81
439.386	1206.81
439.608	1283.81
439.829	1208.81
440.05	1233.81
440.272	1192.81
440.493	1207.81
440.715	1254.81
440.936	1312.81
441.158	1425.81
441.379	1352.81
441.6	1391.81
441.822	1347.81
442.043	1331.81
442.264	1299.81
442.486	1268.81
442.707	1232.81
442.928	1207.81
443.149	1283.81
443.371	1316.81
443.592	1362.81
443.813	1370.81
444.034	1315.81
444.255	1341.81
444.476	1344.81
444.698	1414.81
444.919	1394.81
445.14	1443.81
445.361	1451.81
445.582	1410.81
445.803	1395.81
446.024	1374.81
446.245	1418.81
446.466	1351.81
446.687	1342.81
446.908	1359.81
447.129	1321.81
447.35	1288.81
447.571	1280.81
447.792	1244.81
448.013	1241.81
448.234	1257.81
448.455	1273.81
448.675	1309.81
448.896	1199.81
449.117	1197.81
449.338	1223.81
449.559	1250.81
449.779	1307.81
450	1401.81
450.221	1469.81
450.442	1429.81
450.662	1257.81
450.883	1155.81
451.104	1140.81
451.324	1168.81
451.545	1205.81
451.766	1149.81
451.986	1143.81
452.207	1100.81
452.428	1061.81
452.648	1096.81
452.869	1094.81
453.089	1100.81
453.31	1139.81
453.53	1110.81
453.751	1075.81
453.971	1067.81
454.192	1056.81
454.412	1142.81
454.633	1122.81
454.853	1116.81
455.073	1050.81
455.294	1077.81
455.514	1048.81
455.734	1045.81
455.955	1062.81
456.175	1034.81
456.395	1043.81
456.616	1083.81
456.836	1083.81
457.056	1100.81
457.276	1073.81
457.497	1026.81
457.717	1000.81
457.937	1057.81
458.157	1057.81
458.377	1025.81
458.598	1022.81
458.818	1025.81
459.038	1114.81
459.258	1125.81
459.478	1100.81
459.698	1092.81
459.918	1135.81
460.138	1198.81
460.358	1190.81
460.578	1239.81
460.798	1282.81
461.018	1344.81
461.238	1287.81
461.458	1268.81
461.678	1243.81
461.898	1203.81
462.118	1197.81
462.338	1246.81
462.558	1230.81
462.777	1231.81
462.997	1279.81
463.217	1327.81
463.437	1310.81
463.657	1254.81
463.876	1240.81
464.096	1223.81
464.316	1237.81
464.536	1255.81
464.755	1283.81
464.975	1335.81
465.195	1268.81
465.414	1318.81
465.634	1271.81
465.854	1255.81
466.073	1382.81
466.293	1316.81
466.512	1184.81
466.732	1179.81
466.951	1226.81
467.171	1227.81
467.391	1163.81
467.61	1187.81
467.829	1205.81
468.049	1304.81
468.268	1413.81
468.488	1304.81
468.707	1248.81
468.927	1237.81
469.146	1187.81
469.365	1173.81
469.585	1216.81
469.804	1223.81
470.023	1227.81
470.243	1209.81
470.462	1186.81
470.681	1194.81
470.901	1205.81
471.12	1239.81
471.339	1263.81
471.558	1189.81
471.777	1153.81
471.997	1176.81
472.216	1176.81
472.435	1089.81
472.654	1123.81
472.873	1153.81
473.092	1209.81
473.311	1193.81
473.53	1143.81
473.749	1113.81
473.968	1142.81
474.187	1214.81
474.406	1222.81
474.625	1179.81
474.844	1183.81
475.063	1204.81
475.282	1222.81
475.501	1139.81
475.72	1201.81
475.939	1278.81
476.158	1221.81
476.377	1144.81
476.596	1161.81
476.814	1209.81
477.033	1190.81
477.252	1262.81
477.471	1303.81
477.69	1231.81
477.908	1283.81
478.127	1322.81
478.346	1418.81
478.564	1411.81
478.783	1395.81
479.002	1425.81
479.22	1416.81
479.439	1434.81
479.658	1573.81
479.876	1525.81
480.095	1360.81
480.313	1293.81
480.532	1285.81
480.751	1297.81
480.969	1264.81
481.188	1274.81
481.406	1251.81
481.624	1223.81
481.843	1220.81
482.061	1250.81
482.28	1302.81
482.498	1320.81
482.717	1277.81
482.935	1277.81
483.153	1323.81
483.372	1346.81
483.59	1355.81
483.808	1333.81
484.027	1323.81
484.245	1410.81
484.463	1671.81
484.681	1857.81
484.9	1476.81
485.118	1320.81
485.336	1306.81
485.554	1362.81
485.772	1367.81
485.99	1371.81
486.209	1390.81
486.427	1377.81
486.645	1383.81
486.863	1412.81
487.081	1457.81
487.299	1437.81
487.517	1425.81
487.735	1458.81
487.953	1467.81
488.171	1480.81
488.389	1459.81
488.607	1422.81
488.825	1584.81
489.043	1523.81
489.261	1387.81
489.479	1454.81
489.696	1453.81
489.914	1427.81
490.132	1439.81
490.35	1448.81
490.568	1487.81
490.786	1465.81
491.003	1467.81
491.221	1507.81
491.439	1570.81
491.657	1593.81
491.874	1564.81
492.092	1651.81
492.31	1693.81
492.527	1633.81
492.745	1594.81
492.963	1569.81
493.18	1565.81
493.398	1701.81
493.615	1689.81
493.833	1565.81
494.05	1512.81
494.268	1535.81
494.485	1577.81
494.703	1519.81
494.92	1491.81
495.138	1495.81
495.355	1502.81
495.573	1599.81
495.79	1625.81
496.008	1653.81
496.225	1557.81
496.442	1566.81
496.66	1594.81
496.877	1583.81
497.094	1614.81
497.312	1641.81
497.529	1611.81
497.746	1651.81
497.963	1836.81
498.181	1971.81
498.398	1884.81
498.615	1791.81
498.832	1772.81
499.049	1731.81
499.267	1760.81
499.484	1836.81
499.701	1999.81
499.918	2010.81
500.135	2168.81
500.352	2272.81
500.569	2291.81
500.786	2477.81
501.003	2249.81
501.22	2094.81
501.437	2015.81
501.654	2084.81
501.871	1968.81
502.088	1751.81
502.305	1747.81
502.522	1709.81
502.739	1602.81
502.956	1582.81
503.172	1538.81
503.389	1477.81
503.606	1434.81
503.823	1487.81
504.04	1479.81
504.256	1439.81
504.473	1476.81
504.69	1494.81
504.907	1432.81
505.123	1392.81
505.34	1487.81
505.557	1902.81
505.773	1595.81
505.99	1367.81
506.207	1327.81
506.423	1266.81
506.64	1265.81
506.856	1312.81
507.073	1445.81
507.289	1562.81
507.506	1491.81
507.722	1271.81
507.939	1229.81
508.155	1235.81
508.372	1217.81
508.588	1191.81
508.805	1155.81
509.021	1159.81
509.238	1130.81
509.454	1135.81
509.67	1152.81
509.887	1126.81
510.103	1106.81
510.319	1138.81
510.536	1199.81
510.752	1222.81
510.968	1191.81
511.184	1296.81
511.401	1224.81
511.617	1109.81
511.833	1087.81
512.049	1073.81
512.265	1118.81
512.481	1067.81
512.698	1138.81
512.914	1185.81
513.13	1167.81
513.346	1112.81
513.562	1087.81
513.778	1117.81
513.994	1163.81
514.21	1188.81
514.426	1176.81
514.642	1285.81
514.858	1232.81
515.074	1160.81
515.29	1117.81
515.506	1150.81
515.721	1135.81
515.937	1152.81
516.153	1294.81
516.369	1257.81
516.585	1153.81
516.801	1113.81
517.016	1137.81
517.232	1166.81
517.448	1210.81
517.664	1194.81
517.879	1207.81
518.095	1242.81
518.311	1214.81
518.527	1173.81
518.742	1153.81
518.958	1137.81
519.173	1139.81
519.389	1163.81
519.605	1130.81
519.82	1161.81
520.036	1190.81
520.251	1147.81
520.467	1162.81
520.682	1199.81
520.898	1239.81
521.113	1125.81
521.329	1103.81
521.544	1191.81
521.76	1147.81
521.975	1063.81
522.19	1085.81
522.406	1089.81
522.621	1334.81
522.836	1257.81
523.052	1084.81
523.267	1095.81
523.482	1098.81
523.698	1056.81
523.913	1039.81
524.128	1078.81
524.343	1118.81
524.559	1122.81
524.774	1071.81
524.989	1061.81
525.204	1054.81
525.419	1043.81
525.634	1062.81
525.849	1056.81
526.064	1072.81
526.28	1048.81
526.495	1014.81
526.71	961.81
526.925	963.81
527.14	966.81
527.355	968.81
527.57	938.81
527.785	989.81
527.999	991.81
528.214	1007.81
528.429	971.81
528.644	1016.81
528.859	1041.81
529.074	1050.81
529.289	1122.81
529.503	1109.81
529.718	1063.81
529.933	1027.81
530.148	984.81
530.363	968.81
530.577	978.81
530.792	987.81
531.007	991.81
531.221	943.81
531.436	994.81
531.651	994.81
531.865	1055.81
532.08	999.81
532.295	962.81
532.509	896.81
532.724	936.81
532.938	991.81
533.153	1069.81
533.367	1036.81
533.582	1026.81
533.796	1014.81
534.011	1006.81
534.225	1017.81
534.44	952.81
534.654	946.81
534.868	946.81
535.083	981.81
535.297	1023.81
535.511	977.81
535.726	984.81
535.94	1000.81
536.154	964.81
536.369	931.81
536.583	922.81
536.797	945.81
537.011	943.81
537.225	885.81
537.44	915.81
537.654	986.81
537.868	916.81
538.082	889.81
538.296	887.81
538.51	898.81
538.724	908.81
538.938	928.81
539.153	985.81
539.367	990.81
539.581	952.81
539.795	1011.81
540.009	957.81
540.222	923.81
540.436	945.81
540.65	1049.81
540.864	1082.81
541.078	1011.81
541.292	1021.81
541.506	1050.81
541.72	1091.81
541.934	1121.81
542.147	1147.81
542.361	1099.81
542.575	1035.81
542.789	994.81
543.002	960.81
543.216	942.81
543.43	994.81
543.644	1049.81
543.857	1089.81
544.071	1077.81
544.285	1105.81
544.498	1093.81
544.712	1051.81
544.925	1060.81
545.139	1080.81
545.352	1061.81
545.566	1014.81
545.779	1042.81
545.993	1063.81
546.206	1101.81
546.42	1075.81
546.633	1063.81
546.847	1066.81
547.06	1074.81
547.274	1075.81
547.487	1058.81
547.7	1091.81
547.914	1054.81
548.127	1094.81
548.34	1059.81
548.554	1081.81
548.767	1029.81
548.98	1046.81
549.193	1048.81
549.407	1089.81
549.62	1101.81
549.833	1087.81
550.046	1054.81
550.259	1013.81
550.473	1011.81
550.686	1002.81
550.899	968.81
551.112	975.81
551.325	955.81
551.538	1032.81
551.751	1067.81
551.964	913.81
552.177	941.81
552.39	960.81
552.603	1003.81
552.816	1007.81
553.029	1041.81
553.242	1053.81
553.455	1029.81
553.667	1034.81
553.88	1048.81
554.093	1010.81
554.306	984.81
554.519	955.81
554.732	927.81
554.944	975.81
555.157	953.81
555.37	928.81
555.583	951.81
555.795	919.81
556.008	884.81
556.221	859.81
556.433	842.81
556.646	861.81
556.859	858.81
557.071	871.81
557.284	887.81
557.496	865.81
557.709	843.81
557.921	838.81
558.134	845.81
558.346	862.81
558.559	831.81
558.771	827.81
558.984	790.81
559.196	790.81
559.409	799.81
559.621	798.81
559.833	823.81
560.046	824.81
560.258	814.81
560.47	839.81
560.683	832.81
560.895	804.81
561.107	817.81
561.32	822.81
561.532	815.81
561.744	809.81
561.956	791.81
562.168	790.81
562.381	778.81
562.593	773.81
562.805	803.81
563.017	766.81
563.229	776.81
563.441	782.81
563.653	783.81
563.865	785.81
564.077	750.81
564.289	775.81
564.501	793.81
564.713	802.81
564.925	807.81
565.137	846.81
565.349	789.81
565.561	769.81
565.773	824.81
565.985	794.81
566.197	871.81
566.408	867.81
566.62	883.81
566.832	867.81
567.044	872.81
567.255	880.81
567.467	891.81
567.679	916.81
567.891	913.81
568.102	872.81
568.314	829.81
568.526	796.81
568.737	738.81
568.949	725.81
569.161	696.81
569.372	693.81
569.584	673.81
569.795	672.81
570.007	661.81
570.218	652.81
570.43	630.81
570.641	652.81
570.853	667.81
571.064	680.81
571.276	675.81
571.487	640.81
571.698	635.81
571.91	647.81
572.121	599.81
572.333	622.81
572.544	605.81
572.755	582.81
572.966	558.81
573.178	570.81
573.389	585.81
573.6	606.81
573.811	625.81
574.023	598.81
574.234	558.81
574.445	546.81
574.656	560.81
574.867	538.81
575.078	565.81
575.289	571.81
575.501	543.81
575.712	553.81
575.923	558.81
576.134	569.81
576.345	541.81
576.556	533.81
576.767	522.81
576.978	538.81
577.188	541.81
577.399	527.81
577.61	520.81
577.821	505.81
578.032	521.81
578.243	501.81
578.454	486.81
578.665	482.81
578.875	502.81
579.086	493.81
579.297	484.81
579.508	522.81
579.718	502.81
579.929	488.81
580.14	508.81
580.35	470.81
580.561	499.81
580.772	537.81
580.982	523.81
581.193	489.81
581.403	488.81
581.614	479.81
581.825	486.81
582.035	466.81
582.246	467.81
582.456	491.81
582.667	477.81
582.877	483.81
583.087	458.81
583.298	449.81
583.508	477.81
583.719	461.81
583.929	455.81
584.139	471.81
584.35	430.81
584.56	455.81
584.77	485.81
584.981	477.81
585.191	467.81
585.401	494.81
585.611	482.81
585.821	424.81
586.032	463.81
586.242	437.81
586.452	457.81
586.662	446.81
586.872	446.81
587.082	449.81
587.292	456.81
587.502	436.81
587.713	472.81
587.923	448.81
588.133	449.81
588.343	440.81
588.553	441.81
588.762	445.81
588.972	437.81
589.182	452.81
589.392	458.81
589.602	468.81
589.812	452.81
590.022	422.81
590.232	443.81
590.441	449.81
590.651	449.81
590.861	448.81
591.071	416.81
591.281	433.81
591.49	442.81
591.7	434.81
591.91	435.81
592.119	436.81
592.329	434.81
592.539	458.81
592.748	443.81
592.958	458.81
593.167	467.81
593.377	463.81
593.587	447.81
593.796	483.81
594.006	448.81
594.215	459.81
594.424	471.81
594.634	477.81
594.843	465.81
595.053	456.81
595.262	446.81
595.472	450.81
595.681	440.81
595.89	420.81
596.1	413.81
596.309	419.81
596.518	423.81
596.727	445.81
596.937	407.81
597.146	401.81
597.355	400.81
597.564	398.81
597.774	381.81
597.983	410.81
598.192	371.81
598.401	374.81
598.61	376.81
598.819	366.81
599.028	395.81
599.237	417.81
599.446	391.81
599.655	390.81
599.864	382.81
600.073	367.81
600.282	382.81
600.491	394.81
600.7	383.81
600.909	371.81
601.118	369.81
601.327	396.81
601.536	421.81
601.745	395.81
601.953	375.81
602.162	395.81
602.371	413.81
602.58	420.81
602.789	408.81
602.997	401.81
603.206	408.81
603.415	391.81
603.623	391.81
603.832	395.81
604.041	397.81
604.249	369.81
604.458	393.81
604.666	394.81
604.875	369.81
605.084	395.81
605.292	398.81
605.501	408.81
605.709	393.81
605.918	387.81
606.126	402.81
606.334	395.81
606.543	391.81
606.751	392.81
606.96	401.81
607.168	399.81
607.376	395.81
607.585	385.81
607.793	398.81
608.001	386.81
608.21	391.81
608.418	382.81
608.626	394.81
608.834	389.81
609.043	406.81
609.251	399.81
609.459	380.81
609.667	403.81
609.875	395.81
610.083	387.81
610.291	395.81
610.499	381.81
610.707	395.81
610.916	398.81
611.124	379.81
611.332	383.81
611.54	391.81
611.748	374.81
611.955	379.81
612.163	394.81
612.371	369.81
612.579	365.81
612.787	374.81
612.995	385.81
613.203	368.81
613.411	368.81
613.618	370.81
613.826	377.81
614.034	384.81
614.242	375.81
614.449	369.81
614.657	379.81
614.865	381.81
615.072	384.81
615.28	389.81
615.488	366.81
615.695	393.81
615.903	385.81
616.111	380.81
616.318	392.81
616.526	365.81
616.733	395.81
616.941	375.81
617.148	381.81
617.356	365.81
617.563	390.81
617.771	363.81
617.978	373.81
618.185	375.81
618.393	370.81
618.6	373.81
618.807	362.81
619.015	369.81
619.222	369.81
619.429	362.81
619.637	373.81
619.844	329.81
620.051	352.81
620.258	359.81
620.466	355.81
620.673	338.81
620.88	337.81
621.087	335.81
621.294	340.81
621.501	308.81
621.708	334.81
621.915	329.81
622.122	356.81
622.329	358.81
622.536	365.81
622.743	349.81
622.95	348.81
623.157	357.81
623.364	342.81
623.571	361.81
623.778	334.81
623.985	328.81
624.192	330.81
624.399	350.81
624.606	351.81
624.812	322.81
625.019	320.81
625.226	331.81
625.433	312.81
625.639	307.81
625.846	314.81
626.053	289.81
626.259	292.81
626.466	292.81
626.673	298.81
626.879	288.81
627.086	297.81
627.293	288.81
627.499	307.81
627.706	317.81
627.912	318.81
628.119	314.81
628.325	312.81
628.532	310.81
628.738	307.81
628.945	314.81
629.151	295.81
629.357	315.81
629.564	301.81
629.77	304.81
629.976	301.81
630.183	296.81
630.389	278.81
630.595	293.81
630.802	285.81
631.008	266.81
631.214	280.81
631.42	286.81
631.627	293.81
631.833	289.81
632.039	292.81
632.245	294.81
632.451	297.81
632.657	287.81
632.863	279.81
633.069	290.81
633.275	297.81
633.481	290.81
633.688	277.81
633.893	275.81
634.099	271.81
634.305	280.81
634.511	288.81
634.717	267.81
634.923	261.81
635.129	252.81
635.335	273.81
635.541	265.81
635.747	283.81
635.952	254.81
636.158	276.81
636.364	283.81
636.57	285.81
636.775	267.81
636.981	284.81
637.187	287.81
637.392	263.81
637.598	281.81
637.804	281.81
638.009	280.81
638.215	275.81
638.421	282.81
638.626	263.81
638.832	260.81
639.037	261.81
639.243	271.81
639.448	277.81
639.654	250.81
639.859	253.81
640.065	251.81
640.27	292.81
640.475	244.81
640.681	242.81
640.886	248.81
641.091	246.81
641.297	254.81
641.502	261.81
641.707	273.81
641.913	251.81
642.118	254.81
642.323	275.81
642.528	265.81
642.733	267.81
642.939	246.81
643.144	233.81
643.349	235.81
643.554	266.81
643.759	268.81
643.964	253.81
644.169	234.81
644.374	251.81
644.579	257.81
644.784	263.81
644.989	259.81
645.194	256.81
645.399	244.81
645.604	234.81
645.809	257.81
646.014	253.81
646.219	264.81
646.423	246.81
646.628	243.81
646.833	259.81
647.038	242.81
647.243	260.81
647.447	251.81
647.652	266.81
647.857	247.81
648.062	253.81
648.266	248.81
648.471	246.81
648.676	242.81
648.88	252.81
649.085	252.81
649.289	251.81
649.494	253.81
649.698	237.81
649.903	253.81
650.107	242.81
650.312	251.81
650.516	228.81
650.721	233.81
650.925	223.81
651.13	226.81
651.334	232.81
651.539	235.81
651.743	229.81
651.947	218.81
652.152	226.81
652.356	234.81
652.56	212.81
652.764	224.81
652.969	226.81
653.173	223.81
653.377	223.81
653.581	213.81
653.785	220.81
653.99	219.81
654.194	200.81
654.398	209.81
654.602	206.81
654.806	212.81
655.01	209.81
655.214	213.81
655.418	211.81
655.622	211.81
655.826	225.81
656.03	233.81
656.234	238.81
656.438	248.81
656.642	260.81
656.846	242.81
657.049	225.81
657.253	204.81
657.457	218.81
657.661	174.81
657.865	179.81
658.068	174.81
658.272	159.81
658.476	167.81
658.68	166.81
658.883	149.81
659.087	139.81
659.291	122.81
659.494	138.81
659.698	131.81
659.901	130.81
660.105	130.81
660.309	135.81
660.512	112.81
660.716	119.81
660.919	108.81
661.123	107.81
661.326	119.81
661.53	105.81
661.733	114.81
661.936	96.81
662.14	107.81
662.343	103.81
662.546	93.81
662.75	95.81
662.953	91.81
663.156	101.81
663.36	94.81
663.563	92.81
663.766	92.81
663.969	90.81
664.173	83.81
664.376	69.81
664.579	74.81
664.782	77.81
664.985	85.81
665.188	79.81
665.391	91.81
665.594	78.81
665.797	73.81
666	71.81
666.203	82.81
666.406	87.81
666.609	81.81
666.812	85.81
667.015	86.81
667.218	79.81
667.421	82.81
667.624	74.81
667.827	70.81
668.03	90.81
668.232	74.81
668.435	75.81
668.638	79.81
668.841	101.81
669.043	81.81
669.246	79.81
669.449	86.81
669.651	90.81
669.854	71.81
670.057	95.81
670.259	86.81
670.462	74.81
670.665	88.81
670.867	82.81
671.07	76.81
671.272	74.81
671.475	83.81
671.677	71.81
671.88	90.81
672.082	87.81
672.284	81.81
672.487	89.81
672.689	75.81
672.892	74.81
