Data from WStandard_LampEnergy8_LIBS07252019.E.O._I.C._HRD10591_15-59-33-929.txt Node
Date: Thu Jul 25 15:59:33 EDT 2019
User: cochatt
Spectrometer: HR+D1059
Trigger mode: 1
Integration Time (sec): 1.000000E-1
Scans to average: 1
Electric dark correction enabled: true
Nonlinearity correction enabled: false
Boxcar width: 0
XAxis mode: Wavelengths
Number of Pixels in Spectrum: 2048
>>>>>Begin Spectral Data<<<<<
223.165	-12.88
223.4	-12.88
223.635	-12.88
223.869	-18.88
224.104	-34.88
224.338	-8.88
224.573	-16.88
224.808	-19.88
225.042	-8.88
225.277	-23.88
225.511	3.12
225.746	11.12
225.98	0.12
226.215	21.12
226.449	32.12
226.683	28.12
226.918	21.12
227.152	28.12
227.387	25.12
227.621	48.12
227.856	39.12
228.09	49.12
228.324	59.12
228.559	61.12
228.793	99.12
229.027	192.12
229.262	214.12
229.496	219.12
229.73	230.12
229.964	251.12
230.199	267.12
230.433	243.12
230.667	264.12
230.901	289.12
231.136	255.12
231.37	268.12
231.604	248.12
231.838	242.12
232.072	255.12
232.306	245.12
232.541	275.12
232.775	305.12
233.009	321.12
233.243	303.12
233.477	285.12
233.711	295.12
233.945	307.12
234.179	307.12
234.413	315.12
234.647	336.12
234.881	327.12
235.115	290.12
235.349	294.12
235.583	299.12
235.817	291.12
236.051	290.12
236.285	295.12
236.519	323.12
236.753	349.12
236.987	359.12
237.221	356.12
237.455	370.12
237.689	375.12
237.922	355.12
238.156	347.12
238.39	360.12
238.624	357.12
238.858	383.12
239.091	401.12
239.325	423.12
239.559	471.12
239.793	474.12
240.027	504.12
240.26	513.12
240.494	389.12
240.728	397.12
240.961	364.12
241.195	390.12
241.429	420.12
241.662	406.12
241.896	415.12
242.13	400.12
242.363	420.12
242.597	454.12
242.83	461.12
243.064	458.12
243.298	482.12
243.531	463.12
243.765	454.12
243.998	434.12
244.232	394.12
244.465	411.12
244.699	407.12
244.932	460.12
245.166	509.12
245.399	473.12
245.633	455.12
245.866	447.12
246.099	487.12
246.333	483.12
246.566	506.12
246.8	531.12
247.033	572.12
247.266	536.12
247.5	517.12
247.733	536.12
247.966	602.12
248.2	634.12
248.433	601.12
248.666	626.12
248.899	672.12
249.133	728.12
249.366	805.12
249.599	687.12
249.832	623.12
250.066	634.12
250.299	628.12
250.532	577.12
250.765	566.12
250.998	595.12
251.231	575.12
251.465	590.12
251.698	557.12
251.931	569.12
252.164	592.12
252.397	620.12
252.63	591.12
252.863	552.12
253.096	547.12
253.329	570.12
253.562	563.12
253.795	626.12
254.028	600.12
254.261	569.12
254.494	576.12
254.727	559.12
254.96	578.12
255.193	626.12
255.426	695.12
255.659	823.12
255.892	819.12
256.124	668.12
256.357	655.12
256.59	691.12
256.823	688.12
257.056	723.12
257.289	836.12
257.521	895.12
257.754	827.12
257.987	803.12
258.22	847.12
258.452	798.12
258.685	668.12
258.918	652.12
259.151	681.12
259.383	668.12
259.616	581.12
259.849	604.12
260.081	695.12
260.314	757.12
260.547	794.12
260.779	827.12
261.012	774.12
261.244	676.12
261.477	683.12
261.71	691.12
261.942	667.12
262.175	660.12
262.407	718.12
262.64	681.12
262.872	611.12
263.105	620.12
263.337	624.12
263.57	657.12
263.802	643.12
264.035	597.12
264.267	571.12
264.499	570.12
264.732	628.12
264.964	657.12
265.197	668.12
265.429	683.12
265.661	765.12
265.894	862.12
266.126	841.12
266.358	806.12
266.591	804.12
266.823	860.12
267.055	790.12
267.287	753.12
267.52	772.12
267.752	768.12
267.984	783.12
268.216	825.12
268.448	818.12
268.681	809.12
268.913	715.12
269.145	689.12
269.377	687.12
269.609	747.12
269.841	868.12
270.073	985.12
270.306	1094.12
270.538	1114.12
270.77	967.12
271.002	828.12
271.234	801.12
271.466	819.12
271.698	921.12
271.93	1075.12
272.162	1049.12
272.394	948.12
272.626	896.12
272.858	809.12
273.09	720.12
273.322	694.12
273.553	658.12
273.785	662.12
274.017	708.12
274.249	771.12
274.481	755.12
274.713	714.12
274.945	711.12
275.176	716.12
275.408	707.12
275.64	700.12
275.872	676.12
276.104	742.12
276.335	859.12
276.567	901.12
276.799	915.12
277.031	855.12
277.262	815.12
277.494	839.12
277.726	893.12
277.957	883.12
278.189	804.12
278.421	769.12
278.652	760.12
278.884	707.12
279.115	723.12
279.347	748.12
279.579	745.12
279.81	734.12
280.042	816.12
280.273	875.12
280.505	883.12
280.736	891.12
280.968	848.12
281.199	780.12
281.431	699.12
281.662	716.12
281.894	729.12
282.125	725.12
282.356	767.12
282.588	754.12
282.819	793.12
283.051	830.12
283.282	897.12
283.513	844.12
283.745	739.12
283.976	734.12
284.207	737.12
284.439	711.12
284.67	761.12
284.901	761.12
285.132	789.12
285.364	768.12
285.595	771.12
285.826	760.12
286.057	774.12
286.288	745.12
286.52	780.12
286.751	832.12
286.982	845.12
287.213	802.12
287.444	717.12
287.675	745.12
287.906	767.12
288.138	842.12
288.369	795.12
288.6	771.12
288.831	731.12
289.062	735.12
289.293	769.12
289.524	768.12
289.755	797.12
289.986	769.12
290.217	737.12
290.448	779.12
290.679	742.12
290.91	780.12
291.141	814.12
291.371	831.12
291.602	817.12
291.833	822.12
292.064	837.12
292.295	827.12
292.526	869.12
292.757	879.12
292.987	840.12
293.218	819.12
293.449	858.12
293.68	985.12
293.91	996.12
294.141	949.12
294.372	915.12
294.603	959.12
294.833	977.12
295.064	899.12
295.295	857.12
295.525	791.12
295.756	746.12
295.987	722.12
296.217	753.12
296.448	775.12
296.679	787.12
296.909	799.12
297.14	775.12
297.37	795.12
297.601	851.12
297.831	870.12
298.062	905.12
298.292	833.12
298.523	793.12
298.753	777.12
298.984	790.12
299.214	812.12
299.445	806.12
299.675	836.12
299.905	821.12
300.136	836.12
300.366	785.12
300.597	779.12
300.827	796.12
301.057	818.12
301.288	871.12
301.518	843.12
301.748	854.12
301.979	903.12
302.209	915.12
302.439	999.12
302.669	1011.12
302.9	919.12
303.13	857.12
303.36	845.12
303.59	851.12
303.82	865.12
304.051	833.12
304.281	891.12
304.511	883.12
304.741	936.12
304.971	1004.12
305.201	1078.12
305.431	979.12
305.661	811.12
305.891	757.12
306.121	771.12
306.352	808.12
306.582	868.12
306.812	889.12
307.042	938.12
307.272	977.12
307.502	1003.12
307.731	1031.12
307.961	1104.12
308.191	977.12
308.421	907.12
308.651	852.12
308.881	839.12
309.111	840.12
309.341	823.12
309.571	845.12
309.8	828.12
310.03	820.12
310.26	811.12
310.49	828.12
310.72	846.12
310.949	882.12
311.179	917.12
311.409	887.12
311.639	849.12
311.868	834.12
312.098	846.12
312.328	839.12
312.557	845.12
312.787	864.12
313.017	887.12
313.246	891.12
313.476	868.12
313.706	905.12
313.935	879.12
314.165	907.12
314.394	928.12
314.624	987.12
314.853	1042.12
315.083	1059.12
315.312	1052.12
315.542	983.12
315.771	906.12
316.001	933.12
316.23	965.12
316.46	947.12
316.689	915.12
316.919	866.12
317.148	879.12
317.377	881.12
317.607	931.12
317.836	1030.12
318.065	1052.12
318.295	1013.12
318.524	993.12
318.753	965.12
318.983	949.12
319.212	935.12
319.441	887.12
319.67	902.12
319.9	959.12
320.129	970.12
320.358	1028.12
320.587	1039.12
320.816	1010.12
321.046	1010.12
321.275	977.12
321.504	971.12
321.733	1061.12
321.962	997.12
322.191	957.12
322.42	937.12
322.649	898.12
322.878	933.12
323.108	916.12
323.337	966.12
323.566	955.12
323.795	944.12
324.024	936.12
324.253	949.12
324.482	961.12
324.71	914.12
324.939	881.12
325.168	891.12
325.397	927.12
325.626	961.12
325.855	958.12
326.084	925.12
326.313	931.12
326.542	923.12
326.77	974.12
326.999	958.12
327.228	940.12
327.457	899.12
327.686	881.12
327.914	924.12
328.143	960.12
328.372	928.12
328.6	939.12
328.829	936.12
329.058	909.12
329.287	925.12
329.515	959.12
329.744	963.12
329.972	1012.12
330.201	1042.12
330.43	1022.12
330.658	979.12
330.887	969.12
331.115	1000.12
331.344	991.12
331.572	1001.12
331.801	980.12
332.03	981.12
332.258	1002.12
332.486	992.12
332.715	1015.12
332.943	997.12
333.172	1011.12
333.4	1024.12
333.629	1038.12
333.857	1127.12
334.085	1227.12
334.314	1358.12
334.542	1402.12
334.771	1285.12
334.999	1145.12
335.227	1107.12
335.455	1041.12
335.684	1059.12
335.912	1084.12
336.14	1107.12
336.369	1053.12
336.597	1034.12
336.825	1029.12
337.053	1040.12
337.281	1114.12
337.51	1147.12
337.738	1169.12
337.966	1103.12
338.194	1040.12
338.422	1008.12
338.65	961.12
338.878	973.12
339.106	953.12
339.334	928.12
339.562	955.12
339.79	988.12
340.018	1060.12
340.246	1047.12
340.474	1043.12
340.702	1015.12
340.93	1042.12
341.158	1045.12
341.386	977.12
341.614	1006.12
341.842	977.12
342.07	1005.12
342.298	1014.12
342.526	978.12
342.754	991.12
342.981	979.12
343.209	967.12
343.437	978.12
343.665	1012.12
343.893	1035.12
344.12	1060.12
344.348	1057.12
344.576	989.12
344.804	992.12
345.031	989.12
345.259	973.12
345.487	940.12
345.714	928.12
345.942	947.12
346.17	929.12
346.397	931.12
346.625	910.12
346.853	888.12
347.08	872.12
347.308	895.12
347.535	915.12
347.763	973.12
347.99	908.12
348.218	891.12
348.445	936.12
348.673	934.12
348.9	981.12
349.128	981.12
349.355	1005.12
349.583	996.12
349.81	923.12
350.037	885.12
350.265	886.12
350.492	889.12
350.72	912.12
350.947	927.12
351.174	968.12
351.402	905.12
351.629	882.12
351.856	872.12
352.083	863.12
352.311	859.12
352.538	917.12
352.765	940.12
352.992	943.12
353.22	902.12
353.447	904.12
353.674	910.12
353.901	901.12
354.128	903.12
354.355	907.12
354.583	943.12
354.81	975.12
355.037	959.12
355.264	962.12
355.491	936.12
355.718	943.12
355.945	911.12
356.172	887.12
356.399	894.12
356.626	921.12
356.853	957.12
357.08	1041.12
357.307	1124.12
357.534	1080.12
357.761	965.12
357.988	889.12
358.215	863.12
358.441	901.12
358.668	896.12
358.895	914.12
359.122	969.12
359.349	1048.12
359.576	1013.12
359.802	949.12
360.029	887.12
360.256	908.12
360.483	915.12
360.709	952.12
360.936	970.12
361.163	1028.12
361.39	1091.12
361.616	1191.12
361.843	1130.12
362.07	1049.12
362.296	947.12
362.523	896.12
362.749	926.12
362.976	949.12
363.203	965.12
363.429	912.12
363.656	925.12
363.882	994.12
364.109	1093.12
364.335	1122.12
364.562	1014.12
364.788	970.12
365.015	945.12
365.241	923.12
365.468	954.12
365.694	973.12
365.92	999.12
366.147	943.12
366.373	895.12
366.599	909.12
366.826	934.12
367.052	896.12
367.278	943.12
367.505	971.12
367.731	965.12
367.957	969.12
368.184	1015.12
368.41	1065.12
368.636	1059.12
368.862	1088.12
369.089	1055.12
369.315	1021.12
369.541	982.12
369.767	956.12
369.993	941.12
370.219	928.12
370.445	1007.12
370.672	1039.12
370.898	1046.12
371.124	1037.12
371.35	1031.12
371.576	1030.12
371.802	1048.12
372.028	1011.12
372.254	966.12
372.48	942.12
372.706	943.12
372.932	947.12
373.158	949.12
373.384	972.12
373.61	994.12
373.835	1048.12
374.061	972.12
374.287	992.12
374.513	973.12
374.739	1023.12
374.965	1000.12
375.191	1023.12
375.416	1013.12
375.642	1023.12
375.868	1087.12
376.094	1107.12
376.319	1050.12
376.545	1000.12
376.771	1025.12
376.997	1114.12
377.222	1079.12
377.448	1048.12
377.674	1049.12
377.899	1047.12
378.125	1139.12
378.35	1075.12
378.576	995.12
378.802	981.12
379.027	977.12
379.253	976.12
379.478	983.12
379.704	1012.12
379.929	991.12
380.155	979.12
380.38	1034.12
380.606	1049.12
380.831	1064.12
381.057	1072.12
381.282	1062.12
381.507	1067.12
381.733	1142.12
381.958	1103.12
382.184	1075.12
382.409	1023.12
382.634	1041.12
382.86	1039.12
383.085	1003.12
383.31	1133.12
383.535	1175.12
383.761	1240.12
383.986	1175.12
384.211	1103.12
384.436	1102.12
384.662	1187.12
384.887	1181.12
385.112	1179.12
385.337	1125.12
385.562	1172.12
385.787	1147.12
386.013	1172.12
386.238	1165.12
386.463	1159.12
386.688	1242.12
386.913	1319.12
387.138	1253.12
387.363	1172.12
387.588	1195.12
387.813	1165.12
388.038	1176.12
388.263	1226.12
388.488	1135.12
388.713	1080.12
388.938	1083.12
389.163	1115.12
389.387	1130.12
389.612	1101.12
389.837	1175.12
390.062	1139.12
390.287	1171.12
390.512	1151.12
390.736	1104.12
390.961	1061.12
391.186	1078.12
391.411	1132.12
391.636	1105.12
391.86	1121.12
392.085	1149.12
392.31	1096.12
392.534	1161.12
392.759	1137.12
392.984	1129.12
393.208	1169.12
393.433	1165.12
393.658	1227.12
393.882	1242.12
394.107	1144.12
394.331	1136.12
394.556	1134.12
394.78	1162.12
395.005	1205.12
395.229	1250.12
395.454	1336.12
395.678	1288.12
395.903	1230.12
396.127	1206.12
396.352	1227.12
396.576	1279.12
396.801	1257.12
397.025	1212.12
397.249	1233.12
397.474	1246.12
397.698	1230.12
397.922	1273.12
398.147	1333.12
398.371	1379.12
398.595	1386.12
398.82	1317.12
399.044	1317.12
399.268	1367.12
399.492	1464.12
399.717	1480.12
399.941	1493.12
400.165	1473.12
400.389	1443.12
400.613	1460.12
400.837	1663.12
401.062	1822.12
401.286	1539.12
401.51	1439.12
401.734	1466.12
401.958	1425.12
402.182	1345.12
402.406	1277.12
402.63	1283.12
402.854	1308.12
403.078	1302.12
403.302	1347.12
403.526	1348.12
403.75	1345.12
403.974	1411.12
404.198	1341.12
404.422	1407.12
404.645	1472.12
404.869	1425.12
405.093	1351.12
405.317	1327.12
405.541	1346.12
405.765	1370.12
405.988	1380.12
406.212	1412.12
406.436	1458.12
406.66	1495.12
406.883	1521.12
407.107	1675.12
407.331	1830.12
407.555	1904.12
407.778	1705.12
408.002	1443.12
408.226	1385.12
408.449	1413.12
408.673	1362.12
408.896	1361.12
409.12	1407.12
409.344	1396.12
409.567	1352.12
409.791	1382.12
410.014	1416.12
410.238	1462.12
410.461	1546.12
410.685	1380.12
410.908	1346.12
411.132	1335.12
411.355	1339.12
411.578	1328.12
411.802	1384.12
412.025	1362.12
412.249	1333.12
412.472	1316.12
412.695	1294.12
412.919	1293.12
413.142	1319.12
413.365	1320.12
413.589	1373.12
413.812	1434.12
414.035	1458.12
414.258	1353.12
414.482	1315.12
414.705	1333.12
414.928	1295.12
415.151	1279.12
415.374	1320.12
415.597	1366.12
415.821	1356.12
416.044	1357.12
416.267	1381.12
416.49	1282.12
416.713	1267.12
416.936	1340.12
417.159	1398.12
417.382	1394.12
417.605	1337.12
417.828	1313.12
418.051	1330.12
418.274	1322.12
418.497	1260.12
418.72	1291.12
418.943	1277.12
419.166	1312.12
419.389	1403.12
419.611	1333.12
419.834	1280.12
420.057	1318.12
420.28	1275.12
420.503	1301.12
420.726	1333.12
420.948	1283.12
421.171	1270.12
421.394	1315.12
421.617	1360.12
421.839	1335.12
422.062	1367.12
422.285	1272.12
422.507	1298.12
422.73	1234.12
422.953	1235.12
423.175	1213.12
423.398	1289.12
423.621	1283.12
423.843	1292.12
424.066	1352.12
424.288	1381.12
424.511	1403.12
424.733	1373.12
424.956	1248.12
425.178	1223.12
425.401	1267.12
425.623	1292.12
425.846	1247.12
426.068	1333.12
426.291	1393.12
426.513	1337.12
426.735	1331.12
426.958	1448.12
427.18	1510.12
427.402	1375.12
427.625	1416.12
427.847	1397.12
428.069	1287.12
428.292	1276.12
428.514	1254.12
428.736	1250.12
428.958	1236.12
429.181	1276.12
429.403	1489.12
429.625	1761.12
429.847	1470.12
430.069	1307.12
430.292	1477.12
430.514	1466.12
430.736	1373.12
430.958	1414.12
431.18	1294.12
431.402	1230.12
431.624	1239.12
431.846	1177.12
432.068	1147.12
432.29	1138.12
432.512	1180.12
432.734	1264.12
432.956	1313.12
433.178	1330.12
433.4	1341.12
433.622	1306.12
433.844	1272.12
434.066	1215.12
434.287	1193.12
434.509	1203.12
434.731	1256.12
434.953	1341.12
435.175	1351.12
435.397	1312.12
435.618	1311.12
435.84	1229.12
436.062	1244.12
436.284	1266.12
436.505	1301.12
436.727	1315.12
436.949	1292.12
437.17	1249.12
437.392	1215.12
437.614	1231.12
437.835	1175.12
438.057	1213.12
438.278	1270.12
438.5	1187.12
438.721	1247.12
438.943	1241.12
439.165	1236.12
439.386	1236.12
439.608	1258.12
439.829	1266.12
440.05	1261.12
440.272	1261.12
440.493	1239.12
440.715	1272.12
440.936	1337.12
441.158	1453.12
441.379	1417.12
441.6	1370.12
441.822	1391.12
442.043	1361.12
442.264	1319.12
442.486	1258.12
442.707	1290.12
442.928	1268.12
443.149	1310.12
443.371	1359.12
443.592	1367.12
443.813	1403.12
444.034	1364.12
444.255	1328.12
444.476	1361.12
444.698	1430.12
444.919	1387.12
445.14	1505.12
445.361	1469.12
445.582	1473.12
445.803	1414.12
446.024	1393.12
446.245	1417.12
446.466	1407.12
446.687	1331.12
446.908	1345.12
447.129	1292.12
447.35	1343.12
447.571	1318.12
447.792	1249.12
448.013	1246.12
448.234	1288.12
448.455	1310.12
448.675	1294.12
448.896	1207.12
449.117	1232.12
449.338	1233.12
449.559	1274.12
449.779	1324.12
450	1400.12
450.221	1474.12
450.442	1438.12
450.662	1303.12
450.883	1164.12
451.104	1159.12
451.324	1188.12
451.545	1202.12
451.766	1199.12
451.986	1141.12
452.207	1114.12
452.428	1102.12
452.648	1078.12
452.869	1129.12
453.089	1136.12
453.31	1157.12
453.53	1149.12
453.751	1119.12
453.971	1077.12
454.192	1096.12
454.412	1164.12
454.633	1172.12
454.853	1135.12
455.073	1084.12
455.294	1071.12
455.514	1075.12
455.734	1085.12
455.955	1116.12
456.175	1094.12
456.395	1092.12
456.616	1109.12
456.836	1104.12
457.056	1083.12
457.276	1112.12
457.497	1063.12
457.717	1037.12
457.937	1041.12
458.157	1043.12
458.377	1072.12
458.598	1052.12
458.818	1070.12
459.038	1118.12
459.258	1151.12
459.478	1179.12
459.698	1108.12
459.918	1159.12
460.138	1248.12
460.358	1233.12
460.578	1225.12
460.798	1279.12
461.018	1371.12
461.238	1315.12
461.458	1278.12
461.678	1281.12
461.898	1254.12
462.118	1225.12
462.338	1250.12
462.558	1260.12
462.777	1269.12
462.997	1319.12
463.217	1372.12
463.437	1371.12
463.657	1287.12
463.876	1268.12
464.096	1236.12
464.316	1240.12
464.536	1312.12
464.755	1303.12
464.975	1319.12
465.195	1288.12
465.414	1316.12
465.634	1279.12
465.854	1291.12
466.073	1377.12
466.293	1341.12
466.512	1218.12
466.732	1189.12
466.951	1236.12
467.171	1229.12
467.391	1190.12
467.61	1183.12
467.829	1212.12
468.049	1327.12
468.268	1448.12
468.488	1337.12
468.707	1277.12
468.927	1272.12
469.146	1224.12
469.365	1217.12
469.585	1249.12
469.804	1222.12
470.023	1263.12
470.243	1250.12
470.462	1244.12
470.681	1239.12
470.901	1227.12
471.12	1228.12
471.339	1234.12
471.558	1209.12
471.777	1209.12
471.997	1233.12
472.216	1179.12
472.435	1098.12
472.654	1140.12
472.873	1205.12
473.092	1229.12
473.311	1181.12
473.53	1144.12
473.749	1130.12
473.968	1197.12
474.187	1235.12
474.406	1256.12
474.625	1217.12
474.844	1204.12
475.063	1224.12
475.282	1246.12
475.501	1201.12
475.72	1213.12
475.939	1284.12
476.158	1223.12
476.377	1214.12
476.596	1217.12
476.814	1211.12
477.033	1211.12
477.252	1272.12
477.471	1321.12
477.69	1281.12
477.908	1302.12
478.127	1343.12
478.346	1417.12
478.564	1456.12
478.783	1425.12
479.002	1446.12
479.22	1428.12
479.439	1499.12
479.658	1601.12
479.876	1546.12
480.095	1359.12
480.313	1313.12
480.532	1309.12
480.751	1335.12
480.969	1329.12
481.188	1280.12
481.406	1258.12
481.624	1225.12
481.843	1260.12
482.061	1295.12
482.28	1301.12
482.498	1305.12
482.717	1309.12
482.935	1300.12
483.153	1372.12
483.372	1371.12
483.59	1383.12
483.808	1341.12
484.027	1361.12
484.245	1441.12
484.463	1751.12
484.681	1913.12
484.9	1452.12
485.118	1373.12
485.336	1351.12
485.554	1394.12
485.772	1380.12
485.99	1368.12
486.209	1372.12
486.427	1356.12
486.645	1399.12
486.863	1443.12
487.081	1470.12
487.299	1443.12
487.517	1478.12
487.735	1491.12
487.953	1519.12
488.171	1501.12
488.389	1506.12
488.607	1431.12
488.825	1575.12
489.043	1542.12
489.261	1420.12
489.479	1463.12
489.696	1485.12
489.914	1487.12
490.132	1460.12
490.35	1461.12
490.568	1545.12
490.786	1497.12
491.003	1500.12
491.221	1523.12
491.439	1606.12
491.657	1594.12
491.874	1612.12
492.092	1676.12
492.31	1719.12
492.527	1679.12
492.745	1628.12
492.963	1583.12
493.18	1635.12
493.398	1696.12
493.615	1711.12
493.833	1645.12
494.05	1585.12
494.268	1583.12
494.485	1619.12
494.703	1552.12
494.92	1544.12
495.138	1569.12
495.355	1602.12
495.573	1661.12
495.79	1715.12
496.008	1663.12
496.225	1591.12
496.442	1605.12
496.66	1607.12
496.877	1567.12
497.094	1651.12
497.312	1670.12
497.529	1640.12
497.746	1657.12
497.963	1852.12
498.181	1983.12
498.398	1876.12
498.615	1843.12
498.832	1788.12
499.049	1799.12
499.267	1847.12
499.484	1945.12
499.701	2024.12
499.918	2064.12
500.135	2224.12
500.352	2319.12
500.569	2406.12
500.786	2529.12
501.003	2327.12
501.22	2151.12
501.437	2097.12
501.654	2120.12
501.871	1995.12
502.088	1769.12
502.305	1723.12
502.522	1701.12
502.739	1630.12
502.956	1607.12
503.172	1580.12
503.389	1506.12
503.606	1496.12
503.823	1503.12
504.04	1493.12
504.256	1522.12
504.473	1484.12
504.69	1554.12
504.907	1442.12
505.123	1424.12
505.34	1565.12
505.557	1988.12
505.773	1652.12
505.99	1377.12
506.207	1327.12
506.423	1328.12
506.64	1301.12
506.856	1332.12
507.073	1475.12
507.289	1581.12
507.506	1515.12
507.722	1263.12
507.939	1246.12
508.155	1239.12
508.372	1256.12
508.588	1227.12
508.805	1214.12
509.021	1190.12
509.238	1175.12
509.454	1173.12
509.67	1157.12
509.887	1151.12
510.103	1136.12
510.319	1139.12
510.536	1212.12
510.752	1267.12
510.968	1207.12
511.184	1273.12
511.401	1227.12
511.617	1121.12
511.833	1109.12
512.049	1127.12
512.265	1118.12
512.481	1093.12
512.698	1165.12
512.914	1203.12
513.13	1163.12
513.346	1140.12
513.562	1119.12
513.778	1146.12
513.994	1196.12
514.21	1216.12
514.426	1232.12
514.642	1335.12
514.858	1232.12
515.074	1166.12
515.29	1135.12
515.506	1175.12
515.721	1158.12
515.937	1193.12
516.153	1320.12
516.369	1221.12
516.585	1214.12
516.801	1172.12
517.016	1162.12
517.232	1195.12
517.448	1247.12
517.664	1223.12
517.879	1228.12
518.095	1276.12
518.311	1215.12
518.527	1183.12
518.742	1195.12
518.958	1131.12
519.173	1146.12
519.389	1164.12
519.605	1181.12
519.82	1206.12
520.036	1172.12
520.251	1149.12
520.467	1181.12
520.682	1267.12
520.898	1267.12
521.113	1158.12
521.329	1141.12
521.544	1173.12
521.76	1158.12
521.975	1105.12
522.19	1086.12
522.406	1118.12
522.621	1362.12
522.836	1311.12
523.052	1131.12
523.267	1092.12
523.482	1132.12
523.698	1076.12
523.913	1068.12
524.128	1092.12
524.343	1146.12
524.559	1157.12
524.774	1091.12
524.989	1093.12
525.204	1089.12
525.419	1045.12
525.634	1059.12
525.849	1080.12
526.064	1080.12
526.28	1048.12
526.495	1001.12
526.71	983.12
526.925	971.12
527.14	989.12
527.355	986.12
527.57	969.12
527.785	1010.12
527.999	983.12
528.214	992.12
528.429	978.12
528.644	1036.12
528.859	1054.12
529.074	1068.12
529.289	1119.12
529.503	1110.12
529.718	1075.12
529.933	1047.12
530.148	1012.12
530.363	1021.12
530.577	966.12
530.792	979.12
531.007	999.12
531.221	979.12
531.436	985.12
531.651	1039.12
531.865	1065.12
532.08	986.12
532.295	962.12
532.509	972.12
532.724	962.12
532.938	998.12
533.153	1084.12
533.367	1030.12
533.582	1053.12
533.796	1042.12
534.011	980.12
534.225	1033.12
534.44	1004.12
534.654	962.12
534.868	978.12
535.083	1018.12
535.297	1079.12
535.511	984.12
535.726	995.12
535.94	999.12
536.154	985.12
536.369	957.12
536.583	935.12
536.797	919.12
537.011	928.12
537.225	934.12
537.44	917.12
537.654	978.12
537.868	953.12
538.082	903.12
538.296	899.12
538.51	933.12
538.724	960.12
538.938	974.12
539.153	991.12
539.367	1016.12
539.581	989.12
539.795	999.12
540.009	953.12
540.222	972.12
540.436	967.12
540.65	1075.12
540.864	1075.12
541.078	1066.12
541.292	1057.12
541.506	1090.12
541.72	1126.12
541.934	1152.12
542.147	1219.12
542.361	1099.12
542.575	1059.12
542.789	995.12
543.002	958.12
543.216	983.12
543.43	1030.12
543.644	1061.12
543.857	1131.12
544.071	1105.12
544.285	1108.12
544.498	1080.12
544.712	1118.12
544.925	1133.12
545.139	1119.12
545.352	1060.12
545.566	1061.12
545.779	1074.12
545.993	1085.12
546.206	1091.12
546.42	1077.12
546.633	1062.12
546.847	1083.12
547.06	1048.12
547.274	1053.12
547.487	1101.12
547.7	1076.12
547.914	1105.12
548.127	1109.12
548.34	1114.12
548.554	1084.12
548.767	1043.12
548.98	1071.12
549.193	1068.12
549.407	1097.12
549.62	1119.12
549.833	1057.12
550.046	1013.12
550.259	1024.12
550.473	1050.12
550.686	1040.12
550.899	993.12
551.112	969.12
551.325	1012.12
551.538	1035.12
551.751	1153.12
551.964	954.12
552.177	916.12
552.39	957.12
552.603	1019.12
552.816	1026.12
553.029	1063.12
553.242	1089.12
553.455	1060.12
553.667	1017.12
553.88	1023.12
554.093	1004.12
554.306	976.12
554.519	970.12
554.732	956.12
554.944	947.12
555.157	1002.12
555.37	960.12
555.583	954.12
555.795	943.12
556.008	912.12
556.221	872.12
556.433	863.12
556.646	875.12
556.859	861.12
557.071	860.12
557.284	858.12
557.496	859.12
557.709	874.12
557.921	859.12
558.134	867.12
558.346	875.12
558.559	867.12
558.771	855.12
558.984	825.12
559.196	791.12
559.409	788.12
559.621	823.12
559.833	829.12
560.046	867.12
560.258	835.12
560.47	831.12
560.683	825.12
560.895	809.12
561.107	837.12
561.32	829.12
561.532	846.12
561.744	823.12
561.956	833.12
562.168	795.12
562.381	799.12
562.593	758.12
562.805	791.12
563.017	784.12
563.229	809.12
563.441	822.12
563.653	820.12
563.865	773.12
564.077	803.12
564.289	772.12
564.501	768.12
564.713	819.12
564.925	841.12
565.137	889.12
565.349	810.12
565.561	805.12
565.773	791.12
565.985	819.12
566.197	870.12
566.408	895.12
566.62	915.12
566.832	933.12
567.044	913.12
567.255	891.12
567.467	907.12
567.679	929.12
567.891	962.12
568.102	899.12
568.314	837.12
568.526	802.12
568.737	757.12
568.949	720.12
569.161	714.12
569.372	701.12
569.584	669.12
569.795	665.12
570.007	699.12
570.218	671.12
570.43	645.12
570.641	661.12
570.853	667.12
571.064	681.12
571.276	675.12
571.487	636.12
571.698	656.12
571.91	639.12
572.121	635.12
572.333	601.12
572.544	604.12
572.755	602.12
572.966	568.12
573.178	597.12
573.389	612.12
573.6	590.12
573.811	643.12
574.023	592.12
574.234	563.12
574.445	567.12
574.656	577.12
574.867	577.12
575.078	568.12
575.289	573.12
575.501	595.12
575.712	579.12
575.923	565.12
576.134	574.12
576.345	555.12
576.556	529.12
576.767	522.12
576.978	551.12
577.188	536.12
577.399	530.12
577.61	507.12
577.821	506.12
578.032	508.12
578.243	513.12
578.454	503.12
578.665	496.12
578.875	498.12
579.086	487.12
579.297	505.12
579.508	529.12
579.718	520.12
579.929	496.12
580.14	479.12
580.35	477.12
580.561	484.12
580.772	554.12
580.982	520.12
581.193	500.12
581.403	484.12
581.614	486.12
581.825	490.12
582.035	466.12
582.246	484.12
582.456	519.12
582.667	495.12
582.877	469.12
583.087	467.12
583.298	464.12
583.508	481.12
583.719	480.12
583.929	459.12
584.139	487.12
584.35	470.12
584.56	452.12
584.77	467.12
584.981	463.12
585.191	463.12
585.401	483.12
585.611	487.12
585.821	482.12
586.032	441.12
586.242	456.12
586.452	438.12
586.662	480.12
586.872	458.12
587.082	443.12
587.292	477.12
587.502	472.12
587.713	451.12
587.923	447.12
588.133	454.12
588.343	464.12
588.553	441.12
588.762	434.12
588.972	457.12
589.182	471.12
589.392	452.12
589.602	460.12
589.812	437.12
590.022	438.12
590.232	434.12
590.441	448.12
590.651	451.12
590.861	435.12
591.071	432.12
591.281	446.12
591.49	428.12
591.7	434.12
591.91	432.12
592.119	441.12
592.329	451.12
592.539	463.12
592.748	456.12
592.958	473.12
593.167	452.12
593.377	457.12
593.587	481.12
593.796	465.12
594.006	475.12
594.215	460.12
594.424	485.12
594.634	475.12
594.843	473.12
595.053	466.12
595.262	454.12
595.472	429.12
595.681	461.12
595.89	421.12
596.1	439.12
596.309	438.12
596.518	446.12
596.727	426.12
596.937	425.12
597.146	411.12
597.355	428.12
597.564	425.12
597.774	403.12
597.983	384.12
598.192	395.12
598.401	397.12
598.61	400.12
598.819	400.12
599.028	397.12
599.237	412.12
599.446	403.12
599.655	380.12
599.864	365.12
600.073	363.12
600.282	375.12
600.491	397.12
600.7	387.12
600.909	392.12
601.118	398.12
601.327	393.12
601.536	421.12
601.745	410.12
601.953	400.12
602.162	415.12
602.371	413.12
602.58	403.12
602.789	391.12
602.997	397.12
603.206	411.12
603.415	423.12
603.623	405.12
603.832	396.12
604.041	399.12
604.249	371.12
604.458	370.12
604.666	397.12
604.875	382.12
605.084	387.12
605.292	413.12
605.501	399.12
605.709	412.12
605.918	422.12
606.126	405.12
606.334	406.12
606.543	409.12
606.751	419.12
606.96	377.12
607.168	406.12
607.376	378.12
607.585	387.12
607.793	420.12
608.001	408.12
608.21	402.12
608.418	405.12
608.626	405.12
608.834	397.12
609.043	430.12
609.251	395.12
609.459	385.12
609.667	406.12
609.875	419.12
610.083	395.12
610.291	412.12
610.499	395.12
610.707	396.12
610.916	402.12
611.124	412.12
611.332	393.12
611.54	395.12
611.748	406.12
611.955	390.12
612.163	378.12
612.371	408.12
612.579	403.12
612.787	393.12
612.995	395.12
613.203	391.12
613.411	391.12
613.618	384.12
613.826	400.12
614.034	396.12
614.242	401.12
614.449	404.12
614.657	412.12
614.865	387.12
615.072	409.12
615.28	383.12
615.488	395.12
615.695	402.12
615.903	394.12
616.111	401.12
616.318	390.12
616.526	382.12
616.733	398.12
616.941	386.12
617.148	378.12
617.356	395.12
617.563	374.12
617.771	367.12
617.978	348.12
618.185	376.12
618.393	374.12
618.6	387.12
618.807	367.12
619.015	378.12
619.222	357.12
619.429	358.12
619.637	363.12
619.844	354.12
620.051	354.12
620.258	357.12
620.466	367.12
620.673	377.12
620.88	374.12
621.087	339.12
621.294	364.12
621.501	353.12
621.708	353.12
621.915	347.12
622.122	330.12
622.329	361.12
622.536	344.12
622.743	354.12
622.95	353.12
623.157	344.12
623.364	335.12
623.571	354.12
623.778	333.12
623.985	343.12
624.192	357.12
624.399	340.12
624.606	330.12
624.812	330.12
625.019	329.12
625.226	338.12
625.433	340.12
625.639	333.12
625.846	315.12
626.053	297.12
626.259	311.12
626.466	299.12
626.673	286.12
626.879	285.12
627.086	292.12
627.293	307.12
627.499	325.12
627.706	335.12
627.912	321.12
628.119	323.12
628.325	329.12
628.532	327.12
628.738	324.12
628.945	337.12
629.151	316.12
629.357	308.12
629.564	322.12
629.77	305.12
629.976	310.12
630.183	298.12
630.389	300.12
630.595	323.12
630.802	279.12
631.008	303.12
631.214	300.12
631.42	277.12
631.627	306.12
631.833	306.12
632.039	293.12
632.245	307.12
632.451	291.12
632.657	309.12
632.863	297.12
633.069	303.12
633.275	303.12
633.481	291.12
633.688	259.12
633.893	281.12
634.099	288.12
634.305	273.12
634.511	273.12
634.717	288.12
634.923	270.12
635.129	260.12
635.335	261.12
635.541	284.12
635.747	287.12
635.952	279.12
636.158	279.12
636.364	270.12
636.57	275.12
636.775	284.12
636.981	272.12
637.187	266.12
637.392	273.12
637.598	279.12
637.804	273.12
638.009	283.12
638.215	284.12
638.421	268.12
638.626	274.12
638.832	270.12
639.037	267.12
639.243	262.12
639.448	259.12
639.654	284.12
639.859	264.12
640.065	274.12
640.27	285.12
640.475	274.12
640.681	259.12
640.886	267.12
641.091	285.12
641.297	267.12
641.502	261.12
641.707	250.12
641.913	245.12
642.118	267.12
642.323	276.12
642.528	267.12
642.733	265.12
642.939	268.12
643.144	260.12
643.349	266.12
643.554	265.12
643.759	273.12
643.964	254.12
644.169	262.12
644.374	248.12
644.579	266.12
644.784	249.12
644.989	254.12
645.194	265.12
645.399	229.12
645.604	250.12
645.809	235.12
646.014	257.12
646.219	275.12
646.423	274.12
646.628	272.12
646.833	269.12
647.038	266.12
647.243	258.12
647.447	273.12
647.652	263.12
647.857	261.12
648.062	259.12
648.266	266.12
648.471	263.12
648.676	284.12
648.88	250.12
649.085	252.12
649.289	252.12
649.494	269.12
649.698	245.12
649.903	256.12
650.107	252.12
650.312	251.12
650.516	270.12
650.721	273.12
650.925	235.12
651.13	249.12
651.334	245.12
651.539	224.12
651.743	236.12
651.947	225.12
652.152	229.12
652.356	228.12
652.56	214.12
652.764	214.12
652.969	216.12
653.173	210.12
653.377	231.12
653.581	213.12
653.785	230.12
653.99	209.12
654.194	234.12
654.398	228.12
654.602	208.12
654.806	218.12
655.01	211.12
655.214	223.12
655.418	225.12
655.622	220.12
655.826	220.12
656.03	241.12
656.234	245.12
656.438	268.12
656.642	273.12
656.846	259.12
657.049	245.12
657.253	212.12
657.457	207.12
657.661	195.12
657.865	178.12
658.068	177.12
658.272	163.12
658.476	156.12
658.68	162.12
658.883	157.12
659.087	153.12
659.291	136.12
659.494	156.12
659.698	137.12
659.901	128.12
660.105	132.12
660.309	132.12
660.512	137.12
660.716	125.12
660.919	121.12
661.123	109.12
661.326	112.12
661.53	108.12
661.733	96.12
661.936	117.12
662.14	117.12
662.343	114.12
662.546	104.12
662.75	102.12
662.953	80.12
663.156	86.12
663.36	94.12
663.563	92.12
663.766	109.12
663.969	98.12
664.173	86.12
664.376	89.12
664.579	101.12
664.782	71.12
664.985	59.12
665.188	100.12
665.391	91.12
665.594	92.12
665.797	92.12
666	80.12
666.203	86.12
666.406	78.12
666.609	71.12
666.812	59.12
667.015	79.12
667.218	78.12
667.421	86.12
667.624	88.12
667.827	103.12
668.03	82.12
668.232	79.12
668.435	77.12
668.638	71.12
668.841	83.12
669.043	106.12
669.246	95.12
669.449	92.12
669.651	72.12
669.854	91.12
670.057	90.12
670.259	74.12
670.462	77.12
670.665	81.12
670.867	88.12
671.07	77.12
671.272	77.12
671.475	79.12
671.677	87.12
671.88	78.12
672.082	82.12
672.284	92.12
672.487	83.12
672.689	74.12
672.892	77.12
