Data from WStandard_LampEnergy8_LIBS07252019.E.O._I.C._HRD10591_15-58-00-929.txt Node
Date: Thu Jul 25 15:58:00 EDT 2019
User: cochatt
Spectrometer: HR+D1059
Trigger mode: 1
Integration Time (sec): 1.000000E-1
Scans to average: 1
Electric dark correction enabled: true
Nonlinearity correction enabled: false
Boxcar width: 0
XAxis mode: Wavelengths
Number of Pixels in Spectrum: 2048
>>>>>Begin Spectral Data<<<<<
223.165	-13.31
223.4	-13.31
223.635	-13.31
223.869	-30.31
224.104	-12.31
224.338	-14.31
224.573	-15.31
224.808	-15.31
225.042	-8.31
225.277	-8.31
225.511	6.69
225.746	1.69
225.98	-1.31
226.215	13.69
226.449	27.69
226.683	21.69
226.918	20.69
227.152	26.69
227.387	49.69
227.621	34.69
227.856	32.69
228.09	49.69
228.324	42.69
228.559	47.69
228.793	98.69
229.027	203.69
229.262	220.69
229.496	233.69
229.73	229.69
229.964	246.69
230.199	269.69
230.433	281.69
230.667	297.69
230.901	294.69
231.136	282.69
231.37	265.69
231.604	287.69
231.838	294.69
232.072	283.69
232.306	261.69
232.541	291.69
232.775	301.69
233.009	344.69
233.243	314.69
233.477	293.69
233.711	295.69
233.945	311.69
234.179	325.69
234.413	333.69
234.647	361.69
234.881	359.69
235.115	310.69
235.349	308.69
235.583	316.69
235.817	320.69
236.051	330.69
236.285	324.69
236.519	336.69
236.753	364.69
236.987	371.69
237.221	351.69
237.455	395.69
237.689	385.69
237.922	350.69
238.156	360.69
238.39	388.69
238.624	395.69
238.858	399.69
239.091	415.69
239.325	438.69
239.559	483.69
239.793	503.69
240.027	517.69
240.26	503.69
240.494	409.69
240.728	364.69
240.961	409.69
241.195	406.69
241.429	428.69
241.662	421.69
241.896	416.69
242.13	439.69
242.363	455.69
242.597	455.69
242.83	466.69
243.064	482.69
243.298	514.69
243.531	485.69
243.765	484.69
243.998	467.69
244.232	424.69
244.465	392.69
244.699	431.69
244.932	484.69
245.166	511.69
245.399	508.69
245.633	465.69
245.866	469.69
246.099	477.69
246.333	488.69
246.566	539.69
246.8	529.69
247.033	613.69
247.266	564.69
247.5	558.69
247.733	560.69
247.966	577.69
248.2	639.69
248.433	627.69
248.666	642.69
248.899	703.69
249.133	796.69
249.366	831.69
249.599	690.69
249.832	626.69
250.066	671.69
250.299	653.69
250.532	628.69
250.765	564.69
250.998	608.69
251.231	613.69
251.465	636.69
251.698	581.69
251.931	617.69
252.164	628.69
252.397	635.69
252.63	641.69
252.863	584.69
253.096	578.69
253.329	586.69
253.562	593.69
253.795	637.69
254.028	660.69
254.261	592.69
254.494	569.69
254.727	564.69
254.96	604.69
255.193	653.69
255.426	728.69
255.659	805.69
255.892	817.69
256.124	718.69
256.357	672.69
256.59	706.69
256.823	721.69
257.056	712.69
257.289	851.69
257.521	940.69
257.754	833.69
257.987	823.69
258.22	882.69
258.452	843.69
258.685	707.69
258.918	709.69
259.151	705.69
259.383	647.69
259.616	593.69
259.849	647.69
260.081	713.69
260.314	828.69
260.547	867.69
260.779	832.69
261.012	795.69
261.244	691.69
261.477	707.69
261.71	747.69
261.942	733.69
262.175	689.69
262.407	741.69
262.64	703.69
262.872	658.69
263.105	661.69
263.337	666.69
263.57	636.69
263.802	672.69
264.035	625.69
264.267	608.69
264.499	590.69
264.732	630.69
264.964	654.69
265.197	696.69
265.429	739.69
265.661	821.69
265.894	915.69
266.126	911.69
266.358	818.69
266.591	831.69
266.823	886.69
267.055	824.69
267.287	803.69
267.52	802.69
267.752	796.69
267.984	797.69
268.216	819.69
268.448	830.69
268.681	811.69
268.913	745.69
269.145	731.69
269.377	731.69
269.609	813.69
269.841	921.69
270.073	1032.69
270.306	1155.69
270.538	1169.69
270.77	1025.69
271.002	872.69
271.234	837.69
271.466	850.69
271.698	941.69
271.93	1100.69
272.162	1101.69
272.394	982.69
272.626	948.69
272.858	840.69
273.09	730.69
273.322	719.69
273.553	693.69
273.785	708.69
274.017	723.69
274.249	759.69
274.481	803.69
274.713	721.69
274.945	730.69
275.176	715.69
275.408	727.69
275.64	698.69
275.872	720.69
276.104	761.69
276.335	886.69
276.567	956.69
276.799	947.69
277.031	839.69
277.262	843.69
277.494	868.69
277.726	925.69
277.957	923.69
278.189	841.69
278.421	795.69
278.652	731.69
278.884	753.69
279.115	774.69
279.347	766.69
279.579	755.69
279.81	748.69
280.042	808.69
280.273	919.69
280.505	883.69
280.736	909.69
280.968	868.69
281.199	791.69
281.431	761.69
281.662	723.69
281.894	754.69
282.125	760.69
282.356	807.69
282.588	812.69
282.819	787.69
283.051	852.69
283.282	920.69
283.513	849.69
283.745	782.69
283.976	725.69
284.207	741.69
284.439	765.69
284.67	768.69
284.901	789.69
285.132	804.69
285.364	792.69
285.595	816.69
285.826	791.69
286.057	775.69
286.288	777.69
286.52	811.69
286.751	852.69
286.982	873.69
287.213	823.69
287.444	773.69
287.675	764.69
287.906	809.69
288.138	829.69
288.369	848.69
288.6	792.69
288.831	779.69
289.062	760.69
289.293	775.69
289.524	772.69
289.755	798.69
289.986	807.69
290.217	739.69
290.448	762.69
290.679	808.69
290.91	813.69
291.141	809.69
291.371	857.69
291.602	823.69
291.833	850.69
292.064	857.69
292.295	843.69
292.526	841.69
292.757	907.69
292.987	855.69
293.218	842.69
293.449	900.69
293.68	987.69
293.91	1071.69
294.141	976.69
294.372	922.69
294.603	965.69
294.833	1000.69
295.064	943.69
295.295	849.69
295.525	831.69
295.756	770.69
295.987	757.69
296.217	779.69
296.448	785.69
296.679	801.69
296.909	794.69
297.14	779.69
297.37	795.69
297.601	896.69
297.831	911.69
298.062	897.69
298.292	841.69
298.523	796.69
298.753	810.69
298.984	836.69
299.214	825.69
299.445	817.69
299.675	864.69
299.905	828.69
300.136	836.69
300.366	829.69
300.597	786.69
300.827	809.69
301.057	836.69
301.288	847.69
301.518	884.69
301.748	891.69
301.979	929.69
302.209	952.69
302.439	987.69
302.669	1045.69
302.9	969.69
303.13	886.69
303.36	868.69
303.59	885.69
303.82	883.69
304.051	872.69
304.281	909.69
304.511	923.69
304.741	996.69
304.971	1066.69
305.201	1107.69
305.431	1007.69
305.661	829.69
305.891	795.69
306.121	783.69
306.352	841.69
306.582	871.69
306.812	907.69
307.042	963.69
307.272	960.69
307.502	1065.69
307.731	1108.69
307.961	1117.69
308.191	1038.69
308.421	901.69
308.651	870.69
308.881	856.69
309.111	839.69
309.341	850.69
309.571	845.69
309.8	834.69
310.03	859.69
310.26	850.69
310.49	810.69
310.72	874.69
310.949	905.69
311.179	907.69
311.409	901.69
311.639	884.69
311.868	848.69
312.098	877.69
312.328	883.69
312.557	867.69
312.787	901.69
313.017	889.69
313.246	914.69
313.476	890.69
313.706	890.69
313.935	887.69
314.165	928.69
314.394	925.69
314.624	1017.69
314.853	1073.69
315.083	1099.69
315.312	1080.69
315.542	1019.69
315.771	918.69
316.001	927.69
316.23	995.69
316.46	946.69
316.689	938.69
316.919	871.69
317.148	857.69
317.377	927.69
317.607	988.69
317.836	1121.69
318.065	1128.69
318.295	1074.69
318.524	1006.69
318.753	962.69
318.983	984.69
319.212	935.69
319.441	924.69
319.67	934.69
319.9	967.69
320.129	1047.69
320.358	1086.69
320.587	1095.69
320.816	1035.69
321.046	1051.69
321.275	976.69
321.504	1024.69
321.733	1089.69
321.962	1007.69
322.191	972.69
322.42	945.69
322.649	941.69
322.878	925.69
323.108	952.69
323.337	993.69
323.566	978.69
323.795	954.69
324.024	978.69
324.253	957.69
324.482	960.69
324.71	925.69
324.939	879.69
325.168	907.69
325.397	963.69
325.626	978.69
325.855	990.69
326.084	931.69
326.313	949.69
326.542	993.69
326.77	1025.69
326.999	1001.69
327.228	947.69
327.457	894.69
327.686	903.69
327.914	921.69
328.143	928.69
328.372	956.69
328.6	945.69
328.829	948.69
329.058	927.69
329.287	917.69
329.515	989.69
329.744	972.69
329.972	1021.69
330.201	1044.69
330.43	1026.69
330.658	1002.69
330.887	1036.69
331.115	1020.69
331.344	1004.69
331.572	1009.69
331.801	991.69
332.03	994.69
332.258	1016.69
332.486	1027.69
332.715	1026.69
332.943	1038.69
333.172	1024.69
333.4	1028.69
333.629	1037.69
333.857	1135.69
334.085	1243.69
334.314	1410.69
334.542	1481.69
334.771	1298.69
334.999	1169.69
335.227	1093.69
335.455	1059.69
335.684	1123.69
335.912	1125.69
336.14	1155.69
336.369	1063.69
336.597	1013.69
336.825	1025.69
337.053	1084.69
337.281	1140.69
337.51	1175.69
337.738	1211.69
337.966	1111.69
338.194	1054.69
338.422	1013.69
338.65	999.69
338.878	1019.69
339.106	952.69
339.334	968.69
339.562	941.69
339.79	961.69
340.018	1029.69
340.246	1040.69
340.474	1059.69
340.702	1035.69
340.93	1068.69
341.158	1008.69
341.386	983.69
341.614	1013.69
341.842	1007.69
342.07	1035.69
342.298	995.69
342.526	1018.69
342.754	987.69
342.981	979.69
343.209	990.69
343.437	989.69
343.665	1023.69
343.893	1051.69
344.12	1068.69
344.348	1057.69
344.576	1064.69
344.804	997.69
345.031	994.69
345.259	1008.69
345.487	976.69
345.714	910.69
345.942	914.69
346.17	960.69
346.397	982.69
346.625	948.69
346.853	904.69
347.08	902.69
347.308	928.69
347.535	971.69
347.763	933.69
347.99	936.69
348.218	935.69
348.445	934.69
348.673	937.69
348.9	954.69
349.128	996.69
349.355	1043.69
349.583	993.69
349.81	918.69
350.037	883.69
350.265	856.69
350.492	909.69
350.72	921.69
350.947	962.69
351.174	972.69
351.402	928.69
351.629	894.69
351.856	846.69
352.083	857.69
352.311	876.69
352.538	896.69
352.765	954.69
352.992	972.69
353.22	933.69
353.447	890.69
353.674	947.69
353.901	923.69
354.128	893.69
354.355	929.69
354.583	959.69
354.81	988.69
355.037	975.69
355.264	996.69
355.491	938.69
355.718	963.69
355.945	931.69
356.172	920.69
356.399	891.69
356.626	913.69
356.853	971.69
357.08	1045.69
357.307	1167.69
357.534	1115.69
357.761	953.69
357.988	903.69
358.215	882.69
358.441	879.69
358.668	904.69
358.895	925.69
359.122	1019.69
359.349	1074.69
359.576	1056.69
359.802	911.69
360.029	871.69
360.256	882.69
360.483	909.69
360.709	960.69
360.936	1019.69
361.163	1043.69
361.39	1142.69
361.616	1207.69
361.843	1180.69
362.07	1071.69
362.296	948.69
362.523	941.69
362.749	942.69
362.976	979.69
363.203	960.69
363.429	935.69
363.656	900.69
363.882	1002.69
364.109	1081.69
364.335	1131.69
364.562	1033.69
364.788	985.69
365.015	971.69
365.241	924.69
365.468	972.69
365.694	981.69
365.92	1003.69
366.147	963.69
366.373	930.69
366.599	907.69
366.826	902.69
367.052	915.69
367.278	935.69
367.505	937.69
367.731	987.69
367.957	996.69
368.184	1025.69
368.41	1075.69
368.636	1080.69
368.862	1081.69
369.089	1067.69
369.315	1016.69
369.541	988.69
369.767	924.69
369.993	949.69
370.219	939.69
370.445	984.69
370.672	1027.69
370.898	1113.69
371.124	1058.69
371.35	999.69
371.576	1050.69
371.802	1065.69
372.028	1015.69
372.254	989.69
372.48	939.69
372.706	947.69
372.932	938.69
373.158	976.69
373.384	994.69
373.61	1028.69
373.835	1068.69
374.061	1005.69
374.287	977.69
374.513	1000.69
374.739	992.69
374.965	1012.69
375.191	1036.69
375.416	1027.69
375.642	1013.69
375.868	1120.69
376.094	1147.69
376.319	1053.69
376.545	1005.69
376.771	1059.69
376.997	1118.69
377.222	1080.69
377.448	1043.69
377.674	1049.69
377.899	1037.69
378.125	1118.69
378.35	1104.69
378.576	1005.69
378.802	961.69
379.027	973.69
379.253	1009.69
379.478	1024.69
379.704	982.69
379.929	999.69
380.155	981.69
380.38	1033.69
380.606	1009.69
380.831	1011.69
381.057	1088.69
381.282	1083.69
381.507	1053.69
381.733	1150.69
381.958	1172.69
382.184	1101.69
382.409	1049.69
382.634	1052.69
382.86	1030.69
383.085	1056.69
383.31	1102.69
383.535	1164.69
383.761	1237.69
383.986	1202.69
384.211	1138.69
384.436	1131.69
384.662	1201.69
384.887	1244.69
385.112	1162.69
385.337	1178.69
385.562	1136.69
385.787	1146.69
386.013	1183.69
386.238	1201.69
386.463	1159.69
386.688	1283.69
386.913	1338.69
387.138	1293.69
387.363	1194.69
387.588	1193.69
387.813	1192.69
388.038	1207.69
388.263	1240.69
388.488	1192.69
388.713	1093.69
388.938	1107.69
389.163	1087.69
389.387	1135.69
389.612	1129.69
389.837	1173.69
390.062	1177.69
390.287	1160.69
390.512	1139.69
390.736	1135.69
390.961	1102.69
391.186	1102.69
391.411	1129.69
391.636	1124.69
391.86	1127.69
392.085	1133.69
392.31	1132.69
392.534	1150.69
392.759	1170.69
392.984	1134.69
393.208	1130.69
393.433	1211.69
393.658	1231.69
393.882	1244.69
394.107	1175.69
394.331	1159.69
394.556	1162.69
394.78	1171.69
395.005	1216.69
395.229	1266.69
395.454	1326.69
395.678	1300.69
395.903	1250.69
396.127	1193.69
396.352	1227.69
396.576	1255.69
396.801	1240.69
397.025	1263.69
397.249	1239.69
397.474	1233.69
397.698	1192.69
397.922	1276.69
398.147	1347.69
398.371	1411.69
398.595	1351.69
398.82	1333.69
399.044	1335.69
399.268	1368.69
399.492	1475.69
399.717	1495.69
399.941	1507.69
400.165	1492.69
400.389	1446.69
400.613	1463.69
400.837	1680.69
401.062	1847.69
401.286	1611.69
401.51	1441.69
401.734	1494.69
401.958	1439.69
402.182	1345.69
402.406	1298.69
402.63	1283.69
402.854	1293.69
403.078	1296.69
403.302	1335.69
403.526	1377.69
403.75	1363.69
403.974	1397.69
404.198	1388.69
404.422	1433.69
404.645	1503.69
404.869	1457.69
405.093	1323.69
405.317	1324.69
405.541	1361.69
405.765	1375.69
405.988	1378.69
406.212	1372.69
406.436	1416.69
406.66	1478.69
406.883	1523.69
407.107	1710.69
407.331	1814.69
407.555	1935.69
407.778	1700.69
408.002	1453.69
408.226	1439.69
408.449	1446.69
408.673	1408.69
408.896	1369.69
409.12	1426.69
409.344	1360.69
409.567	1335.69
409.791	1367.69
410.014	1413.69
410.238	1473.69
410.461	1590.69
410.685	1401.69
410.908	1340.69
411.132	1384.69
411.355	1364.69
411.578	1312.69
411.802	1356.69
412.025	1381.69
412.249	1307.69
412.472	1273.69
412.695	1328.69
412.919	1324.69
413.142	1319.69
413.365	1343.69
413.589	1382.69
413.812	1451.69
414.035	1481.69
414.258	1337.69
414.482	1322.69
414.705	1336.69
414.928	1332.69
415.151	1331.69
415.374	1345.69
415.597	1359.69
415.821	1341.69
416.044	1386.69
416.267	1332.69
416.49	1261.69
416.713	1266.69
416.936	1367.69
417.159	1403.69
417.382	1432.69
417.605	1314.69
417.828	1365.69
418.051	1382.69
418.274	1339.69
418.497	1259.69
418.72	1308.69
418.943	1298.69
419.166	1329.69
419.389	1363.69
419.611	1331.69
419.834	1319.69
420.057	1311.69
420.28	1282.69
420.503	1295.69
420.726	1350.69
420.948	1311.69
421.171	1254.69
421.394	1280.69
421.617	1328.69
421.839	1348.69
422.062	1347.69
422.285	1293.69
422.507	1270.69
422.73	1250.69
422.953	1249.69
423.175	1239.69
423.398	1286.69
423.621	1282.69
423.843	1279.69
424.066	1332.69
424.288	1388.69
424.511	1421.69
424.733	1384.69
424.956	1270.69
425.178	1248.69
425.401	1259.69
425.623	1307.69
425.846	1292.69
426.068	1381.69
426.291	1362.69
426.513	1361.69
426.735	1352.69
426.958	1489.69
427.18	1494.69
427.402	1387.69
427.625	1436.69
427.847	1391.69
428.069	1294.69
428.292	1266.69
428.514	1234.69
428.736	1243.69
428.958	1257.69
429.181	1272.69
429.403	1503.69
429.625	1835.69
429.847	1510.69
430.069	1305.69
430.292	1467.69
430.514	1461.69
430.736	1354.69
430.958	1373.69
431.18	1340.69
431.402	1227.69
431.624	1218.69
431.846	1183.69
432.068	1150.69
432.29	1174.69
432.512	1207.69
432.734	1270.69
432.956	1303.69
433.178	1337.69
433.4	1334.69
433.622	1339.69
433.844	1272.69
434.066	1202.69
434.287	1199.69
434.509	1235.69
434.731	1297.69
434.953	1405.69
435.175	1345.69
435.397	1315.69
435.618	1276.69
435.84	1268.69
436.062	1259.69
436.284	1273.69
436.505	1315.69
436.727	1316.69
436.949	1306.69
437.17	1272.69
437.392	1257.69
437.614	1216.69
437.835	1186.69
438.057	1220.69
438.278	1280.69
438.5	1235.69
438.721	1215.69
438.943	1285.69
439.165	1239.69
439.386	1236.69
439.608	1233.69
439.829	1269.69
440.05	1259.69
440.272	1273.69
440.493	1263.69
440.715	1266.69
440.936	1369.69
441.158	1455.69
441.379	1419.69
441.6	1388.69
441.822	1365.69
442.043	1352.69
442.264	1328.69
442.486	1253.69
442.707	1241.69
442.928	1297.69
443.149	1290.69
443.371	1361.69
443.592	1401.69
443.813	1389.69
444.034	1361.69
444.255	1383.69
444.476	1377.69
444.698	1395.69
444.919	1428.69
445.14	1512.69
445.361	1491.69
445.582	1457.69
445.803	1438.69
446.024	1409.69
446.245	1439.69
446.466	1410.69
446.687	1339.69
446.908	1345.69
447.129	1276.69
447.35	1324.69
447.571	1327.69
447.792	1268.69
448.013	1259.69
448.234	1275.69
448.455	1320.69
448.675	1332.69
448.896	1236.69
449.117	1205.69
449.338	1218.69
449.559	1291.69
449.779	1384.69
450	1467.69
450.221	1493.69
450.442	1444.69
450.662	1285.69
450.883	1179.69
451.104	1194.69
451.324	1211.69
451.545	1245.69
451.766	1205.69
451.986	1191.69
452.207	1170.69
452.428	1097.69
452.648	1102.69
452.869	1119.69
453.089	1163.69
453.31	1144.69
453.53	1197.69
453.751	1147.69
453.971	1073.69
454.192	1117.69
454.412	1145.69
454.633	1138.69
454.853	1132.69
455.073	1077.69
455.294	1064.69
455.514	1056.69
455.734	1080.69
455.955	1087.69
456.175	1096.69
456.395	1093.69
456.616	1124.69
456.836	1116.69
457.056	1108.69
457.276	1110.69
457.497	1051.69
457.717	1048.69
457.937	1038.69
458.157	1081.69
458.377	1039.69
458.598	1014.69
458.818	1072.69
459.038	1114.69
459.258	1163.69
459.478	1154.69
459.698	1132.69
459.918	1153.69
460.138	1222.69
460.358	1261.69
460.578	1255.69
460.798	1327.69
461.018	1361.69
461.238	1264.69
461.458	1275.69
461.678	1260.69
461.898	1239.69
462.118	1192.69
462.338	1279.69
462.558	1227.69
462.777	1285.69
462.997	1309.69
463.217	1386.69
463.437	1370.69
463.657	1287.69
463.876	1253.69
464.096	1254.69
464.316	1268.69
464.536	1304.69
464.755	1346.69
464.975	1341.69
465.195	1281.69
465.414	1321.69
465.634	1319.69
465.854	1307.69
466.073	1430.69
466.293	1367.69
466.512	1237.69
466.732	1286.69
466.951	1279.69
467.171	1261.69
467.391	1244.69
467.61	1185.69
467.829	1244.69
468.049	1345.69
468.268	1484.69
468.488	1375.69
468.707	1273.69
468.927	1223.69
469.146	1207.69
469.365	1218.69
469.585	1258.69
469.804	1243.69
470.023	1256.69
470.243	1260.69
470.462	1275.69
470.681	1233.69
470.901	1239.69
471.12	1264.69
471.339	1243.69
471.558	1235.69
471.777	1219.69
471.997	1211.69
472.216	1227.69
472.435	1148.69
472.654	1116.69
472.873	1176.69
473.092	1242.69
473.311	1204.69
473.53	1152.69
473.749	1130.69
473.968	1207.69
474.187	1243.69
474.406	1266.69
474.625	1233.69
474.844	1260.69
475.063	1216.69
475.282	1242.69
475.501	1227.69
475.72	1240.69
475.939	1336.69
476.158	1267.69
476.377	1196.69
476.596	1247.69
476.814	1199.69
477.033	1221.69
477.252	1324.69
477.471	1317.69
477.69	1267.69
477.908	1306.69
478.127	1389.69
478.346	1431.69
478.564	1449.69
478.783	1434.69
479.002	1473.69
479.22	1435.69
479.439	1465.69
479.658	1596.69
479.876	1516.69
480.095	1407.69
480.313	1337.69
480.532	1313.69
480.751	1319.69
480.969	1343.69
481.188	1263.69
481.406	1267.69
481.624	1229.69
481.843	1288.69
482.061	1284.69
482.28	1337.69
482.498	1346.69
482.717	1318.69
482.935	1342.69
483.153	1344.69
483.372	1396.69
483.59	1352.69
483.808	1377.69
484.027	1386.69
484.245	1448.69
484.463	1793.69
484.681	1935.69
484.9	1484.69
485.118	1387.69
485.336	1377.69
485.554	1393.69
485.772	1393.69
485.99	1360.69
486.209	1398.69
486.427	1407.69
486.645	1423.69
486.863	1439.69
487.081	1499.69
487.299	1463.69
487.517	1484.69
487.735	1476.69
487.953	1487.69
488.171	1460.69
488.389	1488.69
488.607	1509.69
488.825	1680.69
489.043	1549.69
489.261	1400.69
489.479	1462.69
489.696	1505.69
489.914	1475.69
490.132	1409.69
490.35	1476.69
490.568	1535.69
490.786	1542.69
491.003	1497.69
491.221	1555.69
491.439	1575.69
491.657	1588.69
491.874	1627.69
492.092	1696.69
492.31	1725.69
492.527	1695.69
492.745	1665.69
492.963	1594.69
493.18	1638.69
493.398	1740.69
493.615	1698.69
493.833	1604.69
494.05	1565.69
494.268	1591.69
494.485	1591.69
494.703	1576.69
494.92	1560.69
495.138	1583.69
495.355	1571.69
495.573	1623.69
495.79	1702.69
496.008	1772.69
496.225	1595.69
496.442	1641.69
496.66	1618.69
496.877	1590.69
497.094	1660.69
497.312	1695.69
497.529	1591.69
497.746	1665.69
497.963	1887.69
498.181	2041.69
498.398	1984.69
498.615	1922.69
498.832	1799.69
499.049	1741.69
499.267	1769.69
499.484	1880.69
499.701	2035.69
499.918	2074.69
500.135	2252.69
500.352	2342.69
500.569	2327.69
500.786	2592.69
501.003	2289.69
501.22	2146.69
501.437	2053.69
501.654	2113.69
501.871	2024.69
502.088	1785.69
502.305	1811.69
502.522	1693.69
502.739	1603.69
502.956	1554.69
503.172	1571.69
503.389	1532.69
503.606	1504.69
503.823	1483.69
504.04	1522.69
504.256	1505.69
504.473	1543.69
504.69	1548.69
504.907	1475.69
505.123	1432.69
505.34	1568.69
505.557	2088.69
505.773	1662.69
505.99	1401.69
506.207	1331.69
506.423	1276.69
506.64	1321.69
506.856	1335.69
507.073	1536.69
507.289	1614.69
507.506	1510.69
507.722	1327.69
507.939	1262.69
508.155	1271.69
508.372	1287.69
508.588	1191.69
508.805	1175.69
509.021	1171.69
509.238	1151.69
509.454	1155.69
509.67	1155.69
509.887	1151.69
510.103	1158.69
510.319	1149.69
510.536	1220.69
510.752	1259.69
510.968	1205.69
511.184	1317.69
511.401	1297.69
511.617	1139.69
511.833	1139.69
512.049	1097.69
512.265	1114.69
512.481	1137.69
512.698	1179.69
512.914	1185.69
513.13	1195.69
513.346	1138.69
513.562	1126.69
513.778	1087.69
513.994	1208.69
514.21	1205.69
514.426	1220.69
514.642	1323.69
514.858	1248.69
515.074	1163.69
515.29	1147.69
515.506	1170.69
515.721	1162.69
515.937	1199.69
516.153	1313.69
516.369	1294.69
516.585	1192.69
516.801	1159.69
517.016	1152.69
517.232	1199.69
517.448	1208.69
517.664	1224.69
517.879	1230.69
518.095	1288.69
518.311	1215.69
518.527	1191.69
518.742	1147.69
518.958	1127.69
519.173	1144.69
519.389	1201.69
519.605	1173.69
519.82	1188.69
520.036	1190.69
520.251	1152.69
520.467	1187.69
520.682	1259.69
520.898	1261.69
521.113	1151.69
521.329	1124.69
521.544	1203.69
521.76	1167.69
521.975	1064.69
522.19	1114.69
522.406	1127.69
522.621	1428.69
522.836	1373.69
523.052	1085.69
523.267	1117.69
523.482	1108.69
523.698	1065.69
523.913	1064.69
524.128	1098.69
524.343	1176.69
524.559	1196.69
524.774	1080.69
524.989	1092.69
525.204	1092.69
525.419	1066.69
525.634	1076.69
525.849	1085.69
526.064	1080.69
526.28	1088.69
526.495	1014.69
526.71	994.69
526.925	1009.69
527.14	989.69
527.355	979.69
527.57	978.69
527.785	1025.69
527.999	1010.69
528.214	980.69
528.429	1001.69
528.644	1023.69
528.859	1070.69
529.074	1059.69
529.289	1078.69
529.503	1122.69
529.718	1087.69
529.933	1045.69
530.148	987.69
530.363	1002.69
530.577	992.69
530.792	963.69
531.007	1012.69
531.221	996.69
531.436	996.69
531.651	1038.69
531.865	1070.69
532.08	1033.69
532.295	974.69
532.509	947.69
532.724	948.69
532.938	1013.69
533.153	1099.69
533.367	1065.69
533.582	1049.69
533.796	1032.69
534.011	1020.69
534.225	991.69
534.44	988.69
534.654	989.69
534.868	973.69
535.083	1050.69
535.297	1038.69
535.511	1023.69
535.726	1015.69
535.94	977.69
536.154	992.69
536.369	967.69
536.583	945.69
536.797	937.69
537.011	968.69
537.225	954.69
537.44	939.69
537.654	1019.69
537.868	955.69
538.082	919.69
538.296	909.69
538.51	931.69
538.724	971.69
538.938	955.69
539.153	999.69
539.367	1010.69
539.581	1004.69
539.795	1023.69
540.009	979.69
540.222	953.69
540.436	983.69
540.65	1078.69
540.864	1100.69
541.078	1078.69
541.292	1066.69
541.506	1092.69
541.72	1119.69
541.934	1187.69
542.147	1220.69
542.361	1121.69
542.575	1093.69
542.789	1003.69
543.002	986.69
543.216	955.69
543.43	1027.69
543.644	1063.69
543.857	1127.69
544.071	1115.69
544.285	1114.69
544.498	1106.69
544.712	1086.69
544.925	1138.69
545.139	1147.69
545.352	1080.69
545.566	1084.69
545.779	1077.69
545.993	1096.69
546.206	1119.69
546.42	1105.69
546.633	1085.69
546.847	1059.69
547.06	1065.69
547.274	1091.69
547.487	1108.69
547.7	1105.69
547.914	1140.69
548.127	1120.69
548.34	1101.69
548.554	1057.69
548.767	1069.69
548.98	1059.69
549.193	1040.69
549.407	1119.69
549.62	1111.69
549.833	1062.69
550.046	1056.69
550.259	1055.69
550.473	1041.69
550.686	1050.69
550.899	1003.69
551.112	1007.69
551.325	975.69
551.538	1051.69
551.751	1159.69
551.964	907.69
552.177	941.69
552.39	987.69
552.603	1015.69
552.816	1023.69
553.029	1066.69
553.242	1091.69
553.455	1063.69
553.667	1035.69
553.88	1048.69
554.093	1043.69
554.306	1022.69
554.519	964.69
554.732	958.69
554.944	976.69
555.157	970.69
555.37	969.69
555.583	958.69
555.795	931.69
556.008	907.69
556.221	889.69
556.433	903.69
556.646	864.69
556.859	880.69
557.071	881.69
557.284	888.69
557.496	904.69
557.709	875.69
557.921	858.69
558.134	873.69
558.346	847.69
558.559	862.69
558.771	830.69
558.984	825.69
559.196	819.69
559.409	836.69
559.621	831.69
559.833	804.69
560.046	839.69
560.258	834.69
560.47	832.69
560.683	826.69
560.895	821.69
561.107	812.69
561.32	821.69
561.532	845.69
561.744	811.69
561.956	828.69
562.168	787.69
562.381	775.69
562.593	792.69
562.805	775.69
563.017	765.69
563.229	811.69
563.441	827.69
563.653	780.69
563.865	811.69
564.077	795.69
564.289	788.69
564.501	753.69
564.713	804.69
564.925	828.69
565.137	906.69
565.349	789.69
565.561	782.69
565.773	832.69
565.985	808.69
566.197	879.69
566.408	891.69
566.62	893.69
566.832	892.69
567.044	903.69
567.255	898.69
567.467	876.69
567.679	938.69
567.891	937.69
568.102	913.69
568.314	857.69
568.526	817.69
568.737	788.69
568.949	759.69
569.161	723.69
569.372	697.69
569.584	685.69
569.795	694.69
570.007	681.69
570.218	668.69
570.43	643.69
570.641	649.69
570.853	654.69
571.064	685.69
571.276	673.69
571.487	673.69
571.698	652.69
571.91	616.69
572.121	632.69
572.333	613.69
572.544	607.69
572.755	588.69
572.966	593.69
573.178	583.69
573.389	579.69
573.6	625.69
573.811	689.69
574.023	584.69
574.234	586.69
574.445	553.69
574.656	552.69
574.867	546.69
575.078	581.69
575.289	583.69
575.501	553.69
575.712	557.69
575.923	553.69
576.134	567.69
576.345	569.69
576.556	560.69
576.767	540.69
576.978	531.69
577.188	565.69
577.399	545.69
577.61	530.69
577.821	520.69
578.032	532.69
578.243	524.69
578.454	514.69
578.665	497.69
578.875	467.69
579.086	475.69
579.297	512.69
579.508	537.69
579.718	520.69
579.929	511.69
580.14	481.69
580.35	483.69
580.561	501.69
580.772	570.69
580.982	536.69
581.193	485.69
581.403	500.69
581.614	489.69
581.825	498.69
582.035	488.69
582.246	493.69
582.456	496.69
582.667	481.69
582.877	491.69
583.087	475.69
583.298	485.69
583.508	472.69
583.719	469.69
583.929	481.69
584.139	482.69
584.35	451.69
584.56	485.69
584.77	476.69
584.981	459.69
585.191	468.69
585.401	503.69
585.611	477.69
585.821	461.69
586.032	475.69
586.242	445.69
586.452	458.69
586.662	450.69
586.872	443.69
587.082	467.69
587.292	473.69
587.502	465.69
587.713	459.69
587.923	437.69
588.133	450.69
588.343	459.69
588.553	443.69
588.762	454.69
588.972	442.69
589.182	448.69
589.392	457.69
589.602	467.69
589.812	460.69
590.022	443.69
590.232	418.69
590.441	474.69
590.651	450.69
590.861	433.69
591.071	458.69
591.281	436.69
591.49	436.69
591.7	436.69
591.91	450.69
592.119	438.69
592.329	441.69
592.539	431.69
592.748	460.69
592.958	453.69
593.167	455.69
593.377	455.69
593.587	476.69
593.796	461.69
594.006	458.69
594.215	459.69
594.424	469.69
594.634	481.69
594.843	455.69
595.053	483.69
595.262	465.69
595.472	448.69
595.681	441.69
595.89	440.69
596.1	447.69
596.309	451.69
596.518	425.69
596.727	437.69
596.937	454.69
597.146	427.69
597.355	415.69
597.564	426.69
597.774	418.69
597.983	402.69
598.192	415.69
598.401	385.69
598.61	397.69
598.819	379.69
599.028	420.69
599.237	404.69
599.446	392.69
599.655	385.69
599.864	391.69
600.073	367.69
600.282	385.69
600.491	377.69
600.7	386.69
600.909	395.69
601.118	378.69
601.327	415.69
601.536	403.69
601.745	398.69
601.953	424.69
602.162	428.69
602.371	409.69
602.58	420.69
602.789	404.69
602.997	404.69
603.206	417.69
603.415	402.69
603.623	421.69
603.832	409.69
604.041	400.69
604.249	389.69
604.458	398.69
604.666	374.69
604.875	376.69
605.084	389.69
605.292	397.69
605.501	417.69
605.709	387.69
605.918	396.69
606.126	410.69
606.334	414.69
606.543	412.69
606.751	415.69
606.96	428.69
607.168	394.69
607.376	407.69
607.585	406.69
607.793	408.69
608.001	392.69
608.21	413.69
608.418	407.69
608.626	416.69
608.834	383.69
609.043	405.69
609.251	419.69
609.459	398.69
609.667	408.69
609.875	410.69
610.083	409.69
610.291	425.69
610.499	418.69
610.707	389.69
610.916	418.69
611.124	417.69
611.332	390.69
611.54	404.69
611.748	402.69
611.955	385.69
612.163	387.69
612.371	398.69
612.579	402.69
612.787	413.69
612.995	404.69
613.203	405.69
613.411	385.69
613.618	367.69
613.826	402.69
614.034	389.69
614.242	381.69
614.449	387.69
614.657	392.69
614.865	389.69
615.072	395.69
615.28	401.69
615.488	389.69
615.695	431.69
615.903	403.69
616.111	405.69
616.318	393.69
616.526	392.69
616.733	385.69
616.941	385.69
617.148	377.69
617.356	376.69
617.563	380.69
617.771	375.69
617.978	358.69
618.185	363.69
618.393	381.69
618.6	394.69
618.807	376.69
619.015	395.69
619.222	377.69
619.429	360.69
619.637	367.69
619.844	343.69
620.051	344.69
620.258	351.69
620.466	371.69
620.673	348.69
620.88	353.69
621.087	355.69
621.294	349.69
621.501	337.69
621.708	343.69
621.915	340.69
622.122	359.69
622.329	369.69
622.536	364.69
622.743	358.69
622.95	348.69
623.157	336.69
623.364	349.69
623.571	351.69
623.778	338.69
623.985	349.69
624.192	359.69
624.399	355.69
624.606	328.69
624.812	329.69
625.019	346.69
625.226	321.69
625.433	320.69
625.639	311.69
625.846	332.69
626.053	319.69
626.259	312.69
626.466	277.69
626.673	298.69
626.879	298.69
627.086	299.69
627.293	308.69
627.499	309.69
627.706	319.69
627.912	310.69
628.119	323.69
628.325	331.69
628.532	336.69
628.738	339.69
628.945	319.69
629.151	323.69
629.357	315.69
629.564	306.69
629.77	315.69
629.976	299.69
630.183	300.69
630.389	314.69
630.595	304.69
630.802	297.69
631.008	290.69
631.214	307.69
631.42	296.69
631.627	299.69
631.833	282.69
632.039	289.69
632.245	296.69
632.451	299.69
632.657	289.69
632.863	282.69
633.069	301.69
633.275	302.69
633.481	286.69
633.688	290.69
633.893	283.69
634.099	280.69
634.305	277.69
634.511	272.69
634.717	275.69
634.923	263.69
635.129	262.69
635.335	287.69
635.541	268.69
635.747	277.69
635.952	284.69
636.158	273.69
636.364	291.69
636.57	303.69
636.775	268.69
636.981	282.69
637.187	269.69
637.392	276.69
637.598	277.69
637.804	284.69
638.009	285.69
638.215	276.69
638.421	277.69
638.626	267.69
638.832	278.69
639.037	264.69
639.243	259.69
639.448	273.69
639.654	250.69
639.859	261.69
640.065	258.69
640.27	261.69
640.475	273.69
640.681	270.69
640.886	281.69
641.091	269.69
641.297	273.69
641.502	269.69
641.707	255.69
641.913	277.69
642.118	281.69
642.323	259.69
642.528	255.69
642.733	257.69
642.939	265.69
643.144	260.69
643.349	264.69
643.554	271.69
643.759	259.69
643.964	267.69
644.169	260.69
644.374	255.69
644.579	278.69
644.784	261.69
644.989	249.69
645.194	252.69
645.399	249.69
645.604	258.69
645.809	257.69
646.014	253.69
646.219	273.69
646.423	241.69
646.628	270.69
646.833	290.69
647.038	266.69
647.243	264.69
647.447	276.69
647.652	269.69
647.857	249.69
648.062	249.69
648.266	252.69
648.471	251.69
648.676	260.69
648.88	252.69
649.085	253.69
649.289	276.69
649.494	256.69
649.698	273.69
649.903	251.69
650.107	236.69
650.312	250.69
650.516	261.69
650.721	255.69
650.925	229.69
651.13	257.69
651.334	241.69
651.539	225.69
651.743	230.69
651.947	254.69
652.152	239.69
652.356	204.69
652.56	249.69
652.764	227.69
652.969	226.69
653.173	230.69
653.377	204.69
653.581	217.69
653.785	208.69
653.99	202.69
654.194	226.69
654.398	220.69
654.602	198.69
654.806	191.69
655.01	215.69
655.214	230.69
655.418	222.69
655.622	232.69
655.826	224.69
656.03	235.69
656.234	255.69
656.438	249.69
656.642	231.69
656.846	239.69
657.049	231.69
657.253	233.69
657.457	214.69
657.661	198.69
657.865	178.69
658.068	180.69
658.272	187.69
658.476	140.69
658.68	139.69
658.883	148.69
659.087	144.69
659.291	152.69
659.494	140.69
659.698	141.69
659.901	140.69
660.105	131.69
660.309	124.69
660.512	118.69
660.716	126.69
660.919	119.69
661.123	100.69
661.326	105.69
661.53	110.69
661.733	113.69
661.936	109.69
662.14	111.69
662.343	97.69
662.546	88.69
662.75	106.69
662.953	112.69
663.156	91.69
663.36	88.69
663.563	97.69
663.766	87.69
663.969	96.69
664.173	91.69
664.376	97.69
664.579	100.69
664.782	95.69
664.985	86.69
665.188	76.69
665.391	82.69
665.594	95.69
665.797	72.69
666	84.69
666.203	83.69
666.406	91.69
666.609	74.69
666.812	92.69
667.015	87.69
667.218	86.69
667.421	88.69
667.624	92.69
667.827	86.69
668.03	75.69
668.232	72.69
668.435	84.69
668.638	85.69
668.841	81.69
669.043	89.69
669.246	78.69
669.449	92.69
669.651	81.69
669.854	86.69
670.057	87.69
670.259	72.69
670.462	89.69
670.665	83.69
670.867	67.69
671.07	75.69
671.272	90.69
671.475	102.69
671.677	77.69
671.88	85.69
672.082	74.69
672.284	72.69
672.487	76.69
672.689	95.69
672.892	83.69
