Data from WStandard_LampEnergy5.5LIBS07252019.E.O._I.C._HRD10591_16-07-57-920.txt Node
Date: Thu Jul 25 16:07:57 EDT 2019
User: cochatt
Spectrometer: HR+D1059
Trigger mode: 1
Integration Time (sec): 1.000000E-1
Scans to average: 1
Electric dark correction enabled: true
Nonlinearity correction enabled: false
Boxcar width: 0
XAxis mode: Wavelengths
Number of Pixels in Spectrum: 2048
>>>>>Begin Spectral Data<<<<<
223.165	-18.44
223.4	-18.44
223.635	-18.44
223.869	-29.44
224.104	-18.44
224.338	-15.44
224.573	-5.44
224.808	-19.44
225.042	-22.44
225.277	-10.44
225.511	10.56
225.746	-3.44
225.98	13.56
226.215	15.56
226.449	28.56
226.683	13.56
226.918	21.56
227.152	39.56
227.387	30.56
227.621	48.56
227.856	65.56
228.09	53.56
228.324	50.56
228.559	65.56
228.793	152.56
229.027	377.56
229.262	387.56
229.496	411.56
229.73	408.56
229.964	448.56
230.199	468.56
230.433	473.56
230.667	500.56
230.901	533.56
231.136	501.56
231.37	473.56
231.604	483.56
231.838	487.56
232.072	493.56
232.306	457.56
232.541	466.56
232.775	579.56
233.009	620.56
233.243	581.56
233.477	530.56
233.711	538.56
233.945	577.56
234.179	540.56
234.413	608.56
234.647	640.56
234.881	618.56
235.115	579.56
235.349	570.56
235.583	582.56
235.817	577.56
236.051	546.56
236.285	575.56
236.519	604.56
236.753	671.56
236.987	665.56
237.221	673.56
237.455	741.56
237.689	732.56
237.922	689.56
238.156	665.56
238.39	681.56
238.624	729.56
238.858	770.56
239.091	782.56
239.325	811.56
239.559	949.56
239.793	997.56
240.027	1104.56
240.26	1077.56
240.494	798.56
240.728	749.56
240.961	741.56
241.195	752.56
241.429	860.56
241.662	851.56
241.896	790.56
242.13	749.56
242.363	852.56
242.597	929.56
242.83	902.56
243.064	908.56
243.298	974.56
243.531	962.56
243.765	933.56
243.998	966.56
244.232	824.56
244.465	794.56
244.699	813.56
244.932	906.56
245.166	1044.56
245.399	1018.56
245.633	927.56
245.866	896.56
246.099	956.56
246.333	971.56
246.566	988.56
246.8	1092.56
247.033	1226.56
247.266	1093.56
247.5	1074.56
247.733	1092.56
247.966	1155.56
248.2	1242.56
248.433	1226.56
248.666	1269.56
248.899	1383.56
249.133	1571.56
249.366	1812.56
249.599	1458.56
249.832	1280.56
250.066	1312.56
250.299	1350.56
250.532	1266.56
250.765	1111.56
250.998	1172.56
251.231	1221.56
251.465	1283.56
251.698	1196.56
251.931	1208.56
252.164	1212.56
252.397	1273.56
252.63	1310.56
252.863	1159.56
253.096	1110.56
253.329	1184.56
253.562	1193.56
253.795	1347.56
254.028	1281.56
254.261	1203.56
254.494	1194.56
254.727	1130.56
254.96	1165.56
255.193	1258.56
255.426	1469.56
255.659	1666.56
255.892	1718.56
256.124	1404.56
256.357	1345.56
256.59	1438.56
256.823	1458.56
257.056	1438.56
257.289	1724.56
257.521	1954.56
257.754	1766.56
257.987	1630.56
258.22	1818.56
258.452	1762.56
258.685	1435.56
258.918	1404.56
259.151	1424.56
259.383	1336.56
259.616	1210.56
259.849	1302.56
260.081	1435.56
260.314	1592.56
260.547	1733.56
260.779	1764.56
261.012	1650.56
261.244	1452.56
261.477	1370.56
261.71	1464.56
261.942	1456.56
262.175	1414.56
262.407	1497.56
262.64	1416.56
262.872	1320.56
263.105	1306.56
263.337	1309.56
263.57	1352.56
263.802	1319.56
264.035	1234.56
264.267	1185.56
264.499	1178.56
264.732	1228.56
264.964	1321.56
265.197	1407.56
265.429	1422.56
265.661	1619.56
265.894	1798.56
266.126	1846.56
266.358	1648.56
266.591	1695.56
266.823	1850.56
267.055	1660.56
267.287	1605.56
267.52	1578.56
267.752	1567.56
267.984	1596.56
268.216	1673.56
268.448	1771.56
268.681	1689.56
268.913	1533.56
269.145	1445.56
269.377	1418.56
269.609	1519.56
269.841	1762.56
270.073	2076.56
270.306	2322.56
270.538	2537.56
270.77	2086.56
271.002	1796.56
271.234	1701.56
271.466	1658.56
271.698	1870.56
271.93	2290.56
272.162	2302.56
272.394	2013.56
272.626	1954.56
272.858	1704.56
273.09	1515.56
273.322	1481.56
273.553	1397.56
273.785	1443.56
274.017	1509.56
274.249	1615.56
274.481	1633.56
274.713	1497.56
274.945	1461.56
275.176	1468.56
275.408	1465.56
275.64	1416.56
275.872	1404.56
276.104	1470.56
276.335	1689.56
276.567	1948.56
276.799	2001.56
277.031	1748.56
277.262	1630.56
277.494	1672.56
277.726	1914.56
277.957	1862.56
278.189	1727.56
278.421	1614.56
278.652	1510.56
278.884	1529.56
279.115	1510.56
279.347	1568.56
279.579	1499.56
279.81	1472.56
280.042	1633.56
280.273	1791.56
280.505	1860.56
280.736	1853.56
280.968	1768.56
281.199	1533.56
281.431	1502.56
281.662	1434.56
281.894	1456.56
282.125	1520.56
282.356	1577.56
282.588	1585.56
282.819	1580.56
283.051	1702.56
283.282	1828.56
283.513	1782.56
283.745	1546.56
283.976	1454.56
284.207	1460.56
284.439	1500.56
284.67	1534.56
284.901	1534.56
285.132	1587.56
285.364	1549.56
285.595	1535.56
285.826	1557.56
286.057	1520.56
286.288	1514.56
286.52	1589.56
286.751	1713.56
286.982	1789.56
287.213	1674.56
287.444	1480.56
287.675	1480.56
287.906	1541.56
288.138	1671.56
288.369	1635.56
288.6	1536.56
288.831	1495.56
289.062	1495.56
289.293	1554.56
289.524	1516.56
289.755	1586.56
289.986	1622.56
290.217	1483.56
290.448	1501.56
290.679	1575.56
290.91	1561.56
291.141	1564.56
291.371	1669.56
291.602	1641.56
291.833	1612.56
292.064	1703.56
292.295	1655.56
292.526	1669.56
292.757	1766.56
292.987	1698.56
293.218	1547.56
293.449	1693.56
293.68	1928.56
293.91	2088.56
294.141	1935.56
294.372	1791.56
294.603	1881.56
294.833	2022.56
295.064	1853.56
295.295	1657.56
295.525	1670.56
295.756	1552.56
295.987	1464.56
296.217	1500.56
296.448	1524.56
296.679	1522.56
296.909	1563.56
297.14	1536.56
297.37	1526.56
297.601	1636.56
297.831	1772.56
298.062	1777.56
298.292	1621.56
298.523	1587.56
298.753	1507.56
298.984	1540.56
299.214	1557.56
299.445	1576.56
299.675	1642.56
299.905	1634.56
300.136	1625.56
300.366	1588.56
300.597	1528.56
300.827	1501.56
301.057	1553.56
301.288	1658.56
301.518	1661.56
301.748	1707.56
301.979	1767.56
302.209	1818.56
302.439	1897.56
302.669	1978.56
302.9	1834.56
303.13	1689.56
303.36	1690.56
303.59	1704.56
303.82	1694.56
304.051	1655.56
304.281	1687.56
304.511	1682.56
304.741	1769.56
304.971	1957.56
305.201	2141.56
305.431	2033.56
305.661	1638.56
305.891	1495.56
306.121	1476.56
306.352	1494.56
306.582	1614.56
306.812	1741.56
307.042	1867.56
307.272	1858.56
307.502	1896.56
307.731	1997.56
307.961	2196.56
308.191	2054.56
308.421	1746.56
308.651	1638.56
308.881	1635.56
309.111	1600.56
309.341	1581.56
309.571	1608.56
309.8	1605.56
310.03	1557.56
310.26	1595.56
310.49	1584.56
310.72	1645.56
310.949	1721.56
311.179	1741.56
311.409	1693.56
311.639	1604.56
311.868	1604.56
312.098	1635.56
312.328	1645.56
312.557	1611.56
312.787	1656.56
313.017	1729.56
313.246	1693.56
313.476	1673.56
313.706	1735.56
313.935	1699.56
314.165	1748.56
314.394	1754.56
314.624	1844.56
314.853	1914.56
315.083	2060.56
315.312	2150.56
315.542	1989.56
315.771	1752.56
316.001	1741.56
316.23	1848.56
316.46	1858.56
316.689	1823.56
316.919	1687.56
317.148	1613.56
317.377	1655.56
317.607	1750.56
317.836	2033.56
318.065	2117.56
318.295	2016.56
318.524	1888.56
318.753	1873.56
318.983	1843.56
319.212	1768.56
319.441	1765.56
319.67	1738.56
319.9	1770.56
320.129	1878.56
320.358	1955.56
320.587	1988.56
320.816	1973.56
321.046	1906.56
321.275	1792.56
321.504	1848.56
321.733	1993.56
321.962	1928.56
322.191	1773.56
322.42	1761.56
322.649	1719.56
322.878	1750.56
323.108	1769.56
323.337	1808.56
323.566	1791.56
323.795	1794.56
324.024	1828.56
324.253	1725.56
324.482	1794.56
324.71	1771.56
324.939	1677.56
325.168	1709.56
325.397	1774.56
325.626	1812.56
325.855	1852.56
326.084	1749.56
326.313	1724.56
326.542	1776.56
326.77	1810.56
326.999	1836.56
327.228	1786.56
327.457	1686.56
327.686	1659.56
327.914	1735.56
328.143	1749.56
328.372	1763.56
328.6	1804.56
328.829	1752.56
329.058	1730.56
329.287	1745.56
329.515	1791.56
329.744	1795.56
329.972	1905.56
330.201	1957.56
330.43	1930.56
330.658	1831.56
330.887	1860.56
331.115	1842.56
331.344	1926.56
331.572	1864.56
331.801	1817.56
332.03	1833.56
332.258	1865.56
332.486	1879.56
332.715	1878.56
332.943	1885.56
333.172	1877.56
333.4	1896.56
333.629	1908.56
333.857	2002.56
334.085	2248.56
334.314	2523.56
334.542	2774.56
334.771	2596.56
334.999	2289.56
335.227	2127.56
335.455	1993.56
335.684	1996.56
335.912	2006.56
336.14	2106.56
336.369	2017.56
336.597	1925.56
336.825	1898.56
337.053	1992.56
337.281	2051.56
337.51	2086.56
337.738	2230.56
337.966	2144.56
338.194	1940.56
338.422	1848.56
338.65	1858.56
338.878	1819.56
339.106	1826.56
339.334	1769.56
339.562	1750.56
339.79	1771.56
340.018	1911.56
340.246	1995.56
340.474	1945.56
340.702	1916.56
340.93	1929.56
341.158	1883.56
341.386	1830.56
341.614	1884.56
341.842	1842.56
342.07	1838.56
342.298	1845.56
342.526	1874.56
342.754	1841.56
342.981	1812.56
343.209	1801.56
343.437	1785.56
343.665	1822.56
343.893	1892.56
344.12	1998.56
344.348	1993.56
344.576	1907.56
344.804	1822.56
345.031	1770.56
345.259	1850.56
345.487	1786.56
345.714	1712.56
345.942	1676.56
346.17	1693.56
346.397	1740.56
346.625	1796.56
346.853	1638.56
347.08	1627.56
347.308	1692.56
347.535	1694.56
347.763	1704.56
347.99	1735.56
348.218	1664.56
348.445	1669.56
348.673	1691.56
348.9	1741.56
349.128	1773.56
349.355	1865.56
349.583	1842.56
349.81	1744.56
350.037	1648.56
350.265	1580.56
350.492	1598.56
350.72	1611.56
350.947	1720.56
351.174	1772.56
351.402	1664.56
351.629	1576.56
351.856	1597.56
352.083	1594.56
352.311	1570.56
352.538	1642.56
352.765	1720.56
352.992	1792.56
353.22	1700.56
353.447	1624.56
353.674	1694.56
353.901	1698.56
354.128	1648.56
354.355	1650.56
354.583	1708.56
354.81	1746.56
355.037	1752.56
355.264	1749.56
355.491	1687.56
355.718	1772.56
355.945	1679.56
356.172	1656.56
356.399	1623.56
356.626	1627.56
356.853	1672.56
357.08	1812.56
357.307	2012.56
357.534	2020.56
357.761	1783.56
357.988	1631.56
358.215	1574.56
358.441	1604.56
358.668	1640.56
358.895	1637.56
359.122	1732.56
359.349	1874.56
359.576	1933.56
359.802	1710.56
360.029	1659.56
360.256	1595.56
360.483	1612.56
360.709	1694.56
360.936	1769.56
361.163	1805.56
361.39	1982.56
361.616	2098.56
361.843	2074.56
362.07	2015.56
362.296	1708.56
362.523	1658.56
362.749	1651.56
362.976	1718.56
363.203	1746.56
363.429	1657.56
363.656	1637.56
363.882	1651.56
364.109	1814.56
364.335	2010.56
364.562	1865.56
364.788	1834.56
365.015	1722.56
365.241	1641.56
365.468	1688.56
365.694	1764.56
365.92	1828.56
366.147	1800.56
366.373	1662.56
366.599	1653.56
366.826	1620.56
367.052	1654.56
367.278	1684.56
367.505	1682.56
367.731	1691.56
367.957	1706.56
368.184	1770.56
368.41	1820.56
368.636	1862.56
368.862	1897.56
369.089	1893.56
369.315	1858.56
369.541	1778.56
369.767	1715.56
369.993	1631.56
370.219	1637.56
370.445	1710.56
370.672	1813.56
370.898	1882.56
371.124	1870.56
371.35	1751.56
371.576	1809.56
371.802	1886.56
372.028	1857.56
372.254	1756.56
372.48	1684.56
372.706	1663.56
372.932	1694.56
373.158	1704.56
373.384	1735.56
373.61	1778.56
373.835	1893.56
374.061	1830.56
374.287	1732.56
374.513	1753.56
374.739	1829.56
374.965	1820.56
375.191	1789.56
375.416	1866.56
375.642	1817.56
375.868	1904.56
376.094	2009.56
376.319	1922.56
376.545	1759.56
376.771	1803.56
376.997	1901.56
377.222	1829.56
377.448	1837.56
377.674	1801.56
377.899	1813.56
378.125	1929.56
378.35	1921.56
378.576	1784.56
378.802	1736.56
379.027	1718.56
379.253	1731.56
379.478	1728.56
379.704	1748.56
379.929	1765.56
380.155	1755.56
380.38	1787.56
380.606	1829.56
380.831	1776.56
381.057	1820.56
381.282	1885.56
381.507	1824.56
381.733	1952.56
381.958	2062.56
382.184	1904.56
382.409	1807.56
382.634	1847.56
382.86	1804.56
383.085	1837.56
383.31	1896.56
383.535	2026.56
383.761	2153.56
383.986	2031.56
384.211	1970.56
384.436	1967.56
384.662	2052.56
384.887	2125.56
385.112	2024.56
385.337	2042.56
385.562	1976.56
385.787	2018.56
386.013	2134.56
386.238	2060.56
386.463	2056.56
386.688	2204.56
386.913	2304.56
387.138	2300.56
387.363	2098.56
387.588	2019.56
387.813	2062.56
388.038	2086.56
388.263	2155.56
388.488	2104.56
388.713	1933.56
388.938	1927.56
389.163	1957.56
389.387	1993.56
389.612	1928.56
389.837	2048.56
390.062	2033.56
390.287	2028.56
390.512	2001.56
390.736	1985.56
390.961	1968.56
391.186	1932.56
391.411	1919.56
391.636	2022.56
391.86	2037.56
392.085	2003.56
392.31	1975.56
392.534	1993.56
392.759	2044.56
392.984	2021.56
393.208	2034.56
393.433	2082.56
393.658	2154.56
393.882	2203.56
394.107	2080.56
394.331	1991.56
394.556	1997.56
394.78	2040.56
395.005	2108.56
395.229	2131.56
395.454	2275.56
395.678	2322.56
395.903	2261.56
396.127	2146.56
396.352	2150.56
396.576	2213.56
396.801	2213.56
397.025	2192.56
397.249	2174.56
397.474	2169.56
397.698	2171.56
397.922	2199.56
398.147	2344.56
398.371	2370.56
398.595	2385.56
398.82	2253.56
399.044	2349.56
399.268	2468.56
399.492	2588.56
399.717	2682.56
399.941	2718.56
400.165	2699.56
400.389	2610.56
400.613	2589.56
400.837	2787.56
401.062	3173.56
401.286	2825.56
401.51	2540.56
401.734	2644.56
401.958	2549.56
402.182	2352.56
402.406	2300.56
402.63	2265.56
402.854	2250.56
403.078	2314.56
403.302	2340.56
403.526	2362.56
403.75	2368.56
403.974	2385.56
404.198	2412.56
404.422	2452.56
404.645	2594.56
404.869	2544.56
405.093	2308.56
405.317	2336.56
405.541	2372.56
405.765	2406.56
405.988	2394.56
406.212	2480.56
406.436	2509.56
406.66	2576.56
406.883	2578.56
407.107	2908.56
407.331	3116.56
407.555	3370.56
407.778	3135.56
408.002	2584.56
408.226	2509.56
408.449	2555.56
408.673	2474.56
408.896	2454.56
409.12	2458.56
409.344	2473.56
409.567	2346.56
409.791	2381.56
410.014	2441.56
410.238	2516.56
410.461	2729.56
410.685	2449.56
410.908	2326.56
411.132	2384.56
411.355	2385.56
411.578	2309.56
411.802	2327.56
412.025	2391.56
412.249	2312.56
412.472	2272.56
412.695	2210.56
412.919	2285.56
413.142	2323.56
413.365	2304.56
413.589	2392.56
413.812	2405.56
414.035	2547.56
414.258	2348.56
414.482	2256.56
414.705	2307.56
414.928	2265.56
415.151	2296.56
415.374	2294.56
415.597	2360.56
415.821	2348.56
416.044	2462.56
416.267	2458.56
416.49	2195.56
416.713	2151.56
416.936	2224.56
417.159	2370.56
417.382	2341.56
417.605	2254.56
417.828	2314.56
418.051	2380.56
418.274	2267.56
418.497	2205.56
418.72	2227.56
418.943	2202.56
419.166	2319.56
419.389	2430.56
419.611	2272.56
419.834	2267.56
420.057	2265.56
420.28	2245.56
420.503	2201.56
420.726	2226.56
420.948	2219.56
421.171	2168.56
421.394	2229.56
421.617	2284.56
421.839	2275.56
422.062	2209.56
422.285	2188.56
422.507	2160.56
422.73	2112.56
422.953	2106.56
423.175	2123.56
423.398	2170.56
423.621	2170.56
423.843	2179.56
424.066	2205.56
424.288	2269.56
424.511	2330.56
424.733	2279.56
424.956	2110.56
425.178	2118.56
425.401	2123.56
425.623	2149.56
425.846	2106.56
426.068	2230.56
426.291	2268.56
426.513	2232.56
426.735	2255.56
426.958	2390.56
427.18	2540.56
427.402	2314.56
427.625	2378.56
427.847	2401.56
428.069	2211.56
428.292	2168.56
428.514	2097.56
428.736	2109.56
428.958	2144.56
429.181	2166.56
429.403	2347.56
429.625	2952.56
429.847	2625.56
430.069	2223.56
430.292	2420.56
430.514	2535.56
430.736	2281.56
430.958	2451.56
431.18	2339.56
431.402	2118.56
431.624	2124.56
431.846	2116.56
432.068	2070.56
432.29	2069.56
432.512	2147.56
432.734	2192.56
432.956	2230.56
433.178	2346.56
433.4	2312.56
433.622	2283.56
433.844	2188.56
434.066	2058.56
434.287	2102.56
434.509	2190.56
434.731	2258.56
434.953	2480.56
435.175	2398.56
435.397	2252.56
435.618	2279.56
435.84	2286.56
436.062	2215.56
436.284	2225.56
436.505	2186.56
436.727	2259.56
436.949	2259.56
437.17	2162.56
437.392	2133.56
437.614	2139.56
437.835	2040.56
438.057	2241.56
438.278	2329.56
438.5	2189.56
438.721	2069.56
438.943	2114.56
439.165	2123.56
439.386	2065.56
439.608	2098.56
439.829	2086.56
440.05	2138.56
440.272	2068.56
440.493	2068.56
440.715	2114.56
440.936	2252.56
441.158	2484.56
441.379	2423.56
441.6	2368.56
441.822	2339.56
442.043	2268.56
442.264	2214.56
442.486	2126.56
442.707	2100.56
442.928	2160.56
443.149	2230.56
443.371	2336.56
443.592	2430.56
443.813	2322.56
444.034	2322.56
444.255	2326.56
444.476	2373.56
444.698	2467.56
444.919	2369.56
445.14	2500.56
445.361	2486.56
445.582	2526.56
445.803	2418.56
446.024	2306.56
446.245	2443.56
446.466	2343.56
446.687	2235.56
446.908	2188.56
447.129	2184.56
447.35	2221.56
447.571	2220.56
447.792	2138.56
448.013	2108.56
448.234	2133.56
448.455	2209.56
448.675	2203.56
448.896	2048.56
449.117	2037.56
449.338	2073.56
449.559	2170.56
449.779	2309.56
450	2528.56
450.221	2722.56
450.442	2625.56
450.662	2322.56
450.883	2048.56
451.104	2004.56
451.324	2029.56
451.545	2096.56
451.766	2087.56
451.986	1994.56
452.207	2008.56
452.428	1960.56
452.648	1897.56
452.869	1947.56
453.089	2071.56
453.31	2097.56
453.53	2126.56
453.751	2061.56
453.971	1897.56
454.192	1998.56
454.412	2105.56
454.633	2064.56
454.853	1988.56
455.073	1878.56
455.294	1838.56
455.514	1886.56
455.734	1838.56
455.955	1900.56
456.175	1906.56
456.395	1922.56
456.616	1971.56
456.836	2029.56
457.056	1961.56
457.276	1951.56
457.497	1908.56
457.717	1831.56
457.937	1858.56
458.157	1911.56
458.377	1887.56
458.598	1890.56
458.818	1942.56
459.038	2060.56
459.258	2172.56
459.478	2166.56
459.698	2133.56
459.918	2115.56
460.138	2217.56
460.358	2298.56
460.578	2297.56
460.798	2381.56
461.018	2534.56
461.238	2414.56
461.458	2283.56
461.678	2280.56
461.898	2214.56
462.118	2207.56
462.338	2276.56
462.558	2285.56
462.777	2294.56
462.997	2386.56
463.217	2533.56
463.437	2535.56
463.657	2340.56
463.876	2332.56
464.096	2236.56
464.316	2279.56
464.536	2355.56
464.755	2374.56
464.975	2401.56
465.195	2343.56
465.414	2414.56
465.634	2394.56
465.854	2292.56
466.073	2393.56
466.293	2351.56
466.512	2100.56
466.732	2122.56
466.951	2207.56
467.171	2156.56
467.391	2092.56
467.61	2040.56
467.829	2080.56
468.049	2222.56
468.268	2493.56
468.488	2331.56
468.707	2226.56
468.927	2117.56
469.146	2077.56
469.365	1984.56
469.585	2109.56
469.804	2070.56
470.023	2096.56
470.243	2085.56
470.462	2108.56
470.681	2058.56
470.901	2061.56
471.12	2116.56
471.339	2037.56
471.558	1983.56
471.777	1982.56
471.997	2027.56
472.216	2006.56
472.435	1970.56
472.654	1994.56
472.873	2124.56
473.092	2198.56
473.311	2133.56
473.53	1997.56
473.749	2005.56
473.968	2046.56
474.187	2138.56
474.406	2279.56
474.625	2132.56
474.844	2122.56
475.063	2072.56
475.282	2170.56
475.501	2135.56
475.72	2095.56
475.939	2212.56
476.158	2173.56
476.377	2133.56
476.596	2157.56
476.814	2204.56
477.033	2171.56
477.252	2306.56
477.471	2345.56
477.69	2214.56
477.908	2180.56
478.127	2335.56
478.346	2500.56
478.564	2530.56
478.783	2470.56
479.002	2584.56
479.22	2488.56
479.439	2626.56
479.658	2906.56
479.876	2915.56
480.095	2549.56
480.313	2460.56
480.532	2267.56
480.751	2356.56
480.969	2405.56
481.188	2394.56
481.406	2337.56
481.624	2240.56
481.843	2278.56
482.061	2390.56
482.28	2401.56
482.498	2464.56
482.717	2411.56
482.935	2326.56
483.153	2359.56
483.372	2358.56
483.59	2303.56
483.808	2304.56
484.027	2374.56
484.245	2538.56
484.463	2893.56
484.681	3333.56
484.9	2580.56
485.118	2379.56
485.336	2324.56
485.554	2429.56
485.772	2627.56
485.99	2512.56
486.209	2535.56
486.427	2538.56
486.645	2525.56
486.863	2417.56
487.081	2533.56
487.299	2616.56
487.517	2570.56
487.735	2427.56
487.953	2410.56
488.171	2412.56
488.389	2411.56
488.607	2410.56
488.825	2678.56
489.043	2717.56
489.261	2393.56
489.479	2557.56
489.696	2589.56
489.914	2576.56
490.132	2525.56
490.35	2472.56
490.568	2529.56
490.786	2452.56
491.003	2396.56
491.221	2477.56
491.439	2508.56
491.657	2539.56
491.874	2514.56
492.092	2522.56
492.31	2539.56
492.527	2534.56
492.745	2482.56
492.963	2461.56
493.18	2580.56
493.398	2762.56
493.615	2836.56
493.833	2600.56
494.05	2514.56
494.268	2548.56
494.485	2625.56
494.703	2555.56
494.92	2444.56
495.138	2507.56
495.355	2521.56
495.573	2635.56
495.79	2785.56
496.008	2820.56
496.225	2639.56
496.442	2628.56
496.66	2743.56
496.877	2663.56
497.094	2772.56
497.312	2764.56
497.529	2722.56
497.746	2848.56
497.963	3312.56
498.181	3720.56
498.398	3453.56
498.615	3377.56
498.832	3240.56
499.049	3240.56
499.267	3241.56
499.484	3486.56
499.701	3718.56
499.918	3717.56
500.135	4018.56
500.352	4348.56
500.569	4277.56
500.786	4499.56
501.003	4281.56
501.22	3862.56
501.437	3780.56
501.654	3782.56
501.871	3714.56
502.088	3210.56
502.305	3214.56
502.522	3111.56
502.739	2899.56
502.956	2854.56
503.172	2828.56
503.389	2724.56
503.606	2682.56
503.823	2672.56
504.04	2722.56
504.256	2666.56
504.473	2688.56
504.69	2840.56
504.907	2702.56
505.123	2488.56
505.34	2613.56
505.557	3354.56
505.773	2937.56
505.99	2454.56
506.207	2331.56
506.423	2296.56
506.64	2284.56
506.856	2289.56
507.073	2561.56
507.289	2829.56
507.506	2660.56
507.722	2316.56
507.939	2235.56
508.155	2239.56
508.372	2261.56
508.588	2244.56
508.805	2114.56
509.021	2132.56
509.238	2120.56
509.454	2052.56
509.67	2124.56
509.887	2096.56
510.103	2096.56
510.319	2087.56
510.536	2208.56
510.752	2288.56
510.968	2216.56
511.184	2429.56
511.401	2409.56
511.617	2054.56
511.833	2013.56
512.049	1972.56
512.265	2042.56
512.481	2004.56
512.698	2055.56
512.914	2248.56
513.13	2190.56
513.346	2056.56
513.562	1988.56
513.778	2047.56
513.994	2175.56
514.21	2163.56
514.426	2266.56
514.642	2439.56
514.858	2354.56
515.074	2075.56
515.29	2048.56
515.506	2130.56
515.721	2164.56
515.937	2172.56
516.153	2473.56
516.369	2376.56
516.585	2210.56
516.801	2138.56
517.016	2134.56
517.232	2199.56
517.448	2180.56
517.664	2246.56
517.879	2212.56
518.095	2332.56
518.311	2265.56
518.527	2128.56
518.742	2131.56
518.958	2029.56
519.173	2070.56
519.389	2094.56
519.605	2094.56
519.82	2074.56
520.036	2132.56
520.251	2060.56
520.467	2074.56
520.682	2302.56
520.898	2311.56
521.113	2084.56
521.329	2047.56
521.544	2151.56
521.76	2049.56
521.975	1933.56
522.19	1942.56
522.406	1986.56
522.621	2325.56
522.836	2376.56
523.052	1891.56
523.267	1950.56
523.482	1981.56
523.698	1855.56
523.913	1798.56
524.128	1860.56
524.343	1942.56
524.559	1997.56
524.774	1897.56
524.989	1855.56
525.204	1841.56
525.419	1799.56
525.634	1841.56
525.849	1852.56
526.064	1853.56
526.28	1865.56
526.495	1819.56
526.71	1805.56
526.925	1782.56
527.14	1757.56
527.355	1756.56
527.57	1724.56
527.785	1813.56
527.999	1794.56
528.214	1676.56
528.429	1687.56
528.644	1728.56
528.859	1754.56
529.074	1734.56
529.289	1794.56
529.503	1826.56
529.718	1819.56
529.933	1779.56
530.148	1738.56
530.363	1730.56
530.577	1765.56
530.792	1756.56
531.007	1842.56
531.221	1744.56
531.436	1762.56
531.651	1889.56
531.865	1972.56
532.08	1888.56
532.295	1714.56
532.509	1662.56
532.724	1720.56
532.938	1765.56
533.153	1933.56
533.367	1820.56
533.582	1772.56
533.796	1723.56
534.011	1737.56
534.225	1741.56
534.44	1742.56
534.654	1707.56
534.868	1703.56
535.083	1756.56
535.297	1785.56
535.511	1728.56
535.726	1727.56
535.94	1719.56
536.154	1755.56
536.369	1679.56
536.583	1670.56
536.797	1668.56
537.011	1732.56
537.225	1668.56
537.44	1609.56
537.654	1728.56
537.868	1656.56
538.082	1581.56
538.296	1589.56
538.51	1630.56
538.724	1586.56
538.938	1579.56
539.153	1616.56
539.367	1658.56
539.581	1672.56
539.795	1772.56
540.009	1699.56
540.222	1699.56
540.436	1698.56
540.65	1869.56
540.864	1890.56
541.078	1737.56
541.292	1612.56
541.506	1632.56
541.72	1651.56
541.934	1672.56
542.147	1692.56
542.361	1633.56
542.575	1636.56
542.789	1585.56
543.002	1543.56
543.216	1572.56
543.43	1661.56
543.644	1722.56
543.857	1812.56
544.071	1714.56
544.285	1654.56
544.498	1613.56
544.712	1651.56
544.925	1672.56
545.139	1742.56
545.352	1604.56
545.566	1539.56
545.779	1531.56
545.993	1574.56
546.206	1591.56
546.42	1562.56
546.633	1504.56
546.847	1532.56
547.06	1522.56
547.274	1573.56
547.487	1543.56
547.7	1556.56
547.914	1550.56
548.127	1547.56
548.34	1576.56
548.554	1580.56
548.767	1579.56
548.98	1573.56
549.193	1530.56
549.407	1632.56
549.62	1651.56
549.833	1551.56
550.046	1514.56
550.259	1557.56
550.473	1542.56
550.686	1486.56
550.899	1478.56
551.112	1478.56
551.325	1464.56
551.538	1564.56
551.751	1810.56
551.964	1505.56
552.177	1449.56
552.39	1500.56
552.603	1534.56
552.816	1517.56
553.029	1590.56
553.242	1632.56
553.455	1563.56
553.667	1545.56
553.88	1540.56
554.093	1540.56
554.306	1453.56
554.519	1414.56
554.732	1422.56
554.944	1441.56
555.157	1474.56
555.37	1445.56
555.583	1477.56
555.795	1429.56
556.008	1384.56
556.221	1366.56
556.433	1374.56
556.646	1353.56
556.859	1336.56
557.071	1342.56
557.284	1324.56
557.496	1337.56
557.709	1271.56
557.921	1277.56
558.134	1324.56
558.346	1306.56
558.559	1273.56
558.771	1270.56
558.984	1250.56
559.196	1195.56
559.409	1208.56
559.621	1228.56
559.833	1251.56
560.046	1301.56
560.258	1261.56
560.47	1264.56
560.683	1264.56
560.895	1256.56
561.107	1276.56
561.32	1288.56
561.532	1291.56
561.744	1253.56
561.956	1300.56
562.168	1245.56
562.381	1186.56
562.593	1192.56
562.805	1248.56
563.017	1195.56
563.229	1225.56
563.441	1290.56
563.653	1218.56
563.865	1248.56
564.077	1236.56
564.289	1235.56
564.501	1270.56
564.713	1280.56
564.925	1320.56
565.137	1408.56
565.349	1288.56
565.561	1309.56
565.773	1312.56
565.985	1353.56
566.197	1404.56
566.408	1498.56
566.62	1548.56
566.832	1514.56
567.044	1529.56
567.255	1511.56
567.467	1534.56
567.679	1566.56
567.891	1577.56
568.102	1564.56
568.314	1489.56
568.526	1459.56
568.737	1385.56
568.949	1291.56
569.161	1288.56
569.372	1206.56
569.584	1185.56
569.795	1226.56
570.007	1194.56
570.218	1163.56
570.43	1142.56
570.641	1134.56
570.853	1143.56
571.064	1153.56
571.276	1112.56
571.487	1115.56
571.698	1076.56
571.91	1065.56
572.121	1046.56
572.333	1028.56
572.544	1032.56
572.755	1022.56
572.966	1008.56
573.178	988.56
573.389	1022.56
573.6	1064.56
573.811	1131.56
574.023	1013.56
574.234	972.56
574.445	965.56
574.656	937.56
574.867	955.56
575.078	956.56
575.289	934.56
575.501	919.56
575.712	918.56
575.923	940.56
576.134	968.56
576.345	938.56
576.556	916.56
576.767	888.56
576.978	894.56
577.188	887.56
577.399	893.56
577.61	886.56
577.821	886.56
578.032	853.56
578.243	872.56
578.454	883.56
578.665	865.56
578.875	839.56
579.086	831.56
579.297	861.56
579.508	905.56
579.718	855.56
579.929	840.56
580.14	838.56
580.35	842.56
580.561	842.56
580.772	909.56
580.982	864.56
581.193	834.56
581.403	799.56
581.614	818.56
581.825	827.56
582.035	827.56
582.246	799.56
582.456	824.56
582.667	822.56
582.877	788.56
583.087	800.56
583.298	774.56
583.508	799.56
583.719	816.56
583.929	807.56
584.139	811.56
584.35	783.56
584.56	760.56
584.77	788.56
584.981	789.56
585.191	789.56
585.401	801.56
585.611	754.56
585.821	788.56
586.032	762.56
586.242	757.56
586.452	746.56
586.662	762.56
586.872	788.56
587.082	780.56
587.292	795.56
587.502	801.56
587.713	803.56
587.923	774.56
588.133	775.56
588.343	778.56
588.553	764.56
588.762	789.56
588.972	769.56
589.182	793.56
589.392	742.56
589.602	772.56
589.812	779.56
590.022	751.56
590.232	738.56
590.441	742.56
590.651	759.56
590.861	733.56
591.071	717.56
591.281	747.56
591.49	747.56
591.7	754.56
591.91	734.56
592.119	766.56
592.329	757.56
592.539	788.56
592.748	770.56
592.958	764.56
593.167	816.56
593.377	804.56
593.587	776.56
593.796	782.56
594.006	790.56
594.215	804.56
594.424	796.56
594.634	761.56
594.843	752.56
595.053	779.56
595.262	769.56
595.472	742.56
595.681	749.56
595.89	736.56
596.1	713.56
596.309	705.56
596.518	694.56
596.727	720.56
596.937	724.56
597.146	665.56
597.355	689.56
597.564	679.56
597.774	654.56
597.983	678.56
598.192	653.56
598.401	666.56
598.61	640.56
598.819	636.56
599.028	654.56
599.237	659.56
599.446	647.56
599.655	627.56
599.864	609.56
600.073	610.56
600.282	612.56
600.491	624.56
600.7	604.56
600.909	605.56
601.118	601.56
601.327	617.56
601.536	622.56
601.745	604.56
601.953	609.56
602.162	602.56
602.371	624.56
602.58	630.56
602.789	624.56
602.997	596.56
603.206	604.56
603.415	624.56
603.623	600.56
603.832	618.56
604.041	594.56
604.249	563.56
604.458	582.56
604.666	600.56
604.875	591.56
605.084	619.56
605.292	608.56
605.501	578.56
605.709	589.56
605.918	577.56
606.126	573.56
606.334	567.56
606.543	560.56
606.751	579.56
606.96	570.56
607.168	573.56
607.376	551.56
607.585	551.56
607.793	566.56
608.001	564.56
608.21	558.56
608.418	555.56
608.626	556.56
608.834	550.56
609.043	564.56
609.251	555.56
609.459	536.56
609.667	572.56
609.875	548.56
610.083	583.56
610.291	590.56
610.499	562.56
610.707	576.56
610.916	549.56
611.124	566.56
611.332	530.56
611.54	537.56
611.748	547.56
611.955	541.56
612.163	519.56
612.371	521.56
612.579	537.56
612.787	534.56
612.995	551.56
613.203	525.56
613.411	519.56
613.618	540.56
613.826	524.56
614.034	515.56
614.242	516.56
614.449	525.56
614.657	530.56
614.865	525.56
615.072	540.56
615.28	541.56
615.488	531.56
615.695	553.56
615.903	538.56
616.111	528.56
616.318	556.56
616.526	532.56
616.733	530.56
616.941	519.56
617.148	508.56
617.356	526.56
617.563	514.56
617.771	517.56
617.978	506.56
618.185	522.56
618.393	516.56
618.6	516.56
618.807	500.56
619.015	503.56
619.222	518.56
619.429	492.56
619.637	480.56
619.844	497.56
620.051	495.56
620.258	474.56
620.466	475.56
620.673	473.56
620.88	451.56
621.087	468.56
621.294	459.56
621.501	468.56
621.708	448.56
621.915	455.56
622.122	480.56
622.329	480.56
622.536	464.56
622.743	465.56
622.95	470.56
623.157	459.56
623.364	457.56
623.571	463.56
623.778	472.56
623.985	460.56
624.192	484.56
624.399	448.56
624.606	460.56
624.812	437.56
625.019	436.56
625.226	463.56
625.433	459.56
625.639	447.56
625.846	456.56
626.053	448.56
626.259	410.56
626.466	422.56
626.673	408.56
626.879	436.56
627.086	424.56
627.293	421.56
627.499	420.56
627.706	425.56
627.912	410.56
628.119	425.56
628.325	439.56
628.532	409.56
628.738	420.56
628.945	409.56
629.151	437.56
629.357	419.56
629.564	416.56
629.77	421.56
629.976	401.56
630.183	398.56
630.389	389.56
630.595	412.56
630.802	397.56
631.008	384.56
631.214	374.56
631.42	380.56
631.627	398.56
631.833	378.56
632.039	382.56
632.245	372.56
632.451	380.56
632.657	382.56
632.863	369.56
633.069	365.56
633.275	373.56
633.481	387.56
633.688	371.56
633.893	360.56
634.099	378.56
634.305	371.56
634.511	370.56
634.717	361.56
634.923	350.56
635.129	351.56
635.335	359.56
635.541	364.56
635.747	356.56
635.952	344.56
636.158	367.56
636.364	376.56
636.57	365.56
636.775	346.56
636.981	371.56
637.187	357.56
637.392	361.56
637.598	354.56
637.804	361.56
638.009	347.56
638.215	357.56
638.421	349.56
638.626	337.56
638.832	351.56
639.037	347.56
639.243	346.56
639.448	349.56
639.654	321.56
639.859	332.56
640.065	341.56
640.27	350.56
640.475	342.56
640.681	345.56
640.886	334.56
641.091	332.56
641.297	339.56
641.502	341.56
641.707	344.56
641.913	337.56
642.118	332.56
642.323	318.56
642.528	329.56
642.733	343.56
642.939	331.56
643.144	330.56
643.349	344.56
643.554	314.56
643.759	314.56
643.964	321.56
644.169	298.56
644.374	308.56
644.579	328.56
644.784	331.56
644.989	331.56
645.194	308.56
645.399	316.56
645.604	320.56
645.809	339.56
646.014	310.56
646.219	324.56
646.423	311.56
646.628	335.56
646.833	332.56
647.038	318.56
647.243	332.56
647.447	312.56
647.652	304.56
647.857	321.56
648.062	328.56
648.266	313.56
648.471	325.56
648.676	317.56
648.88	300.56
649.085	340.56
649.289	299.56
649.494	317.56
649.698	314.56
649.903	306.56
650.107	296.56
650.312	300.56
650.516	311.56
650.721	325.56
650.925	300.56
651.13	309.56
651.334	283.56
651.539	275.56
651.743	277.56
651.947	291.56
652.152	280.56
652.356	273.56
652.56	256.56
652.764	264.56
652.969	268.56
653.173	265.56
653.377	253.56
653.581	240.56
653.785	250.56
653.99	246.56
654.194	253.56
654.398	249.56
654.602	248.56
654.806	246.56
655.01	253.56
655.214	257.56
655.418	244.56
655.622	255.56
655.826	240.56
656.03	266.56
656.234	276.56
656.438	270.56
656.642	275.56
656.846	265.56
657.049	252.56
657.253	232.56
657.457	208.56
657.661	209.56
657.865	211.56
658.068	176.56
658.272	172.56
658.476	183.56
658.68	140.56
658.883	164.56
659.087	148.56
659.291	125.56
659.494	148.56
659.698	154.56
659.901	132.56
660.105	124.56
660.309	119.56
660.512	125.56
660.716	114.56
660.919	118.56
661.123	120.56
661.326	117.56
661.53	112.56
661.733	108.56
661.936	97.56
662.14	92.56
662.343	98.56
662.546	102.56
662.75	98.56
662.953	81.56
663.156	89.56
663.36	95.56
663.563	84.56
663.766	76.56
663.969	82.56
664.173	80.56
664.376	87.56
664.579	89.56
664.782	96.56
664.985	84.56
665.188	86.56
665.391	84.56
665.594	77.56
665.797	75.56
666	74.56
666.203	81.56
666.406	98.56
666.609	85.56
666.812	86.56
667.015	78.56
667.218	85.56
667.421	73.56
667.624	66.56
667.827	86.56
668.03	76.56
668.232	74.56
668.435	84.56
668.638	79.56
668.841	81.56
669.043	80.56
669.246	75.56
669.449	82.56
669.651	79.56
669.854	97.56
670.057	84.56
670.259	95.56
670.462	85.56
670.665	92.56
670.867	92.56
671.07	82.56
671.272	73.56
671.475	85.56
671.677	97.56
671.88	79.56
672.082	81.56
672.284	91.56
672.487	86.56
672.689	76.56
672.892	86.56
