Data from WStandard_LampEnergy5.5LIBS07252019.E.O._I.C._HRD10591_16-09-21-921.txt Node
Date: Thu Jul 25 16:09:21 EDT 2019
User: cochatt
Spectrometer: HR+D1059
Trigger mode: 1
Integration Time (sec): 1.000000E-1
Scans to average: 1
Electric dark correction enabled: true
Nonlinearity correction enabled: false
Boxcar width: 0
XAxis mode: Wavelengths
Number of Pixels in Spectrum: 2048
>>>>>Begin Spectral Data<<<<<
223.165	-17.44
223.4	-17.44
223.635	-17.44
223.869	-10.44
224.104	-12.44
224.338	-22.44
224.573	-5.44
224.808	-22.44
225.042	-20.44
225.277	-4.44
225.511	-0.44
225.746	-2.44
225.98	8.56
226.215	15.56
226.449	3.56
226.683	18.56
226.918	35.56
227.152	36.56
227.387	57.56
227.621	36.56
227.856	52.56
228.09	42.56
228.324	36.56
228.559	52.56
228.793	149.56
229.027	345.56
229.262	350.56
229.496	385.56
229.73	377.56
229.964	415.56
230.199	452.56
230.433	454.56
230.667	474.56
230.901	499.56
231.136	466.56
231.37	451.56
231.604	422.56
231.838	456.56
232.072	445.56
232.306	433.56
232.541	449.56
232.775	540.56
233.009	559.56
233.243	564.56
233.477	490.56
233.711	520.56
233.945	541.56
234.179	532.56
234.413	569.56
234.647	612.56
234.881	566.56
235.115	542.56
235.349	545.56
235.583	570.56
235.817	542.56
236.051	538.56
236.285	539.56
236.519	573.56
236.753	614.56
236.987	659.56
237.221	645.56
237.455	735.56
237.689	701.56
237.922	653.56
238.156	618.56
238.39	653.56
238.624	682.56
238.858	718.56
239.091	749.56
239.325	769.56
239.559	877.56
239.793	928.56
240.027	985.56
240.26	987.56
240.494	707.56
240.728	703.56
240.961	700.56
241.195	698.56
241.429	797.56
241.662	811.56
241.896	734.56
242.13	726.56
242.363	792.56
242.597	897.56
242.83	843.56
243.064	872.56
243.298	917.56
243.531	891.56
243.765	881.56
243.998	878.56
244.232	783.56
244.465	746.56
244.699	758.56
244.932	877.56
245.166	1004.56
245.399	968.56
245.633	874.56
245.866	853.56
246.099	873.56
246.333	921.56
246.566	907.56
246.8	993.56
247.033	1115.56
247.266	1055.56
247.5	1019.56
247.733	993.56
247.966	1078.56
248.2	1165.56
248.433	1133.56
248.666	1167.56
248.899	1262.56
249.133	1459.56
249.366	1680.56
249.599	1347.56
249.832	1204.56
250.066	1228.56
250.299	1254.56
250.532	1146.56
250.765	1035.56
250.998	1105.56
251.231	1124.56
251.465	1182.56
251.698	1127.56
251.931	1102.56
252.164	1142.56
252.397	1204.56
252.63	1202.56
252.863	1039.56
253.096	1028.56
253.329	1126.56
253.562	1130.56
253.795	1224.56
254.028	1231.56
254.261	1130.56
254.494	1116.56
254.727	1065.56
254.96	1107.56
255.193	1176.56
255.426	1315.56
255.659	1591.56
255.892	1627.56
256.124	1351.56
256.357	1305.56
256.59	1373.56
256.823	1346.56
257.056	1319.56
257.289	1636.56
257.521	1795.56
257.754	1631.56
257.987	1497.56
258.22	1718.56
258.452	1676.56
258.685	1338.56
258.918	1337.56
259.151	1342.56
259.383	1269.56
259.616	1141.56
259.849	1170.56
260.081	1319.56
260.314	1474.56
260.547	1653.56
260.779	1634.56
261.012	1509.56
261.244	1380.56
261.477	1291.56
261.71	1371.56
261.942	1362.56
262.175	1301.56
262.407	1425.56
262.64	1326.56
262.872	1246.56
263.105	1177.56
263.337	1206.56
263.57	1225.56
263.802	1227.56
264.035	1166.56
264.267	1083.56
264.499	1079.56
264.732	1176.56
264.964	1251.56
265.197	1317.56
265.429	1305.56
265.661	1519.56
265.894	1702.56
266.126	1698.56
266.358	1550.56
266.591	1613.56
266.823	1709.56
267.055	1565.56
267.287	1524.56
267.52	1495.56
267.752	1437.56
267.984	1498.56
268.216	1555.56
268.448	1619.56
268.681	1588.56
268.913	1426.56
269.145	1345.56
269.377	1337.56
269.609	1436.56
269.841	1670.56
270.073	1921.56
270.306	2164.56
270.538	2346.56
270.77	1975.56
271.002	1656.56
271.234	1578.56
271.466	1568.56
271.698	1764.56
271.93	2120.56
272.162	2120.56
272.394	1891.56
272.626	1837.56
272.858	1594.56
273.09	1406.56
273.322	1373.56
273.553	1317.56
273.785	1325.56
274.017	1424.56
274.249	1470.56
274.481	1496.56
274.713	1365.56
274.945	1356.56
275.176	1358.56
275.408	1378.56
275.64	1338.56
275.872	1303.56
276.104	1421.56
276.335	1593.56
276.567	1808.56
276.799	1846.56
277.031	1667.56
277.262	1531.56
277.494	1625.56
277.726	1780.56
277.957	1719.56
278.189	1598.56
278.421	1486.56
278.652	1457.56
278.884	1429.56
279.115	1399.56
279.347	1431.56
279.579	1403.56
279.81	1386.56
280.042	1543.56
280.273	1697.56
280.505	1689.56
280.736	1685.56
280.968	1624.56
281.199	1450.56
281.431	1417.56
281.662	1394.56
281.894	1353.56
282.125	1461.56
282.356	1490.56
282.588	1506.56
282.819	1492.56
283.051	1601.56
283.282	1750.56
283.513	1681.56
283.745	1455.56
283.976	1357.56
284.207	1404.56
284.439	1417.56
284.67	1437.56
284.901	1485.56
285.132	1481.56
285.364	1486.56
285.595	1489.56
285.826	1446.56
286.057	1403.56
286.288	1453.56
286.52	1483.56
286.751	1613.56
286.982	1657.56
287.213	1519.56
287.444	1416.56
287.675	1429.56
287.906	1468.56
288.138	1611.56
288.369	1523.56
288.6	1423.56
288.831	1397.56
289.062	1433.56
289.293	1441.56
289.524	1465.56
289.755	1518.56
289.986	1536.56
290.217	1421.56
290.448	1430.56
290.679	1454.56
290.91	1471.56
291.141	1489.56
291.371	1562.56
291.602	1541.56
291.833	1571.56
292.064	1581.56
292.295	1554.56
292.526	1589.56
292.757	1641.56
292.987	1577.56
293.218	1488.56
293.449	1576.56
293.68	1829.56
293.91	1948.56
294.141	1813.56
294.372	1704.56
294.603	1744.56
294.833	1865.56
295.064	1762.56
295.295	1626.56
295.525	1555.56
295.756	1425.56
295.987	1345.56
296.217	1409.56
296.448	1441.56
296.679	1427.56
296.909	1458.56
297.14	1429.56
297.37	1449.56
297.601	1525.56
297.831	1640.56
298.062	1663.56
298.292	1550.56
298.523	1421.56
298.753	1462.56
298.984	1483.56
299.214	1463.56
299.445	1489.56
299.675	1530.56
299.905	1575.56
300.136	1523.56
300.366	1491.56
300.597	1410.56
300.827	1443.56
301.057	1481.56
301.288	1574.56
301.518	1576.56
301.748	1603.56
301.979	1664.56
302.209	1707.56
302.439	1849.56
302.669	1902.56
302.9	1743.56
303.13	1570.56
303.36	1551.56
303.59	1619.56
303.82	1581.56
304.051	1553.56
304.281	1614.56
304.511	1595.56
304.741	1629.56
304.971	1816.56
305.201	1953.56
305.431	1877.56
305.661	1557.56
305.891	1404.56
306.121	1423.56
306.352	1447.56
306.582	1528.56
306.812	1604.56
307.042	1743.56
307.272	1761.56
307.502	1781.56
307.731	1925.56
307.961	2051.56
308.191	1900.56
308.421	1648.56
308.651	1585.56
308.881	1532.56
309.111	1556.56
309.341	1535.56
309.571	1508.56
309.8	1519.56
310.03	1511.56
310.26	1518.56
310.49	1494.56
310.72	1555.56
310.949	1592.56
311.179	1641.56
311.409	1610.56
311.639	1539.56
311.868	1508.56
312.098	1549.56
312.328	1527.56
312.557	1533.56
312.787	1530.56
313.017	1630.56
313.246	1622.56
313.476	1596.56
313.706	1623.56
313.935	1604.56
314.165	1613.56
314.394	1678.56
314.624	1739.56
314.853	1850.56
315.083	1869.56
315.312	1942.56
315.542	1865.56
315.771	1658.56
316.001	1672.56
316.23	1774.56
316.46	1722.56
316.689	1699.56
316.919	1618.56
317.148	1580.56
317.377	1566.56
317.607	1675.56
317.836	1857.56
318.065	1957.56
318.295	1901.56
318.524	1789.56
318.753	1732.56
318.983	1729.56
319.212	1673.56
319.441	1644.56
319.67	1644.56
319.9	1670.56
320.129	1764.56
320.358	1851.56
320.587	1889.56
320.816	1848.56
321.046	1820.56
321.275	1732.56
321.504	1699.56
321.733	1896.56
321.962	1813.56
322.191	1699.56
322.42	1690.56
322.649	1651.56
322.878	1694.56
323.108	1665.56
323.337	1723.56
323.566	1717.56
323.795	1702.56
324.024	1697.56
324.253	1660.56
324.482	1703.56
324.71	1664.56
324.939	1575.56
325.168	1597.56
325.397	1652.56
325.626	1695.56
325.855	1741.56
326.084	1636.56
326.313	1663.56
326.542	1686.56
326.77	1746.56
326.999	1777.56
327.228	1696.56
327.457	1602.56
327.686	1588.56
327.914	1605.56
328.143	1671.56
328.372	1703.56
328.6	1717.56
328.829	1685.56
329.058	1621.56
329.287	1640.56
329.515	1667.56
329.744	1679.56
329.972	1793.56
330.201	1870.56
330.43	1846.56
330.658	1748.56
330.887	1769.56
331.115	1798.56
331.344	1764.56
331.572	1718.56
331.801	1741.56
332.03	1749.56
332.258	1760.56
332.486	1821.56
332.715	1837.56
332.943	1817.56
333.172	1801.56
333.4	1794.56
333.629	1837.56
333.857	1948.56
334.085	2100.56
334.314	2350.56
334.542	2556.56
334.771	2393.56
334.999	2122.56
335.227	1965.56
335.455	1917.56
335.684	1873.56
335.912	1951.56
336.14	1973.56
336.369	1914.56
336.597	1842.56
336.825	1751.56
337.053	1795.56
337.281	1905.56
337.51	2009.56
337.738	2076.56
337.966	2011.56
338.194	1858.56
338.422	1778.56
338.65	1764.56
338.878	1735.56
339.106	1700.56
339.334	1695.56
339.562	1651.56
339.79	1673.56
340.018	1775.56
340.246	1837.56
340.474	1852.56
340.702	1806.56
340.93	1797.56
341.158	1808.56
341.386	1751.56
341.614	1777.56
341.842	1769.56
342.07	1766.56
342.298	1747.56
342.526	1762.56
342.754	1742.56
342.981	1717.56
343.209	1729.56
343.437	1717.56
343.665	1746.56
343.893	1825.56
344.12	1880.56
344.348	1903.56
344.576	1825.56
344.804	1713.56
345.031	1749.56
345.259	1741.56
345.487	1710.56
345.714	1655.56
345.942	1576.56
346.17	1604.56
346.397	1678.56
346.625	1689.56
346.853	1582.56
347.08	1543.56
347.308	1582.56
347.535	1598.56
347.763	1685.56
347.99	1675.56
348.218	1610.56
348.445	1592.56
348.673	1611.56
348.9	1661.56
349.128	1721.56
349.355	1776.56
349.583	1735.56
349.81	1685.56
350.037	1507.56
350.265	1553.56
350.492	1528.56
350.72	1581.56
350.947	1639.56
351.174	1694.56
351.402	1600.56
351.629	1560.56
351.856	1542.56
352.083	1479.56
352.311	1500.56
352.538	1569.56
352.765	1610.56
352.992	1678.56
353.22	1626.56
353.447	1565.56
353.674	1583.56
353.901	1619.56
354.128	1597.56
354.355	1543.56
354.583	1637.56
354.81	1648.56
355.037	1669.56
355.264	1650.56
355.491	1630.56
355.718	1597.56
355.945	1588.56
356.172	1562.56
356.399	1485.56
356.626	1533.56
356.853	1621.56
357.08	1721.56
357.307	1867.56
357.534	1906.56
357.761	1657.56
357.988	1561.56
358.215	1505.56
358.441	1512.56
358.668	1548.56
358.895	1524.56
359.122	1618.56
359.349	1813.56
359.576	1758.56
359.802	1595.56
360.029	1561.56
360.256	1533.56
360.483	1603.56
360.709	1641.56
360.936	1665.56
361.163	1690.56
361.39	1859.56
361.616	1984.56
361.843	1959.56
362.07	1894.56
362.296	1650.56
362.523	1573.56
362.749	1580.56
362.976	1636.56
363.203	1656.56
363.429	1618.56
363.656	1540.56
363.882	1581.56
364.109	1766.56
364.335	1863.56
364.562	1727.56
364.788	1703.56
365.015	1614.56
365.241	1573.56
365.468	1583.56
365.694	1692.56
365.92	1764.56
366.147	1700.56
366.373	1549.56
366.599	1545.56
366.826	1559.56
367.052	1557.56
367.278	1530.56
367.505	1617.56
367.731	1649.56
367.957	1610.56
368.184	1663.56
368.41	1791.56
368.636	1804.56
368.862	1758.56
369.089	1802.56
369.315	1770.56
369.541	1691.56
369.767	1632.56
369.993	1601.56
370.219	1558.56
370.445	1619.56
370.672	1739.56
370.898	1805.56
371.124	1797.56
371.35	1707.56
371.576	1765.56
371.802	1765.56
372.028	1709.56
372.254	1661.56
372.48	1606.56
372.706	1613.56
372.932	1626.56
373.158	1619.56
373.384	1674.56
373.61	1704.56
373.835	1800.56
374.061	1667.56
374.287	1686.56
374.513	1694.56
374.739	1705.56
374.965	1715.56
375.191	1715.56
375.416	1719.56
375.642	1737.56
375.868	1848.56
376.094	1883.56
376.319	1807.56
376.545	1679.56
376.771	1710.56
376.997	1795.56
377.222	1768.56
377.448	1712.56
377.674	1753.56
377.899	1769.56
378.125	1853.56
378.35	1899.56
378.576	1691.56
378.802	1639.56
379.027	1603.56
379.253	1633.56
379.478	1667.56
379.704	1665.56
379.929	1634.56
380.155	1657.56
380.38	1678.56
380.606	1709.56
380.831	1665.56
381.057	1749.56
381.282	1814.56
381.507	1760.56
381.733	1852.56
381.958	1908.56
382.184	1813.56
382.409	1747.56
382.634	1771.56
382.86	1757.56
383.085	1788.56
383.31	1750.56
383.535	1947.56
383.761	2036.56
383.986	1977.56
384.211	1898.56
384.436	1886.56
384.662	1964.56
384.887	2043.56
385.112	1905.56
385.337	1967.56
385.562	1926.56
385.787	1917.56
386.013	1919.56
386.238	1954.56
386.463	1972.56
386.688	2097.56
386.913	2204.56
387.138	2138.56
387.363	1985.56
387.588	1969.56
387.813	1950.56
388.038	1976.56
388.263	1991.56
388.488	1989.56
388.713	1843.56
388.938	1860.56
389.163	1815.56
389.387	1901.56
389.612	1878.56
389.837	1941.56
390.062	1956.56
390.287	1945.56
390.512	1927.56
390.736	1864.56
390.961	1897.56
391.186	1829.56
391.411	1845.56
391.636	1945.56
391.86	1945.56
392.085	1905.56
392.31	1942.56
392.534	1920.56
392.759	1935.56
392.984	1948.56
393.208	1931.56
393.433	1929.56
393.658	2031.56
393.882	2053.56
394.107	1987.56
394.331	1914.56
394.556	1918.56
394.78	1969.56
395.005	1997.56
395.229	2054.56
395.454	2144.56
395.678	2209.56
395.903	2132.56
396.127	2012.56
396.352	2068.56
396.576	2128.56
396.801	2100.56
397.025	2099.56
397.249	2111.56
397.474	2038.56
397.698	2056.56
397.922	2140.56
398.147	2185.56
398.371	2301.56
398.595	2287.56
398.82	2203.56
399.044	2195.56
399.268	2354.56
399.492	2460.56
399.717	2588.56
399.941	2628.56
400.165	2527.56
400.389	2513.56
400.613	2389.56
400.837	2662.56
401.062	3098.56
401.286	2625.56
401.51	2387.56
401.734	2508.56
401.958	2460.56
402.182	2266.56
402.406	2198.56
402.63	2163.56
402.854	2199.56
403.078	2239.56
403.302	2236.56
403.526	2306.56
403.75	2282.56
403.974	2269.56
404.198	2295.56
404.422	2367.56
404.645	2455.56
404.869	2421.56
405.093	2216.56
405.317	2227.56
405.541	2323.56
405.765	2342.56
405.988	2299.56
406.212	2303.56
406.436	2426.56
406.66	2448.56
406.883	2481.56
407.107	2720.56
407.331	2935.56
407.555	3191.56
407.778	2989.56
408.002	2449.56
408.226	2371.56
408.449	2451.56
408.673	2303.56
408.896	2359.56
409.12	2415.56
409.344	2315.56
409.567	2294.56
409.791	2339.56
410.014	2313.56
410.238	2437.56
410.461	2589.56
410.685	2331.56
410.908	2232.56
411.132	2322.56
411.355	2292.56
411.578	2238.56
411.802	2197.56
412.025	2297.56
412.249	2211.56
412.472	2158.56
412.695	2171.56
412.919	2197.56
413.142	2140.56
413.365	2180.56
413.589	2240.56
413.812	2318.56
414.035	2377.56
414.258	2220.56
414.482	2202.56
414.705	2203.56
414.928	2185.56
415.151	2154.56
415.374	2153.56
415.597	2205.56
415.821	2209.56
416.044	2295.56
416.267	2338.56
416.49	2129.56
416.713	2092.56
416.936	2158.56
417.159	2242.56
417.382	2222.56
417.605	2143.56
417.828	2203.56
418.051	2235.56
418.274	2151.56
418.497	2133.56
418.72	2144.56
418.943	2124.56
419.166	2270.56
419.389	2366.56
419.611	2217.56
419.834	2135.56
420.057	2181.56
420.28	2146.56
420.503	2074.56
420.726	2148.56
420.948	2148.56
421.171	2090.56
421.394	2067.56
421.617	2149.56
421.839	2162.56
422.062	2152.56
422.285	2078.56
422.507	2102.56
422.73	2027.56
422.953	1992.56
423.175	2009.56
423.398	2090.56
423.621	2116.56
423.843	2134.56
424.066	2163.56
424.288	2229.56
424.511	2233.56
424.733	2228.56
424.956	2045.56
425.178	2010.56
425.401	2025.56
425.623	2056.56
425.846	2004.56
426.068	2125.56
426.291	2174.56
426.513	2146.56
426.735	2132.56
426.958	2290.56
427.18	2418.56
427.402	2216.56
427.625	2237.56
427.847	2242.56
428.069	2141.56
428.292	2102.56
428.514	2027.56
428.736	1993.56
428.958	2052.56
429.181	2055.56
429.403	2308.56
429.625	2882.56
429.847	2494.56
430.069	2128.56
430.292	2235.56
430.514	2398.56
430.736	2211.56
430.958	2280.56
431.18	2181.56
431.402	2037.56
431.624	2008.56
431.846	2044.56
432.068	2003.56
432.29	2010.56
432.512	2048.56
432.734	2103.56
432.956	2185.56
433.178	2229.56
433.4	2187.56
433.622	2122.56
433.844	2054.56
434.066	2010.56
434.287	2013.56
434.509	2057.56
434.731	2187.56
434.953	2364.56
435.175	2282.56
435.397	2133.56
435.618	2129.56
435.84	2157.56
436.062	2120.56
436.284	2082.56
436.505	2132.56
436.727	2184.56
436.949	2112.56
437.17	2069.56
437.392	2021.56
437.614	2090.56
437.835	2041.56
438.057	2162.56
438.278	2235.56
438.5	2045.56
438.721	1998.56
438.943	2052.56
439.165	2014.56
439.386	1975.56
439.608	1978.56
439.829	2056.56
440.05	2030.56
440.272	1970.56
440.493	1956.56
440.715	1995.56
440.936	2138.56
441.158	2355.56
441.379	2333.56
441.6	2227.56
441.822	2196.56
442.043	2206.56
442.264	2141.56
442.486	2051.56
442.707	2018.56
442.928	2023.56
443.149	2075.56
443.371	2205.56
443.592	2265.56
443.813	2194.56
444.034	2203.56
444.255	2210.56
444.476	2246.56
444.698	2311.56
444.919	2291.56
445.14	2335.56
445.361	2348.56
445.582	2452.56
445.803	2325.56
446.024	2217.56
446.245	2236.56
446.466	2193.56
446.687	2086.56
446.908	2130.56
447.129	2067.56
447.35	2088.56
447.571	2121.56
447.792	2001.56
448.013	1959.56
448.234	2040.56
448.455	2113.56
448.675	2171.56
448.896	1981.56
449.117	1966.56
449.338	2005.56
449.559	2019.56
449.779	2138.56
450	2416.56
450.221	2586.56
450.442	2495.56
450.662	2184.56
450.883	1977.56
451.104	1906.56
451.324	1949.56
451.545	2024.56
451.766	1995.56
451.986	1919.56
452.207	1913.56
452.428	1805.56
452.648	1811.56
452.869	1855.56
453.089	1953.56
453.31	1989.56
453.53	2020.56
453.751	1950.56
453.971	1878.56
454.192	1914.56
454.412	2015.56
454.633	1929.56
454.853	1882.56
455.073	1779.56
455.294	1768.56
455.514	1770.56
455.734	1804.56
455.955	1843.56
456.175	1763.56
456.395	1828.56
456.616	1891.56
456.836	1933.56
457.056	1891.56
457.276	1873.56
457.497	1815.56
457.717	1717.56
457.937	1789.56
458.157	1825.56
458.377	1811.56
458.598	1799.56
458.818	1828.56
459.038	1934.56
459.258	2064.56
459.478	2081.56
459.698	1995.56
459.918	2065.56
460.138	2158.56
460.358	2164.56
460.578	2148.56
460.798	2245.56
461.018	2367.56
461.238	2284.56
461.458	2241.56
461.678	2172.56
461.898	2120.56
462.118	2069.56
462.338	2157.56
462.558	2175.56
462.777	2139.56
462.997	2295.56
463.217	2462.56
463.437	2324.56
463.657	2229.56
463.876	2201.56
464.096	2188.56
464.316	2194.56
464.536	2212.56
464.755	2244.56
464.975	2289.56
465.195	2161.56
465.414	2299.56
465.634	2293.56
465.854	2163.56
466.073	2298.56
466.293	2232.56
466.512	2006.56
466.732	2008.56
466.951	2077.56
467.171	2078.56
467.391	1980.56
467.61	1918.56
467.829	1979.56
468.049	2082.56
468.268	2307.56
468.488	2234.56
468.707	2059.56
468.927	2032.56
469.146	1974.56
469.365	1929.56
469.585	1953.56
469.804	1961.56
470.023	1999.56
470.243	1982.56
470.462	1977.56
470.681	1960.56
470.901	1993.56
471.12	1997.56
471.339	1964.56
471.558	1913.56
471.777	1913.56
471.997	1931.56
472.216	1926.56
472.435	1895.56
472.654	1887.56
472.873	2043.56
473.092	2153.56
473.311	2018.56
473.53	1928.56
473.749	1888.56
473.968	1941.56
474.187	2038.56
474.406	2162.56
474.625	2090.56
474.844	1961.56
475.063	1954.56
475.282	2014.56
475.501	1985.56
475.72	2002.56
475.939	2150.56
476.158	2067.56
476.377	2013.56
476.596	2036.56
476.814	2054.56
477.033	2045.56
477.252	2145.56
477.471	2197.56
477.69	2108.56
477.908	2059.56
478.127	2186.56
478.346	2357.56
478.564	2373.56
478.783	2346.56
479.002	2387.56
479.22	2339.56
479.439	2470.56
479.658	2849.56
479.876	2776.56
480.095	2438.56
480.313	2303.56
480.532	2205.56
480.751	2277.56
480.969	2238.56
481.188	2261.56
481.406	2267.56
481.624	2165.56
481.843	2188.56
482.061	2231.56
482.28	2286.56
482.498	2304.56
482.717	2323.56
482.935	2198.56
483.153	2198.56
483.372	2216.56
483.59	2199.56
483.808	2175.56
484.027	2296.56
484.245	2417.56
484.463	2751.56
484.681	3161.56
484.9	2423.56
485.118	2309.56
485.336	2218.56
485.554	2311.56
485.772	2451.56
485.99	2389.56
486.209	2454.56
486.427	2399.56
486.645	2398.56
486.863	2357.56
487.081	2425.56
487.299	2487.56
487.517	2435.56
487.735	2308.56
487.953	2339.56
488.171	2257.56
488.389	2272.56
488.607	2301.56
488.825	2524.56
489.043	2568.56
489.261	2314.56
489.479	2437.56
489.696	2521.56
489.914	2494.56
490.132	2431.56
490.35	2372.56
490.568	2451.56
490.786	2364.56
491.003	2265.56
491.221	2366.56
491.439	2433.56
491.657	2423.56
491.874	2361.56
492.092	2451.56
492.31	2439.56
492.527	2396.56
492.745	2365.56
492.963	2382.56
493.18	2470.56
493.398	2675.56
493.615	2702.56
493.833	2483.56
494.05	2408.56
494.268	2431.56
494.485	2534.56
494.703	2421.56
494.92	2409.56
495.138	2379.56
495.355	2421.56
495.573	2494.56
495.79	2665.56
496.008	2663.56
496.225	2520.56
496.442	2486.56
496.66	2630.56
496.877	2571.56
497.094	2682.56
497.312	2682.56
497.529	2641.56
497.746	2704.56
497.963	3119.56
498.181	3486.56
498.398	3255.56
498.615	3164.56
498.832	3059.56
499.049	3113.56
499.267	3102.56
499.484	3287.56
499.701	3611.56
499.918	3613.56
500.135	3865.56
500.352	4161.56
500.569	4070.56
500.786	4308.56
501.003	4078.56
501.22	3708.56
501.437	3545.56
501.654	3531.56
501.871	3484.56
502.088	3037.56
502.305	3111.56
502.522	3006.56
502.739	2791.56
502.956	2685.56
503.172	2637.56
503.389	2599.56
503.606	2538.56
503.823	2589.56
504.04	2576.56
504.256	2568.56
504.473	2585.56
504.69	2629.56
504.907	2496.56
505.123	2361.56
505.34	2497.56
505.557	3190.56
505.773	2714.56
505.99	2355.56
506.207	2218.56
506.423	2201.56
506.64	2185.56
506.856	2179.56
507.073	2434.56
507.289	2612.56
507.506	2529.56
507.722	2209.56
507.939	2062.56
508.155	2092.56
508.372	2127.56
508.588	2082.56
508.805	2007.56
509.021	1995.56
509.238	2036.56
509.454	2000.56
509.67	2011.56
509.887	1974.56
510.103	1939.56
510.319	1969.56
510.536	2133.56
510.752	2155.56
510.968	2104.56
511.184	2260.56
511.401	2288.56
511.617	1985.56
511.833	1945.56
512.049	1896.56
512.265	1951.56
512.481	1921.56
512.698	1976.56
512.914	2154.56
513.13	2006.56
513.346	1927.56
513.562	1906.56
513.778	1944.56
513.994	2034.56
514.21	2078.56
514.426	2075.56
514.642	2343.56
514.858	2203.56
515.074	2077.56
515.29	1938.56
515.506	2044.56
515.721	2068.56
515.937	2083.56
516.153	2345.56
516.369	2234.56
516.585	2094.56
516.801	1994.56
517.016	2060.56
517.232	2070.56
517.448	2088.56
517.664	2103.56
517.879	2139.56
518.095	2220.56
518.311	2108.56
518.527	2052.56
518.742	2029.56
518.958	1931.56
519.173	1966.56
519.389	1995.56
519.605	2000.56
519.82	1997.56
520.036	2052.56
520.251	1931.56
520.467	1973.56
520.682	2097.56
520.898	2206.56
521.113	1963.56
521.329	1917.56
521.544	2061.56
521.76	1981.56
521.975	1856.56
522.19	1849.56
522.406	1802.56
522.621	2225.56
522.836	2223.56
523.052	1853.56
523.267	1868.56
523.482	1890.56
523.698	1782.56
523.913	1740.56
524.128	1786.56
524.343	1866.56
524.559	1934.56
524.774	1787.56
524.989	1788.56
525.204	1787.56
525.419	1754.56
525.634	1760.56
525.849	1810.56
526.064	1799.56
526.28	1833.56
526.495	1723.56
526.71	1724.56
526.925	1721.56
527.14	1707.56
527.355	1697.56
527.57	1698.56
527.785	1723.56
527.999	1713.56
528.214	1635.56
528.429	1652.56
528.644	1645.56
528.859	1658.56
529.074	1672.56
529.289	1666.56
529.503	1695.56
529.718	1699.56
529.933	1691.56
530.148	1623.56
530.363	1635.56
530.577	1650.56
530.792	1742.56
531.007	1755.56
531.221	1679.56
531.436	1661.56
531.651	1765.56
531.865	1854.56
532.08	1737.56
532.295	1663.56
532.509	1605.56
532.724	1647.56
532.938	1731.56
533.153	1859.56
533.367	1739.56
533.582	1715.56
533.796	1651.56
534.011	1688.56
534.225	1670.56
534.44	1688.56
534.654	1653.56
534.868	1622.56
535.083	1706.56
535.297	1702.56
535.511	1642.56
535.726	1651.56
535.94	1653.56
536.154	1640.56
536.369	1614.56
536.583	1613.56
536.797	1588.56
537.011	1650.56
537.225	1575.56
537.44	1566.56
537.654	1604.56
537.868	1595.56
538.082	1553.56
538.296	1522.56
538.51	1495.56
538.724	1524.56
538.938	1521.56
539.153	1560.56
539.367	1578.56
539.581	1564.56
539.795	1631.56
540.009	1646.56
540.222	1594.56
540.436	1631.56
540.65	1730.56
540.864	1773.56
541.078	1671.56
541.292	1576.56
541.506	1565.56
541.72	1562.56
541.934	1605.56
542.147	1616.56
542.361	1574.56
542.575	1570.56
542.789	1492.56
543.002	1469.56
543.216	1501.56
543.43	1569.56
543.644	1658.56
543.857	1677.56
544.071	1625.56
544.285	1597.56
544.498	1531.56
544.712	1559.56
544.925	1595.56
545.139	1613.56
545.352	1542.56
545.566	1478.56
545.779	1499.56
545.993	1477.56
546.206	1564.56
546.42	1475.56
546.633	1465.56
546.847	1478.56
547.06	1471.56
547.274	1471.56
547.487	1460.56
547.7	1458.56
547.914	1487.56
548.127	1508.56
548.34	1527.56
548.554	1485.56
548.767	1497.56
548.98	1493.56
549.193	1460.56
549.407	1532.56
549.62	1564.56
549.833	1513.56
550.046	1450.56
550.259	1447.56
550.473	1465.56
550.686	1454.56
550.899	1420.56
551.112	1417.56
551.325	1409.56
551.538	1507.56
551.751	1694.56
551.964	1443.56
552.177	1393.56
552.39	1419.56
552.603	1474.56
552.816	1425.56
553.029	1484.56
553.242	1559.56
553.455	1483.56
553.667	1451.56
553.88	1486.56
554.093	1421.56
554.306	1375.56
554.519	1390.56
554.732	1358.56
554.944	1356.56
555.157	1415.56
555.37	1363.56
555.583	1370.56
555.795	1306.56
556.008	1330.56
556.221	1332.56
556.433	1268.56
556.646	1285.56
556.859	1265.56
557.071	1261.56
557.284	1240.56
557.496	1262.56
557.709	1222.56
557.921	1212.56
558.134	1244.56
558.346	1230.56
558.559	1227.56
558.771	1219.56
558.984	1224.56
559.196	1189.56
559.409	1176.56
559.621	1202.56
559.833	1211.56
560.046	1271.56
560.258	1234.56
560.47	1209.56
560.683	1231.56
560.895	1204.56
561.107	1227.56
561.32	1234.56
561.532	1271.56
561.744	1225.56
561.956	1211.56
562.168	1189.56
562.381	1147.56
562.593	1194.56
562.805	1191.56
563.017	1140.56
563.229	1171.56
563.441	1239.56
563.653	1165.56
563.865	1191.56
564.077	1179.56
564.289	1176.56
564.501	1233.56
564.713	1229.56
564.925	1295.56
565.137	1345.56
565.349	1261.56
565.561	1233.56
565.773	1285.56
565.985	1273.56
566.197	1349.56
566.408	1391.56
566.62	1413.56
566.832	1405.56
567.044	1428.56
567.255	1431.56
567.467	1438.56
567.679	1469.56
567.891	1535.56
568.102	1463.56
568.314	1417.56
568.526	1354.56
568.737	1340.56
568.949	1281.56
569.161	1231.56
569.372	1144.56
569.584	1162.56
569.795	1193.56
570.007	1150.56
570.218	1111.56
570.43	1095.56
570.641	1089.56
570.853	1062.56
571.064	1101.56
571.276	1079.56
571.487	1097.56
571.698	1045.56
571.91	1022.56
572.121	1009.56
572.333	961.56
572.544	972.56
572.755	945.56
572.966	973.56
573.178	941.56
573.389	989.56
573.6	1013.56
573.811	1067.56
574.023	951.56
574.234	925.56
574.445	915.56
574.656	899.56
574.867	896.56
575.078	904.56
575.289	932.56
575.501	900.56
575.712	857.56
575.923	895.56
576.134	909.56
576.345	897.56
576.556	878.56
576.767	870.56
576.978	853.56
577.188	853.56
577.399	870.56
577.61	841.56
577.821	847.56
578.032	836.56
578.243	855.56
578.454	833.56
578.665	819.56
578.875	796.56
579.086	813.56
579.297	839.56
579.508	833.56
579.718	833.56
579.929	834.56
580.14	779.56
580.35	787.56
580.561	844.56
580.772	904.56
580.982	836.56
581.193	822.56
581.403	770.56
581.614	783.56
581.825	757.56
582.035	763.56
582.246	759.56
582.456	788.56
582.667	771.56
582.877	777.56
583.087	789.56
583.298	771.56
583.508	779.56
583.719	759.56
583.929	763.56
584.139	795.56
584.35	759.56
584.56	761.56
584.77	761.56
584.981	767.56
585.191	759.56
585.401	772.56
585.611	732.56
585.821	750.56
586.032	758.56
586.242	733.56
586.452	723.56
586.662	752.56
586.872	752.56
587.082	746.56
587.292	760.56
587.502	769.56
587.713	759.56
587.923	741.56
588.133	707.56
588.343	735.56
588.553	738.56
588.762	709.56
588.972	713.56
589.182	770.56
589.392	715.56
589.602	734.56
589.812	710.56
590.022	695.56
590.232	719.56
590.441	718.56
590.651	747.56
590.861	702.56
591.071	691.56
591.281	685.56
591.49	721.56
591.7	711.56
591.91	719.56
592.119	714.56
592.329	696.56
592.539	746.56
592.748	748.56
592.958	754.56
593.167	750.56
593.377	759.56
593.587	761.56
593.796	782.56
594.006	774.56
594.215	770.56
594.424	740.56
594.634	734.56
594.843	719.56
595.053	758.56
595.262	723.56
595.472	749.56
595.681	711.56
595.89	705.56
596.1	678.56
596.309	689.56
596.518	655.56
596.727	683.56
596.937	666.56
597.146	654.56
597.355	651.56
597.564	658.56
597.774	639.56
597.983	643.56
598.192	650.56
598.401	628.56
598.61	617.56
598.819	619.56
599.028	627.56
599.237	614.56
599.446	588.56
599.655	604.56
599.864	596.56
600.073	567.56
600.282	568.56
600.491	597.56
600.7	585.56
600.909	585.56
601.118	589.56
601.327	563.56
601.536	586.56
601.745	593.56
601.953	601.56
602.162	596.56
602.371	610.56
602.58	582.56
602.789	592.56
602.997	594.56
603.206	573.56
603.415	574.56
603.623	551.56
603.832	586.56
604.041	571.56
604.249	562.56
604.458	564.56
604.666	564.56
604.875	564.56
605.084	554.56
605.292	603.56
605.501	564.56
605.709	547.56
605.918	549.56
606.126	540.56
606.334	531.56
606.543	529.56
606.751	551.56
606.96	561.56
607.168	538.56
607.376	526.56
607.585	532.56
607.793	543.56
608.001	532.56
608.21	522.56
608.418	535.56
608.626	535.56
608.834	548.56
609.043	555.56
609.251	539.56
609.459	528.56
609.667	507.56
609.875	538.56
610.083	534.56
610.291	550.56
610.499	551.56
610.707	531.56
610.916	515.56
611.124	531.56
611.332	524.56
611.54	547.56
611.748	518.56
611.955	519.56
612.163	504.56
612.371	506.56
612.579	503.56
612.787	507.56
612.995	502.56
613.203	493.56
613.411	502.56
613.618	522.56
613.826	522.56
614.034	499.56
614.242	519.56
614.449	507.56
614.657	502.56
614.865	503.56
615.072	516.56
615.28	505.56
615.488	516.56
615.695	531.56
615.903	536.56
616.111	514.56
616.318	503.56
616.526	509.56
616.733	482.56
616.941	495.56
617.148	488.56
617.356	503.56
617.563	480.56
617.771	491.56
617.978	457.56
618.185	487.56
618.393	482.56
618.6	487.56
618.807	493.56
619.015	502.56
619.222	496.56
619.429	463.56
619.637	481.56
619.844	463.56
620.051	476.56
620.258	465.56
620.466	462.56
620.673	444.56
620.88	452.56
621.087	434.56
621.294	452.56
621.501	459.56
621.708	452.56
621.915	467.56
622.122	473.56
622.329	447.56
622.536	476.56
622.743	445.56
622.95	466.56
623.157	436.56
623.364	454.56
623.571	436.56
623.778	428.56
623.985	449.56
624.192	445.56
624.399	469.56
624.606	436.56
624.812	419.56
625.019	438.56
625.226	412.56
625.433	422.56
625.639	424.56
625.846	432.56
626.053	415.56
626.259	395.56
626.466	398.56
626.673	392.56
626.879	379.56
627.086	394.56
627.293	401.56
627.499	405.56
627.706	425.56
627.912	396.56
628.119	397.56
628.325	411.56
628.532	394.56
628.738	389.56
628.945	391.56
629.151	392.56
629.357	427.56
629.564	402.56
629.77	386.56
629.976	375.56
630.183	377.56
630.389	376.56
630.595	389.56
630.802	378.56
631.008	353.56
631.214	380.56
631.42	381.56
631.627	373.56
631.833	366.56
632.039	385.56
632.245	376.56
632.451	374.56
632.657	357.56
632.863	354.56
633.069	357.56
633.275	374.56
633.481	370.56
633.688	366.56
633.893	368.56
634.099	356.56
634.305	353.56
634.511	350.56
634.717	344.56
634.923	344.56
635.129	332.56
635.335	342.56
635.541	353.56
635.747	353.56
635.952	363.56
636.158	340.56
636.364	349.56
636.57	349.56
636.775	331.56
636.981	335.56
637.187	332.56
637.392	340.56
637.598	350.56
637.804	339.56
638.009	331.56
638.215	347.56
638.421	333.56
638.626	357.56
638.832	328.56
639.037	330.56
639.243	341.56
639.448	331.56
639.654	334.56
639.859	323.56
640.065	321.56
640.27	311.56
640.475	338.56
640.681	328.56
640.886	316.56
641.091	328.56
641.297	337.56
641.502	334.56
641.707	331.56
641.913	318.56
642.118	309.56
642.323	303.56
642.528	334.56
642.733	294.56
642.939	309.56
643.144	322.56
643.349	336.56
643.554	314.56
643.759	315.56
643.964	310.56
644.169	335.56
644.374	311.56
644.579	323.56
644.784	317.56
644.989	314.56
645.194	308.56
645.399	312.56
645.604	302.56
645.809	308.56
646.014	309.56
646.219	313.56
646.423	316.56
646.628	307.56
646.833	309.56
647.038	294.56
647.243	302.56
647.447	334.56
647.652	323.56
647.857	315.56
648.062	316.56
648.266	312.56
648.471	320.56
648.676	311.56
648.88	340.56
649.085	314.56
649.289	309.56
649.494	295.56
649.698	302.56
649.903	311.56
650.107	294.56
650.312	284.56
650.516	282.56
650.721	287.56
650.925	286.56
651.13	274.56
651.334	269.56
651.539	268.56
651.743	277.56
651.947	270.56
652.152	279.56
652.356	263.56
652.56	263.56
652.764	256.56
652.969	239.56
653.173	250.56
653.377	261.56
653.581	239.56
653.785	247.56
653.99	243.56
654.194	240.56
654.398	249.56
654.602	248.56
654.806	230.56
655.01	234.56
655.214	241.56
655.418	242.56
655.622	247.56
655.826	265.56
656.03	282.56
656.234	276.56
656.438	259.56
656.642	293.56
656.846	266.56
657.049	244.56
657.253	237.56
657.457	226.56
657.661	202.56
657.865	191.56
658.068	184.56
658.272	163.56
658.476	179.56
658.68	161.56
658.883	154.56
659.087	153.56
659.291	137.56
659.494	132.56
659.698	133.56
659.901	126.56
660.105	137.56
660.309	126.56
660.512	110.56
660.716	117.56
660.919	114.56
661.123	125.56
661.326	117.56
661.53	114.56
661.733	95.56
661.936	106.56
662.14	108.56
662.343	104.56
662.546	100.56
662.75	85.56
662.953	97.56
663.156	93.56
663.36	72.56
663.563	94.56
663.766	90.56
663.969	89.56
664.173	98.56
664.376	90.56
664.579	87.56
664.782	91.56
664.985	80.56
665.188	82.56
665.391	86.56
665.594	87.56
665.797	79.56
666	76.56
666.203	85.56
666.406	87.56
666.609	85.56
666.812	89.56
667.015	85.56
667.218	103.56
667.421	102.56
667.624	62.56
667.827	81.56
668.03	86.56
668.232	80.56
668.435	89.56
668.638	84.56
668.841	77.56
669.043	94.56
669.246	90.56
669.449	87.56
669.651	89.56
669.854	89.56
670.057	82.56
670.259	74.56
670.462	75.56
670.665	76.56
670.867	73.56
671.07	81.56
671.272	89.56
671.475	77.56
671.677	72.56
671.88	93.56
672.082	85.56
672.284	102.56
672.487	88.56
672.689	94.56
672.892	97.56
