Data from WStandard_LampEnergy10_LIBS07252019.E.O._I.C._HRD10591_15-54-32-928.txt Node
Date: Thu Jul 25 15:54:32 EDT 2019
User: cochatt
Spectrometer: HR+D1059
Trigger mode: 1
Integration Time (sec): 1.000000E-1
Scans to average: 1
Electric dark correction enabled: true
Nonlinearity correction enabled: false
Boxcar width: 0
XAxis mode: Wavelengths
Number of Pixels in Spectrum: 2048
>>>>>Begin Spectral Data<<<<<
223.165	-17.88
223.4	-17.88
223.635	-17.88
223.869	-6.88
224.104	-15.88
224.338	-28.88
224.573	-15.88
224.808	-30.88
225.042	-2.88
225.277	-3.88
225.511	-0.88
225.746	9.12
225.98	16.12
226.215	14.12
226.449	6.12
226.683	16.12
226.918	22.12
227.152	40.12
227.387	47.12
227.621	34.12
227.856	48.12
228.09	42.12
228.324	53.12
228.559	54.12
228.793	63.12
229.027	134.12
229.262	151.12
229.496	134.12
229.73	148.12
229.964	163.12
230.199	153.12
230.433	166.12
230.667	178.12
230.901	184.12
231.136	177.12
231.37	178.12
231.604	167.12
231.838	191.12
232.072	179.12
232.306	186.12
232.541	170.12
232.775	195.12
233.009	197.12
233.243	203.12
233.477	190.12
233.711	206.12
233.945	201.12
234.179	188.12
234.413	210.12
234.647	207.12
234.881	208.12
235.115	194.12
235.349	201.12
235.583	193.12
235.817	177.12
236.051	211.12
236.285	198.12
236.519	208.12
236.753	226.12
236.987	229.12
237.221	223.12
237.455	232.12
237.689	242.12
237.922	208.12
238.156	205.12
238.39	198.12
238.624	225.12
238.858	230.12
239.091	241.12
239.325	265.12
239.559	290.12
239.793	294.12
240.027	302.12
240.26	304.12
240.494	244.12
240.728	233.12
240.961	230.12
241.195	234.12
241.429	272.12
241.662	272.12
241.896	247.12
242.13	246.12
242.363	257.12
242.597	283.12
242.83	283.12
243.064	276.12
243.298	295.12
243.531	274.12
243.765	287.12
243.998	278.12
244.232	253.12
244.465	246.12
244.699	252.12
244.932	276.12
245.166	301.12
245.399	302.12
245.633	282.12
245.866	264.12
246.099	288.12
246.333	296.12
246.566	305.12
246.8	304.12
247.033	348.12
247.266	328.12
247.5	300.12
247.733	323.12
247.966	368.12
248.2	369.12
248.433	368.12
248.666	361.12
248.899	390.12
249.133	428.12
249.366	467.12
249.599	400.12
249.832	353.12
250.066	376.12
250.299	376.12
250.532	347.12
250.765	331.12
250.998	345.12
251.231	340.12
251.465	362.12
251.698	315.12
251.931	331.12
252.164	346.12
252.397	373.12
252.63	353.12
252.863	297.12
253.096	338.12
253.329	330.12
253.562	345.12
253.795	367.12
254.028	361.12
254.261	332.12
254.494	331.12
254.727	332.12
254.96	332.12
255.193	376.12
255.426	414.12
255.659	444.12
255.892	430.12
256.124	411.12
256.357	380.12
256.59	415.12
256.823	414.12
257.056	405.12
257.289	474.12
257.521	485.12
257.754	458.12
257.987	436.12
258.22	464.12
258.452	479.12
258.685	392.12
258.918	404.12
259.151	389.12
259.383	384.12
259.616	351.12
259.849	358.12
260.081	430.12
260.314	417.12
260.547	478.12
260.779	462.12
261.012	444.12
261.244	390.12
261.477	379.12
261.71	411.12
261.942	398.12
262.175	390.12
262.407	422.12
262.64	402.12
262.872	368.12
263.105	376.12
263.337	378.12
263.57	369.12
263.802	369.12
264.035	371.12
264.267	347.12
264.499	347.12
264.732	348.12
264.964	375.12
265.197	404.12
265.429	408.12
265.661	459.12
265.894	490.12
266.126	469.12
266.358	438.12
266.591	464.12
266.823	492.12
267.055	432.12
267.287	462.12
267.52	426.12
267.752	452.12
267.984	456.12
268.216	468.12
268.448	477.12
268.681	462.12
268.913	413.12
269.145	406.12
269.377	434.12
269.609	441.12
269.841	492.12
270.073	597.12
270.306	607.12
270.538	601.12
270.77	517.12
271.002	487.12
271.234	480.12
271.466	471.12
271.698	528.12
271.93	612.12
272.162	591.12
272.394	537.12
272.626	515.12
272.858	474.12
273.09	422.12
273.322	402.12
273.553	400.12
273.785	426.12
274.017	393.12
274.249	411.12
274.481	427.12
274.713	408.12
274.945	410.12
275.176	386.12
275.408	400.12
275.64	392.12
275.872	415.12
276.104	441.12
276.335	484.12
276.567	527.12
276.799	508.12
277.031	472.12
277.262	475.12
277.494	482.12
277.726	528.12
277.957	517.12
278.189	478.12
278.421	450.12
278.652	437.12
278.884	423.12
279.115	412.12
279.347	435.12
279.579	423.12
279.81	461.12
280.042	503.12
280.273	533.12
280.505	517.12
280.736	494.12
280.968	481.12
281.199	424.12
281.431	410.12
281.662	422.12
281.894	414.12
282.125	451.12
282.356	446.12
282.588	472.12
282.819	443.12
283.051	508.12
283.282	504.12
283.513	483.12
283.745	442.12
283.976	425.12
284.207	426.12
284.439	442.12
284.67	443.12
284.901	459.12
285.132	449.12
285.364	458.12
285.595	444.12
285.826	468.12
286.057	425.12
286.288	448.12
286.52	477.12
286.751	484.12
286.982	479.12
287.213	448.12
287.444	423.12
287.675	458.12
287.906	478.12
288.138	491.12
288.369	482.12
288.6	452.12
288.831	450.12
289.062	433.12
289.293	441.12
289.524	443.12
289.755	460.12
289.986	442.12
290.217	424.12
290.448	460.12
290.679	455.12
290.91	463.12
291.141	472.12
291.371	496.12
291.602	473.12
291.833	488.12
292.064	486.12
292.295	472.12
292.526	495.12
292.757	534.12
292.987	497.12
293.218	489.12
293.449	534.12
293.68	554.12
293.91	579.12
294.141	555.12
294.372	537.12
294.603	548.12
294.833	572.12
295.064	534.12
295.295	487.12
295.525	487.12
295.756	455.12
295.987	455.12
296.217	451.12
296.448	461.12
296.679	470.12
296.909	474.12
297.14	441.12
297.37	473.12
297.601	499.12
297.831	507.12
298.062	499.12
298.292	466.12
298.523	458.12
298.753	478.12
298.984	475.12
299.214	475.12
299.445	490.12
299.675	496.12
299.905	495.12
300.136	481.12
300.366	460.12
300.597	474.12
300.827	464.12
301.057	475.12
301.288	492.12
301.518	498.12
301.748	532.12
301.979	545.12
302.209	559.12
302.439	576.12
302.669	601.12
302.9	537.12
303.13	507.12
303.36	491.12
303.59	491.12
303.82	517.12
304.051	544.12
304.281	515.12
304.511	526.12
304.741	569.12
304.971	592.12
305.201	635.12
305.431	551.12
305.661	465.12
305.891	461.12
306.121	447.12
306.352	466.12
306.582	524.12
306.812	534.12
307.042	567.12
307.272	564.12
307.502	590.12
307.731	623.12
307.961	610.12
308.191	578.12
308.421	542.12
308.651	497.12
308.881	483.12
309.111	494.12
309.341	498.12
309.571	510.12
309.8	494.12
310.03	509.12
310.26	495.12
310.49	491.12
310.72	495.12
310.949	524.12
311.179	510.12
311.409	514.12
311.639	500.12
311.868	520.12
312.098	518.12
312.328	498.12
312.557	502.12
312.787	528.12
313.017	536.12
313.246	531.12
313.476	537.12
313.706	534.12
313.935	520.12
314.165	555.12
314.394	568.12
314.624	580.12
314.853	615.12
315.083	628.12
315.312	615.12
315.542	579.12
315.771	551.12
316.001	556.12
316.23	577.12
316.46	554.12
316.689	536.12
316.919	517.12
317.148	512.12
317.377	527.12
317.607	570.12
317.836	616.12
318.065	656.12
318.295	616.12
318.524	574.12
318.753	571.12
318.983	555.12
319.212	538.12
319.441	553.12
319.67	548.12
319.9	555.12
320.129	615.12
320.358	605.12
320.587	616.12
320.816	610.12
321.046	579.12
321.275	587.12
321.504	615.12
321.733	625.12
321.962	562.12
322.191	558.12
322.42	555.12
322.649	570.12
322.878	549.12
323.108	564.12
323.337	576.12
323.566	547.12
323.795	564.12
324.024	567.12
324.253	558.12
324.482	564.12
324.71	534.12
324.939	518.12
325.168	556.12
325.397	567.12
325.626	594.12
325.855	598.12
326.084	549.12
326.313	561.12
326.542	554.12
326.77	590.12
326.999	573.12
327.228	540.12
327.457	544.12
327.686	547.12
327.914	539.12
328.143	573.12
328.372	579.12
328.6	569.12
328.829	567.12
329.058	543.12
329.287	558.12
329.515	555.12
329.744	571.12
329.972	616.12
330.201	625.12
330.43	578.12
330.658	594.12
330.887	586.12
331.115	591.12
331.344	599.12
331.572	603.12
331.801	596.12
332.03	592.12
332.258	588.12
332.486	616.12
332.715	600.12
332.943	625.12
333.172	599.12
333.4	606.12
333.629	627.12
333.857	657.12
334.085	727.12
334.314	817.12
334.542	852.12
334.771	736.12
334.999	674.12
335.227	656.12
335.455	633.12
335.684	634.12
335.912	654.12
336.14	632.12
336.369	618.12
336.597	586.12
336.825	588.12
337.053	641.12
337.281	660.12
337.51	681.12
337.738	694.12
337.966	648.12
338.194	595.12
338.422	588.12
338.65	594.12
338.878	564.12
339.106	559.12
339.334	576.12
339.562	574.12
339.79	584.12
340.018	614.12
340.246	620.12
340.474	611.12
340.702	602.12
340.93	606.12
341.158	600.12
341.386	593.12
341.614	607.12
341.842	599.12
342.07	607.12
342.298	624.12
342.526	615.12
342.754	588.12
342.981	556.12
343.209	588.12
343.437	590.12
343.665	570.12
343.893	600.12
344.12	625.12
344.348	630.12
344.576	618.12
344.804	602.12
345.031	577.12
345.259	584.12
345.487	550.12
345.714	559.12
345.942	566.12
346.17	580.12
346.397	551.12
346.625	566.12
346.853	520.12
347.08	531.12
347.308	555.12
347.535	549.12
347.763	558.12
347.99	555.12
348.218	548.12
348.445	552.12
348.673	568.12
348.9	599.12
349.128	601.12
349.355	606.12
349.583	580.12
349.81	561.12
350.037	507.12
350.265	525.12
350.492	540.12
350.72	551.12
350.947	582.12
351.174	582.12
351.402	547.12
351.629	530.12
351.856	503.12
352.083	510.12
352.311	544.12
352.538	567.12
352.765	575.12
352.992	540.12
353.22	539.12
353.447	548.12
353.674	571.12
353.901	544.12
354.128	548.12
354.355	565.12
354.583	596.12
354.81	588.12
355.037	571.12
355.264	569.12
355.491	569.12
355.718	584.12
355.945	553.12
356.172	533.12
356.399	537.12
356.626	544.12
356.853	555.12
357.08	614.12
357.307	654.12
357.534	647.12
357.761	567.12
357.988	553.12
358.215	537.12
358.441	536.12
358.668	518.12
358.895	566.12
359.122	603.12
359.349	647.12
359.576	568.12
359.802	578.12
360.029	522.12
360.256	553.12
360.483	556.12
360.709	578.12
360.936	614.12
361.163	611.12
361.39	676.12
361.616	695.12
361.843	699.12
362.07	652.12
362.296	562.12
362.523	532.12
362.749	568.12
362.976	598.12
363.203	583.12
363.429	559.12
363.656	561.12
363.882	607.12
364.109	660.12
364.335	646.12
364.562	633.12
364.788	588.12
365.015	571.12
365.241	560.12
365.468	570.12
365.694	606.12
365.92	613.12
366.147	575.12
366.373	556.12
366.599	567.12
366.826	555.12
367.052	556.12
367.278	569.12
367.505	580.12
367.731	623.12
367.957	615.12
368.184	640.12
368.41	681.12
368.636	669.12
368.862	646.12
369.089	648.12
369.315	643.12
369.541	617.12
369.767	587.12
369.993	585.12
370.219	583.12
370.445	592.12
370.672	656.12
370.898	672.12
371.124	666.12
371.35	628.12
371.576	653.12
371.802	655.12
372.028	639.12
372.254	633.12
372.48	600.12
372.706	594.12
372.932	577.12
373.158	600.12
373.384	620.12
373.61	634.12
373.835	652.12
374.061	633.12
374.287	613.12
374.513	626.12
374.739	618.12
374.965	642.12
375.191	630.12
375.416	638.12
375.642	656.12
375.868	719.12
376.094	717.12
376.319	681.12
376.545	642.12
376.771	651.12
376.997	698.12
377.222	673.12
377.448	669.12
377.674	641.12
377.899	661.12
378.125	696.12
378.35	681.12
378.576	638.12
378.802	610.12
379.027	622.12
379.253	622.12
379.478	644.12
379.704	656.12
379.929	633.12
380.155	626.12
380.38	650.12
380.606	656.12
380.831	645.12
381.057	687.12
381.282	707.12
381.507	676.12
381.733	748.12
381.958	735.12
382.184	694.12
382.409	681.12
382.634	677.12
382.86	666.12
383.085	690.12
383.31	713.12
383.535	761.12
383.761	763.12
383.986	752.12
384.211	719.12
384.436	715.12
384.662	781.12
384.887	774.12
385.112	718.12
385.337	726.12
385.562	710.12
385.787	698.12
386.013	753.12
386.238	749.12
386.463	738.12
386.688	823.12
386.913	843.12
387.138	832.12
387.363	752.12
387.588	764.12
387.813	770.12
388.038	764.12
388.263	804.12
388.488	745.12
388.713	713.12
388.938	712.12
389.163	727.12
389.387	746.12
389.612	743.12
389.837	748.12
390.062	762.12
390.287	743.12
390.512	728.12
390.736	742.12
390.961	719.12
391.186	710.12
391.411	720.12
391.636	737.12
391.86	753.12
392.085	763.12
392.31	728.12
392.534	772.12
392.759	772.12
392.984	768.12
393.208	751.12
393.433	802.12
393.658	805.12
393.882	833.12
394.107	747.12
394.331	743.12
394.556	806.12
394.78	792.12
395.005	791.12
395.229	834.12
395.454	875.12
395.678	853.12
395.903	807.12
396.127	806.12
396.352	830.12
396.576	834.12
396.801	835.12
397.025	842.12
397.249	847.12
397.474	834.12
397.698	802.12
397.922	873.12
398.147	854.12
398.371	887.12
398.595	890.12
398.82	859.12
399.044	883.12
399.268	899.12
399.492	950.12
399.717	1020.12
399.941	977.12
400.165	962.12
400.389	952.12
400.613	975.12
400.837	1107.12
401.062	1173.12
401.286	1024.12
401.51	963.12
401.734	958.12
401.958	960.12
402.182	894.12
402.406	872.12
402.63	837.12
402.854	867.12
403.078	898.12
403.302	879.12
403.526	921.12
403.75	917.12
403.974	936.12
404.198	931.12
404.422	948.12
404.645	989.12
404.869	978.12
405.093	907.12
405.317	869.12
405.541	922.12
405.765	909.12
405.988	939.12
406.212	930.12
406.436	971.12
406.66	1007.12
406.883	1042.12
407.107	1108.12
407.331	1208.12
407.555	1265.12
407.778	1121.12
408.002	970.12
408.226	960.12
408.449	945.12
408.673	962.12
408.896	938.12
409.12	964.12
409.344	953.12
409.567	942.12
409.791	929.12
410.014	975.12
410.238	1002.12
410.461	1059.12
410.685	928.12
410.908	937.12
411.132	930.12
411.355	926.12
411.578	926.12
411.802	932.12
412.025	953.12
412.249	908.12
412.472	903.12
412.695	902.12
412.919	892.12
413.142	911.12
413.365	902.12
413.589	981.12
413.812	1002.12
414.035	972.12
414.258	934.12
414.482	917.12
414.705	900.12
414.928	898.12
415.151	901.12
415.374	942.12
415.597	951.12
415.821	946.12
416.044	942.12
416.267	914.12
416.49	894.12
416.713	936.12
416.936	940.12
417.159	970.12
417.382	946.12
417.605	908.12
417.828	920.12
418.051	928.12
418.274	961.12
418.497	948.12
418.72	971.12
418.943	896.12
419.166	946.12
419.389	969.12
419.611	974.12
419.834	959.12
420.057	935.12
420.28	914.12
420.503	931.12
420.726	979.12
420.948	938.12
421.171	909.12
421.394	946.12
421.617	965.12
421.839	983.12
422.062	979.12
422.285	945.12
422.507	927.12
422.73	909.12
422.953	886.12
423.175	861.12
423.398	927.12
423.621	908.12
423.843	903.12
424.066	958.12
424.288	1024.12
424.511	1034.12
424.733	999.12
424.956	951.12
425.178	940.12
425.401	909.12
425.623	939.12
425.846	912.12
426.068	967.12
426.291	983.12
426.513	955.12
426.735	974.12
426.958	1047.12
427.18	1063.12
427.402	993.12
427.625	1032.12
427.847	975.12
428.069	916.12
428.292	914.12
428.514	913.12
428.736	890.12
428.958	909.12
429.181	931.12
429.403	1054.12
429.625	1192.12
429.847	1033.12
430.069	966.12
430.292	1057.12
430.514	1030.12
430.736	1007.12
430.958	978.12
431.18	911.12
431.402	884.12
431.624	862.12
431.846	821.12
432.068	714.12
432.29	722.12
432.512	776.12
432.734	866.12
432.956	938.12
433.178	944.12
433.4	953.12
433.622	954.12
433.844	938.12
434.066	837.12
434.287	798.12
434.509	792.12
434.731	830.12
434.953	918.12
435.175	928.12
435.397	914.12
435.618	878.12
435.84	849.12
436.062	834.12
436.284	875.12
436.505	926.12
436.727	937.12
436.949	930.12
437.17	865.12
437.392	867.12
437.614	838.12
437.835	789.12
438.057	832.12
438.278	833.12
438.5	842.12
438.721	887.12
438.943	914.12
439.165	929.12
439.386	926.12
439.608	958.12
439.829	914.12
440.05	948.12
440.272	961.12
440.493	948.12
440.715	963.12
440.936	1004.12
441.158	1030.12
441.379	1050.12
441.6	1062.12
441.822	1011.12
442.043	1030.12
442.264	975.12
442.486	954.12
442.707	968.12
442.928	954.12
443.149	977.12
443.371	997.12
443.592	1017.12
443.813	1014.12
444.034	1006.12
444.255	1010.12
444.476	1005.12
444.698	1018.12
444.919	1033.12
445.14	1185.12
445.361	1115.12
445.582	1068.12
445.803	1047.12
446.024	1065.12
446.245	1076.12
446.466	1063.12
446.687	1041.12
446.908	1064.12
447.129	1025.12
447.35	1004.12
447.571	994.12
447.792	962.12
448.013	975.12
448.234	959.12
448.455	1015.12
448.675	990.12
448.896	910.12
449.117	909.12
449.338	946.12
449.559	948.12
449.779	978.12
450	1017.12
450.221	1057.12
450.442	1028.12
450.662	933.12
450.883	871.12
451.104	887.12
451.324	898.12
451.545	877.12
451.766	862.12
451.986	838.12
452.207	776.12
452.428	800.12
452.648	784.12
452.869	790.12
453.089	784.12
453.31	779.12
453.53	766.12
453.751	716.12
453.971	684.12
454.192	721.12
454.412	774.12
454.633	776.12
454.853	790.12
455.073	780.12
455.294	771.12
455.514	774.12
455.734	782.12
455.955	762.12
456.175	747.12
456.395	724.12
456.616	742.12
456.836	735.12
457.056	704.12
457.276	724.12
457.497	727.12
457.717	681.12
457.937	710.12
458.157	711.12
458.377	707.12
458.598	697.12
458.818	668.12
459.038	714.12
459.258	718.12
459.478	718.12
459.698	679.12
459.918	701.12
460.138	783.12
460.358	813.12
460.578	808.12
460.798	838.12
461.018	873.12
461.238	875.12
461.458	854.12
461.678	852.12
461.898	812.12
462.118	810.12
462.338	827.12
462.558	848.12
462.777	861.12
462.997	869.12
463.217	887.12
463.437	906.12
463.657	863.12
463.876	816.12
464.096	827.12
464.316	833.12
464.536	842.12
464.755	853.12
464.975	852.12
465.195	873.12
465.414	868.12
465.634	841.12
465.854	884.12
466.073	959.12
466.293	948.12
466.512	873.12
466.732	865.12
466.951	902.12
467.171	892.12
467.391	859.12
467.61	871.12
467.829	895.12
468.049	958.12
468.268	1043.12
468.488	940.12
468.707	907.12
468.927	913.12
469.146	893.12
469.365	906.12
469.585	938.12
469.804	901.12
470.023	915.12
470.243	947.12
470.462	927.12
470.681	904.12
470.901	925.12
471.12	898.12
471.339	931.12
471.558	939.12
471.777	902.12
471.997	907.12
472.216	865.12
472.435	778.12
472.654	754.12
472.873	742.12
473.092	833.12
473.311	808.12
473.53	794.12
473.749	835.12
473.968	831.12
474.187	834.12
474.406	858.12
474.625	859.12
474.844	891.12
475.063	860.12
475.282	854.12
475.501	852.12
475.72	836.12
475.939	878.12
476.158	887.12
476.377	892.12
476.596	855.12
476.814	804.12
477.033	761.12
477.252	863.12
477.471	896.12
477.69	938.12
477.908	932.12
478.127	986.12
478.346	1022.12
478.564	1016.12
478.783	978.12
479.002	1044.12
479.22	1004.12
479.439	1035.12
479.658	1051.12
479.876	958.12
480.095	902.12
480.313	883.12
480.532	876.12
480.751	854.12
480.969	841.12
481.188	778.12
481.406	752.12
481.624	775.12
481.843	807.12
482.061	822.12
482.28	888.12
482.498	872.12
482.717	836.12
482.935	893.12
483.153	971.12
483.372	999.12
483.59	1020.12
483.808	998.12
484.027	920.12
484.245	997.12
484.463	1234.12
484.681	1246.12
484.9	1023.12
485.118	953.12
485.336	937.12
485.554	893.12
485.772	888.12
485.99	852.12
486.209	893.12
486.427	920.12
486.645	942.12
486.863	992.12
487.081	1035.12
487.299	1014.12
487.517	1031.12
487.735	1106.12
487.953	1217.12
488.171	1182.12
488.389	1137.12
488.607	1046.12
488.825	1131.12
489.043	1073.12
489.261	974.12
489.479	1024.12
489.696	1070.12
489.914	1010.12
490.132	1020.12
490.35	1062.12
490.568	1175.12
490.786	1186.12
491.003	1218.12
491.221	1255.12
491.439	1315.12
491.657	1323.12
491.874	1372.12
492.092	1420.12
492.31	1468.12
492.527	1474.12
492.745	1358.12
492.963	1312.12
493.18	1288.12
493.398	1339.12
493.615	1327.12
493.833	1289.12
494.05	1284.12
494.268	1240.12
494.485	1231.12
494.703	1224.12
494.92	1214.12
495.138	1212.12
495.355	1218.12
495.573	1240.12
495.79	1290.12
496.008	1307.12
496.225	1227.12
496.442	1231.12
496.66	1203.12
496.877	1195.12
497.094	1252.12
497.312	1226.12
497.529	1201.12
497.746	1198.12
497.963	1287.12
498.181	1314.12
498.398	1265.12
498.615	1180.12
498.832	1154.12
499.049	1150.12
499.267	1172.12
499.484	1263.12
499.701	1331.12
499.918	1360.12
500.135	1488.12
500.352	1576.12
500.569	1574.12
500.786	1704.12
501.003	1547.12
501.22	1432.12
501.437	1356.12
501.654	1422.12
501.871	1350.12
502.088	1234.12
502.305	1184.12
502.522	1146.12
502.739	1104.12
502.956	1074.12
503.172	1059.12
503.389	992.12
503.606	997.12
503.823	993.12
504.04	984.12
504.256	1016.12
504.473	1006.12
504.69	1004.12
504.907	974.12
505.123	978.12
505.34	1049.12
505.557	1348.12
505.773	1109.12
505.99	950.12
506.207	896.12
506.423	888.12
506.64	885.12
506.856	919.12
507.073	1023.12
507.289	1101.12
507.506	1004.12
507.722	891.12
507.939	865.12
508.155	866.12
508.372	840.12
508.588	834.12
508.805	801.12
509.021	789.12
509.238	782.12
509.454	744.12
509.67	758.12
509.887	741.12
510.103	733.12
510.319	738.12
510.536	777.12
510.752	789.12
510.968	756.12
511.184	768.12
511.401	768.12
511.617	689.12
511.833	712.12
512.049	692.12
512.265	702.12
512.481	703.12
512.698	743.12
512.914	759.12
513.13	752.12
513.346	709.12
513.562	694.12
513.778	717.12
513.994	773.12
514.21	754.12
514.426	778.12
514.642	818.12
514.858	780.12
515.074	732.12
515.29	733.12
515.506	731.12
515.721	734.12
515.937	737.12
516.153	818.12
516.369	788.12
516.585	738.12
516.801	715.12
517.016	728.12
517.232	772.12
517.448	778.12
517.664	776.12
517.879	800.12
518.095	780.12
518.311	783.12
518.527	760.12
518.742	723.12
518.958	767.12
519.173	747.12
519.389	773.12
519.605	766.12
519.82	811.12
520.036	779.12
520.251	768.12
520.467	786.12
520.682	797.12
520.898	785.12
521.113	725.12
521.329	698.12
521.544	758.12
521.76	732.12
521.975	734.12
522.19	694.12
522.406	729.12
522.621	912.12
522.836	856.12
523.052	751.12
523.267	766.12
523.482	739.12
523.698	717.12
523.913	751.12
524.128	771.12
524.343	807.12
524.559	805.12
524.774	784.12
524.989	763.12
525.204	757.12
525.419	735.12
525.634	728.12
525.849	770.12
526.064	736.12
526.28	720.12
526.495	651.12
526.71	638.12
526.925	631.12
527.14	641.12
527.355	640.12
527.57	616.12
527.785	651.12
527.999	650.12
528.214	668.12
528.429	705.12
528.644	731.12
528.859	772.12
529.074	830.12
529.289	871.12
529.503	863.12
529.718	803.12
529.933	744.12
530.148	665.12
530.363	660.12
530.577	634.12
530.792	593.12
531.007	629.12
531.221	607.12
531.436	628.12
531.651	653.12
531.865	652.12
532.08	666.12
532.295	628.12
532.509	604.12
532.724	636.12
532.938	661.12
533.153	694.12
533.367	714.12
533.582	745.12
533.796	735.12
534.011	697.12
534.225	660.12
534.44	621.12
534.654	660.12
534.868	617.12
535.083	690.12
535.297	696.12
535.511	674.12
535.726	703.12
535.94	682.12
536.154	644.12
536.369	627.12
536.583	607.12
536.797	590.12
537.011	633.12
537.225	598.12
537.44	597.12
537.654	666.12
537.868	627.12
538.082	586.12
538.296	612.12
538.51	612.12
538.724	664.12
538.938	720.12
539.153	727.12
539.367	740.12
539.581	695.12
539.795	670.12
540.009	635.12
540.222	627.12
540.436	699.12
540.65	753.12
540.864	793.12
541.078	811.12
541.292	854.12
541.506	887.12
541.72	964.12
541.934	1036.12
542.147	1076.12
542.361	1015.12
542.575	894.12
542.789	838.12
543.002	764.12
543.216	727.12
543.43	784.12
543.644	808.12
543.857	860.12
544.071	918.12
544.285	948.12
544.498	948.12
544.712	927.12
544.925	964.12
545.139	953.12
545.352	939.12
545.566	916.12
545.779	948.12
545.993	953.12
546.206	982.12
546.42	959.12
546.633	936.12
546.847	922.12
547.06	951.12
547.274	960.12
547.487	972.12
547.7	979.12
547.914	973.12
548.127	935.12
548.34	939.12
548.554	943.12
548.767	932.12
548.98	920.12
549.193	940.12
549.407	970.12
549.62	969.12
549.833	924.12
550.046	898.12
550.259	904.12
550.473	867.12
550.686	870.12
550.899	884.12
551.112	857.12
551.325	834.12
551.538	808.12
551.751	854.12
551.964	675.12
552.177	724.12
552.39	780.12
552.603	858.12
552.816	865.12
553.029	889.12
553.242	905.12
553.455	911.12
553.667	907.12
553.88	888.12
554.093	867.12
554.306	859.12
554.519	818.12
554.732	847.12
554.944	821.12
555.157	807.12
555.37	805.12
555.583	812.12
555.795	737.12
556.008	754.12
556.221	734.12
556.433	703.12
556.646	736.12
556.859	725.12
557.071	754.12
557.284	724.12
557.496	753.12
557.709	734.12
557.921	737.12
558.134	731.12
558.346	727.12
558.559	730.12
558.771	714.12
558.984	699.12
559.196	662.12
559.409	687.12
559.621	659.12
559.833	644.12
560.046	672.12
560.258	671.12
560.47	672.12
560.683	698.12
560.895	688.12
561.107	679.12
561.32	670.12
561.532	684.12
561.744	659.12
561.956	686.12
562.168	649.12
562.381	616.12
562.593	640.12
562.805	647.12
563.017	632.12
563.229	645.12
563.441	657.12
563.653	630.12
563.865	594.12
564.077	610.12
564.289	627.12
564.501	628.12
564.713	614.12
564.925	631.12
565.137	666.12
565.349	606.12
565.561	602.12
565.773	611.12
565.985	612.12
566.197	648.12
566.408	677.12
566.62	694.12
566.832	685.12
567.044	639.12
567.255	651.12
567.467	651.12
567.679	655.12
567.891	662.12
568.102	611.12
568.314	577.12
568.526	535.12
568.737	486.12
568.949	478.12
569.161	468.12
569.372	455.12
569.584	457.12
569.795	455.12
570.007	463.12
570.218	441.12
570.43	439.12
570.641	449.12
570.853	462.12
571.064	475.12
571.276	511.12
571.487	473.12
571.698	457.12
571.91	464.12
572.121	470.12
572.333	455.12
572.544	454.12
572.755	403.12
572.966	402.12
573.178	394.12
573.389	399.12
573.6	418.12
573.811	454.12
574.023	416.12
574.234	397.12
574.445	374.12
574.656	375.12
574.867	398.12
575.078	390.12
575.289	420.12
575.501	390.12
575.712	395.12
575.923	389.12
576.134	394.12
576.345	384.12
576.556	419.12
576.767	378.12
576.978	392.12
577.188	377.12
577.399	396.12
577.61	370.12
577.821	391.12
578.032	358.12
578.243	362.12
578.454	346.12
578.665	361.12
578.875	358.12
579.086	337.12
579.297	338.12
579.508	360.12
579.718	341.12
579.929	344.12
580.14	334.12
580.35	343.12
580.561	346.12
580.772	377.12
580.982	379.12
581.193	339.12
581.403	360.12
581.614	340.12
581.825	323.12
582.035	344.12
582.246	346.12
582.456	346.12
582.667	331.12
582.877	339.12
583.087	335.12
583.298	319.12
583.508	328.12
583.719	328.12
583.929	319.12
584.139	326.12
584.35	316.12
584.56	318.12
584.77	332.12
584.981	325.12
585.191	319.12
585.401	343.12
585.611	330.12
585.821	313.12
586.032	318.12
586.242	320.12
586.452	306.12
586.662	307.12
586.872	328.12
587.082	290.12
587.292	328.12
587.502	325.12
587.713	327.12
587.923	335.12
588.133	303.12
588.343	309.12
588.553	302.12
588.762	307.12
588.972	300.12
589.182	314.12
589.392	315.12
589.602	326.12
589.812	312.12
590.022	308.12
590.232	296.12
590.441	305.12
590.651	294.12
590.861	308.12
591.071	311.12
591.281	310.12
591.49	318.12
591.7	317.12
591.91	293.12
592.119	299.12
592.329	297.12
592.539	304.12
592.748	322.12
592.958	326.12
593.167	329.12
593.377	327.12
593.587	330.12
593.796	308.12
594.006	313.12
594.215	322.12
594.424	329.12
594.634	327.12
594.843	332.12
595.053	339.12
595.262	334.12
595.472	325.12
595.681	313.12
595.89	319.12
596.1	305.12
596.309	320.12
596.518	327.12
596.727	338.12
596.937	338.12
597.146	304.12
597.355	320.12
597.564	304.12
597.774	310.12
597.983	283.12
598.192	264.12
598.401	277.12
598.61	277.12
598.819	293.12
599.028	303.12
599.237	308.12
599.446	295.12
599.655	276.12
599.864	285.12
600.073	293.12
600.282	288.12
600.491	295.12
600.7	272.12
600.909	267.12
601.118	313.12
601.327	331.12
601.536	346.12
601.745	339.12
601.953	324.12
602.162	336.12
602.371	331.12
602.58	342.12
602.789	360.12
602.997	360.12
603.206	339.12
603.415	344.12
603.623	353.12
603.832	354.12
604.041	344.12
604.249	327.12
604.458	304.12
604.666	295.12
604.875	281.12
605.084	316.12
605.292	321.12
605.501	356.12
605.709	377.12
605.918	349.12
606.126	350.12
606.334	359.12
606.543	354.12
606.751	356.12
606.96	341.12
607.168	339.12
607.376	356.12
607.585	344.12
607.793	341.12
608.001	360.12
608.21	377.12
608.418	362.12
608.626	351.12
608.834	353.12
609.043	357.12
609.251	362.12
609.459	360.12
609.667	371.12
609.875	363.12
610.083	372.12
610.291	347.12
610.499	340.12
610.707	338.12
610.916	346.12
611.124	363.12
611.332	350.12
611.54	376.12
611.748	368.12
611.955	347.12
612.163	355.12
612.371	367.12
612.579	370.12
612.787	363.12
612.995	351.12
613.203	354.12
613.411	380.12
613.618	341.12
613.826	342.12
614.034	349.12
614.242	360.12
614.449	362.12
614.657	374.12
614.865	358.12
615.072	350.12
615.28	346.12
615.488	347.12
615.695	357.12
615.903	368.12
616.111	349.12
616.318	347.12
616.526	360.12
616.733	347.12
616.941	339.12
617.148	346.12
617.356	354.12
617.563	313.12
617.771	321.12
617.978	330.12
618.185	330.12
618.393	342.12
618.6	337.12
618.807	349.12
619.015	335.12
619.222	323.12
619.429	331.12
619.637	326.12
619.844	294.12
620.051	283.12
620.258	304.12
620.466	328.12
620.673	316.12
620.88	332.12
621.087	312.12
621.294	295.12
621.501	283.12
621.708	306.12
621.915	306.12
622.122	324.12
622.329	333.12
622.536	318.12
622.743	331.12
622.95	322.12
623.157	316.12
623.364	322.12
623.571	340.12
623.778	326.12
623.985	321.12
624.192	331.12
624.399	327.12
624.606	308.12
624.812	301.12
625.019	300.12
625.226	325.12
625.433	292.12
625.639	272.12
625.846	263.12
626.053	259.12
626.259	255.12
626.466	234.12
626.673	247.12
626.879	224.12
627.086	264.12
627.293	267.12
627.499	279.12
627.706	283.12
627.912	302.12
628.119	296.12
628.325	295.12
628.532	300.12
628.738	276.12
628.945	267.12
629.151	290.12
629.357	270.12
629.564	271.12
629.77	297.12
629.976	270.12
630.183	280.12
630.389	264.12
630.595	281.12
630.802	274.12
631.008	270.12
631.214	282.12
631.42	245.12
631.627	262.12
631.833	238.12
632.039	259.12
632.245	259.12
632.451	267.12
632.657	250.12
632.863	261.12
633.069	266.12
633.275	249.12
633.481	259.12
633.688	273.12
633.893	244.12
634.099	252.12
634.305	242.12
634.511	237.12
634.717	256.12
634.923	240.12
635.129	231.12
635.335	230.12
635.541	260.12
635.747	245.12
635.952	257.12
636.158	263.12
636.364	254.12
636.57	247.12
636.775	266.12
636.981	260.12
637.187	271.12
637.392	250.12
637.598	265.12
637.804	267.12
638.009	275.12
638.215	263.12
638.421	275.12
638.626	261.12
638.832	259.12
639.037	241.12
639.243	227.12
639.448	242.12
639.654	224.12
639.859	249.12
640.065	230.12
640.27	246.12
640.475	232.12
640.681	244.12
640.886	225.12
641.091	230.12
641.297	255.12
641.502	245.12
641.707	249.12
641.913	233.12
642.118	248.12
642.323	240.12
642.528	264.12
642.733	257.12
642.939	247.12
643.144	242.12
643.349	228.12
643.554	238.12
643.759	235.12
643.964	243.12
644.169	246.12
644.374	235.12
644.579	244.12
644.784	219.12
644.989	252.12
645.194	233.12
645.399	237.12
645.604	251.12
645.809	270.12
646.014	239.12
646.219	238.12
646.423	223.12
646.628	232.12
646.833	259.12
647.038	242.12
647.243	232.12
647.447	243.12
647.652	250.12
647.857	257.12
648.062	232.12
648.266	238.12
648.471	239.12
648.676	259.12
648.88	252.12
649.085	241.12
649.289	242.12
649.494	230.12
649.698	245.12
649.903	229.12
650.107	240.12
650.312	245.12
650.516	230.12
650.721	222.12
650.925	227.12
651.13	228.12
651.334	224.12
651.539	229.12
651.743	208.12
651.947	209.12
652.152	220.12
652.356	223.12
652.56	208.12
652.764	213.12
652.969	208.12
653.173	204.12
653.377	207.12
653.581	203.12
653.785	200.12
653.99	199.12
654.194	204.12
654.398	202.12
654.602	213.12
654.806	216.12
655.01	204.12
655.214	188.12
655.418	197.12
655.622	200.12
655.826	211.12
656.03	198.12
656.234	220.12
656.438	206.12
656.642	233.12
656.846	215.12
657.049	209.12
657.253	187.12
657.457	192.12
657.661	181.12
657.865	175.12
658.068	174.12
658.272	152.12
658.476	165.12
658.68	152.12
658.883	135.12
659.087	153.12
659.291	120.12
659.494	126.12
659.698	143.12
659.901	144.12
660.105	116.12
660.309	114.12
660.512	103.12
660.716	107.12
660.919	100.12
661.123	117.12
661.326	134.12
661.53	114.12
661.733	87.12
661.936	114.12
662.14	80.12
662.343	103.12
662.546	99.12
662.75	95.12
662.953	84.12
663.156	83.12
663.36	86.12
663.563	97.12
663.766	76.12
663.969	82.12
664.173	75.12
664.376	91.12
664.579	69.12
664.782	83.12
664.985	82.12
665.188	86.12
665.391	93.12
665.594	86.12
665.797	89.12
666	87.12
666.203	81.12
666.406	83.12
666.609	89.12
666.812	76.12
667.015	79.12
667.218	86.12
667.421	86.12
667.624	85.12
667.827	80.12
668.03	86.12
668.232	86.12
668.435	87.12
668.638	67.12
668.841	85.12
669.043	70.12
669.246	84.12
669.449	79.12
669.651	76.12
669.854	84.12
670.057	85.12
670.259	79.12
670.462	86.12
670.665	95.12
670.867	91.12
671.07	95.12
671.272	92.12
671.475	85.12
671.677	98.12
671.88	90.12
672.082	83.12
672.284	65.12
672.487	75.12
672.689	60.12
672.892	67.12
