Data from WStandard_LampEnergy8_LIBS07252019.E.O._I.C._HRD10591_16-00-14-929.txt Node
Date: Thu Jul 25 16:00:14 EDT 2019
User: cochatt
Spectrometer: HR+D1059
Trigger mode: 1
Integration Time (sec): 1.000000E-1
Scans to average: 1
Electric dark correction enabled: true
Nonlinearity correction enabled: false
Boxcar width: 0
XAxis mode: Wavelengths
Number of Pixels in Spectrum: 2048
>>>>>Begin Spectral Data<<<<<
223.165	-12.56
223.4	-12.56
223.635	-12.56
223.869	-17.56
224.104	-10.56
224.338	-11.56
224.573	-12.56
224.808	-14.56
225.042	-3.56
225.277	-18.56
225.511	-9.56
225.746	20.44
225.98	3.44
226.215	7.44
226.449	10.44
226.683	7.44
226.918	31.44
227.152	30.44
227.387	46.44
227.621	48.44
227.856	50.44
228.09	44.44
228.324	64.44
228.559	56.44
228.793	110.44
229.027	197.44
229.262	227.44
229.496	228.44
229.73	234.44
229.964	260.44
230.199	244.44
230.433	264.44
230.667	288.44
230.901	269.44
231.136	271.44
231.37	233.44
231.604	257.44
231.838	278.44
232.072	276.44
232.306	267.44
232.541	274.44
232.775	315.44
233.009	326.44
233.243	292.44
233.477	284.44
233.711	306.44
233.945	305.44
234.179	318.44
234.413	313.44
234.647	332.44
234.881	310.44
235.115	292.44
235.349	323.44
235.583	298.44
235.817	301.44
236.051	300.44
236.285	311.44
236.519	338.44
236.753	340.44
236.987	355.44
237.221	358.44
237.455	372.44
237.689	378.44
237.922	361.44
238.156	341.44
238.39	353.44
238.624	371.44
238.858	384.44
239.091	407.44
239.325	421.44
239.559	468.44
239.793	520.44
240.027	524.44
240.26	496.44
240.494	385.44
240.728	375.44
240.961	381.44
241.195	369.44
241.429	436.44
241.662	413.44
241.896	384.44
242.13	414.44
242.363	437.44
242.597	477.44
242.83	449.44
243.064	454.44
243.298	497.44
243.531	468.44
243.765	449.44
243.998	455.44
244.232	418.44
244.465	420.44
244.699	428.44
244.932	482.44
245.166	505.44
245.399	503.44
245.633	496.44
245.866	451.44
246.099	467.44
246.333	478.44
246.566	487.44
246.8	527.44
247.033	578.44
247.266	549.44
247.5	535.44
247.733	548.44
247.966	564.44
248.2	600.44
248.433	600.44
248.666	647.44
248.899	673.44
249.133	748.44
249.366	791.44
249.599	680.44
249.832	597.44
250.066	636.44
250.299	609.44
250.532	576.44
250.765	548.44
250.998	560.44
251.231	603.44
251.465	625.44
251.698	594.44
251.931	572.44
252.164	614.44
252.397	601.44
252.63	617.44
252.863	552.44
253.096	576.44
253.329	557.44
253.562	611.44
253.795	610.44
254.028	620.44
254.261	596.44
254.494	584.44
254.727	562.44
254.96	587.44
255.193	653.44
255.426	702.44
255.659	791.44
255.892	768.44
256.124	682.44
256.357	641.44
256.59	696.44
256.823	703.44
257.056	717.44
257.289	830.44
257.521	901.44
257.754	816.44
257.987	791.44
258.22	822.44
258.452	826.44
258.685	687.44
258.918	693.44
259.151	689.44
259.383	637.44
259.616	590.44
259.849	618.44
260.081	737.44
260.314	778.44
260.547	812.44
260.779	835.44
261.012	761.44
261.244	692.44
261.477	679.44
261.71	704.44
261.942	702.44
262.175	682.44
262.407	704.44
262.64	643.44
262.872	631.44
263.105	626.44
263.337	638.44
263.57	610.44
263.802	635.44
264.035	603.44
264.267	583.44
264.499	567.44
264.732	611.44
264.964	646.44
265.197	652.44
265.429	707.44
265.661	816.44
265.894	838.44
266.126	870.44
266.358	766.44
266.591	828.44
266.823	850.44
267.055	791.44
267.287	795.44
267.52	766.44
267.752	739.44
267.984	770.44
268.216	804.44
268.448	805.44
268.681	797.44
268.913	739.44
269.145	712.44
269.377	693.44
269.609	771.44
269.841	886.44
270.073	1000.44
270.306	1089.44
270.538	1093.44
270.77	962.44
271.002	857.44
271.234	805.44
271.466	844.44
271.698	907.44
271.93	1057.44
272.162	1029.44
272.394	992.44
272.626	909.44
272.858	818.44
273.09	716.44
273.322	674.44
273.553	668.44
273.785	682.44
274.017	708.44
274.249	759.44
274.481	766.44
274.713	699.44
274.945	684.44
275.176	696.44
275.408	702.44
275.64	685.44
275.872	675.44
276.104	732.44
276.335	868.44
276.567	925.44
276.799	908.44
277.031	844.44
277.262	821.44
277.494	837.44
277.726	915.44
277.957	891.44
278.189	818.44
278.421	778.44
278.652	743.44
278.884	754.44
279.115	745.44
279.347	754.44
279.579	762.44
279.81	753.44
280.042	829.44
280.273	892.44
280.505	860.44
280.736	872.44
280.968	803.44
281.199	742.44
281.431	726.44
281.662	719.44
281.894	759.44
282.125	758.44
282.356	788.44
282.588	758.44
282.819	789.44
283.051	864.44
283.282	880.44
283.513	854.44
283.745	718.44
283.976	726.44
284.207	732.44
284.439	734.44
284.67	734.44
284.901	769.44
285.132	796.44
285.364	797.44
285.595	797.44
285.826	775.44
286.057	766.44
286.288	786.44
286.52	795.44
286.751	864.44
286.982	852.44
287.213	779.44
287.444	752.44
287.675	745.44
287.906	810.44
288.138	835.44
288.369	800.44
288.6	772.44
288.831	738.44
289.062	754.44
289.293	759.44
289.524	770.44
289.755	828.44
289.986	788.44
290.217	742.44
290.448	773.44
290.679	765.44
290.91	780.44
291.141	833.44
291.371	826.44
291.602	805.44
291.833	825.44
292.064	853.44
292.295	830.44
292.526	845.44
292.757	880.44
292.987	812.44
293.218	795.44
293.449	891.44
293.68	967.44
293.91	1026.44
294.141	971.44
294.372	924.44
294.603	933.44
294.833	977.44
295.064	926.44
295.295	855.44
295.525	796.44
295.756	744.44
295.987	730.44
296.217	736.44
296.448	774.44
296.679	791.44
296.909	785.44
297.14	763.44
297.37	777.44
297.601	844.44
297.831	922.44
298.062	889.44
298.292	849.44
298.523	801.44
298.753	806.44
298.984	824.44
299.214	796.44
299.445	826.44
299.675	867.44
299.905	867.44
300.136	817.44
300.366	808.44
300.597	774.44
300.827	785.44
301.057	818.44
301.288	865.44
301.518	860.44
301.748	869.44
301.979	921.44
302.209	920.44
302.439	990.44
302.669	1026.44
302.9	916.44
303.13	893.44
303.36	864.44
303.59	862.44
303.82	860.44
304.051	863.44
304.281	902.44
304.511	906.44
304.741	957.44
304.971	1011.44
305.201	1074.44
305.431	981.44
305.661	853.44
305.891	761.44
306.121	780.44
306.352	808.44
306.582	843.44
306.812	934.44
307.042	973.44
307.272	994.44
307.502	993.44
307.731	1078.44
307.961	1098.44
308.191	1020.44
308.421	911.44
308.651	850.44
308.881	824.44
309.111	812.44
309.341	811.44
309.571	835.44
309.8	847.44
310.03	846.44
310.26	818.44
310.49	824.44
310.72	843.44
310.949	881.44
311.179	890.44
311.409	848.44
311.639	880.44
311.868	828.44
312.098	865.44
312.328	882.44
312.557	842.44
312.787	858.44
313.017	884.44
313.246	888.44
313.476	884.44
313.706	886.44
313.935	924.44
314.165	884.44
314.394	937.44
314.624	994.44
314.853	1035.44
315.083	1082.44
315.312	1088.44
315.542	993.44
315.771	896.44
316.001	925.44
316.23	953.44
316.46	953.44
316.689	962.44
316.919	900.44
317.148	864.44
317.377	899.44
317.607	962.44
317.836	1051.44
318.065	1093.44
318.295	1036.44
318.524	1019.44
318.753	969.44
318.983	948.44
319.212	957.44
319.441	920.44
319.67	911.44
319.9	924.44
320.129	957.44
320.358	1048.44
320.587	1028.44
320.816	1028.44
321.046	1016.44
321.275	951.44
321.504	987.44
321.733	1056.44
321.962	1024.44
322.191	918.44
322.42	945.44
322.649	900.44
322.878	934.44
323.108	959.44
323.337	972.44
323.566	987.44
323.795	944.44
324.024	969.44
324.253	944.44
324.482	974.44
324.71	924.44
324.939	892.44
325.168	929.44
325.397	948.44
325.626	969.44
325.855	928.44
326.084	949.44
326.313	933.44
326.542	958.44
326.77	964.44
326.999	962.44
327.228	917.44
327.457	878.44
327.686	898.44
327.914	932.44
328.143	949.44
328.372	943.44
328.6	941.44
328.829	914.44
329.058	934.44
329.287	936.44
329.515	958.44
329.744	972.44
329.972	1022.44
330.201	1036.44
330.43	1024.44
330.658	996.44
330.887	997.44
331.115	1000.44
331.344	1004.44
331.572	966.44
331.801	971.44
332.03	1002.44
332.258	1000.44
332.486	998.44
332.715	993.44
332.943	1017.44
333.172	957.44
333.4	1013.44
333.629	1032.44
333.857	1106.44
334.085	1230.44
334.314	1385.44
334.542	1399.44
334.771	1282.44
334.999	1167.44
335.227	1128.44
335.455	1052.44
335.684	1044.44
335.912	1102.44
336.14	1115.44
336.369	1055.44
336.597	1010.44
336.825	1009.44
337.053	1061.44
337.281	1096.44
337.51	1146.44
337.738	1170.44
337.966	1121.44
338.194	1014.44
338.422	999.44
338.65	989.44
338.878	961.44
339.106	950.44
339.334	931.44
339.562	922.44
339.79	937.44
340.018	1030.44
340.246	1068.44
340.474	1040.44
340.702	1032.44
340.93	1053.44
341.158	991.44
341.386	987.44
341.614	1009.44
341.842	1010.44
342.07	1004.44
342.298	1016.44
342.526	1024.44
342.754	991.44
342.981	984.44
343.209	986.44
343.437	958.44
343.665	971.44
343.893	1009.44
344.12	1099.44
344.348	1051.44
344.576	1025.44
344.804	975.44
345.031	976.44
345.259	1008.44
345.487	969.44
345.714	920.44
345.942	907.44
346.17	932.44
346.397	966.44
346.625	966.44
346.853	894.44
347.08	909.44
347.308	877.44
347.535	948.44
347.763	940.44
347.99	920.44
348.218	916.44
348.445	911.44
348.673	922.44
348.9	950.44
349.128	1022.44
349.355	972.44
349.583	973.44
349.81	914.44
350.037	865.44
350.265	870.44
350.492	886.44
350.72	906.44
350.947	954.44
351.174	944.44
351.402	933.44
351.629	871.44
351.856	870.44
352.083	842.44
352.311	875.44
352.538	920.44
352.765	966.44
352.992	970.44
353.22	929.44
353.447	902.44
353.674	921.44
353.901	921.44
354.128	910.44
354.355	929.44
354.583	958.44
354.81	949.44
355.037	955.44
355.264	950.44
355.491	939.44
355.718	932.44
355.945	906.44
356.172	901.44
356.399	884.44
356.626	921.44
356.853	950.44
357.08	1080.44
357.307	1093.44
357.534	1081.44
357.761	948.44
357.988	914.44
358.215	889.44
358.441	896.44
358.668	904.44
358.895	936.44
359.122	987.44
359.349	1050.44
359.576	1031.44
359.802	933.44
360.029	892.44
360.256	892.44
360.483	912.44
360.709	954.44
360.936	969.44
361.163	1030.44
361.39	1128.44
361.616	1167.44
361.843	1147.44
362.07	1066.44
362.296	952.44
362.523	915.44
362.749	919.44
362.976	992.44
363.203	983.44
363.429	918.44
363.656	910.44
363.882	944.44
364.109	1057.44
364.335	1100.44
364.562	1020.44
364.788	982.44
365.015	934.44
365.241	920.44
365.468	940.44
365.694	1004.44
365.92	1029.44
366.147	975.44
366.373	918.44
366.599	910.44
366.826	917.44
367.052	925.44
367.278	939.44
367.505	955.44
367.731	973.44
367.957	984.44
368.184	1010.44
368.41	1062.44
368.636	1062.44
368.862	1052.44
369.089	1060.44
369.315	1027.44
369.541	993.44
369.767	935.44
369.993	924.44
370.219	947.44
370.445	976.44
370.672	1051.44
370.898	1069.44
371.124	1045.44
371.35	1005.44
371.576	977.44
371.802	1041.44
372.028	1036.44
372.254	985.44
372.48	965.44
372.706	946.44
372.932	966.44
373.158	945.44
373.384	989.44
373.61	1026.44
373.835	1011.44
374.061	994.44
374.287	998.44
374.513	999.44
374.739	1001.44
374.965	1022.44
375.191	1038.44
375.416	1027.44
375.642	1060.44
375.868	1117.44
376.094	1124.44
376.319	1080.44
376.545	1026.44
376.771	1048.44
376.997	1126.44
377.222	1082.44
377.448	1077.44
377.674	1079.44
377.899	1073.44
378.125	1117.44
378.35	1110.44
378.576	974.44
378.802	959.44
379.027	949.44
379.253	983.44
379.478	982.44
379.704	974.44
379.929	981.44
380.155	1005.44
380.38	1035.44
380.606	999.44
380.831	1017.44
381.057	1066.44
381.282	1097.44
381.507	1039.44
381.733	1136.44
381.958	1168.44
382.184	1064.44
382.409	1012.44
382.634	1057.44
382.86	1045.44
383.085	1066.44
383.31	1072.44
383.535	1228.44
383.761	1235.44
383.986	1153.44
384.211	1119.44
384.436	1108.44
384.662	1178.44
384.887	1217.44
385.112	1129.44
385.337	1175.44
385.562	1096.44
385.787	1141.44
386.013	1185.44
386.238	1166.44
386.463	1179.44
386.688	1288.44
386.913	1348.44
387.138	1280.44
387.363	1203.44
387.588	1162.44
387.813	1156.44
388.038	1189.44
388.263	1240.44
388.488	1163.44
388.713	1096.44
388.938	1108.44
389.163	1120.44
389.387	1113.44
389.612	1105.44
389.837	1145.44
390.062	1142.44
390.287	1144.44
390.512	1152.44
390.736	1110.44
390.961	1121.44
391.186	1105.44
391.411	1095.44
391.636	1147.44
391.86	1148.44
392.085	1138.44
392.31	1145.44
392.534	1142.44
392.759	1163.44
392.984	1132.44
393.208	1152.44
393.433	1188.44
393.658	1255.44
393.882	1256.44
394.107	1163.44
394.331	1151.44
394.556	1146.44
394.78	1181.44
395.005	1194.44
395.229	1265.44
395.454	1316.44
395.678	1309.44
395.903	1258.44
396.127	1202.44
396.352	1204.44
396.576	1255.44
396.801	1280.44
397.025	1255.44
397.249	1250.44
397.474	1220.44
397.698	1220.44
397.922	1293.44
398.147	1332.44
398.371	1386.44
398.595	1363.44
398.82	1328.44
399.044	1341.44
399.268	1379.44
399.492	1472.44
399.717	1538.44
399.941	1499.44
400.165	1494.44
400.389	1451.44
400.613	1470.44
400.837	1670.44
401.062	1806.44
401.286	1549.44
401.51	1446.44
401.734	1482.44
401.958	1389.44
402.182	1328.44
402.406	1333.44
402.63	1280.44
402.854	1279.44
403.078	1300.44
403.302	1325.44
403.526	1344.44
403.75	1362.44
403.974	1340.44
404.198	1382.44
404.422	1412.44
404.645	1501.44
404.869	1426.44
405.093	1343.44
405.317	1346.44
405.541	1354.44
405.765	1368.44
405.988	1368.44
406.212	1374.44
406.436	1443.44
406.66	1504.44
406.883	1526.44
407.107	1729.44
407.331	1824.44
407.555	1914.44
407.778	1728.44
408.002	1442.44
408.226	1406.44
408.449	1418.44
408.673	1362.44
408.896	1410.44
409.12	1436.44
409.344	1374.44
409.567	1332.44
409.791	1394.44
410.014	1443.44
410.238	1486.44
410.461	1556.44
410.685	1410.44
410.908	1348.44
411.132	1376.44
411.355	1338.44
411.578	1357.44
411.802	1363.44
412.025	1400.44
412.249	1339.44
412.472	1308.44
412.695	1324.44
412.919	1324.44
413.142	1267.44
413.365	1317.44
413.589	1361.44
413.812	1400.44
414.035	1456.44
414.258	1348.44
414.482	1318.44
414.705	1333.44
414.928	1326.44
415.151	1313.44
415.374	1325.44
415.597	1356.44
415.821	1324.44
416.044	1366.44
416.267	1376.44
416.49	1290.44
416.713	1294.44
416.936	1323.44
417.159	1393.44
417.382	1384.44
417.605	1288.44
417.828	1309.44
418.051	1328.44
418.274	1307.44
418.497	1296.44
418.72	1289.44
418.943	1268.44
419.166	1382.44
419.389	1370.44
419.611	1300.44
419.834	1281.44
420.057	1293.44
420.28	1295.44
420.503	1277.44
420.726	1314.44
420.948	1328.44
421.171	1270.44
421.394	1284.44
421.617	1344.44
421.839	1347.44
422.062	1304.44
422.285	1292.44
422.507	1260.44
422.73	1230.44
422.953	1227.44
423.175	1257.44
423.398	1250.44
423.621	1313.44
423.843	1291.44
424.066	1393.44
424.288	1371.44
424.511	1427.44
424.733	1362.44
424.956	1258.44
425.178	1284.44
425.401	1248.44
425.623	1297.44
425.846	1277.44
426.068	1351.44
426.291	1310.44
426.513	1329.44
426.735	1339.44
426.958	1442.44
427.18	1491.44
427.402	1362.44
427.625	1456.44
427.847	1418.44
428.069	1304.44
428.292	1259.44
428.514	1271.44
428.736	1230.44
428.958	1241.44
429.181	1295.44
429.403	1481.44
429.625	1779.44
429.847	1483.44
430.069	1321.44
430.292	1492.44
430.514	1484.44
430.736	1374.44
430.958	1374.44
431.18	1279.44
431.402	1234.44
431.624	1194.44
431.846	1217.44
432.068	1161.44
432.29	1170.44
432.512	1194.44
432.734	1288.44
432.956	1280.44
433.178	1341.44
433.4	1314.44
433.622	1315.44
433.844	1296.44
434.066	1236.44
434.287	1205.44
434.509	1245.44
434.731	1277.44
434.953	1365.44
435.175	1333.44
435.397	1313.44
435.618	1256.44
435.84	1254.44
436.062	1275.44
436.284	1300.44
436.505	1284.44
436.727	1341.44
436.949	1292.44
437.17	1255.44
437.392	1218.44
437.614	1196.44
437.835	1212.44
438.057	1216.44
438.278	1239.44
438.5	1211.44
438.721	1223.44
438.943	1243.44
439.165	1235.44
439.386	1233.44
439.608	1271.44
439.829	1271.44
440.05	1276.44
440.272	1244.44
440.493	1280.44
440.715	1299.44
440.936	1355.44
441.158	1447.44
441.379	1410.44
441.6	1426.44
441.822	1352.44
442.043	1338.44
442.264	1312.44
442.486	1270.44
442.707	1292.44
442.928	1285.44
443.149	1288.44
443.371	1317.44
443.592	1382.44
443.813	1399.44
444.034	1342.44
444.255	1372.44
444.476	1370.44
444.698	1433.44
444.919	1387.44
445.14	1511.44
445.361	1443.44
445.582	1475.44
445.803	1415.44
446.024	1377.44
446.245	1395.44
446.466	1374.44
446.687	1336.44
446.908	1345.44
447.129	1319.44
447.35	1325.44
447.571	1322.44
447.792	1261.44
448.013	1255.44
448.234	1275.44
448.455	1354.44
448.675	1288.44
448.896	1269.44
449.117	1217.44
449.338	1246.44
449.559	1236.44
449.779	1356.44
450	1444.44
450.221	1482.44
450.442	1442.44
450.662	1290.44
450.883	1188.44
451.104	1143.44
451.324	1174.44
451.545	1223.44
451.766	1204.44
451.986	1112.44
452.207	1132.44
452.428	1100.44
452.648	1105.44
452.869	1125.44
453.089	1202.44
453.31	1154.44
453.53	1185.44
453.751	1141.44
453.971	1094.44
454.192	1085.44
454.412	1179.44
454.633	1164.44
454.853	1103.44
455.073	1052.44
455.294	1076.44
455.514	1094.44
455.734	1085.44
455.955	1108.44
456.175	1083.44
456.395	1088.44
456.616	1118.44
456.836	1097.44
457.056	1083.44
457.276	1095.44
457.497	1034.44
457.717	1032.44
457.937	1044.44
458.157	1065.44
458.377	1036.44
458.598	1052.44
458.818	1068.44
459.038	1124.44
459.258	1154.44
459.478	1150.44
459.698	1141.44
459.918	1162.44
460.138	1250.44
460.358	1270.44
460.578	1231.44
460.798	1306.44
461.018	1367.44
461.238	1349.44
461.458	1264.44
461.678	1298.44
461.898	1248.44
462.118	1216.44
462.338	1269.44
462.558	1243.44
462.777	1270.44
462.997	1328.44
463.217	1382.44
463.437	1358.44
463.657	1284.44
463.876	1269.44
464.096	1252.44
464.316	1288.44
464.536	1285.44
464.755	1308.44
464.975	1342.44
465.195	1273.44
465.414	1300.44
465.634	1335.44
465.854	1312.44
466.073	1402.44
466.293	1338.44
466.512	1195.44
466.732	1214.44
466.951	1237.44
467.171	1210.44
467.391	1201.44
467.61	1198.44
467.829	1210.44
468.049	1371.44
468.268	1476.44
468.488	1330.44
468.707	1300.44
468.927	1224.44
469.146	1236.44
469.365	1216.44
469.585	1219.44
469.804	1244.44
470.023	1244.44
470.243	1231.44
470.462	1255.44
470.681	1236.44
470.901	1217.44
471.12	1244.44
471.339	1238.44
471.558	1221.44
471.777	1215.44
471.997	1214.44
472.216	1206.44
472.435	1120.44
472.654	1120.44
472.873	1171.44
473.092	1254.44
473.311	1173.44
473.53	1129.44
473.749	1174.44
473.968	1204.44
474.187	1225.44
474.406	1231.44
474.625	1240.44
474.844	1249.44
475.063	1220.44
475.282	1248.44
475.501	1186.44
475.72	1207.44
475.939	1326.44
476.158	1269.44
476.377	1177.44
476.596	1213.44
476.814	1220.44
477.033	1222.44
477.252	1286.44
477.471	1288.44
477.69	1284.44
477.908	1285.44
478.127	1364.44
478.346	1424.44
478.564	1403.44
478.783	1403.44
479.002	1445.44
479.22	1427.44
479.439	1485.44
479.658	1584.44
479.876	1546.44
480.095	1391.44
480.313	1339.44
480.532	1288.44
480.751	1307.44
480.969	1333.44
481.188	1286.44
481.406	1236.44
481.624	1214.44
481.843	1288.44
482.061	1329.44
482.28	1316.44
482.498	1360.44
482.717	1311.44
482.935	1292.44
483.153	1323.44
483.372	1408.44
483.59	1416.44
483.808	1355.44
484.027	1384.44
484.245	1458.44
484.463	1740.44
484.681	1860.44
484.9	1437.44
485.118	1390.44
485.336	1376.44
485.554	1384.44
485.772	1416.44
485.99	1371.44
486.209	1394.44
486.427	1406.44
486.645	1381.44
486.863	1438.44
487.081	1463.44
487.299	1460.44
487.517	1444.44
487.735	1449.44
487.953	1525.44
488.171	1498.44
488.389	1490.44
488.607	1450.44
488.825	1618.44
489.043	1581.44
489.261	1464.44
489.479	1512.44
489.696	1514.44
489.914	1479.44
490.132	1442.44
490.35	1460.44
490.568	1524.44
490.786	1509.44
491.003	1504.44
491.221	1534.44
491.439	1560.44
491.657	1579.44
491.874	1636.44
492.092	1668.44
492.31	1701.44
492.527	1656.44
492.745	1626.44
492.963	1607.44
493.18	1637.44
493.398	1708.44
493.615	1720.44
493.833	1634.44
494.05	1576.44
494.268	1571.44
494.485	1586.44
494.703	1588.44
494.92	1557.44
495.138	1525.44
495.355	1561.44
495.573	1603.44
495.79	1680.44
496.008	1682.44
496.225	1630.44
496.442	1616.44
496.66	1643.44
496.877	1588.44
497.094	1669.44
497.312	1628.44
497.529	1630.44
497.746	1677.44
497.963	1865.44
498.181	1990.44
498.398	1889.44
498.615	1815.44
498.832	1764.44
499.049	1769.44
499.267	1812.44
499.484	1934.44
499.701	2053.44
499.918	2096.44
500.135	2214.44
500.352	2385.44
500.569	2339.44
500.786	2534.44
501.003	2283.44
501.22	2115.44
501.437	2083.44
501.654	2125.44
501.871	2008.44
502.088	1769.44
502.305	1799.44
502.522	1696.44
502.739	1622.44
502.956	1590.44
503.172	1562.44
503.389	1483.44
503.606	1470.44
503.823	1507.44
504.04	1493.44
504.256	1513.44
504.473	1501.44
504.69	1551.44
504.907	1448.44
505.123	1406.44
505.34	1577.44
505.557	2014.44
505.773	1641.44
505.99	1400.44
506.207	1303.44
506.423	1290.44
506.64	1284.44
506.856	1333.44
507.073	1510.44
507.289	1585.44
507.506	1524.44
507.722	1344.44
507.939	1262.44
508.155	1258.44
508.372	1301.44
508.588	1226.44
508.805	1210.44
509.021	1152.44
509.238	1162.44
509.454	1165.44
509.67	1171.44
509.887	1122.44
510.103	1146.44
510.319	1122.44
510.536	1188.44
510.752	1216.44
510.968	1247.44
511.184	1299.44
511.401	1219.44
511.617	1140.44
511.833	1110.44
512.049	1132.44
512.265	1113.44
512.481	1132.44
512.698	1156.44
512.914	1236.44
513.13	1181.44
513.346	1138.44
513.562	1108.44
513.778	1144.44
513.994	1195.44
514.21	1191.44
514.426	1213.44
514.642	1354.44
514.858	1258.44
515.074	1171.44
515.29	1119.44
515.506	1148.44
515.721	1185.44
515.937	1207.44
516.153	1340.44
516.369	1268.44
516.585	1196.44
516.801	1147.44
517.016	1163.44
517.232	1209.44
517.448	1212.44
517.664	1240.44
517.879	1237.44
518.095	1288.44
518.311	1231.44
518.527	1179.44
518.742	1143.44
518.958	1187.44
519.173	1178.44
519.389	1170.44
519.605	1193.44
519.82	1178.44
520.036	1196.44
520.251	1155.44
520.467	1172.44
520.682	1278.44
520.898	1248.44
521.113	1136.44
521.329	1124.44
521.544	1182.44
521.76	1158.44
521.975	1107.44
522.19	1074.44
522.406	1096.44
522.621	1401.44
522.836	1328.44
523.052	1126.44
523.267	1129.44
523.482	1140.44
523.698	1079.44
523.913	1061.44
524.128	1140.44
524.343	1156.44
524.559	1153.44
524.774	1093.44
524.989	1115.44
525.204	1095.44
525.419	1039.44
525.634	1074.44
525.849	1082.44
526.064	1067.44
526.28	1075.44
526.495	1020.44
526.71	1004.44
526.925	996.44
527.14	972.44
527.355	1001.44
527.57	979.44
527.785	1004.44
527.999	994.44
528.214	1025.44
528.429	978.44
528.644	1034.44
528.859	1061.44
529.074	1083.44
529.289	1136.44
529.503	1116.44
529.718	1092.44
529.933	1066.44
530.148	988.44
530.363	1013.44
530.577	992.44
530.792	960.44
531.007	1009.44
531.221	979.44
531.436	971.44
531.651	1032.44
531.865	1070.44
532.08	1028.44
532.295	961.44
532.509	968.44
532.724	951.44
532.938	1006.44
533.153	1076.44
533.367	1053.44
533.582	1048.44
533.796	1024.44
534.011	1044.44
534.225	1013.44
534.44	983.44
534.654	999.44
534.868	971.44
535.083	1020.44
535.297	1061.44
535.511	1004.44
535.726	1011.44
535.94	984.44
536.154	982.44
536.369	940.44
536.583	946.44
536.797	948.44
537.011	984.44
537.225	947.44
537.44	946.44
537.654	1008.44
537.868	964.44
538.082	936.44
538.296	895.44
538.51	898.44
538.724	956.44
538.938	960.44
539.153	1023.44
539.367	980.44
539.581	984.44
539.795	1004.44
540.009	956.44
540.222	935.44
540.436	989.44
540.65	1069.44
540.864	1078.44
541.078	1064.44
541.292	1050.44
541.506	1072.44
541.72	1103.44
541.934	1139.44
542.147	1184.44
542.361	1156.44
542.575	1049.44
542.789	1031.44
543.002	998.44
543.216	971.44
543.43	1012.44
543.644	1064.44
543.857	1125.44
544.071	1123.44
544.285	1124.44
544.498	1097.44
544.712	1084.44
544.925	1132.44
545.139	1140.44
545.352	1101.44
545.566	1037.44
545.779	1016.44
545.993	1076.44
546.206	1103.44
546.42	1089.44
546.633	1075.44
546.847	1035.44
547.06	1036.44
547.274	1089.44
547.487	1076.44
547.7	1068.44
547.914	1108.44
548.127	1074.44
548.34	1101.44
548.554	1081.44
548.767	1083.44
548.98	1085.44
549.193	1051.44
549.407	1083.44
549.62	1094.44
549.833	1070.44
550.046	1046.44
550.259	1057.44
550.473	1048.44
550.686	1011.44
550.899	988.44
551.112	1005.44
551.325	978.44
551.538	1088.44
551.751	1133.44
551.964	951.44
552.177	917.44
552.39	964.44
552.603	1013.44
552.816	1012.44
553.029	1067.44
553.242	1105.44
553.455	1042.44
553.667	1034.44
553.88	1050.44
554.093	1035.44
554.306	1015.44
554.519	984.44
554.732	958.44
554.944	985.44
555.157	977.44
555.37	984.44
555.583	952.44
555.795	911.44
556.008	915.44
556.221	894.44
556.433	855.44
556.646	870.44
556.859	899.44
557.071	864.44
557.284	900.44
557.496	910.44
557.709	883.44
557.921	887.44
558.134	862.44
558.346	874.44
558.559	886.44
558.771	855.44
558.984	841.44
559.196	793.44
559.409	797.44
559.621	775.44
559.833	829.44
560.046	829.44
560.258	832.44
560.47	844.44
560.683	837.44
560.895	830.44
561.107	829.44
561.32	820.44
561.532	822.44
561.744	821.44
561.956	812.44
562.168	805.44
562.381	790.44
562.593	769.44
562.805	789.44
563.017	757.44
563.229	790.44
563.441	815.44
563.653	794.44
563.865	810.44
564.077	785.44
564.289	798.44
564.501	770.44
564.713	803.44
564.925	830.44
565.137	896.44
565.349	827.44
565.561	788.44
565.773	817.44
565.985	826.44
566.197	838.44
566.408	880.44
566.62	900.44
566.832	881.44
567.044	897.44
567.255	902.44
567.467	873.44
567.679	937.44
567.891	948.44
568.102	898.44
568.314	874.44
568.526	807.44
568.737	772.44
568.949	746.44
569.161	728.44
569.372	682.44
569.584	674.44
569.795	712.44
570.007	658.44
570.218	658.44
570.43	651.44
570.641	640.44
570.853	657.44
571.064	667.44
571.276	656.44
571.487	659.44
571.698	650.44
571.91	642.44
572.121	637.44
572.333	646.44
572.544	628.44
572.755	598.44
572.966	603.44
573.178	597.44
573.389	588.44
573.6	596.44
573.811	651.44
574.023	612.44
574.234	558.44
574.445	567.44
574.656	566.44
574.867	546.44
575.078	574.44
575.289	584.44
575.501	554.44
575.712	554.44
575.923	538.44
576.134	556.44
576.345	566.44
576.556	573.44
576.767	550.44
576.978	544.44
577.188	541.44
577.399	540.44
577.61	521.44
577.821	501.44
578.032	536.44
578.243	513.44
578.454	514.44
578.665	524.44
578.875	496.44
579.086	489.44
579.297	512.44
579.508	505.44
579.718	500.44
579.929	500.44
580.14	497.44
580.35	512.44
580.561	516.44
580.772	568.44
580.982	528.44
581.193	522.44
581.403	489.44
581.614	500.44
581.825	498.44
582.035	510.44
582.246	483.44
582.456	520.44
582.667	492.44
582.877	469.44
583.087	460.44
583.298	486.44
583.508	484.44
583.719	466.44
583.929	474.44
584.139	459.44
584.35	445.44
584.56	454.44
584.77	468.44
584.981	459.44
585.191	471.44
585.401	485.44
585.611	474.44
585.821	462.44
586.032	433.44
586.242	426.44
586.452	440.44
586.662	461.44
586.872	455.44
587.082	453.44
587.292	462.44
587.502	467.44
587.713	468.44
587.923	454.44
588.133	461.44
588.343	462.44
588.553	458.44
588.762	430.44
588.972	460.44
589.182	474.44
589.392	444.44
589.602	451.44
589.812	471.44
590.022	442.44
590.232	453.44
590.441	450.44
590.651	446.44
590.861	460.44
591.071	447.44
591.281	445.44
591.49	435.44
591.7	453.44
591.91	429.44
592.119	452.44
592.329	465.44
592.539	474.44
592.748	446.44
592.958	456.44
593.167	462.44
593.377	456.44
593.587	483.44
593.796	482.44
594.006	476.44
594.215	468.44
594.424	470.44
594.634	473.44
594.843	462.44
595.053	479.44
595.262	461.44
595.472	464.44
595.681	441.44
595.89	440.44
596.1	428.44
596.309	466.44
596.518	438.44
596.727	452.44
596.937	455.44
597.146	405.44
597.355	416.44
597.564	428.44
597.774	399.44
597.983	386.44
598.192	390.44
598.401	388.44
598.61	403.44
598.819	396.44
599.028	402.44
599.237	400.44
599.446	394.44
599.655	393.44
599.864	390.44
600.073	389.44
600.282	379.44
600.491	376.44
600.7	378.44
600.909	402.44
601.118	408.44
601.327	403.44
601.536	423.44
601.745	408.44
601.953	415.44
602.162	398.44
602.371	428.44
602.58	409.44
602.789	413.44
602.997	423.44
603.206	424.44
603.415	412.44
603.623	401.44
603.832	426.44
604.041	405.44
604.249	382.44
604.458	373.44
604.666	398.44
604.875	397.44
605.084	372.44
605.292	412.44
605.501	412.44
605.709	392.44
605.918	414.44
606.126	418.44
606.334	415.44
606.543	408.44
606.751	424.44
606.96	413.44
607.168	396.44
607.376	410.44
607.585	406.44
607.793	406.44
608.001	413.44
608.21	407.44
608.418	400.44
608.626	413.44
608.834	384.44
609.043	416.44
609.251	397.44
609.459	394.44
609.667	393.44
609.875	392.44
610.083	396.44
610.291	396.44
610.499	420.44
610.707	380.44
610.916	398.44
611.124	388.44
611.332	389.44
611.54	388.44
611.748	389.44
611.955	388.44
612.163	380.44
612.371	389.44
612.579	408.44
612.787	392.44
612.995	391.44
613.203	393.44
613.411	383.44
613.618	396.44
613.826	406.44
614.034	392.44
614.242	373.44
614.449	376.44
614.657	392.44
614.865	392.44
615.072	398.44
615.28	402.44
615.488	385.44
615.695	416.44
615.903	422.44
616.111	380.44
616.318	371.44
616.526	374.44
616.733	389.44
616.941	382.44
617.148	396.44
617.356	387.44
617.563	401.44
617.771	386.44
617.978	380.44
618.185	375.44
618.393	359.44
618.6	375.44
618.807	376.44
619.015	377.44
619.222	375.44
619.429	368.44
619.637	355.44
619.844	366.44
620.051	355.44
620.258	354.44
620.466	371.44
620.673	361.44
620.88	322.44
621.087	349.44
621.294	334.44
621.501	326.44
621.708	344.44
621.915	342.44
622.122	347.44
622.329	368.44
622.536	361.44
622.743	352.44
622.95	351.44
623.157	370.44
623.364	360.44
623.571	361.44
623.778	363.44
623.985	350.44
624.192	322.44
624.399	339.44
624.606	327.44
624.812	329.44
625.019	342.44
625.226	333.44
625.433	322.44
625.639	338.44
625.846	307.44
626.053	297.44
626.259	295.44
626.466	303.44
626.673	301.44
626.879	296.44
627.086	294.44
627.293	293.44
627.499	304.44
627.706	330.44
627.912	314.44
628.119	332.44
628.325	332.44
628.532	293.44
628.738	321.44
628.945	326.44
629.151	305.44
629.357	316.44
629.564	304.44
629.77	309.44
629.976	304.44
630.183	312.44
630.389	275.44
630.595	323.44
630.802	313.44
631.008	309.44
631.214	299.44
631.42	297.44
631.627	293.44
631.833	290.44
632.039	278.44
632.245	298.44
632.451	284.44
632.657	288.44
632.863	306.44
633.069	282.44
633.275	291.44
633.481	281.44
633.688	283.44
633.893	292.44
634.099	289.44
634.305	277.44
634.511	280.44
634.717	269.44
634.923	269.44
635.129	278.44
635.335	278.44
635.541	258.44
635.747	275.44
635.952	269.44
636.158	283.44
636.364	295.44
636.57	287.44
636.775	304.44
636.981	299.44
637.187	285.44
637.392	266.44
637.598	276.44
637.804	270.44
638.009	284.44
638.215	269.44
638.421	284.44
638.626	282.44
638.832	260.44
639.037	264.44
639.243	268.44
639.448	262.44
639.654	264.44
639.859	264.44
640.065	257.44
640.27	276.44
640.475	271.44
640.681	274.44
640.886	271.44
641.091	285.44
641.297	274.44
641.502	264.44
641.707	263.44
641.913	308.44
642.118	255.44
642.323	259.44
642.528	249.44
642.733	262.44
642.939	256.44
643.144	244.44
643.349	243.44
643.554	256.44
643.759	246.44
643.964	260.44
644.169	268.44
644.374	267.44
644.579	262.44
644.784	264.44
644.989	258.44
645.194	252.44
645.399	254.44
645.604	254.44
645.809	262.44
646.014	266.44
646.219	245.44
646.423	241.44
646.628	267.44
646.833	258.44
647.038	270.44
647.243	246.44
647.447	258.44
647.652	276.44
647.857	254.44
648.062	241.44
648.266	256.44
648.471	246.44
648.676	242.44
648.88	254.44
649.085	249.44
649.289	265.44
649.494	274.44
649.698	244.44
649.903	227.44
650.107	245.44
650.312	244.44
650.516	256.44
650.721	248.44
650.925	238.44
651.13	240.44
651.334	244.44
651.539	244.44
651.743	260.44
651.947	230.44
652.152	239.44
652.356	225.44
652.56	230.44
652.764	234.44
652.969	224.44
653.173	213.44
653.377	229.44
653.581	220.44
653.785	213.44
653.99	232.44
654.194	220.44
654.398	218.44
654.602	216.44
654.806	214.44
655.01	197.44
655.214	213.44
655.418	237.44
655.622	228.44
655.826	235.44
656.03	264.44
656.234	241.44
656.438	262.44
656.642	278.44
656.846	246.44
657.049	240.44
657.253	223.44
657.457	201.44
657.661	188.44
657.865	203.44
658.068	192.44
658.272	165.44
658.476	170.44
658.68	152.44
658.883	146.44
659.087	161.44
659.291	152.44
659.494	150.44
659.698	142.44
659.901	132.44
660.105	133.44
660.309	130.44
660.512	123.44
660.716	123.44
660.919	121.44
661.123	123.44
661.326	119.44
661.53	122.44
661.733	99.44
661.936	112.44
662.14	109.44
662.343	96.44
662.546	102.44
662.75	89.44
662.953	100.44
663.156	87.44
663.36	93.44
663.563	90.44
663.766	88.44
663.969	110.44
664.173	78.44
664.376	83.44
664.579	86.44
664.782	86.44
664.985	87.44
665.188	98.44
665.391	75.44
665.594	85.44
665.797	83.44
666	82.44
666.203	74.44
666.406	93.44
666.609	93.44
666.812	85.44
667.015	94.44
667.218	84.44
667.421	78.44
667.624	75.44
667.827	97.44
668.03	78.44
668.232	84.44
668.435	105.44
668.638	76.44
668.841	86.44
669.043	81.44
669.246	87.44
669.449	85.44
669.651	77.44
669.854	81.44
670.057	80.44
670.259	88.44
670.462	101.44
670.665	94.44
670.867	97.44
671.07	80.44
671.272	85.44
671.475	96.44
671.677	83.44
671.88	85.44
672.082	88.44
672.284	89.44
672.487	59.44
672.689	82.44
672.892	92.44
