Data from WStandard_LampEnergy5.5LIBS07252019.E.O._I.C._HRD10591_16-09-06-921.txt Node
Date: Thu Jul 25 16:09:06 EDT 2019
User: cochatt
Spectrometer: HR+D1059
Trigger mode: 1
Integration Time (sec): 1.000000E-1
Scans to average: 1
Electric dark correction enabled: true
Nonlinearity correction enabled: false
Boxcar width: 0
XAxis mode: Wavelengths
Number of Pixels in Spectrum: 2048
>>>>>Begin Spectral Data<<<<<
223.165	-8.38
223.4	-8.38
223.635	-8.38
223.869	-29.38
224.104	-12.38
224.338	-12.38
224.573	-18.38
224.808	-3.38
225.042	-5.38
225.277	-1.38
225.511	-0.38
225.746	-1.38
225.98	6.62
226.215	-1.38
226.449	23.62
226.683	8.62
226.918	16.62
227.152	38.62
227.387	33.62
227.621	38.62
227.856	34.62
228.09	31.62
228.324	50.62
228.559	52.62
228.793	138.62
229.027	364.62
229.262	358.62
229.496	375.62
229.73	386.62
229.964	430.62
230.199	427.62
230.433	438.62
230.667	462.62
230.901	495.62
231.136	491.62
231.37	455.62
231.604	450.62
231.838	474.62
232.072	445.62
232.306	433.62
232.541	448.62
232.775	535.62
233.009	591.62
233.243	548.62
233.477	504.62
233.711	520.62
233.945	552.62
234.179	532.62
234.413	583.62
234.647	620.62
234.881	593.62
235.115	533.62
235.349	537.62
235.583	554.62
235.817	535.62
236.051	521.62
236.285	534.62
236.519	580.62
236.753	621.62
236.987	664.62
237.221	653.62
237.455	725.62
237.689	667.62
237.922	642.62
238.156	636.62
238.39	654.62
238.624	691.62
238.858	745.62
239.091	715.62
239.325	767.62
239.559	898.62
239.793	920.62
240.027	1000.62
240.26	978.62
240.494	723.62
240.728	690.62
240.961	710.62
241.195	732.62
241.429	779.62
241.662	798.62
241.896	718.62
242.13	758.62
242.363	846.62
242.597	911.62
242.83	873.62
243.064	878.62
243.298	932.62
243.531	882.62
243.765	878.62
243.998	924.62
244.232	819.62
244.465	754.62
244.699	772.62
244.932	862.62
245.166	1010.62
245.399	956.62
245.633	897.62
245.866	839.62
246.099	904.62
246.333	908.62
246.566	924.62
246.8	989.62
247.033	1132.62
247.266	1026.62
247.5	1030.62
247.733	983.62
247.966	1067.62
248.2	1154.62
248.433	1140.62
248.666	1185.62
248.899	1254.62
249.133	1468.62
249.366	1660.62
249.599	1369.62
249.832	1203.62
250.066	1205.62
250.299	1256.62
250.532	1184.62
250.765	1001.62
250.998	1108.62
251.231	1142.62
251.465	1195.62
251.698	1152.62
251.931	1140.62
252.164	1164.62
252.397	1194.62
252.63	1209.62
252.863	1078.62
253.096	1042.62
253.329	1106.62
253.562	1140.62
253.795	1255.62
254.028	1235.62
254.261	1127.62
254.494	1128.62
254.727	1072.62
254.96	1118.62
255.193	1198.62
255.426	1366.62
255.659	1559.62
255.892	1612.62
256.124	1342.62
256.357	1255.62
256.59	1399.62
256.823	1350.62
257.056	1362.62
257.289	1663.62
257.521	1840.62
257.754	1628.62
257.987	1520.62
258.22	1707.62
258.452	1674.62
258.685	1374.62
258.918	1288.62
259.151	1307.62
259.383	1277.62
259.616	1114.62
259.849	1206.62
260.081	1323.62
260.314	1472.62
260.547	1602.62
260.779	1659.62
261.012	1548.62
261.244	1392.62
261.477	1308.62
261.71	1368.62
261.942	1349.62
262.175	1308.62
262.407	1432.62
262.64	1321.62
262.872	1220.62
263.105	1199.62
263.337	1223.62
263.57	1235.62
263.802	1258.62
264.035	1196.62
264.267	1097.62
264.499	1099.62
264.732	1160.62
264.964	1253.62
265.197	1305.62
265.429	1364.62
265.661	1505.62
265.894	1658.62
266.126	1728.62
266.358	1563.62
266.591	1590.62
266.823	1734.62
267.055	1558.62
267.287	1545.62
267.52	1522.62
267.752	1468.62
267.984	1509.62
268.216	1582.62
268.448	1612.62
268.681	1599.62
268.913	1476.62
269.145	1382.62
269.377	1333.62
269.609	1470.62
269.841	1691.62
270.073	1924.62
270.306	2173.62
270.538	2340.62
270.77	1972.62
271.002	1659.62
271.234	1579.62
271.466	1556.62
271.698	1788.62
271.93	2110.62
272.162	2106.62
272.394	1928.62
272.626	1857.62
272.858	1636.62
273.09	1412.62
273.322	1387.62
273.553	1341.62
273.785	1364.62
274.017	1391.62
274.249	1532.62
274.481	1511.62
274.713	1388.62
274.945	1367.62
275.176	1381.62
275.408	1375.62
275.64	1336.62
275.872	1311.62
276.104	1408.62
276.335	1607.62
276.567	1821.62
276.799	1832.62
277.031	1649.62
277.262	1555.62
277.494	1631.62
277.726	1815.62
277.957	1729.62
278.189	1610.62
278.421	1513.62
278.652	1438.62
278.884	1437.62
279.115	1442.62
279.347	1480.62
279.579	1424.62
279.81	1426.62
280.042	1551.62
280.273	1723.62
280.505	1728.62
280.736	1728.62
280.968	1670.62
281.199	1452.62
281.431	1412.62
281.662	1415.62
281.894	1394.62
282.125	1458.62
282.356	1486.62
282.588	1498.62
282.819	1485.62
283.051	1616.62
283.282	1754.62
283.513	1735.62
283.745	1477.62
283.976	1369.62
284.207	1400.62
284.439	1444.62
284.67	1439.62
284.901	1498.62
285.132	1521.62
285.364	1468.62
285.595	1488.62
285.826	1487.62
286.057	1472.62
286.288	1462.62
286.52	1482.62
286.751	1599.62
286.982	1711.62
287.213	1575.62
287.444	1418.62
287.675	1410.62
287.906	1500.62
288.138	1586.62
288.369	1545.62
288.6	1485.62
288.831	1426.62
289.062	1442.62
289.293	1413.62
289.524	1473.62
289.755	1520.62
289.986	1544.62
290.217	1422.62
290.448	1413.62
290.679	1500.62
290.91	1470.62
291.141	1500.62
291.371	1609.62
291.602	1562.62
291.833	1500.62
292.064	1588.62
292.295	1604.62
292.526	1616.62
292.757	1679.62
292.987	1586.62
293.218	1476.62
293.449	1622.62
293.68	1855.62
293.91	1990.62
294.141	1835.62
294.372	1735.62
294.603	1753.62
294.833	1860.62
295.064	1792.62
295.295	1596.62
295.525	1561.62
295.756	1424.62
295.987	1353.62
296.217	1428.62
296.448	1471.62
296.679	1486.62
296.909	1500.62
297.14	1471.62
297.37	1491.62
297.601	1550.62
297.831	1694.62
298.062	1699.62
298.292	1566.62
298.523	1449.62
298.753	1470.62
298.984	1494.62
299.214	1506.62
299.445	1536.62
299.675	1568.62
299.905	1582.62
300.136	1563.62
300.366	1463.62
300.597	1442.62
300.827	1428.62
301.057	1493.62
301.288	1563.62
301.518	1576.62
301.748	1650.62
301.979	1667.62
302.209	1708.62
302.439	1814.62
302.669	1918.62
302.9	1760.62
303.13	1618.62
303.36	1584.62
303.59	1666.62
303.82	1605.62
304.051	1628.62
304.281	1599.62
304.511	1610.62
304.741	1666.62
304.971	1871.62
305.201	1968.62
305.431	1862.62
305.661	1565.62
305.891	1418.62
306.121	1444.62
306.352	1459.62
306.582	1539.62
306.812	1634.62
307.042	1750.62
307.272	1752.62
307.502	1812.62
307.731	1930.62
307.961	2081.62
308.191	1963.62
308.421	1650.62
308.651	1584.62
308.881	1548.62
309.111	1538.62
309.341	1506.62
309.571	1549.62
309.8	1534.62
310.03	1517.62
310.26	1496.62
310.49	1519.62
310.72	1544.62
310.949	1624.62
311.179	1650.62
311.409	1614.62
311.639	1578.62
311.868	1561.62
312.098	1580.62
312.328	1558.62
312.557	1548.62
312.787	1579.62
313.017	1618.62
313.246	1623.62
313.476	1624.62
313.706	1657.62
313.935	1624.62
314.165	1619.62
314.394	1656.62
314.624	1764.62
314.853	1890.62
315.083	1910.62
315.312	2014.62
315.542	1862.62
315.771	1646.62
316.001	1674.62
316.23	1732.62
316.46	1725.62
316.689	1693.62
316.919	1657.62
317.148	1588.62
317.377	1608.62
317.607	1695.62
317.836	1904.62
318.065	1977.62
318.295	1903.62
318.524	1818.62
318.753	1756.62
318.983	1747.62
319.212	1700.62
319.441	1678.62
319.67	1659.62
319.9	1689.62
320.129	1788.62
320.358	1843.62
320.587	1897.62
320.816	1858.62
321.046	1860.62
321.275	1732.62
321.504	1774.62
321.733	1879.62
321.962	1864.62
322.191	1705.62
322.42	1730.62
322.649	1673.62
322.878	1637.62
323.108	1662.62
323.337	1736.62
323.566	1743.62
323.795	1727.62
324.024	1766.62
324.253	1694.62
324.482	1742.62
324.71	1683.62
324.939	1614.62
325.168	1624.62
325.397	1724.62
325.626	1747.62
325.855	1754.62
326.084	1699.62
326.313	1682.62
326.542	1714.62
326.77	1756.62
326.999	1759.62
327.228	1699.62
327.457	1576.62
327.686	1589.62
327.914	1633.62
328.143	1680.62
328.372	1696.62
328.6	1724.62
328.829	1698.62
329.058	1660.62
329.287	1653.62
329.515	1695.62
329.744	1738.62
329.972	1772.62
330.201	1853.62
330.43	1856.62
330.658	1747.62
330.887	1802.62
331.115	1780.62
331.344	1806.62
331.572	1750.62
331.801	1759.62
332.03	1780.62
332.258	1771.62
332.486	1797.62
332.715	1795.62
332.943	1853.62
333.172	1780.62
333.4	1802.62
333.629	1844.62
333.857	1926.62
334.085	2128.62
334.314	2364.62
334.542	2643.62
334.771	2422.62
334.999	2107.62
335.227	2032.62
335.455	1920.62
335.684	1916.62
335.912	1916.62
336.14	2025.62
336.369	1911.62
336.597	1850.62
336.825	1808.62
337.053	1876.62
337.281	1935.62
337.51	2034.62
337.738	2128.62
337.966	2032.62
338.194	1853.62
338.422	1759.62
338.65	1760.62
338.878	1749.62
339.106	1728.62
339.334	1687.62
339.562	1684.62
339.79	1728.62
340.018	1820.62
340.246	1901.62
340.474	1940.62
340.702	1805.62
340.93	1846.62
341.158	1794.62
341.386	1789.62
341.614	1796.62
341.842	1743.62
342.07	1728.62
342.298	1803.62
342.526	1791.62
342.754	1744.62
342.981	1735.62
343.209	1720.62
343.437	1715.62
343.665	1766.62
343.893	1812.62
344.12	1888.62
344.348	1927.62
344.576	1815.62
344.804	1727.62
345.031	1760.62
345.259	1787.62
345.487	1703.62
345.714	1652.62
345.942	1621.62
346.17	1639.62
346.397	1662.62
346.625	1710.62
346.853	1641.62
347.08	1571.62
347.308	1633.62
347.535	1656.62
347.763	1692.62
347.99	1642.62
348.218	1587.62
348.445	1622.62
348.673	1630.62
348.9	1688.62
349.128	1704.62
349.355	1771.62
349.583	1745.62
349.81	1665.62
350.037	1542.62
350.265	1552.62
350.492	1542.62
350.72	1618.62
350.947	1684.62
351.174	1667.62
351.402	1605.62
351.629	1562.62
351.856	1529.62
352.083	1510.62
352.311	1534.62
352.538	1560.62
352.765	1652.62
352.992	1648.62
353.22	1637.62
353.447	1570.62
353.674	1582.62
353.901	1638.62
354.128	1611.62
354.355	1572.62
354.583	1610.62
354.81	1692.62
355.037	1657.62
355.264	1655.62
355.491	1658.62
355.718	1653.62
355.945	1595.62
356.172	1562.62
356.399	1577.62
356.626	1595.62
356.853	1615.62
357.08	1756.62
357.307	1914.62
357.534	1930.62
357.761	1738.62
357.988	1572.62
358.215	1531.62
358.441	1540.62
358.668	1496.62
358.895	1552.62
359.122	1663.62
359.349	1812.62
359.576	1822.62
359.802	1635.62
360.029	1575.62
360.256	1538.62
360.483	1588.62
360.709	1649.62
360.936	1712.62
361.163	1730.62
361.39	1845.62
361.616	2046.62
361.843	1944.62
362.07	1890.62
362.296	1630.62
362.523	1602.62
362.749	1589.62
362.976	1625.62
363.203	1690.62
363.429	1628.62
363.656	1531.62
363.882	1617.62
364.109	1766.62
364.335	1928.62
364.562	1802.62
364.788	1704.62
365.015	1664.62
365.241	1587.62
365.468	1639.62
365.694	1676.62
365.92	1786.62
366.147	1714.62
366.373	1614.62
366.599	1533.62
366.826	1610.62
367.052	1563.62
367.278	1623.62
367.505	1619.62
367.731	1628.62
367.957	1644.62
368.184	1692.62
368.41	1844.62
368.636	1806.62
368.862	1813.62
369.089	1806.62
369.315	1776.62
369.541	1706.62
369.767	1660.62
369.993	1609.62
370.219	1608.62
370.445	1631.62
370.672	1736.62
370.898	1824.62
371.124	1844.62
371.35	1693.62
371.576	1776.62
371.802	1827.62
372.028	1734.62
372.254	1655.62
372.48	1642.62
372.706	1606.62
372.932	1615.62
373.158	1638.62
373.384	1704.62
373.61	1711.62
373.835	1757.62
374.061	1692.62
374.287	1685.62
374.513	1711.62
374.739	1712.62
374.965	1747.62
375.191	1737.62
375.416	1777.62
375.642	1758.62
375.868	1863.62
376.094	1916.62
376.319	1831.62
376.545	1722.62
376.771	1774.62
376.997	1802.62
377.222	1809.62
377.448	1714.62
377.674	1809.62
377.899	1771.62
378.125	1874.62
378.35	1875.62
378.576	1721.62
378.802	1636.62
379.027	1664.62
379.253	1702.62
379.478	1703.62
379.704	1704.62
379.929	1689.62
380.155	1694.62
380.38	1701.62
380.606	1743.62
380.831	1728.62
381.057	1758.62
381.282	1853.62
381.507	1770.62
381.733	1860.62
381.958	1978.62
382.184	1796.62
382.409	1768.62
382.634	1770.62
382.86	1769.62
383.085	1748.62
383.31	1815.62
383.535	2003.62
383.761	2052.62
383.986	1991.62
384.211	1921.62
384.436	1908.62
384.662	1987.62
384.887	2074.62
385.112	1988.62
385.337	1961.62
385.562	1984.62
385.787	1968.62
386.013	1977.62
386.238	1994.62
386.463	2012.62
386.688	2086.62
386.913	2226.62
387.138	2180.62
387.363	1984.62
387.588	2009.62
387.813	1991.62
388.038	1995.62
388.263	2073.62
388.488	2047.62
388.713	1857.62
388.938	1836.62
389.163	1895.62
389.387	1895.62
389.612	1943.62
389.837	1954.62
390.062	1980.62
390.287	1920.62
390.512	1946.62
390.736	1897.62
390.961	1901.62
391.186	1843.62
391.411	1864.62
391.636	1951.62
391.86	1915.62
392.085	1933.62
392.31	1905.62
392.534	1914.62
392.759	2000.62
392.984	1951.62
393.208	1997.62
393.433	1987.62
393.658	2054.62
393.882	2121.62
394.107	1956.62
394.331	1915.62
394.556	1952.62
394.78	1950.62
395.005	1999.62
395.229	2056.62
395.454	2210.62
395.678	2222.62
395.903	2139.62
396.127	2060.62
396.352	2021.62
396.576	2112.62
396.801	2142.62
397.025	2148.62
397.249	2111.62
397.474	2104.62
397.698	2107.62
397.922	2147.62
398.147	2227.62
398.371	2311.62
398.595	2288.62
398.82	2253.62
399.044	2262.62
399.268	2333.62
399.492	2518.62
399.717	2646.62
399.941	2608.62
400.165	2591.62
400.389	2471.62
400.613	2421.62
400.837	2707.62
401.062	3137.62
401.286	2644.62
401.51	2435.62
401.734	2502.62
401.958	2479.62
402.182	2296.62
402.406	2192.62
402.63	2187.62
402.854	2186.62
403.078	2249.62
403.302	2294.62
403.526	2328.62
403.75	2320.62
403.974	2359.62
404.198	2302.62
404.422	2383.62
404.645	2485.62
404.869	2492.62
405.093	2348.62
405.317	2243.62
405.541	2335.62
405.765	2347.62
405.988	2345.62
406.212	2379.62
406.436	2406.62
406.66	2499.62
406.883	2518.62
407.107	2754.62
407.331	3000.62
407.555	3248.62
407.778	3074.62
408.002	2572.62
408.226	2414.62
408.449	2448.62
408.673	2310.62
408.896	2363.62
409.12	2414.62
409.344	2402.62
409.567	2244.62
409.791	2302.62
410.014	2355.62
410.238	2440.62
410.461	2629.62
410.685	2376.62
410.908	2252.62
411.132	2337.62
411.355	2291.62
411.578	2242.62
411.802	2275.62
412.025	2302.62
412.249	2281.62
412.472	2219.62
412.695	2151.62
412.919	2157.62
413.142	2185.62
413.365	2220.62
413.589	2280.62
413.812	2338.62
414.035	2488.62
414.258	2224.62
414.482	2191.62
414.705	2235.62
414.928	2184.62
415.151	2188.62
415.374	2167.62
415.597	2266.62
415.821	2256.62
416.044	2339.62
416.267	2325.62
416.49	2145.62
416.713	2116.62
416.936	2169.62
417.159	2268.62
417.382	2267.62
417.605	2180.62
417.828	2259.62
418.051	2286.62
418.274	2218.62
418.497	2147.62
418.72	2124.62
418.943	2146.62
419.166	2285.62
419.389	2389.62
419.611	2220.62
419.834	2208.62
420.057	2229.62
420.28	2144.62
420.503	2130.62
420.726	2126.62
420.948	2172.62
421.171	2101.62
421.394	2154.62
421.617	2247.62
421.839	2166.62
422.062	2134.62
422.285	2107.62
422.507	2077.62
422.73	2062.62
422.953	2043.62
423.175	2020.62
423.398	2115.62
423.621	2144.62
423.843	2124.62
424.066	2174.62
424.288	2245.62
424.511	2281.62
424.733	2233.62
424.956	2039.62
425.178	2032.62
425.401	2033.62
425.623	2057.62
425.846	2049.62
426.068	2149.62
426.291	2186.62
426.513	2180.62
426.735	2130.62
426.958	2281.62
427.18	2435.62
427.402	2198.62
427.625	2278.62
427.847	2317.62
428.069	2194.62
428.292	2138.62
428.514	2025.62
428.736	2033.62
428.958	2038.62
429.181	2052.62
429.403	2303.62
429.625	2896.62
429.847	2502.62
430.069	2085.62
430.292	2310.62
430.514	2415.62
430.736	2207.62
430.958	2336.62
431.18	2204.62
431.402	2084.62
431.624	2056.62
431.846	2026.62
432.068	2001.62
432.29	2005.62
432.512	2024.62
432.734	2073.62
432.956	2168.62
433.178	2235.62
433.4	2240.62
433.622	2258.62
433.844	2085.62
434.066	2084.62
434.287	2050.62
434.509	2177.62
434.731	2194.62
434.953	2354.62
435.175	2286.62
435.397	2159.62
435.618	2149.62
435.84	2202.62
436.062	2155.62
436.284	2128.62
436.505	2188.62
436.727	2188.62
436.949	2131.62
437.17	2097.62
437.392	2083.62
437.614	2077.62
437.835	2025.62
438.057	2119.62
438.278	2253.62
438.5	2095.62
438.721	2049.62
438.943	2021.62
439.165	2014.62
439.386	1957.62
439.608	2002.62
439.829	2035.62
440.05	2046.62
440.272	1989.62
440.493	1995.62
440.715	2055.62
440.936	2208.62
441.158	2379.62
441.379	2320.62
441.6	2218.62
441.822	2213.62
442.043	2214.62
442.264	2140.62
442.486	2049.62
442.707	1996.62
442.928	2028.62
443.149	2144.62
443.371	2207.62
443.592	2318.62
443.813	2287.62
444.034	2224.62
444.255	2270.62
444.476	2251.62
444.698	2350.62
444.919	2338.62
445.14	2386.62
445.361	2371.62
445.582	2444.62
445.803	2347.62
446.024	2249.62
446.245	2294.62
446.466	2231.62
446.687	2136.62
446.908	2133.62
447.129	2073.62
447.35	2094.62
447.571	2089.62
447.792	2050.62
448.013	2009.62
448.234	2045.62
448.455	2094.62
448.675	2146.62
448.896	2002.62
449.117	1926.62
449.338	1998.62
449.559	2038.62
449.779	2212.62
450	2378.62
450.221	2611.62
450.442	2509.62
450.662	2172.62
450.883	1986.62
451.104	1968.62
451.324	1966.62
451.545	2019.62
451.766	2035.62
451.986	1926.62
452.207	1931.62
452.428	1883.62
452.648	1849.62
452.869	1882.62
453.089	2002.62
453.31	1940.62
453.53	2078.62
453.751	2001.62
453.971	1839.62
454.192	1864.62
454.412	2038.62
454.633	1976.62
454.853	1880.62
455.073	1774.62
455.294	1743.62
455.514	1761.62
455.734	1848.62
455.955	1848.62
456.175	1843.62
456.395	1817.62
456.616	1892.62
456.836	1903.62
457.056	1874.62
457.276	1894.62
457.497	1820.62
457.717	1811.62
457.937	1859.62
458.157	1858.62
458.377	1827.62
458.598	1840.62
458.818	1852.62
459.038	1952.62
459.258	2108.62
459.478	2130.62
459.698	2020.62
459.918	2059.62
460.138	2161.62
460.358	2172.62
460.578	2207.62
460.798	2241.62
461.018	2412.62
461.238	2350.62
461.458	2179.62
461.678	2166.62
461.898	2142.62
462.118	2102.62
462.338	2235.62
462.558	2240.62
462.777	2222.62
462.997	2327.62
463.217	2423.62
463.437	2428.62
463.657	2255.62
463.876	2203.62
464.096	2212.62
464.316	2176.62
464.536	2287.62
464.755	2241.62
464.975	2314.62
465.195	2233.62
465.414	2295.62
465.634	2322.62
465.854	2195.62
466.073	2328.62
466.293	2272.62
466.512	1980.62
466.732	1952.62
466.951	2084.62
467.171	2066.62
467.391	2028.62
467.61	1912.62
467.829	1998.62
468.049	2095.62
468.268	2386.62
468.488	2238.62
468.707	2098.62
468.927	2084.62
469.146	2007.62
469.365	1932.62
469.585	2011.62
469.804	1947.62
470.023	1967.62
470.243	2034.62
470.462	1984.62
470.681	1994.62
470.901	1994.62
471.12	2026.62
471.339	1992.62
471.558	1942.62
471.777	1902.62
471.997	1968.62
472.216	1961.62
472.435	1898.62
472.654	1955.62
472.873	1993.62
473.092	2151.62
473.311	2062.62
473.53	1915.62
473.749	1918.62
473.968	1958.62
474.187	2079.62
474.406	2196.62
474.625	2050.62
474.844	2010.62
475.063	1988.62
475.282	2065.62
475.501	2023.62
475.72	2006.62
475.939	2183.62
476.158	2126.62
476.377	2036.62
476.596	2034.62
476.814	2144.62
477.033	2125.62
477.252	2199.62
477.471	2226.62
477.69	2134.62
477.908	2140.62
478.127	2255.62
478.346	2400.62
478.564	2425.62
478.783	2385.62
479.002	2430.62
479.22	2406.62
479.439	2508.62
479.658	2807.62
479.876	2785.62
480.095	2405.62
480.313	2331.62
480.532	2267.62
480.751	2281.62
480.969	2371.62
481.188	2287.62
481.406	2243.62
481.624	2179.62
481.843	2228.62
482.061	2276.62
482.28	2319.62
482.498	2321.62
482.717	2306.62
482.935	2235.62
483.153	2272.62
483.372	2210.62
483.59	2178.62
483.808	2258.62
484.027	2276.62
484.245	2427.62
484.463	2785.62
484.681	3214.62
484.9	2521.62
485.118	2346.62
485.336	2283.62
485.554	2352.62
485.772	2458.62
485.99	2407.62
486.209	2487.62
486.427	2407.62
486.645	2377.62
486.863	2400.62
487.081	2422.62
487.299	2520.62
487.517	2469.62
487.735	2356.62
487.953	2340.62
488.171	2366.62
488.389	2307.62
488.607	2362.62
488.825	2576.62
489.043	2654.62
489.261	2347.62
489.479	2485.62
489.696	2516.62
489.914	2459.62
490.132	2396.62
490.35	2351.62
490.568	2465.62
490.786	2374.62
491.003	2284.62
491.221	2359.62
491.439	2451.62
491.657	2434.62
491.874	2421.62
492.092	2408.62
492.31	2504.62
492.527	2464.62
492.745	2432.62
492.963	2368.62
493.18	2472.62
493.398	2624.62
493.615	2716.62
493.833	2484.62
494.05	2452.62
494.268	2450.62
494.485	2504.62
494.703	2437.62
494.92	2432.62
495.138	2448.62
495.355	2428.62
495.573	2514.62
495.79	2690.62
496.008	2704.62
496.225	2552.62
496.442	2551.62
496.66	2636.62
496.877	2526.62
497.094	2653.62
497.312	2678.62
497.529	2578.62
497.746	2747.62
497.963	3149.62
498.181	3530.62
498.398	3305.62
498.615	3206.62
498.832	3166.62
499.049	3128.62
499.267	3116.62
499.484	3303.62
499.701	3591.62
499.918	3614.62
500.135	3921.62
500.352	4210.62
500.569	4148.62
500.786	4330.62
501.003	4144.62
501.22	3672.62
501.437	3616.62
501.654	3654.62
501.871	3554.62
502.088	3126.62
502.305	3134.62
502.522	3016.62
502.739	2778.62
502.956	2744.62
503.172	2719.62
503.389	2624.62
503.606	2549.62
503.823	2624.62
504.04	2655.62
504.256	2607.62
504.473	2614.62
504.69	2710.62
504.907	2559.62
505.123	2434.62
505.34	2514.62
505.557	3206.62
505.773	2779.62
505.99	2411.62
506.207	2242.62
506.423	2224.62
506.64	2196.62
506.856	2215.62
507.073	2512.62
507.289	2687.62
507.506	2570.62
507.722	2231.62
507.939	2160.62
508.155	2099.62
508.372	2160.62
508.588	2123.62
508.805	2056.62
509.021	2020.62
509.238	2035.62
509.454	1996.62
509.67	2016.62
509.887	2011.62
510.103	1994.62
510.319	2014.62
510.536	2098.62
510.752	2162.62
510.968	2197.62
511.184	2281.62
511.401	2261.62
511.617	2006.62
511.833	1967.62
512.049	1942.62
512.265	1961.62
512.481	1950.62
512.698	1991.62
512.914	2121.62
513.13	2067.62
513.346	1968.62
513.562	1902.62
513.778	1959.62
513.994	2026.62
514.21	2087.62
514.426	2113.62
514.642	2354.62
514.858	2258.62
515.074	2084.62
515.29	1987.62
515.506	2040.62
515.721	2054.62
515.937	2073.62
516.153	2330.62
516.369	2328.62
516.585	2138.62
516.801	2100.62
517.016	2078.62
517.232	2100.62
517.448	2165.62
517.664	2143.62
517.879	2183.62
518.095	2290.62
518.311	2171.62
518.527	2060.62
518.742	2060.62
518.958	1973.62
519.173	1994.62
519.389	1998.62
519.605	2034.62
519.82	2023.62
520.036	2040.62
520.251	2008.62
520.467	2002.62
520.682	2179.62
520.898	2238.62
521.113	1987.62
521.329	1959.62
521.544	2131.62
521.76	2033.62
521.975	1897.62
522.19	1891.62
522.406	1858.62
522.621	2218.62
522.836	2250.62
523.052	1828.62
523.267	1857.62
523.482	1859.62
523.698	1811.62
523.913	1740.62
524.128	1830.62
524.343	1891.62
524.559	1954.62
524.774	1830.62
524.989	1830.62
525.204	1788.62
525.419	1753.62
525.634	1755.62
525.849	1754.62
526.064	1794.62
526.28	1815.62
526.495	1753.62
526.71	1738.62
526.925	1778.62
527.14	1746.62
527.355	1710.62
527.57	1683.62
527.785	1759.62
527.999	1714.62
528.214	1712.62
528.429	1662.62
528.644	1633.62
528.859	1674.62
529.074	1693.62
529.289	1735.62
529.503	1748.62
529.718	1728.62
529.933	1720.62
530.148	1653.62
530.363	1659.62
530.577	1677.62
530.792	1739.62
531.007	1768.62
531.221	1699.62
531.436	1727.62
531.651	1804.62
531.865	1823.62
532.08	1781.62
532.295	1675.62
532.509	1616.62
532.724	1644.62
532.938	1710.62
533.153	1816.62
533.367	1751.62
533.582	1735.62
533.796	1669.62
534.011	1706.62
534.225	1703.62
534.44	1654.62
534.654	1635.62
534.868	1626.62
535.083	1742.62
535.297	1705.62
535.511	1668.62
535.726	1670.62
535.94	1667.62
536.154	1686.62
536.369	1638.62
536.583	1603.62
536.797	1568.62
537.011	1652.62
537.225	1632.62
537.44	1588.62
537.654	1672.62
537.868	1586.62
538.082	1530.62
538.296	1546.62
538.51	1532.62
538.724	1563.62
538.938	1523.62
539.153	1615.62
539.367	1562.62
539.581	1564.62
539.795	1640.62
540.009	1630.62
540.222	1580.62
540.436	1606.62
540.65	1752.62
540.864	1750.62
541.078	1665.62
541.292	1569.62
541.506	1563.62
541.72	1566.62
541.934	1598.62
542.147	1654.62
542.361	1574.62
542.575	1537.62
542.789	1546.62
543.002	1475.62
543.216	1527.62
543.43	1595.62
543.644	1671.62
543.857	1720.62
544.071	1662.62
544.285	1599.62
544.498	1558.62
544.712	1551.62
544.925	1605.62
545.139	1638.62
545.352	1574.62
545.566	1498.62
545.779	1491.62
545.993	1510.62
546.206	1541.62
546.42	1467.62
546.633	1478.62
546.847	1473.62
547.06	1490.62
547.274	1500.62
547.487	1476.62
547.7	1534.62
547.914	1502.62
548.127	1534.62
548.34	1542.62
548.554	1521.62
548.767	1520.62
548.98	1533.62
549.193	1511.62
549.407	1564.62
549.62	1594.62
549.833	1472.62
550.046	1502.62
550.259	1511.62
550.473	1479.62
550.686	1490.62
550.899	1420.62
551.112	1428.62
551.325	1412.62
551.538	1525.62
551.751	1759.62
551.964	1430.62
552.177	1403.62
552.39	1407.62
552.603	1457.62
552.816	1441.62
553.029	1502.62
553.242	1561.62
553.455	1489.62
553.667	1459.62
553.88	1467.62
554.093	1440.62
554.306	1447.62
554.519	1406.62
554.732	1351.62
554.944	1370.62
555.157	1406.62
555.37	1376.62
555.583	1383.62
555.795	1378.62
556.008	1330.62
556.221	1310.62
556.433	1292.62
556.646	1303.62
556.859	1285.62
557.071	1252.62
557.284	1234.62
557.496	1285.62
557.709	1259.62
557.921	1230.62
558.134	1242.62
558.346	1228.62
558.559	1234.62
558.771	1233.62
558.984	1214.62
559.196	1172.62
559.409	1194.62
559.621	1189.62
559.833	1205.62
560.046	1274.62
560.258	1237.62
560.47	1214.62
560.683	1227.62
560.895	1187.62
561.107	1237.62
561.32	1240.62
561.532	1256.62
561.744	1217.62
561.956	1221.62
562.168	1199.62
562.381	1158.62
562.593	1163.62
562.805	1183.62
563.017	1158.62
563.229	1197.62
563.441	1236.62
563.653	1203.62
563.865	1191.62
564.077	1204.62
564.289	1204.62
564.501	1207.62
564.713	1212.62
564.925	1263.62
565.137	1416.62
565.349	1258.62
565.561	1237.62
565.773	1246.62
565.985	1314.62
566.197	1370.62
566.408	1423.62
566.62	1434.62
566.832	1443.62
567.044	1481.62
567.255	1430.62
567.467	1464.62
567.679	1563.62
567.891	1573.62
568.102	1540.62
568.314	1454.62
568.526	1386.62
568.737	1324.62
568.949	1264.62
569.161	1212.62
569.372	1179.62
569.584	1167.62
569.795	1169.62
570.007	1159.62
570.218	1115.62
570.43	1076.62
570.641	1079.62
570.853	1082.62
571.064	1082.62
571.276	1093.62
571.487	1057.62
571.698	1033.62
571.91	1050.62
572.121	1002.62
572.333	1002.62
572.544	998.62
572.755	962.62
572.966	950.62
573.178	966.62
573.389	993.62
573.6	983.62
573.811	1070.62
574.023	972.62
574.234	966.62
574.445	920.62
574.656	936.62
574.867	908.62
575.078	924.62
575.289	914.62
575.501	895.62
575.712	887.62
575.923	893.62
576.134	906.62
576.345	868.62
576.556	864.62
576.767	872.62
576.978	885.62
577.188	856.62
577.399	843.62
577.61	870.62
577.821	857.62
578.032	828.62
578.243	839.62
578.454	858.62
578.665	837.62
578.875	838.62
579.086	817.62
579.297	863.62
579.508	859.62
579.718	830.62
579.929	835.62
580.14	775.62
580.35	822.62
580.561	818.62
580.772	883.62
580.982	844.62
581.193	823.62
581.403	776.62
581.614	790.62
581.825	803.62
582.035	768.62
582.246	784.62
582.456	804.62
582.667	792.62
582.877	786.62
583.087	778.62
583.298	769.62
583.508	755.62
583.719	760.62
583.929	792.62
584.139	779.62
584.35	783.62
584.56	767.62
584.77	775.62
584.981	771.62
585.191	762.62
585.401	772.62
585.611	747.62
585.821	755.62
586.032	758.62
586.242	742.62
586.452	703.62
586.662	743.62
586.872	739.62
587.082	710.62
587.292	766.62
587.502	766.62
587.713	785.62
587.923	743.62
588.133	739.62
588.343	757.62
588.553	752.62
588.762	747.62
588.972	713.62
589.182	742.62
589.392	759.62
589.602	788.62
589.812	745.62
590.022	702.62
590.232	699.62
590.441	732.62
590.651	732.62
590.861	698.62
591.071	718.62
591.281	719.62
591.49	692.62
591.7	734.62
591.91	721.62
592.119	730.62
592.329	719.62
592.539	755.62
592.748	736.62
592.958	758.62
593.167	771.62
593.377	762.62
593.587	776.62
593.796	778.62
594.006	782.62
594.215	770.62
594.424	767.62
594.634	774.62
594.843	723.62
595.053	766.62
595.262	735.62
595.472	725.62
595.681	718.62
595.89	698.62
596.1	672.62
596.309	691.62
596.518	689.62
596.727	696.62
596.937	696.62
597.146	647.62
597.355	627.62
597.564	647.62
597.774	642.62
597.983	601.62
598.192	627.62
598.401	623.62
598.61	645.62
598.819	632.62
599.028	622.62
599.237	626.62
599.446	627.62
599.655	608.62
599.864	604.62
600.073	628.62
600.282	583.62
600.491	586.62
600.7	602.62
600.909	586.62
601.118	589.62
601.327	618.62
601.536	608.62
601.745	580.62
601.953	552.62
602.162	575.62
602.371	602.62
602.58	587.62
602.789	578.62
602.997	581.62
603.206	605.62
603.415	565.62
603.623	562.62
603.832	585.62
604.041	579.62
604.249	569.62
604.458	593.62
604.666	591.62
604.875	550.62
605.084	569.62
605.292	570.62
605.501	577.62
605.709	559.62
605.918	551.62
606.126	543.62
606.334	542.62
606.543	539.62
606.751	560.62
606.96	547.62
607.168	526.62
607.376	531.62
607.585	536.62
607.793	532.62
608.001	528.62
608.21	553.62
608.418	540.62
608.626	523.62
608.834	537.62
609.043	555.62
609.251	519.62
609.459	540.62
609.667	538.62
609.875	547.62
610.083	556.62
610.291	557.62
610.499	546.62
610.707	551.62
610.916	535.62
611.124	513.62
611.332	528.62
611.54	530.62
611.748	514.62
611.955	494.62
612.163	509.62
612.371	510.62
612.579	516.62
612.787	505.62
612.995	537.62
613.203	513.62
613.411	490.62
613.618	523.62
613.826	519.62
614.034	529.62
614.242	510.62
614.449	491.62
614.657	518.62
614.865	506.62
615.072	501.62
615.28	506.62
615.488	516.62
615.695	540.62
615.903	548.62
616.111	532.62
616.318	514.62
616.526	503.62
616.733	500.62
616.941	494.62
617.148	510.62
617.356	498.62
617.563	508.62
617.771	512.62
617.978	481.62
618.185	478.62
618.393	479.62
618.6	475.62
618.807	486.62
619.015	489.62
619.222	498.62
619.429	481.62
619.637	479.62
619.844	484.62
620.051	449.62
620.258	468.62
620.466	459.62
620.673	457.62
620.88	455.62
621.087	450.62
621.294	472.62
621.501	442.62
621.708	454.62
621.915	449.62
622.122	463.62
622.329	454.62
622.536	446.62
622.743	468.62
622.95	440.62
623.157	442.62
623.364	429.62
623.571	438.62
623.778	433.62
623.985	440.62
624.192	436.62
624.399	443.62
624.606	425.62
624.812	432.62
625.019	437.62
625.226	426.62
625.433	415.62
625.639	432.62
625.846	427.62
626.053	414.62
626.259	432.62
626.466	404.62
626.673	390.62
626.879	394.62
627.086	430.62
627.293	414.62
627.499	412.62
627.706	401.62
627.912	424.62
628.119	416.62
628.325	417.62
628.532	393.62
628.738	415.62
628.945	407.62
629.151	391.62
629.357	411.62
629.564	376.62
629.77	395.62
629.976	378.62
630.183	376.62
630.389	390.62
630.595	394.62
630.802	384.62
631.008	352.62
631.214	378.62
631.42	370.62
631.627	382.62
631.833	362.62
632.039	376.62
632.245	376.62
632.451	366.62
632.657	360.62
632.863	375.62
633.069	355.62
633.275	356.62
633.481	337.62
633.688	363.62
633.893	376.62
634.099	380.62
634.305	360.62
634.511	355.62
634.717	353.62
634.923	338.62
635.129	339.62
635.335	359.62
635.541	353.62
635.747	351.62
635.952	351.62
636.158	340.62
636.364	347.62
636.57	369.62
636.775	344.62
636.981	343.62
637.187	332.62
637.392	338.62
637.598	331.62
637.804	340.62
638.009	334.62
638.215	359.62
638.421	325.62
638.626	316.62
638.832	334.62
639.037	323.62
639.243	329.62
639.448	324.62
639.654	342.62
639.859	322.62
640.065	331.62
640.27	332.62
640.475	324.62
640.681	330.62
640.886	325.62
641.091	328.62
641.297	312.62
641.502	318.62
641.707	321.62
641.913	332.62
642.118	321.62
642.323	308.62
642.528	313.62
642.733	310.62
642.939	307.62
643.144	340.62
643.349	318.62
643.554	301.62
643.759	309.62
643.964	334.62
644.169	313.62
644.374	321.62
644.579	308.62
644.784	306.62
644.989	288.62
645.194	326.62
645.399	318.62
645.604	314.62
645.809	314.62
646.014	314.62
646.219	300.62
646.423	295.62
646.628	311.62
646.833	316.62
647.038	308.62
647.243	302.62
647.447	319.62
647.652	315.62
647.857	292.62
648.062	313.62
648.266	291.62
648.471	305.62
648.676	306.62
648.88	296.62
649.085	320.62
649.289	310.62
649.494	308.62
649.698	291.62
649.903	328.62
650.107	297.62
650.312	296.62
650.516	317.62
650.721	304.62
650.925	284.62
651.13	284.62
651.334	291.62
651.539	266.62
651.743	278.62
651.947	280.62
652.152	287.62
652.356	268.62
652.56	274.62
652.764	258.62
652.969	262.62
653.173	242.62
653.377	247.62
653.581	272.62
653.785	236.62
653.99	227.62
654.194	250.62
654.398	238.62
654.602	233.62
654.806	234.62
655.01	231.62
655.214	242.62
655.418	266.62
655.622	254.62
655.826	251.62
656.03	259.62
656.234	266.62
656.438	265.62
656.642	277.62
656.846	235.62
657.049	235.62
657.253	206.62
657.457	219.62
657.661	195.62
657.865	172.62
658.068	171.62
658.272	167.62
658.476	171.62
658.68	155.62
658.883	136.62
659.087	138.62
659.291	137.62
659.494	124.62
659.698	130.62
659.901	138.62
660.105	112.62
660.309	123.62
660.512	112.62
660.716	119.62
660.919	112.62
661.123	108.62
661.326	90.62
661.53	104.62
661.733	112.62
661.936	90.62
662.14	95.62
662.343	102.62
662.546	89.62
662.75	96.62
662.953	99.62
663.156	83.62
663.36	84.62
663.563	72.62
663.766	82.62
663.969	93.62
664.173	85.62
664.376	81.62
664.579	67.62
664.782	76.62
664.985	84.62
665.188	78.62
665.391	66.62
665.594	70.62
665.797	87.62
666	71.62
666.203	64.62
666.406	82.62
666.609	73.62
666.812	87.62
667.015	75.62
667.218	80.62
667.421	83.62
667.624	77.62
667.827	76.62
668.03	79.62
668.232	83.62
668.435	64.62
668.638	69.62
668.841	75.62
669.043	99.62
669.246	77.62
669.449	82.62
669.651	96.62
669.854	76.62
670.057	76.62
670.259	82.62
670.462	66.62
670.665	84.62
670.867	90.62
671.07	76.62
671.272	78.62
671.475	75.62
671.677	82.62
671.88	67.62
672.082	66.62
672.284	83.62
672.487	73.62
672.689	79.62
672.892	82.62
