Data from WStandard_LampEnergy8_LIBS07252019.E.O._I.C._HRD10591_15-59-54-929.txt Node
Date: Thu Jul 25 15:59:54 EDT 2019
User: cochatt
Spectrometer: HR+D1059
Trigger mode: 1
Integration Time (sec): 1.000000E-1
Scans to average: 1
Electric dark correction enabled: true
Nonlinearity correction enabled: false
Boxcar width: 0
XAxis mode: Wavelengths
Number of Pixels in Spectrum: 2048
>>>>>Begin Spectral Data<<<<<
223.165	-11.19
223.4	-11.19
223.635	-11.19
223.869	-29.19
224.104	-14.19
224.338	-7.19
224.573	-1.19
224.808	-23.19
225.042	-1.19
225.277	-25.19
225.511	-8.19
225.746	-3.19
225.98	4.81
226.215	12.81
226.449	21.81
226.683	24.81
226.918	28.81
227.152	30.81
227.387	48.81
227.621	58.81
227.856	57.81
228.09	33.81
228.324	49.81
228.559	58.81
228.793	97.81
229.027	201.81
229.262	199.81
229.496	213.81
229.73	234.81
229.964	220.81
230.199	253.81
230.433	260.81
230.667	270.81
230.901	273.81
231.136	294.81
231.37	267.81
231.604	250.81
231.838	259.81
232.072	269.81
232.306	249.81
232.541	275.81
232.775	308.81
233.009	330.81
233.243	301.81
233.477	283.81
233.711	297.81
233.945	297.81
234.179	313.81
234.413	309.81
234.647	335.81
234.881	304.81
235.115	301.81
235.349	309.81
235.583	284.81
235.817	310.81
236.051	297.81
236.285	310.81
236.519	337.81
236.753	369.81
236.987	363.81
237.221	352.81
237.455	362.81
237.689	362.81
237.922	355.81
238.156	344.81
238.39	347.81
238.624	358.81
238.858	381.81
239.091	420.81
239.325	428.81
239.559	475.81
239.793	478.81
240.027	533.81
240.26	496.81
240.494	395.81
240.728	374.81
240.961	369.81
241.195	391.81
241.429	423.81
241.662	403.81
241.896	388.81
242.13	383.81
242.363	419.81
242.597	472.81
242.83	435.81
243.064	452.81
243.298	476.81
243.531	450.81
243.765	469.81
243.998	456.81
244.232	408.81
244.465	404.81
244.699	412.81
244.932	465.81
245.166	507.81
245.399	470.81
245.633	449.81
245.866	458.81
246.099	475.81
246.333	472.81
246.566	498.81
246.8	542.81
247.033	584.81
247.266	545.81
247.5	534.81
247.733	546.81
247.966	582.81
248.2	594.81
248.433	590.81
248.666	605.81
248.899	649.81
249.133	740.81
249.366	830.81
249.599	674.81
249.832	588.81
250.066	632.81
250.299	608.81
250.532	579.81
250.765	516.81
250.998	563.81
251.231	587.81
251.465	598.81
251.698	586.81
251.931	582.81
252.164	579.81
252.397	632.81
252.63	623.81
252.863	540.81
253.096	540.81
253.329	558.81
253.562	581.81
253.795	589.81
254.028	616.81
254.261	566.81
254.494	553.81
254.727	565.81
254.96	578.81
255.193	644.81
255.426	698.81
255.659	797.81
255.892	764.81
256.124	664.81
256.357	653.81
256.59	713.81
256.823	665.81
257.056	727.81
257.289	803.81
257.521	892.81
257.754	792.81
257.987	752.81
258.22	833.81
258.452	789.81
258.685	680.81
258.918	654.81
259.151	665.81
259.383	640.81
259.616	584.81
259.849	617.81
260.081	685.81
260.314	774.81
260.547	796.81
260.779	834.81
261.012	745.81
261.244	689.81
261.477	651.81
261.71	679.81
261.942	668.81
262.175	680.81
262.407	692.81
262.64	673.81
262.872	620.81
263.105	628.81
263.337	624.81
263.57	630.81
263.802	624.81
264.035	584.81
264.267	552.81
264.499	571.81
264.732	602.81
264.964	648.81
265.197	636.81
265.429	709.81
265.661	784.81
265.894	824.81
266.126	837.81
266.358	779.81
266.591	819.81
266.823	846.81
267.055	772.81
267.287	763.81
267.52	768.81
267.752	728.81
267.984	736.81
268.216	785.81
268.448	788.81
268.681	758.81
268.913	703.81
269.145	702.81
269.377	690.81
269.609	755.81
269.841	870.81
270.073	1011.81
270.306	1068.81
270.538	1143.81
270.77	954.81
271.002	836.81
271.234	781.81
271.466	814.81
271.698	915.81
271.93	1051.81
272.162	1048.81
272.394	938.81
272.626	886.81
272.858	775.81
273.09	698.81
273.322	698.81
273.553	653.81
273.785	660.81
274.017	701.81
274.249	756.81
274.481	741.81
274.713	700.81
274.945	690.81
275.176	681.81
275.408	680.81
275.64	664.81
275.872	689.81
276.104	732.81
276.335	816.81
276.567	915.81
276.799	891.81
277.031	829.81
277.262	770.81
277.494	840.81
277.726	893.81
277.957	868.81
278.189	806.81
278.421	742.81
278.652	737.81
278.884	699.81
279.115	726.81
279.347	739.81
279.579	726.81
279.81	714.81
280.042	807.81
280.273	889.81
280.505	856.81
280.736	878.81
280.968	788.81
281.199	722.81
281.431	702.81
281.662	716.81
281.894	713.81
282.125	724.81
282.356	741.81
282.588	763.81
282.819	784.81
283.051	809.81
283.282	895.81
283.513	811.81
283.745	737.81
283.976	700.81
284.207	721.81
284.439	736.81
284.67	754.81
284.901	768.81
285.132	748.81
285.364	730.81
285.595	793.81
285.826	772.81
286.057	732.81
286.288	747.81
286.52	775.81
286.751	848.81
286.982	839.81
287.213	779.81
287.444	746.81
287.675	736.81
287.906	785.81
288.138	827.81
288.369	793.81
288.6	744.81
288.831	734.81
289.062	738.81
289.293	745.81
289.524	758.81
289.755	803.81
289.986	765.81
290.217	718.81
290.448	757.81
290.679	754.81
290.91	777.81
291.141	797.81
291.371	799.81
291.602	806.81
291.833	807.81
292.064	809.81
292.295	838.81
292.526	858.81
292.757	856.81
292.987	837.81
293.218	760.81
293.449	850.81
293.68	969.81
293.91	994.81
294.141	922.81
294.372	920.81
294.603	926.81
294.833	978.81
295.064	899.81
295.295	845.81
295.525	806.81
295.756	762.81
295.987	730.81
296.217	740.81
296.448	743.81
296.679	776.81
296.909	769.81
297.14	720.81
297.37	781.81
297.601	836.81
297.831	894.81
298.062	866.81
298.292	787.81
298.523	768.81
298.753	770.81
298.984	785.81
299.214	776.81
299.445	830.81
299.675	859.81
299.905	845.81
300.136	808.81
300.366	774.81
300.597	747.81
300.827	780.81
301.057	800.81
301.288	854.81
301.518	855.81
301.748	874.81
301.979	873.81
302.209	923.81
302.439	1000.81
302.669	984.81
302.9	917.81
303.13	827.81
303.36	845.81
303.59	866.81
303.82	850.81
304.051	852.81
304.281	853.81
304.511	856.81
304.741	951.81
304.971	1005.81
305.201	1063.81
305.431	936.81
305.661	817.81
305.891	758.81
306.121	774.81
306.352	785.81
306.582	830.81
306.812	884.81
307.042	963.81
307.272	952.81
307.502	988.81
307.731	1063.81
307.961	1093.81
308.191	989.81
308.421	888.81
308.651	802.81
308.881	793.81
309.111	840.81
309.341	835.81
309.571	809.81
309.8	811.81
310.03	803.81
310.26	800.81
310.49	820.81
310.72	843.81
310.949	846.81
311.179	856.81
311.409	853.81
311.639	852.81
311.868	830.81
312.098	835.81
312.328	821.81
312.557	821.81
312.787	850.81
313.017	847.81
313.246	855.81
313.476	884.81
313.706	898.81
313.935	869.81
314.165	869.81
314.394	918.81
314.624	979.81
314.853	1016.81
315.083	1047.81
315.312	1036.81
315.542	981.81
315.771	925.81
316.001	901.81
316.23	924.81
316.46	916.81
316.689	913.81
316.919	853.81
317.148	853.81
317.377	867.81
317.607	988.81
317.836	1065.81
318.065	1053.81
318.295	1034.81
318.524	980.81
318.753	980.81
318.983	942.81
319.212	910.81
319.441	893.81
319.67	907.81
319.9	956.81
320.129	994.81
320.358	1016.81
320.587	1029.81
320.816	1024.81
321.046	983.81
321.275	939.81
321.504	970.81
321.733	1042.81
321.962	1002.81
322.191	936.81
322.42	917.81
322.649	918.81
322.878	924.81
323.108	962.81
323.337	964.81
323.566	953.81
323.795	940.81
324.024	970.81
324.253	920.81
324.482	939.81
324.71	889.81
324.939	850.81
325.168	879.81
325.397	930.81
325.626	928.81
325.855	959.81
326.084	896.81
326.313	937.81
326.542	925.81
326.77	962.81
326.999	973.81
327.228	909.81
327.457	894.81
327.686	831.81
327.914	905.81
328.143	953.81
328.372	906.81
328.6	923.81
328.829	910.81
329.058	899.81
329.287	892.81
329.515	929.81
329.744	948.81
329.972	992.81
330.201	1004.81
330.43	992.81
330.658	976.81
330.887	963.81
331.115	974.81
331.344	977.81
331.572	948.81
331.801	944.81
332.03	974.81
332.258	986.81
332.486	990.81
332.715	977.81
332.943	997.81
333.172	970.81
333.4	983.81
333.629	1026.81
333.857	1074.81
334.085	1225.81
334.314	1330.81
334.542	1376.81
334.771	1256.81
334.999	1120.81
335.227	1084.81
335.455	1057.81
335.684	1039.81
335.912	1047.81
336.14	1107.81
336.369	1047.81
336.597	986.81
336.825	973.81
337.053	995.81
337.281	1074.81
337.51	1131.81
337.738	1152.81
337.966	1076.81
338.194	993.81
338.422	954.81
338.65	964.81
338.878	950.81
339.106	927.81
339.334	950.81
339.562	939.81
339.79	923.81
340.018	1012.81
340.246	1043.81
340.474	1029.81
340.702	1008.81
340.93	1005.81
341.158	1002.81
341.386	977.81
341.614	969.81
341.842	965.81
342.07	963.81
342.298	989.81
342.526	968.81
342.754	951.81
342.981	934.81
343.209	953.81
343.437	963.81
343.665	985.81
343.893	1012.81
344.12	1026.81
344.348	1036.81
344.576	1025.81
344.804	992.81
345.031	992.81
345.259	973.81
345.487	924.81
345.714	929.81
345.942	902.81
346.17	916.81
346.397	938.81
346.625	929.81
346.853	899.81
347.08	877.81
347.308	895.81
347.535	904.81
347.763	953.81
347.99	911.81
348.218	889.81
348.445	909.81
348.673	933.81
348.9	938.81
349.128	992.81
349.355	980.81
349.583	970.81
349.81	920.81
350.037	856.81
350.265	862.81
350.492	883.81
350.72	877.81
350.947	944.81
351.174	930.81
351.402	908.81
351.629	872.81
351.856	860.81
352.083	823.81
352.311	867.81
352.538	874.81
352.765	935.81
352.992	916.81
353.22	916.81
353.447	872.81
353.674	896.81
353.901	894.81
354.128	909.81
354.355	920.81
354.583	929.81
354.81	936.81
355.037	941.81
355.264	938.81
355.491	944.81
355.718	906.81
355.945	889.81
356.172	892.81
356.399	876.81
356.626	888.81
356.853	937.81
357.08	1019.81
357.307	1078.81
357.534	1066.81
357.761	926.81
357.988	871.81
358.215	852.81
358.441	858.81
358.668	871.81
358.895	889.81
359.122	983.81
359.349	1090.81
359.576	994.81
359.802	941.81
360.029	879.81
360.256	896.81
360.483	876.81
360.709	944.81
360.936	933.81
361.163	1000.81
361.39	1074.81
361.616	1157.81
361.843	1113.81
362.07	1038.81
362.296	940.81
362.523	915.81
362.749	920.81
362.976	931.81
363.203	931.81
363.429	915.81
363.656	881.81
363.882	962.81
364.109	1038.81
364.335	1089.81
364.562	1012.81
364.788	986.81
365.015	919.81
365.241	896.81
365.468	922.81
365.694	966.81
365.92	994.81
366.147	928.81
366.373	902.81
366.599	903.81
366.826	897.81
367.052	888.81
367.278	878.81
367.505	964.81
367.731	954.81
367.957	930.81
368.184	980.81
368.41	1036.81
368.636	1054.81
368.862	1035.81
369.089	1052.81
369.315	1024.81
369.541	964.81
369.767	913.81
369.993	919.81
370.219	953.81
370.445	972.81
370.672	1005.81
370.898	1034.81
371.124	1003.81
371.35	995.81
371.576	1011.81
371.802	1050.81
372.028	992.81
372.254	949.81
372.48	926.81
372.706	907.81
372.932	921.81
373.158	926.81
373.384	979.81
373.61	1031.81
373.835	1032.81
374.061	982.81
374.287	972.81
374.513	979.81
374.739	989.81
374.965	997.81
375.191	998.81
375.416	1001.81
375.642	1021.81
375.868	1088.81
376.094	1091.81
376.319	1031.81
376.545	1008.81
376.771	1008.81
376.997	1031.81
377.222	1018.81
377.448	1041.81
377.674	1034.81
377.899	1020.81
378.125	1066.81
378.35	1046.81
378.576	989.81
378.802	930.81
379.027	956.81
379.253	971.81
379.478	923.81
379.704	966.81
379.929	986.81
380.155	972.81
380.38	1000.81
380.606	1011.81
380.831	1001.81
381.057	1057.81
381.282	1073.81
381.507	1030.81
381.733	1088.81
381.958	1133.81
382.184	1044.81
382.409	992.81
382.634	1021.81
382.86	1008.81
383.085	1010.81
383.31	1045.81
383.535	1150.81
383.761	1188.81
383.986	1116.81
384.211	1095.81
384.436	1099.81
384.662	1166.81
384.887	1174.81
385.112	1116.81
385.337	1120.81
385.562	1113.81
385.787	1104.81
386.013	1150.81
386.238	1152.81
386.463	1141.81
386.688	1220.81
386.913	1299.81
387.138	1223.81
387.363	1145.81
387.588	1136.81
387.813	1152.81
388.038	1190.81
388.263	1204.81
388.488	1156.81
388.713	1082.81
388.938	1088.81
389.163	1086.81
389.387	1114.81
389.612	1101.81
389.837	1141.81
390.062	1113.81
390.287	1140.81
390.512	1104.81
390.736	1111.81
390.961	1090.81
391.186	1046.81
391.411	1092.81
391.636	1141.81
391.86	1132.81
392.085	1130.81
392.31	1079.81
392.534	1109.81
392.759	1102.81
392.984	1120.81
393.208	1160.81
393.433	1171.81
393.658	1174.81
393.882	1208.81
394.107	1156.81
394.331	1148.81
394.556	1133.81
394.78	1147.81
395.005	1167.81
395.229	1217.81
395.454	1304.81
395.678	1270.81
395.903	1212.81
396.127	1173.81
396.352	1192.81
396.576	1224.81
396.801	1259.81
397.025	1251.81
397.249	1234.81
397.474	1206.81
397.698	1210.81
397.922	1257.81
398.147	1288.81
398.371	1382.81
398.595	1329.81
398.82	1273.81
399.044	1311.81
399.268	1370.81
399.492	1397.81
399.717	1482.81
399.941	1482.81
400.165	1459.81
400.389	1412.81
400.613	1426.81
400.837	1632.81
401.062	1794.81
401.286	1526.81
401.51	1423.81
401.734	1433.81
401.958	1398.81
402.182	1300.81
402.406	1286.81
402.63	1229.81
402.854	1273.81
403.078	1296.81
403.302	1309.81
403.526	1338.81
403.75	1276.81
403.974	1367.81
404.198	1366.81
404.422	1397.81
404.645	1448.81
404.869	1380.81
405.093	1308.81
405.317	1300.81
405.541	1286.81
405.765	1339.81
405.988	1360.81
406.212	1358.81
406.436	1367.81
406.66	1428.81
406.883	1476.81
407.107	1644.81
407.331	1775.81
407.555	1885.81
407.778	1639.81
408.002	1412.81
408.226	1422.81
408.449	1405.81
408.673	1358.81
408.896	1374.81
409.12	1384.81
409.344	1350.81
409.567	1316.81
409.791	1368.81
410.014	1372.81
410.238	1446.81
410.461	1538.81
410.685	1361.81
410.908	1317.81
411.132	1345.81
411.355	1354.81
411.578	1324.81
411.802	1334.81
412.025	1364.81
412.249	1325.81
412.472	1285.81
412.695	1285.81
412.919	1280.81
413.142	1259.81
413.365	1322.81
413.589	1345.81
413.812	1422.81
414.035	1388.81
414.258	1306.81
414.482	1316.81
414.705	1315.81
414.928	1292.81
415.151	1279.81
415.374	1288.81
415.597	1296.81
415.821	1314.81
416.044	1343.81
416.267	1325.81
416.49	1253.81
416.713	1261.81
416.936	1308.81
417.159	1372.81
417.382	1339.81
417.605	1272.81
417.828	1274.81
418.051	1316.81
418.274	1312.81
418.497	1253.81
418.72	1256.81
418.943	1240.81
419.166	1320.81
419.389	1368.81
419.611	1325.81
419.834	1288.81
420.057	1332.81
420.28	1276.81
420.503	1281.81
420.726	1302.81
420.948	1275.81
421.171	1228.81
421.394	1284.81
421.617	1316.81
421.839	1363.81
422.062	1314.81
422.285	1268.81
422.507	1272.81
422.73	1231.81
422.953	1215.81
423.175	1223.81
423.398	1268.81
423.621	1238.81
423.843	1268.81
424.066	1302.81
424.288	1386.81
424.511	1349.81
424.733	1316.81
424.956	1221.81
425.178	1222.81
425.401	1274.81
425.623	1281.81
425.846	1270.81
426.068	1352.81
426.291	1357.81
426.513	1317.81
426.735	1276.81
426.958	1404.81
427.18	1462.81
427.402	1352.81
427.625	1392.81
427.847	1367.81
428.069	1288.81
428.292	1255.81
428.514	1216.81
428.736	1227.81
428.958	1241.81
429.181	1264.81
429.403	1445.81
429.625	1725.81
429.847	1468.81
430.069	1281.81
430.292	1412.81
430.514	1419.81
430.736	1321.81
430.958	1339.81
431.18	1298.81
431.402	1222.81
431.624	1215.81
431.846	1149.81
432.068	1111.81
432.29	1138.81
432.512	1188.81
432.734	1232.81
432.956	1231.81
433.178	1261.81
433.4	1289.81
433.622	1281.81
433.844	1238.81
434.066	1197.81
434.287	1188.81
434.509	1231.81
434.731	1259.81
434.953	1360.81
435.175	1300.81
435.397	1278.81
435.618	1277.81
435.84	1230.81
436.062	1209.81
436.284	1222.81
436.505	1266.81
436.727	1294.81
436.949	1268.81
437.17	1220.81
437.392	1207.81
437.614	1208.81
437.835	1144.81
438.057	1224.81
438.278	1251.81
438.5	1228.81
438.721	1236.81
438.943	1221.81
439.165	1235.81
439.386	1237.81
439.608	1235.81
439.829	1247.81
440.05	1259.81
440.272	1249.81
440.493	1223.81
440.715	1226.81
440.936	1324.81
441.158	1408.81
441.379	1365.81
441.6	1346.81
441.822	1325.81
442.043	1348.81
442.264	1305.81
442.486	1268.81
442.707	1274.81
442.928	1255.81
443.149	1308.81
443.371	1345.81
443.592	1375.81
443.813	1361.81
444.034	1339.81
444.255	1326.81
444.476	1331.81
444.698	1422.81
444.919	1400.81
445.14	1503.81
445.361	1460.81
445.582	1443.81
445.803	1403.81
446.024	1337.81
446.245	1399.81
446.466	1350.81
446.687	1286.81
446.908	1364.81
447.129	1286.81
447.35	1288.81
447.571	1286.81
447.792	1232.81
448.013	1228.81
448.234	1258.81
448.455	1292.81
448.675	1258.81
448.896	1227.81
449.117	1180.81
449.338	1215.81
449.559	1283.81
449.779	1312.81
450	1389.81
450.221	1483.81
450.442	1434.81
450.662	1318.81
450.883	1204.81
451.104	1152.81
451.324	1193.81
451.545	1184.81
451.766	1168.81
451.986	1139.81
452.207	1120.81
452.428	1093.81
452.648	1082.81
452.869	1124.81
453.089	1140.81
453.31	1159.81
453.53	1122.81
453.751	1066.81
453.971	1052.81
454.192	1070.81
454.412	1158.81
454.633	1122.81
454.853	1101.81
455.073	1033.81
455.294	1058.81
455.514	1062.81
455.734	1043.81
455.955	1062.81
456.175	1036.81
456.395	1042.81
456.616	1141.81
456.836	1098.81
457.056	1065.81
457.276	1060.81
457.497	1037.81
457.717	1021.81
457.937	1017.81
458.157	1058.81
458.377	1042.81
458.598	1046.81
458.818	1025.81
459.038	1120.81
459.258	1152.81
459.478	1156.81
459.698	1087.81
459.918	1150.81
460.138	1184.81
460.358	1222.81
460.578	1245.81
460.798	1284.81
461.018	1349.81
461.238	1294.81
461.458	1249.81
461.678	1261.81
461.898	1217.81
462.118	1179.81
462.338	1246.81
462.558	1243.81
462.777	1242.81
462.997	1276.81
463.217	1343.81
463.437	1304.81
463.657	1254.81
463.876	1256.81
464.096	1246.81
464.316	1245.81
464.536	1264.81
464.755	1261.81
464.975	1232.81
465.195	1270.81
465.414	1299.81
465.634	1295.81
465.854	1268.81
466.073	1373.81
466.293	1349.81
466.512	1174.81
466.732	1193.81
466.951	1245.81
467.171	1237.81
467.391	1165.81
467.61	1160.81
467.829	1203.81
468.049	1315.81
468.268	1412.81
468.488	1304.81
468.707	1248.81
468.927	1254.81
469.146	1176.81
469.365	1229.81
469.585	1180.81
469.804	1190.81
470.023	1226.81
470.243	1219.81
470.462	1217.81
470.681	1199.81
470.901	1213.81
471.12	1232.81
471.339	1208.81
471.558	1179.81
471.777	1172.81
471.997	1187.81
472.216	1143.81
472.435	1102.81
472.654	1106.81
472.873	1174.81
473.092	1229.81
473.311	1173.81
473.53	1123.81
473.749	1159.81
473.968	1168.81
474.187	1193.81
474.406	1210.81
474.625	1185.81
474.844	1212.81
475.063	1213.81
475.282	1204.81
475.501	1173.81
475.72	1172.81
475.939	1275.81
476.158	1190.81
476.377	1172.81
476.596	1203.81
476.814	1219.81
477.033	1213.81
477.252	1228.81
477.471	1285.81
477.69	1261.81
477.908	1271.81
478.127	1356.81
478.346	1381.81
478.564	1399.81
478.783	1371.81
479.002	1460.81
479.22	1421.81
479.439	1456.81
479.658	1560.81
479.876	1533.81
480.095	1341.81
480.313	1330.81
480.532	1264.81
480.751	1296.81
480.969	1311.81
481.188	1267.81
481.406	1228.81
481.624	1202.81
481.843	1234.81
482.061	1274.81
482.28	1307.81
482.498	1324.81
482.717	1314.81
482.935	1289.81
483.153	1340.81
483.372	1345.81
483.59	1345.81
483.808	1347.81
484.027	1350.81
484.245	1443.81
484.463	1746.81
484.681	1877.81
484.9	1448.81
485.118	1356.81
485.336	1339.81
485.554	1370.81
485.772	1393.81
485.99	1358.81
486.209	1344.81
486.427	1363.81
486.645	1373.81
486.863	1413.81
487.081	1448.81
487.299	1462.81
487.517	1422.81
487.735	1445.81
487.953	1477.81
488.171	1490.81
488.389	1430.81
488.607	1418.81
488.825	1587.81
489.043	1532.81
489.261	1380.81
489.479	1442.81
489.696	1461.81
489.914	1472.81
490.132	1413.81
490.35	1413.81
490.568	1512.81
490.786	1499.81
491.003	1432.81
491.221	1507.81
491.439	1551.81
491.657	1581.81
491.874	1613.81
492.092	1643.81
492.31	1669.81
492.527	1618.81
492.745	1600.81
492.963	1536.81
493.18	1607.81
493.398	1685.81
493.615	1666.81
493.833	1612.81
494.05	1555.81
494.268	1536.81
494.485	1565.81
494.703	1547.81
494.92	1524.81
495.138	1528.81
495.355	1522.81
495.573	1586.81
495.79	1673.81
496.008	1633.81
496.225	1563.81
496.442	1581.81
496.66	1624.81
496.877	1590.81
497.094	1618.81
497.312	1647.81
497.529	1601.81
497.746	1640.81
497.963	1837.81
498.181	1954.81
498.398	1922.81
498.615	1798.81
498.832	1768.81
499.049	1741.81
499.267	1756.81
499.484	1877.81
499.701	1978.81
499.918	2011.81
500.135	2146.81
500.352	2259.81
500.569	2307.81
500.786	2518.81
501.003	2242.81
501.22	2063.81
501.437	2050.81
501.654	2090.81
501.871	1955.81
502.088	1761.81
502.305	1746.81
502.522	1669.81
502.739	1564.81
502.956	1551.81
503.172	1565.81
503.389	1481.81
503.606	1504.81
503.823	1448.81
504.04	1470.81
504.256	1486.81
504.473	1484.81
504.69	1498.81
504.907	1463.81
505.123	1402.81
505.34	1537.81
505.557	1951.81
505.773	1648.81
505.99	1377.81
506.207	1292.81
506.423	1282.81
506.64	1265.81
506.856	1316.81
507.073	1500.81
507.289	1579.81
507.506	1475.81
507.722	1279.81
507.939	1230.81
508.155	1217.81
508.372	1236.81
508.588	1198.81
508.805	1164.81
509.021	1122.81
509.238	1142.81
509.454	1140.81
509.67	1122.81
509.887	1136.81
510.103	1087.81
510.319	1121.81
510.536	1214.81
510.752	1212.81
510.968	1175.81
511.184	1273.81
511.401	1191.81
511.617	1108.81
511.833	1094.81
512.049	1085.81
512.265	1111.81
512.481	1092.81
512.698	1114.81
512.914	1222.81
513.13	1166.81
513.346	1102.81
513.562	1105.81
513.778	1104.81
513.994	1130.81
514.21	1187.81
514.426	1220.81
514.642	1305.81
514.858	1204.81
515.074	1140.81
515.29	1108.81
515.506	1162.81
515.721	1147.81
515.937	1161.81
516.153	1294.81
516.369	1221.81
516.585	1202.81
516.801	1140.81
517.016	1132.81
517.232	1168.81
517.448	1224.81
517.664	1208.81
517.879	1213.81
518.095	1245.81
518.311	1204.81
518.527	1147.81
518.742	1118.81
518.958	1112.81
519.173	1121.81
519.389	1123.81
519.605	1142.81
519.82	1145.81
520.036	1151.81
520.251	1117.81
520.467	1169.81
520.682	1249.81
520.898	1237.81
521.113	1103.81
521.329	1101.81
521.544	1162.81
521.76	1128.81
521.975	1069.81
522.19	1082.81
522.406	1109.81
522.621	1338.81
522.836	1279.81
523.052	1065.81
523.267	1142.81
523.482	1090.81
523.698	1093.81
523.913	1056.81
524.128	1036.81
524.343	1144.81
524.559	1136.81
524.774	1088.81
524.989	1058.81
525.204	1073.81
525.419	1051.81
525.634	1049.81
525.849	1025.81
526.064	1041.81
526.28	1069.81
526.495	987.81
526.71	992.81
526.925	989.81
527.14	969.81
527.355	944.81
527.57	981.81
527.785	1009.81
527.999	975.81
528.214	991.81
528.429	956.81
528.644	996.81
528.859	1028.81
529.074	1048.81
529.289	1103.81
529.503	1105.81
529.718	1056.81
529.933	1019.81
530.148	958.81
530.363	965.81
530.577	963.81
530.792	974.81
531.007	990.81
531.221	977.81
531.436	971.81
531.651	1005.81
531.865	1026.81
532.08	990.81
532.295	973.81
532.509	938.81
532.724	950.81
532.938	987.81
533.153	1031.81
533.367	1036.81
533.582	1057.81
533.796	1029.81
534.011	1007.81
534.225	998.81
534.44	954.81
534.654	952.81
534.868	968.81
535.083	978.81
535.297	1036.81
535.511	991.81
535.726	992.81
535.94	995.81
536.154	969.81
536.369	926.81
536.583	917.81
536.797	934.81
537.011	936.81
537.225	930.81
537.44	911.81
537.654	944.81
537.868	954.81
538.082	912.81
538.296	909.81
538.51	946.81
538.724	916.81
538.938	966.81
539.153	980.81
539.367	975.81
539.581	954.81
539.795	990.81
540.009	960.81
540.222	908.81
540.436	1001.81
540.65	1022.81
540.864	1065.81
541.078	1058.81
541.292	1024.81
541.506	1083.81
541.72	1094.81
541.934	1136.81
542.147	1162.81
542.361	1135.81
542.575	1082.81
542.789	1024.81
543.002	985.81
543.216	949.81
543.43	996.81
543.644	1053.81
543.857	1112.81
544.071	1083.81
544.285	1052.81
544.498	1056.81
544.712	1096.81
544.925	1093.81
545.139	1076.81
545.352	1067.81
545.566	1036.81
545.779	1045.81
545.993	1057.81
546.206	1088.81
546.42	1064.81
546.633	1037.81
546.847	1066.81
547.06	1028.81
547.274	1037.81
547.487	1088.81
547.7	1072.81
547.914	1086.81
548.127	1100.81
548.34	1085.81
548.554	1056.81
548.767	1032.81
548.98	1028.81
549.193	1058.81
549.407	1098.81
549.62	1098.81
549.833	1070.81
550.046	1018.81
550.259	1011.81
550.473	1030.81
550.686	1025.81
550.899	986.81
551.112	966.81
551.325	969.81
551.538	1033.81
551.751	1128.81
551.964	920.81
552.177	890.81
552.39	957.81
552.603	1031.81
552.816	1016.81
553.029	1056.81
553.242	1068.81
553.455	1033.81
553.667	1026.81
553.88	1021.81
554.093	1027.81
554.306	964.81
554.519	970.81
554.732	941.81
554.944	977.81
555.157	948.81
555.37	962.81
555.583	931.81
555.795	931.81
556.008	904.81
556.221	871.81
556.433	849.81
556.646	862.81
556.859	843.81
557.071	866.81
557.284	860.81
557.496	866.81
557.709	860.81
557.921	854.81
558.134	861.81
558.346	853.81
558.559	856.81
558.771	846.81
558.984	817.81
559.196	809.81
559.409	808.81
559.621	800.81
559.833	802.81
560.046	847.81
560.258	809.81
560.47	808.81
560.683	833.81
560.895	822.81
561.107	794.81
561.32	803.81
561.532	803.81
561.744	800.81
561.956	813.81
562.168	788.81
562.381	757.81
562.593	756.81
562.805	766.81
563.017	774.81
563.229	758.81
563.441	807.81
563.653	776.81
563.865	794.81
564.077	754.81
564.289	760.81
564.501	752.81
564.713	805.81
564.925	818.81
565.137	869.81
565.349	805.81
565.561	812.81
565.773	795.81
565.985	829.81
566.197	839.81
566.408	885.81
566.62	906.81
566.832	880.81
567.044	916.81
567.255	886.81
567.467	899.81
567.679	900.81
567.891	920.81
568.102	883.81
568.314	833.81
568.526	797.81
568.737	761.81
568.949	755.81
569.161	716.81
569.372	672.81
569.584	678.81
569.795	649.81
570.007	664.81
570.218	651.81
570.43	657.81
570.641	665.81
570.853	650.81
571.064	662.81
571.276	656.81
571.487	658.81
571.698	638.81
571.91	624.81
572.121	612.81
572.333	609.81
572.544	599.81
572.755	583.81
572.966	597.81
573.178	550.81
573.389	579.81
573.6	614.81
573.811	637.81
574.023	571.81
574.234	554.81
574.445	549.81
574.656	573.81
574.867	572.81
575.078	555.81
575.289	553.81
575.501	549.81
575.712	546.81
575.923	531.81
576.134	562.81
576.345	569.81
576.556	544.81
576.767	564.81
576.978	544.81
577.188	528.81
577.399	524.81
577.61	513.81
577.821	517.81
578.032	500.81
578.243	487.81
578.454	524.81
578.665	509.81
578.875	487.81
579.086	498.81
579.297	482.81
579.508	505.81
579.718	502.81
579.929	523.81
580.14	469.81
580.35	474.81
580.561	520.81
580.772	561.81
580.982	507.81
581.193	497.81
581.403	469.81
581.614	474.81
581.825	490.81
582.035	461.81
582.246	466.81
582.456	483.81
582.667	467.81
582.877	492.81
583.087	473.81
583.298	453.81
583.508	477.81
583.719	477.81
583.929	473.81
584.139	466.81
584.35	434.81
584.56	446.81
584.77	474.81
584.981	476.81
585.191	475.81
585.401	487.81
585.611	453.81
585.821	451.81
586.032	456.81
586.242	427.81
586.452	432.81
586.662	438.81
586.872	436.81
587.082	433.81
587.292	459.81
587.502	452.81
587.713	449.81
587.923	430.81
588.133	445.81
588.343	441.81
588.553	456.81
588.762	454.81
588.972	432.81
589.182	432.81
589.392	440.81
589.602	458.81
589.812	441.81
590.022	407.81
590.232	430.81
590.441	433.81
590.651	452.81
590.861	438.81
591.071	449.81
591.281	425.81
591.49	419.81
591.7	417.81
591.91	450.81
592.119	439.81
592.329	439.81
592.539	461.81
592.748	439.81
592.958	450.81
593.167	464.81
593.377	456.81
593.587	461.81
593.796	447.81
594.006	456.81
594.215	454.81
594.424	465.81
594.634	474.81
594.843	445.81
595.053	472.81
595.262	450.81
595.472	461.81
595.681	450.81
595.89	434.81
596.1	450.81
596.309	430.81
596.518	443.81
596.727	445.81
596.937	445.81
597.146	414.81
597.355	392.81
597.564	426.81
597.774	390.81
597.983	395.81
598.192	386.81
598.401	400.81
598.61	407.81
598.819	393.81
599.028	399.81
599.237	381.81
599.446	388.81
599.655	390.81
599.864	377.81
600.073	376.81
600.282	385.81
600.491	370.81
600.7	397.81
600.909	377.81
601.118	393.81
601.327	404.81
601.536	404.81
601.745	400.81
601.953	396.81
602.162	410.81
602.371	413.81
602.58	422.81
602.789	427.81
602.997	413.81
603.206	410.81
603.415	405.81
603.623	407.81
603.832	405.81
604.041	393.81
604.249	364.81
604.458	384.81
604.666	379.81
604.875	377.81
605.084	392.81
605.292	406.81
605.501	404.81
605.709	396.81
605.918	404.81
606.126	413.81
606.334	388.81
606.543	405.81
606.751	392.81
606.96	397.81
607.168	388.81
607.376	413.81
607.585	398.81
607.793	379.81
608.001	378.81
608.21	384.81
608.418	422.81
608.626	403.81
608.834	407.81
609.043	396.81
609.251	393.81
609.459	384.81
609.667	395.81
609.875	405.81
610.083	416.81
610.291	398.81
610.499	408.81
610.707	397.81
610.916	378.81
611.124	406.81
611.332	408.81
611.54	399.81
611.748	398.81
611.955	395.81
612.163	396.81
612.371	386.81
612.579	396.81
612.787	404.81
612.995	390.81
613.203	398.81
613.411	375.81
613.618	391.81
613.826	398.81
614.034	416.81
614.242	380.81
614.449	370.81
614.657	381.81
614.865	404.81
615.072	410.81
615.28	370.81
615.488	377.81
615.695	393.81
615.903	392.81
616.111	388.81
616.318	395.81
616.526	387.81
616.733	371.81
616.941	368.81
617.148	391.81
617.356	383.81
617.563	383.81
617.771	374.81
617.978	362.81
618.185	379.81
618.393	373.81
618.6	382.81
618.807	371.81
619.015	369.81
619.222	376.81
619.429	381.81
619.637	348.81
619.844	334.81
620.051	342.81
620.258	355.81
620.466	346.81
620.673	348.81
620.88	340.81
621.087	331.81
621.294	334.81
621.501	332.81
621.708	331.81
621.915	341.81
622.122	357.81
622.329	364.81
622.536	354.81
622.743	377.81
622.95	322.81
623.157	322.81
623.364	339.81
623.571	351.81
623.778	343.81
623.985	341.81
624.192	336.81
624.399	358.81
624.606	347.81
624.812	335.81
625.019	344.81
625.226	332.81
625.433	323.81
625.639	325.81
625.846	294.81
626.053	296.81
626.259	305.81
626.466	297.81
626.673	287.81
626.879	294.81
627.086	318.81
627.293	307.81
627.499	308.81
627.706	312.81
627.912	322.81
628.119	333.81
628.325	310.81
628.532	321.81
628.738	313.81
628.945	313.81
629.151	306.81
629.357	291.81
629.564	310.81
629.77	310.81
629.976	292.81
630.183	298.81
630.389	298.81
630.595	310.81
630.802	299.81
631.008	296.81
631.214	318.81
631.42	293.81
631.627	296.81
631.833	270.81
632.039	281.81
632.245	275.81
632.451	285.81
632.657	299.81
632.863	300.81
633.069	299.81
633.275	309.81
633.481	287.81
633.688	269.81
633.893	276.81
634.099	270.81
634.305	280.81
634.511	266.81
634.717	283.81
634.923	264.81
635.129	275.81
635.335	258.81
635.541	278.81
635.747	291.81
635.952	273.81
636.158	270.81
636.364	273.81
636.57	278.81
636.775	285.81
636.981	278.81
637.187	266.81
637.392	293.81
637.598	276.81
637.804	291.81
638.009	268.81
638.215	260.81
638.421	265.81
638.626	261.81
638.832	263.81
639.037	293.81
639.243	243.81
639.448	261.81
639.654	250.81
639.859	256.81
640.065	265.81
640.27	269.81
640.475	273.81
640.681	256.81
640.886	252.81
641.091	259.81
641.297	266.81
641.502	283.81
641.707	248.81
641.913	259.81
642.118	266.81
642.323	255.81
642.528	259.81
642.733	237.81
642.939	267.81
643.144	233.81
643.349	261.81
643.554	263.81
643.759	260.81
643.964	258.81
644.169	261.81
644.374	262.81
644.579	274.81
644.784	262.81
644.989	266.81
645.194	260.81
645.399	261.81
645.604	244.81
645.809	257.81
646.014	267.81
646.219	265.81
646.423	269.81
646.628	275.81
646.833	256.81
647.038	256.81
647.243	261.81
647.447	260.81
647.652	290.81
647.857	244.81
648.062	248.81
648.266	262.81
648.471	267.81
648.676	260.81
648.88	259.81
649.085	242.81
649.289	282.81
649.494	247.81
649.698	250.81
649.903	226.81
650.107	249.81
650.312	269.81
650.516	241.81
650.721	245.81
650.925	259.81
651.13	234.81
651.334	224.81
651.539	240.81
651.743	246.81
651.947	256.81
652.152	233.81
652.356	235.81
652.56	225.81
652.764	221.81
652.969	225.81
653.173	212.81
653.377	225.81
653.581	227.81
653.785	218.81
653.99	212.81
654.194	218.81
654.398	220.81
654.602	196.81
654.806	216.81
655.01	221.81
655.214	235.81
655.418	248.81
655.622	229.81
655.826	227.81
656.03	226.81
656.234	249.81
656.438	260.81
656.642	259.81
656.846	259.81
657.049	222.81
657.253	221.81
657.457	195.81
657.661	188.81
657.865	189.81
658.068	174.81
658.272	162.81
658.476	172.81
658.68	158.81
658.883	154.81
659.087	162.81
659.291	134.81
659.494	139.81
659.698	139.81
659.901	135.81
660.105	138.81
660.309	131.81
660.512	116.81
660.716	128.81
660.919	132.81
661.123	118.81
661.326	98.81
661.53	118.81
661.733	110.81
661.936	93.81
662.14	115.81
662.343	106.81
662.546	88.81
662.75	96.81
662.953	93.81
663.156	104.81
663.36	95.81
663.563	88.81
663.766	87.81
663.969	102.81
664.173	85.81
664.376	85.81
664.579	92.81
664.782	93.81
664.985	78.81
665.188	73.81
665.391	85.81
665.594	74.81
665.797	84.81
666	70.81
666.203	94.81
666.406	86.81
666.609	83.81
666.812	81.81
667.015	75.81
667.218	90.81
667.421	79.81
667.624	90.81
667.827	91.81
668.03	96.81
668.232	84.81
668.435	99.81
668.638	74.81
668.841	90.81
669.043	77.81
669.246	69.81
669.449	83.81
669.651	87.81
669.854	76.81
670.057	93.81
670.259	90.81
670.462	69.81
670.665	91.81
670.867	83.81
671.07	83.81
671.272	92.81
671.475	82.81
671.677	84.81
671.88	100.81
672.082	89.81
672.284	79.81
672.487	89.81
672.689	92.81
672.892	87.81
