Data from WStandard_LampEnergy10_LIBS07252019.E.O._I.C._HRD10591_15-54-05-928.txt Node
Date: Thu Jul 25 15:54:05 EDT 2019
User: cochatt
Spectrometer: HR+D1059
Trigger mode: 1
Integration Time (sec): 1.000000E-1
Scans to average: 1
Electric dark correction enabled: true
Nonlinearity correction enabled: false
Boxcar width: 0
XAxis mode: Wavelengths
Number of Pixels in Spectrum: 2048
>>>>>Begin Spectral Data<<<<<
223.165	-25.94
223.4	-25.94
223.635	-25.94
223.869	-16.94
224.104	-18.94
224.338	-8.94
224.573	-29.94
224.808	-22.94
225.042	-0.94
225.277	0.06
225.511	-8.94
225.746	12.06
225.98	-4.94
226.215	15.06
226.449	29.06
226.683	15.06
226.918	19.06
227.152	48.06
227.387	43.06
227.621	52.06
227.856	37.06
228.09	58.06
228.324	49.06
228.559	51.06
228.793	82.06
229.027	131.06
229.262	135.06
229.496	136.06
229.73	134.06
229.964	162.06
230.199	168.06
230.433	177.06
230.667	172.06
230.901	190.06
231.136	166.06
231.37	177.06
231.604	163.06
231.838	177.06
232.072	164.06
232.306	157.06
232.541	167.06
232.775	195.06
233.009	203.06
233.243	181.06
233.477	186.06
233.711	191.06
233.945	197.06
234.179	201.06
234.413	226.06
234.647	219.06
234.881	208.06
235.115	177.06
235.349	197.06
235.583	191.06
235.817	199.06
236.051	176.06
236.285	190.06
236.519	223.06
236.753	212.06
236.987	226.06
237.221	215.06
237.455	222.06
237.689	228.06
237.922	226.06
238.156	239.06
238.39	208.06
238.624	214.06
238.858	247.06
239.091	250.06
239.325	257.06
239.559	285.06
239.793	296.06
240.027	308.06
240.26	283.06
240.494	236.06
240.728	230.06
240.961	228.06
241.195	231.06
241.429	254.06
241.662	257.06
241.896	237.06
242.13	233.06
242.363	254.06
242.597	258.06
242.83	267.06
243.064	266.06
243.298	277.06
243.531	270.06
243.765	282.06
243.998	279.06
244.232	240.06
244.465	238.06
244.699	262.06
244.932	287.06
245.166	282.06
245.399	302.06
245.633	265.06
245.866	289.06
246.099	276.06
246.333	298.06
246.566	295.06
246.8	332.06
247.033	339.06
247.266	303.06
247.5	303.06
247.733	300.06
247.966	334.06
248.2	346.06
248.433	349.06
248.666	363.06
248.899	379.06
249.133	429.06
249.366	433.06
249.599	393.06
249.832	353.06
250.066	373.06
250.299	351.06
250.532	337.06
250.765	322.06
250.998	316.06
251.231	344.06
251.465	341.06
251.698	333.06
251.931	349.06
252.164	330.06
252.397	353.06
252.63	374.06
252.863	332.06
253.096	327.06
253.329	326.06
253.562	355.06
253.795	358.06
254.028	366.06
254.261	352.06
254.494	336.06
254.727	326.06
254.96	359.06
255.193	368.06
255.426	396.06
255.659	447.06
255.892	456.06
256.124	389.06
256.357	382.06
256.59	401.06
256.823	372.06
257.056	412.06
257.289	485.06
257.521	512.06
257.754	465.06
257.987	448.06
258.22	456.06
258.452	454.06
258.685	386.06
258.918	378.06
259.151	385.06
259.383	361.06
259.616	357.06
259.849	352.06
260.081	401.06
260.314	454.06
260.547	471.06
260.779	462.06
261.012	438.06
261.244	405.06
261.477	387.06
261.71	401.06
261.942	396.06
262.175	405.06
262.407	377.06
262.64	387.06
262.872	350.06
263.105	361.06
263.337	389.06
263.57	378.06
263.802	365.06
264.035	359.06
264.267	327.06
264.499	324.06
264.732	367.06
264.964	369.06
265.197	411.06
265.429	399.06
265.661	460.06
265.894	470.06
266.126	476.06
266.358	460.06
266.591	472.06
266.823	484.06
267.055	447.06
267.287	429.06
267.52	444.06
267.752	448.06
267.984	435.06
268.216	449.06
268.448	467.06
268.681	464.06
268.913	423.06
269.145	422.06
269.377	413.06
269.609	449.06
269.841	524.06
270.073	578.06
270.306	613.06
270.538	618.06
270.77	551.06
271.002	471.06
271.234	494.06
271.466	469.06
271.698	545.06
271.93	603.06
272.162	614.06
272.394	545.06
272.626	501.06
272.858	458.06
273.09	417.06
273.322	430.06
273.553	398.06
273.785	399.06
274.017	415.06
274.249	446.06
274.481	415.06
274.713	401.06
274.945	411.06
275.176	411.06
275.408	397.06
275.64	389.06
275.872	407.06
276.104	425.06
276.335	483.06
276.567	529.06
276.799	523.06
277.031	475.06
277.262	481.06
277.494	494.06
277.726	502.06
277.957	496.06
278.189	466.06
278.421	440.06
278.652	407.06
278.884	412.06
279.115	449.06
279.347	438.06
279.579	419.06
279.81	447.06
280.042	473.06
280.273	507.06
280.505	502.06
280.736	514.06
280.968	483.06
281.199	436.06
281.431	410.06
281.662	434.06
281.894	448.06
282.125	447.06
282.356	450.06
282.588	459.06
282.819	456.06
283.051	485.06
283.282	513.06
283.513	490.06
283.745	429.06
283.976	427.06
284.207	426.06
284.439	425.06
284.67	433.06
284.901	440.06
285.132	464.06
285.364	446.06
285.595	453.06
285.826	435.06
286.057	441.06
286.288	434.06
286.52	477.06
286.751	478.06
286.982	511.06
287.213	467.06
287.444	417.06
287.675	428.06
287.906	471.06
288.138	483.06
288.369	467.06
288.6	445.06
288.831	439.06
289.062	444.06
289.293	433.06
289.524	439.06
289.755	473.06
289.986	445.06
290.217	417.06
290.448	442.06
290.679	437.06
290.91	449.06
291.141	452.06
291.371	463.06
291.602	478.06
291.833	493.06
292.064	484.06
292.295	471.06
292.526	484.06
292.757	511.06
292.987	482.06
293.218	480.06
293.449	509.06
293.68	580.06
293.91	566.06
294.141	553.06
294.372	530.06
294.603	559.06
294.833	552.06
295.064	535.06
295.295	482.06
295.525	485.06
295.756	428.06
295.987	426.06
296.217	442.06
296.448	462.06
296.679	453.06
296.909	447.06
297.14	465.06
297.37	482.06
297.601	507.06
297.831	525.06
298.062	527.06
298.292	463.06
298.523	464.06
298.753	475.06
298.984	455.06
299.214	455.06
299.445	488.06
299.675	490.06
299.905	502.06
300.136	473.06
300.366	478.06
300.597	442.06
300.827	453.06
301.057	479.06
301.288	516.06
301.518	506.06
301.748	513.06
301.979	538.06
302.209	541.06
302.439	583.06
302.669	557.06
302.9	534.06
303.13	534.06
303.36	501.06
303.59	522.06
303.82	488.06
304.051	523.06
304.281	513.06
304.511	521.06
304.741	555.06
304.971	585.06
305.201	600.06
305.431	549.06
305.661	459.06
305.891	449.06
306.121	453.06
306.352	478.06
306.582	490.06
306.812	542.06
307.042	569.06
307.272	559.06
307.502	600.06
307.731	625.06
307.961	617.06
308.191	584.06
308.421	527.06
308.651	504.06
308.881	512.06
309.111	500.06
309.341	506.06
309.571	500.06
309.8	480.06
310.03	471.06
310.26	496.06
310.49	497.06
310.72	537.06
310.949	512.06
311.179	541.06
311.409	530.06
311.639	513.06
311.868	505.06
312.098	494.06
312.328	519.06
312.557	508.06
312.787	518.06
313.017	541.06
313.246	520.06
313.476	502.06
313.706	513.06
313.935	515.06
314.165	555.06
314.394	566.06
314.624	592.06
314.853	621.06
315.083	594.06
315.312	608.06
315.542	594.06
315.771	530.06
316.001	551.06
316.23	591.06
316.46	566.06
316.689	537.06
316.919	511.06
317.148	498.06
317.377	526.06
317.607	573.06
317.836	621.06
318.065	640.06
318.295	628.06
318.524	582.06
318.753	570.06
318.983	526.06
319.212	533.06
319.441	530.06
319.67	557.06
319.9	577.06
320.129	576.06
320.358	623.06
320.587	605.06
320.816	605.06
321.046	590.06
321.275	568.06
321.504	592.06
321.733	610.06
321.962	586.06
322.191	574.06
322.42	560.06
322.649	535.06
322.878	546.06
323.108	565.06
323.337	569.06
323.566	569.06
323.795	549.06
324.024	548.06
324.253	545.06
324.482	550.06
324.71	528.06
324.939	503.06
325.168	546.06
325.397	555.06
325.626	568.06
325.855	563.06
326.084	558.06
326.313	564.06
326.542	584.06
326.77	607.06
326.999	577.06
327.228	531.06
327.457	523.06
327.686	539.06
327.914	535.06
328.143	573.06
328.372	572.06
328.6	573.06
328.829	553.06
329.058	529.06
329.287	550.06
329.515	571.06
329.744	573.06
329.972	592.06
330.201	601.06
330.43	603.06
330.658	565.06
330.887	586.06
331.115	593.06
331.344	598.06
331.572	600.06
331.801	593.06
332.03	593.06
332.258	630.06
332.486	612.06
332.715	583.06
332.943	594.06
333.172	591.06
333.4	614.06
333.629	617.06
333.857	657.06
334.085	726.06
334.314	808.06
334.542	835.06
334.771	757.06
334.999	681.06
335.227	619.06
335.455	641.06
335.684	614.06
335.912	645.06
336.14	648.06
336.369	625.06
336.597	599.06
336.825	578.06
337.053	639.06
337.281	680.06
337.51	682.06
337.738	705.06
337.966	646.06
338.194	602.06
338.422	599.06
338.65	585.06
338.878	594.06
339.106	563.06
339.334	571.06
339.562	568.06
339.79	573.06
340.018	625.06
340.246	625.06
340.474	624.06
340.702	593.06
340.93	622.06
341.158	617.06
341.386	608.06
341.614	621.06
341.842	602.06
342.07	616.06
342.298	600.06
342.526	585.06
342.754	589.06
342.981	565.06
343.209	599.06
343.437	588.06
343.665	594.06
343.893	636.06
344.12	631.06
344.348	634.06
344.576	598.06
344.804	590.06
345.031	587.06
345.259	579.06
345.487	564.06
345.714	552.06
345.942	546.06
346.17	566.06
346.397	573.06
346.625	576.06
346.853	537.06
347.08	515.06
347.308	560.06
347.535	564.06
347.763	578.06
347.99	569.06
348.218	546.06
348.445	561.06
348.673	582.06
348.9	609.06
349.128	607.06
349.355	599.06
349.583	578.06
349.81	563.06
350.037	519.06
350.265	520.06
350.492	549.06
350.72	562.06
350.947	549.06
351.174	563.06
351.402	554.06
351.629	546.06
351.856	546.06
352.083	524.06
352.311	545.06
352.538	553.06
352.765	587.06
352.992	567.06
353.22	554.06
353.447	549.06
353.674	561.06
353.901	568.06
354.128	551.06
354.355	547.06
354.583	585.06
354.81	589.06
355.037	581.06
355.264	583.06
355.491	579.06
355.718	567.06
355.945	553.06
356.172	533.06
356.399	551.06
356.626	529.06
356.853	577.06
357.08	636.06
357.307	687.06
357.534	638.06
357.761	602.06
357.988	525.06
358.215	538.06
358.441	522.06
358.668	539.06
358.895	550.06
359.122	614.06
359.349	630.06
359.576	610.06
359.802	569.06
360.029	547.06
360.256	554.06
360.483	543.06
360.709	587.06
360.936	575.06
361.163	637.06
361.39	659.06
361.616	690.06
361.843	688.06
362.07	653.06
362.296	579.06
362.523	547.06
362.749	567.06
362.976	585.06
363.203	586.06
363.429	574.06
363.656	548.06
363.882	597.06
364.109	618.06
364.335	655.06
364.562	623.06
364.788	585.06
365.015	551.06
365.241	565.06
365.468	560.06
365.694	606.06
365.92	616.06
366.147	591.06
366.373	557.06
366.599	564.06
366.826	555.06
367.052	544.06
367.278	603.06
367.505	596.06
367.731	594.06
367.957	598.06
368.184	605.06
368.41	663.06
368.636	654.06
368.862	674.06
369.089	650.06
369.315	649.06
369.541	623.06
369.767	568.06
369.993	578.06
370.219	590.06
370.445	603.06
370.672	659.06
370.898	667.06
371.124	651.06
371.35	625.06
371.576	663.06
371.802	660.06
372.028	628.06
372.254	606.06
372.48	594.06
372.706	592.06
372.932	606.06
373.158	619.06
373.384	631.06
373.61	651.06
373.835	663.06
374.061	651.06
374.287	616.06
374.513	631.06
374.739	641.06
374.965	639.06
375.191	630.06
375.416	655.06
375.642	639.06
375.868	680.06
376.094	709.06
376.319	687.06
376.545	632.06
376.771	669.06
376.997	689.06
377.222	670.06
377.448	661.06
377.674	664.06
377.899	662.06
378.125	725.06
378.35	683.06
378.576	650.06
378.802	621.06
379.027	630.06
379.253	632.06
379.478	640.06
379.704	629.06
379.929	635.06
380.155	660.06
380.38	633.06
380.606	638.06
380.831	665.06
381.057	703.06
381.282	704.06
381.507	712.06
381.733	731.06
381.958	735.06
382.184	675.06
382.409	667.06
382.634	666.06
382.86	674.06
383.085	678.06
383.31	695.06
383.535	785.06
383.761	815.06
383.986	740.06
384.211	711.06
384.436	729.06
384.662	738.06
384.887	769.06
385.112	737.06
385.337	716.06
385.562	747.06
385.787	736.06
386.013	741.06
386.238	772.06
386.463	777.06
386.688	830.06
386.913	851.06
387.138	804.06
387.363	777.06
387.588	762.06
387.813	773.06
388.038	793.06
388.263	792.06
388.488	769.06
388.713	679.06
388.938	690.06
389.163	694.06
389.387	727.06
389.612	754.06
389.837	737.06
390.062	776.06
390.287	746.06
390.512	716.06
390.736	721.06
390.961	750.06
391.186	713.06
391.411	735.06
391.636	726.06
391.86	734.06
392.085	760.06
392.31	763.06
392.534	738.06
392.759	764.06
392.984	755.06
393.208	771.06
393.433	793.06
393.658	815.06
393.882	822.06
394.107	775.06
394.331	755.06
394.556	763.06
394.78	774.06
395.005	806.06
395.229	814.06
395.454	866.06
395.678	846.06
395.903	810.06
396.127	819.06
396.352	817.06
396.576	850.06
396.801	837.06
397.025	849.06
397.249	844.06
397.474	818.06
397.698	852.06
397.922	850.06
398.147	892.06
398.371	921.06
398.595	911.06
398.82	881.06
399.044	890.06
399.268	922.06
399.492	965.06
399.717	985.06
399.941	951.06
400.165	958.06
400.389	967.06
400.613	978.06
400.837	1135.06
401.062	1150.06
401.286	998.06
401.51	975.06
401.734	979.06
401.958	940.06
402.182	879.06
402.406	880.06
402.63	889.06
402.854	849.06
403.078	866.06
403.302	891.06
403.526	902.06
403.75	919.06
403.974	924.06
404.198	916.06
404.422	957.06
404.645	996.06
404.869	964.06
405.093	906.06
405.317	890.06
405.541	914.06
405.765	925.06
405.988	912.06
406.212	966.06
406.436	964.06
406.66	982.06
406.883	1030.06
407.107	1159.06
407.331	1208.06
407.555	1288.06
407.778	1115.06
408.002	985.06
408.226	962.06
408.449	976.06
408.673	911.06
408.896	938.06
409.12	955.06
409.344	905.06
409.567	930.06
409.791	946.06
410.014	957.06
410.238	1037.06
410.461	1043.06
410.685	937.06
410.908	948.06
411.132	935.06
411.355	923.06
411.578	930.06
411.802	943.06
412.025	925.06
412.249	938.06
412.472	906.06
412.695	916.06
412.919	931.06
413.142	917.06
413.365	918.06
413.589	944.06
413.812	1003.06
414.035	967.06
414.258	925.06
414.482	937.06
414.705	936.06
414.928	878.06
415.151	901.06
415.374	917.06
415.597	930.06
415.821	932.06
416.044	952.06
416.267	928.06
416.49	925.06
416.713	923.06
416.936	943.06
417.159	967.06
417.382	968.06
417.605	928.06
417.828	929.06
418.051	928.06
418.274	929.06
418.497	915.06
418.72	932.06
418.943	908.06
419.166	931.06
419.389	978.06
419.611	954.06
419.834	927.06
420.057	900.06
420.28	933.06
420.503	926.06
420.726	929.06
420.948	950.06
421.171	893.06
421.394	929.06
421.617	995.06
421.839	1000.06
422.062	997.06
422.285	926.06
422.507	903.06
422.73	920.06
422.953	879.06
423.175	895.06
423.398	904.06
423.621	910.06
423.843	943.06
424.066	1007.06
424.288	1011.06
424.511	1042.06
424.733	997.06
424.956	925.06
425.178	956.06
425.401	947.06
425.623	942.06
425.846	917.06
426.068	985.06
426.291	949.06
426.513	965.06
426.735	944.06
426.958	1018.06
427.18	1063.06
427.402	1033.06
427.625	1015.06
427.847	992.06
428.069	906.06
428.292	920.06
428.514	855.06
428.736	860.06
428.958	912.06
429.181	955.06
429.403	1049.06
429.625	1197.06
429.847	1041.06
430.069	981.06
430.292	1040.06
430.514	984.06
430.736	976.06
430.958	989.06
431.18	912.06
431.402	868.06
431.624	831.06
431.846	771.06
432.068	733.06
432.29	732.06
432.512	806.06
432.734	879.06
432.956	929.06
433.178	951.06
433.4	961.06
433.622	931.06
433.844	889.06
434.066	818.06
434.287	807.06
434.509	776.06
434.731	815.06
434.953	923.06
435.175	947.06
435.397	918.06
435.618	886.06
435.84	851.06
436.062	821.06
436.284	889.06
436.505	909.06
436.727	903.06
436.949	903.06
437.17	888.06
437.392	886.06
437.614	863.06
437.835	802.06
438.057	826.06
438.278	815.06
438.5	847.06
438.721	932.06
438.943	934.06
439.165	929.06
439.386	895.06
439.608	965.06
439.829	949.06
440.05	944.06
440.272	930.06
440.493	956.06
440.715	985.06
440.936	1011.06
441.158	1059.06
441.379	1028.06
441.6	1031.06
441.822	1003.06
442.043	962.06
442.264	988.06
442.486	959.06
442.707	948.06
442.928	934.06
443.149	1019.06
443.371	1015.06
443.592	1046.06
443.813	1017.06
444.034	1026.06
444.255	976.06
444.476	1055.06
444.698	1050.06
444.919	1029.06
445.14	1101.06
445.361	1078.06
445.582	1079.06
445.803	1039.06
446.024	1027.06
446.245	1061.06
446.466	1053.06
446.687	1041.06
446.908	1050.06
447.129	1007.06
447.35	991.06
447.571	977.06
447.792	969.06
448.013	931.06
448.234	915.06
448.455	983.06
448.675	1018.06
448.896	927.06
449.117	927.06
449.338	927.06
449.559	953.06
449.779	945.06
450	1022.06
450.221	1034.06
450.442	1002.06
450.662	925.06
450.883	862.06
451.104	879.06
451.324	873.06
451.545	886.06
451.766	858.06
451.986	821.06
452.207	805.06
452.428	807.06
452.648	786.06
452.869	798.06
453.089	824.06
453.31	756.06
453.53	787.06
453.751	743.06
453.971	713.06
454.192	723.06
454.412	748.06
454.633	796.06
454.853	770.06
455.073	741.06
455.294	753.06
455.514	779.06
455.734	754.06
455.955	743.06
456.175	724.06
456.395	744.06
456.616	752.06
456.836	726.06
457.056	749.06
457.276	729.06
457.497	715.06
457.717	677.06
457.937	706.06
458.157	711.06
458.377	704.06
458.598	693.06
458.818	672.06
459.038	703.06
459.258	704.06
459.478	704.06
459.698	691.06
459.918	734.06
460.138	789.06
460.358	808.06
460.578	821.06
460.798	862.06
461.018	862.06
461.238	845.06
461.458	867.06
461.678	825.06
461.898	799.06
462.118	803.06
462.338	845.06
462.558	865.06
462.777	833.06
462.997	886.06
463.217	884.06
463.437	872.06
463.657	837.06
463.876	816.06
464.096	837.06
464.316	845.06
464.536	872.06
464.755	889.06
464.975	862.06
465.195	856.06
465.414	890.06
465.634	868.06
465.854	865.06
466.073	934.06
466.293	942.06
466.512	861.06
466.732	879.06
466.951	887.06
467.171	898.06
467.391	880.06
467.61	865.06
467.829	884.06
468.049	999.06
468.268	1008.06
468.488	946.06
468.707	912.06
468.927	922.06
469.146	903.06
469.365	907.06
469.585	913.06
469.804	895.06
470.023	923.06
470.243	954.06
470.462	950.06
470.681	917.06
470.901	925.06
471.12	921.06
471.339	927.06
471.558	908.06
471.777	889.06
471.997	882.06
472.216	836.06
472.435	762.06
472.654	773.06
472.873	796.06
473.092	816.06
473.311	832.06
473.53	817.06
473.749	824.06
473.968	870.06
474.187	851.06
474.406	818.06
474.625	827.06
474.844	863.06
475.063	855.06
475.282	862.06
475.501	826.06
475.72	822.06
475.939	902.06
476.158	890.06
476.377	854.06
476.596	845.06
476.814	805.06
477.033	791.06
477.252	849.06
477.471	892.06
477.69	912.06
477.908	939.06
478.127	994.06
478.346	1036.06
478.564	999.06
478.783	985.06
479.002	999.06
479.22	998.06
479.439	999.06
479.658	1042.06
479.876	992.06
480.095	908.06
480.313	899.06
480.532	893.06
480.751	862.06
480.969	830.06
481.188	764.06
481.406	789.06
481.624	752.06
481.843	781.06
482.061	826.06
482.28	867.06
482.498	878.06
482.717	839.06
482.935	889.06
483.153	965.06
483.372	1053.06
483.59	991.06
483.808	946.06
484.027	949.06
484.245	978.06
484.463	1207.06
484.681	1307.06
484.9	996.06
485.118	931.06
485.336	912.06
485.554	902.06
485.772	860.06
485.99	877.06
486.209	889.06
486.427	921.06
486.645	937.06
486.863	995.06
487.081	1032.06
487.299	1022.06
487.517	990.06
487.735	1075.06
487.953	1157.06
488.171	1129.06
488.389	1091.06
488.607	1073.06
488.825	1106.06
489.043	1044.06
489.261	960.06
489.479	1026.06
489.696	1046.06
489.914	1028.06
490.132	1026.06
490.35	1060.06
490.568	1163.06
490.786	1201.06
491.003	1204.06
491.221	1241.06
491.439	1308.06
491.657	1275.06
491.874	1315.06
492.092	1427.06
492.31	1501.06
492.527	1455.06
492.745	1368.06
492.963	1315.06
493.18	1302.06
493.398	1344.06
493.615	1303.06
493.833	1281.06
494.05	1222.06
494.268	1224.06
494.485	1211.06
494.703	1235.06
494.92	1209.06
495.138	1197.06
495.355	1235.06
495.573	1238.06
495.79	1282.06
496.008	1234.06
496.225	1242.06
496.442	1266.06
496.66	1255.06
496.877	1224.06
497.094	1233.06
497.312	1203.06
497.529	1185.06
497.746	1208.06
497.963	1273.06
498.181	1317.06
498.398	1234.06
498.615	1197.06
498.832	1158.06
499.049	1130.06
499.267	1190.06
499.484	1253.06
499.701	1328.06
499.918	1364.06
500.135	1480.06
500.352	1563.06
500.569	1567.06
500.786	1694.06
501.003	1534.06
501.22	1411.06
501.437	1406.06
501.654	1433.06
501.871	1341.06
502.088	1178.06
502.305	1187.06
502.522	1110.06
502.739	1066.06
502.956	1088.06
503.172	1041.06
503.389	1035.06
503.606	998.06
503.823	1005.06
504.04	1005.06
504.256	976.06
504.473	983.06
504.69	1017.06
504.907	980.06
505.123	954.06
505.34	1060.06
505.557	1329.06
505.773	1120.06
505.99	972.06
506.207	911.06
506.423	892.06
506.64	925.06
506.856	915.06
507.073	1048.06
507.289	1094.06
507.506	1037.06
507.722	877.06
507.939	862.06
508.155	845.06
508.372	869.06
508.588	834.06
508.805	790.06
509.021	772.06
509.238	761.06
509.454	742.06
509.67	743.06
509.887	721.06
510.103	730.06
510.319	703.06
510.536	756.06
510.752	769.06
510.968	747.06
511.184	791.06
511.401	760.06
511.617	688.06
511.833	704.06
512.049	695.06
512.265	708.06
512.481	731.06
512.698	765.06
512.914	785.06
513.13	741.06
513.346	733.06
513.562	696.06
513.778	701.06
513.994	726.06
514.21	740.06
514.426	769.06
514.642	822.06
514.858	767.06
515.074	722.06
515.29	709.06
515.506	734.06
515.721	753.06
515.937	733.06
516.153	808.06
516.369	744.06
516.585	745.06
516.801	728.06
517.016	714.06
517.232	784.06
517.448	773.06
517.664	797.06
517.879	776.06
518.095	813.06
518.311	775.06
518.527	776.06
518.742	761.06
518.958	749.06
519.173	780.06
519.389	753.06
519.605	772.06
519.82	779.06
520.036	792.06
520.251	768.06
520.467	772.06
520.682	800.06
520.898	793.06
521.113	720.06
521.329	708.06
521.544	752.06
521.76	735.06
521.975	711.06
522.19	728.06
522.406	711.06
522.621	931.06
522.836	861.06
523.052	739.06
523.267	749.06
523.482	740.06
523.698	716.06
523.913	717.06
524.128	747.06
524.343	787.06
524.559	828.06
524.774	769.06
524.989	757.06
525.204	778.06
525.419	747.06
525.634	760.06
525.849	733.06
526.064	711.06
526.28	712.06
526.495	660.06
526.71	633.06
526.925	603.06
527.14	619.06
527.355	618.06
527.57	606.06
527.785	648.06
527.999	645.06
528.214	681.06
528.429	704.06
528.644	738.06
528.859	772.06
529.074	813.06
529.289	870.06
529.503	852.06
529.718	771.06
529.933	742.06
530.148	679.06
530.363	654.06
530.577	631.06
530.792	621.06
531.007	617.06
531.221	609.06
531.436	647.06
531.651	637.06
531.865	686.06
532.08	653.06
532.295	637.06
532.509	611.06
532.724	627.06
532.938	656.06
533.153	694.06
533.367	714.06
533.582	748.06
533.796	748.06
534.011	708.06
534.225	634.06
534.44	632.06
534.654	623.06
534.868	627.06
535.083	687.06
535.297	677.06
535.511	694.06
535.726	671.06
535.94	669.06
536.154	635.06
536.369	624.06
536.583	601.06
536.797	596.06
537.011	630.06
537.225	610.06
537.44	601.06
537.654	644.06
537.868	623.06
538.082	609.06
538.296	597.06
538.51	618.06
538.724	669.06
538.938	705.06
539.153	747.06
539.367	724.06
539.581	689.06
539.795	683.06
540.009	617.06
540.222	639.06
540.436	680.06
540.65	743.06
540.864	799.06
541.078	829.06
541.292	841.06
541.506	895.06
541.72	957.06
541.934	1042.06
542.147	1052.06
542.361	1007.06
542.575	890.06
542.789	859.06
543.002	771.06
543.216	728.06
543.43	761.06
543.644	795.06
543.857	881.06
544.071	923.06
544.285	908.06
544.498	947.06
544.712	952.06
544.925	945.06
545.139	962.06
545.352	953.06
545.566	904.06
545.779	937.06
545.993	937.06
546.206	962.06
546.42	969.06
546.633	945.06
546.847	959.06
547.06	917.06
547.274	981.06
547.487	970.06
547.7	1001.06
547.914	965.06
548.127	969.06
548.34	946.06
548.554	929.06
548.767	941.06
548.98	933.06
549.193	919.06
549.407	945.06
549.62	925.06
549.833	909.06
550.046	915.06
550.259	919.06
550.473	895.06
550.686	886.06
550.899	889.06
551.112	823.06
551.325	821.06
551.538	809.06
551.751	896.06
551.964	704.06
552.177	742.06
552.39	774.06
552.603	851.06
552.816	862.06
553.029	913.06
553.242	949.06
553.455	928.06
553.667	889.06
553.88	873.06
554.093	861.06
554.306	855.06
554.519	844.06
554.732	847.06
554.944	824.06
555.157	848.06
555.37	805.06
555.583	804.06
555.795	769.06
556.008	723.06
556.221	737.06
556.433	733.06
556.646	728.06
556.859	724.06
557.071	752.06
557.284	743.06
557.496	742.06
557.709	727.06
557.921	742.06
558.134	752.06
558.346	723.06
558.559	732.06
558.771	701.06
558.984	701.06
559.196	692.06
559.409	674.06
559.621	662.06
559.833	649.06
560.046	685.06
560.258	677.06
560.47	663.06
560.683	680.06
560.895	663.06
561.107	692.06
561.32	679.06
561.532	665.06
561.744	694.06
561.956	660.06
562.168	656.06
562.381	657.06
562.593	664.06
562.805	651.06
563.017	623.06
563.229	639.06
563.441	663.06
563.653	648.06
563.865	629.06
564.077	619.06
564.289	605.06
564.501	599.06
564.713	597.06
564.925	629.06
565.137	640.06
565.349	629.06
565.561	613.06
565.773	602.06
565.985	635.06
566.197	631.06
566.408	679.06
566.62	694.06
566.832	660.06
567.044	639.06
567.255	634.06
567.467	649.06
567.679	641.06
567.891	666.06
568.102	600.06
568.314	582.06
568.526	548.06
568.737	505.06
568.949	481.06
569.161	454.06
569.372	457.06
569.584	451.06
569.795	446.06
570.007	453.06
570.218	417.06
570.43	442.06
570.641	465.06
570.853	463.06
571.064	481.06
571.276	475.06
571.487	484.06
571.698	464.06
571.91	456.06
572.121	470.06
572.333	441.06
572.544	420.06
572.755	422.06
572.966	378.06
573.178	374.06
573.389	411.06
573.6	399.06
573.811	423.06
574.023	403.06
574.234	386.06
574.445	387.06
574.656	390.06
574.867	386.06
575.078	385.06
575.289	391.06
575.501	398.06
575.712	387.06
575.923	384.06
576.134	413.06
576.345	395.06
576.556	418.06
576.767	398.06
576.978	423.06
577.188	394.06
577.399	381.06
577.61	362.06
577.821	361.06
578.032	375.06
578.243	358.06
578.454	362.06
578.665	361.06
578.875	365.06
579.086	317.06
579.297	329.06
579.508	347.06
579.718	351.06
579.929	351.06
580.14	335.06
580.35	322.06
580.561	354.06
580.772	387.06
580.982	360.06
581.193	353.06
581.403	335.06
581.614	364.06
581.825	335.06
582.035	325.06
582.246	347.06
582.456	371.06
582.667	358.06
582.877	337.06
583.087	338.06
583.298	320.06
583.508	324.06
583.719	329.06
583.929	320.06
584.139	318.06
584.35	327.06
584.56	320.06
584.77	328.06
584.981	328.06
585.191	330.06
585.401	335.06
585.611	333.06
585.821	331.06
586.032	328.06
586.242	317.06
586.452	308.06
586.662	330.06
586.872	312.06
587.082	323.06
587.292	309.06
587.502	347.06
587.713	327.06
587.923	312.06
588.133	312.06
588.343	311.06
588.553	294.06
588.762	316.06
588.972	304.06
589.182	312.06
589.392	305.06
589.602	309.06
589.812	308.06
590.022	294.06
590.232	306.06
590.441	326.06
590.651	301.06
590.861	317.06
591.071	299.06
591.281	307.06
591.49	293.06
591.7	297.06
591.91	302.06
592.119	311.06
592.329	313.06
592.539	333.06
592.748	326.06
592.958	312.06
593.167	322.06
593.377	334.06
593.587	310.06
593.796	321.06
594.006	318.06
594.215	322.06
594.424	313.06
594.634	325.06
594.843	350.06
595.053	346.06
595.262	326.06
595.472	336.06
595.681	310.06
595.89	323.06
596.1	301.06
596.309	309.06
596.518	325.06
596.727	327.06
596.937	324.06
597.146	327.06
597.355	307.06
597.564	296.06
597.774	302.06
597.983	293.06
598.192	278.06
598.401	287.06
598.61	281.06
598.819	293.06
599.028	297.06
599.237	309.06
599.446	306.06
599.655	286.06
599.864	282.06
600.073	307.06
600.282	293.06
600.491	271.06
600.7	281.06
600.909	301.06
601.118	311.06
601.327	338.06
601.536	339.06
601.745	330.06
601.953	350.06
602.162	340.06
602.371	345.06
602.58	360.06
602.789	360.06
602.997	340.06
603.206	349.06
603.415	349.06
603.623	346.06
603.832	346.06
604.041	334.06
604.249	311.06
604.458	302.06
604.666	297.06
604.875	293.06
605.084	327.06
605.292	342.06
605.501	339.06
605.709	376.06
605.918	365.06
606.126	362.06
606.334	359.06
606.543	365.06
606.751	371.06
606.96	349.06
607.168	359.06
607.376	363.06
607.585	369.06
607.793	359.06
608.001	365.06
608.21	343.06
608.418	373.06
608.626	354.06
608.834	351.06
609.043	364.06
609.251	359.06
609.459	369.06
609.667	377.06
609.875	381.06
610.083	376.06
610.291	369.06
610.499	361.06
610.707	344.06
610.916	371.06
611.124	361.06
611.332	360.06
611.54	351.06
611.748	363.06
611.955	367.06
612.163	349.06
612.371	362.06
612.579	370.06
612.787	361.06
612.995	362.06
613.203	346.06
613.411	359.06
613.618	358.06
613.826	357.06
614.034	360.06
614.242	365.06
614.449	350.06
614.657	362.06
614.865	363.06
615.072	365.06
615.28	345.06
615.488	349.06
615.695	366.06
615.903	372.06
616.111	352.06
616.318	387.06
616.526	355.06
616.733	379.06
616.941	349.06
617.148	362.06
617.356	360.06
617.563	355.06
617.771	325.06
617.978	327.06
618.185	352.06
618.393	338.06
618.6	343.06
618.807	349.06
619.015	327.06
619.222	342.06
619.429	352.06
619.637	311.06
619.844	295.06
620.051	295.06
620.258	309.06
620.466	336.06
620.673	331.06
620.88	318.06
621.087	308.06
621.294	323.06
621.501	285.06
621.708	307.06
621.915	310.06
622.122	329.06
622.329	315.06
622.536	320.06
622.743	321.06
622.95	335.06
623.157	314.06
623.364	319.06
623.571	326.06
623.778	333.06
623.985	321.06
624.192	307.06
624.399	303.06
624.606	303.06
624.812	318.06
625.019	319.06
625.226	299.06
625.433	298.06
625.639	289.06
625.846	264.06
626.053	246.06
626.259	257.06
626.466	246.06
626.673	265.06
626.879	232.06
627.086	252.06
627.293	244.06
627.499	282.06
627.706	301.06
627.912	305.06
628.119	283.06
628.325	311.06
628.532	285.06
628.738	305.06
628.945	278.06
629.151	275.06
629.357	275.06
629.564	269.06
629.77	290.06
629.976	274.06
630.183	267.06
630.389	256.06
630.595	276.06
630.802	294.06
631.008	282.06
631.214	274.06
631.42	267.06
631.627	264.06
631.833	253.06
632.039	241.06
632.245	264.06
632.451	257.06
632.657	282.06
632.863	266.06
633.069	253.06
633.275	250.06
633.481	256.06
633.688	237.06
633.893	254.06
634.099	256.06
634.305	259.06
634.511	251.06
634.717	224.06
634.923	214.06
635.129	228.06
635.335	239.06
635.541	235.06
635.747	229.06
635.952	241.06
636.158	254.06
636.364	261.06
636.57	256.06
636.775	273.06
636.981	257.06
637.187	280.06
637.392	245.06
637.598	268.06
637.804	274.06
638.009	275.06
638.215	246.06
638.421	243.06
638.626	262.06
638.832	255.06
639.037	244.06
639.243	231.06
639.448	234.06
639.654	250.06
639.859	232.06
640.065	242.06
640.27	263.06
640.475	237.06
640.681	234.06
640.886	249.06
641.091	251.06
641.297	241.06
641.502	253.06
641.707	269.06
641.913	241.06
642.118	249.06
642.323	234.06
642.528	259.06
642.733	258.06
642.939	246.06
643.144	247.06
643.349	251.06
643.554	254.06
643.759	244.06
643.964	231.06
644.169	249.06
644.374	221.06
644.579	238.06
644.784	248.06
644.989	266.06
645.194	250.06
645.399	248.06
645.604	229.06
645.809	241.06
646.014	245.06
646.219	244.06
646.423	245.06
646.628	257.06
646.833	233.06
647.038	245.06
647.243	234.06
647.447	245.06
647.652	242.06
647.857	238.06
648.062	247.06
648.266	236.06
648.471	254.06
648.676	249.06
648.88	245.06
649.085	233.06
649.289	240.06
649.494	264.06
649.698	234.06
649.903	199.06
650.107	237.06
650.312	238.06
650.516	218.06
650.721	246.06
650.925	237.06
651.13	218.06
651.334	233.06
651.539	239.06
651.743	209.06
651.947	218.06
652.152	221.06
652.356	214.06
652.56	225.06
652.764	218.06
652.969	194.06
653.173	200.06
653.377	210.06
653.581	204.06
653.785	210.06
653.99	205.06
654.194	205.06
654.398	201.06
654.602	188.06
654.806	178.06
655.01	180.06
655.214	192.06
655.418	193.06
655.622	193.06
655.826	210.06
656.03	224.06
656.234	202.06
656.438	220.06
656.642	217.06
656.846	211.06
657.049	202.06
657.253	197.06
657.457	189.06
657.661	165.06
657.865	174.06
658.068	162.06
658.272	154.06
658.476	161.06
658.68	126.06
658.883	139.06
659.087	146.06
659.291	135.06
659.494	119.06
659.698	143.06
659.901	129.06
660.105	120.06
660.309	117.06
660.512	118.06
660.716	114.06
660.919	127.06
661.123	118.06
661.326	106.06
661.53	98.06
661.733	110.06
661.936	119.06
662.14	101.06
662.343	102.06
662.546	103.06
662.75	108.06
662.953	94.06
663.156	79.06
663.36	100.06
663.563	98.06
663.766	86.06
663.969	88.06
664.173	81.06
664.376	77.06
664.579	98.06
664.782	82.06
664.985	87.06
665.188	82.06
665.391	82.06
665.594	85.06
665.797	82.06
666	84.06
666.203	66.06
666.406	73.06
666.609	75.06
666.812	84.06
667.015	76.06
667.218	64.06
667.421	69.06
667.624	74.06
667.827	90.06
668.03	86.06
668.232	67.06
668.435	87.06
668.638	87.06
668.841	84.06
669.043	79.06
669.246	88.06
669.449	80.06
669.651	72.06
669.854	82.06
670.057	67.06
670.259	81.06
670.462	83.06
670.665	83.06
670.867	82.06
671.07	82.06
671.272	65.06
671.475	74.06
671.677	79.06
671.88	79.06
672.082	74.06
672.284	81.06
672.487	83.06
672.689	91.06
672.892	89.06
