Data from WStandard_LampEnergy8_LIBS07252019.E.O._I.C._HRD10591_15-58-46-929.txt Node
Date: Thu Jul 25 15:58:46 EDT 2019
User: cochatt
Spectrometer: HR+D1059
Trigger mode: 1
Integration Time (sec): 1.000000E-1
Scans to average: 1
Electric dark correction enabled: true
Nonlinearity correction enabled: false
Boxcar width: 0
XAxis mode: Wavelengths
Number of Pixels in Spectrum: 2048
>>>>>Begin Spectral Data<<<<<
223.165	-18.12
223.4	-18.12
223.635	-18.12
223.869	-28.12
224.104	-13.12
224.338	-5.12
224.573	-6.12
224.808	-1.12
225.042	-4.12
225.277	-12.12
225.511	-10.12
225.746	4.88
225.98	1.88
226.215	6.88
226.449	14.88
226.683	12.88
226.918	26.88
227.152	29.88
227.387	37.88
227.621	36.88
227.856	61.88
228.09	41.88
228.324	49.88
228.559	58.88
228.793	105.88
229.027	211.88
229.262	211.88
229.496	223.88
229.73	260.88
229.964	262.88
230.199	257.88
230.433	268.88
230.667	276.88
230.901	291.88
231.136	270.88
231.37	282.88
231.604	262.88
231.838	275.88
232.072	259.88
232.306	244.88
232.541	279.88
232.775	321.88
233.009	341.88
233.243	333.88
233.477	300.88
233.711	329.88
233.945	289.88
234.179	314.88
234.413	317.88
234.647	355.88
234.881	330.88
235.115	291.88
235.349	305.88
235.583	318.88
235.817	322.88
236.051	314.88
236.285	329.88
236.519	328.88
236.753	353.88
236.987	357.88
237.221	384.88
237.455	407.88
237.689	378.88
237.922	369.88
238.156	355.88
238.39	367.88
238.624	386.88
238.858	379.88
239.091	403.88
239.325	449.88
239.559	484.88
239.793	509.88
240.027	523.88
240.26	504.88
240.494	398.88
240.728	369.88
240.961	379.88
241.195	389.88
241.429	418.88
241.662	427.88
241.896	391.88
242.13	403.88
242.363	435.88
242.597	477.88
242.83	474.88
243.064	457.88
243.298	498.88
243.531	470.88
243.765	464.88
243.998	461.88
244.232	434.88
244.465	408.88
244.699	423.88
244.932	471.88
245.166	521.88
245.399	487.88
245.633	461.88
245.866	478.88
246.099	495.88
246.333	500.88
246.566	506.88
246.8	565.88
247.033	590.88
247.266	575.88
247.5	531.88
247.733	535.88
247.966	567.88
248.2	620.88
248.433	612.88
248.666	642.88
248.899	680.88
249.133	767.88
249.366	825.88
249.599	695.88
249.832	624.88
250.066	656.88
250.299	643.88
250.532	588.88
250.765	556.88
250.998	597.88
251.231	601.88
251.465	616.88
251.698	595.88
251.931	600.88
252.164	630.88
252.397	627.88
252.63	630.88
252.863	531.88
253.096	563.88
253.329	561.88
253.562	607.88
253.795	632.88
254.028	635.88
254.261	567.88
254.494	582.88
254.727	563.88
254.96	597.88
255.193	638.88
255.426	730.88
255.659	842.88
255.892	794.88
256.124	700.88
256.357	667.88
256.59	716.88
256.823	726.88
257.056	734.88
257.289	836.88
257.521	893.88
257.754	824.88
257.987	793.88
258.22	866.88
258.452	832.88
258.685	704.88
258.918	708.88
259.151	689.88
259.383	677.88
259.616	612.88
259.849	651.88
260.081	717.88
260.314	774.88
260.547	819.88
260.779	866.88
261.012	773.88
261.244	726.88
261.477	690.88
261.71	712.88
261.942	696.88
262.175	691.88
262.407	709.88
262.64	691.88
262.872	639.88
263.105	616.88
263.337	659.88
263.57	646.88
263.802	642.88
264.035	616.88
264.267	613.88
264.499	605.88
264.732	631.88
264.964	650.88
265.197	692.88
265.429	709.88
265.661	812.88
265.894	874.88
266.126	849.88
266.358	783.88
266.591	812.88
266.823	894.88
267.055	787.88
267.287	802.88
267.52	783.88
267.752	773.88
267.984	781.88
268.216	835.88
268.448	822.88
268.681	829.88
268.913	751.88
269.145	705.88
269.377	697.88
269.609	766.88
269.841	897.88
270.073	991.88
270.306	1131.88
270.538	1190.88
270.77	935.88
271.002	884.88
271.234	837.88
271.466	850.88
271.698	933.88
271.93	1067.88
272.162	1080.88
272.394	961.88
272.626	933.88
272.858	809.88
273.09	748.88
273.322	704.88
273.553	705.88
273.785	711.88
274.017	743.88
274.249	770.88
274.481	778.88
274.713	738.88
274.945	727.88
275.176	714.88
275.408	692.88
275.64	705.88
275.872	703.88
276.104	729.88
276.335	824.88
276.567	937.88
276.799	953.88
277.031	866.88
277.262	826.88
277.494	842.88
277.726	941.88
277.957	875.88
278.189	844.88
278.421	766.88
278.652	731.88
278.884	769.88
279.115	748.88
279.347	771.88
279.579	739.88
279.81	777.88
280.042	867.88
280.273	908.88
280.505	867.88
280.736	891.88
280.968	847.88
281.199	748.88
281.431	734.88
281.662	742.88
281.894	714.88
282.125	803.88
282.356	791.88
282.588	812.88
282.819	789.88
283.051	857.88
283.282	877.88
283.513	859.88
283.745	742.88
283.976	735.88
284.207	726.88
284.439	763.88
284.67	789.88
284.901	785.88
285.132	796.88
285.364	776.88
285.595	785.88
285.826	793.88
286.057	743.88
286.288	774.88
286.52	833.88
286.751	864.88
286.982	882.88
287.213	788.88
287.444	744.88
287.675	767.88
287.906	805.88
288.138	811.88
288.369	808.88
288.6	781.88
288.831	768.88
289.062	760.88
289.293	767.88
289.524	781.88
289.755	823.88
289.986	817.88
290.217	757.88
290.448	778.88
290.679	782.88
290.91	794.88
291.141	845.88
291.371	857.88
291.602	842.88
291.833	819.88
292.064	863.88
292.295	828.88
292.526	860.88
292.757	891.88
292.987	847.88
293.218	819.88
293.449	894.88
293.68	986.88
293.91	1034.88
294.141	975.88
294.372	955.88
294.603	973.88
294.833	1010.88
295.064	979.88
295.295	834.88
295.525	827.88
295.756	762.88
295.987	751.88
296.217	774.88
296.448	797.88
296.679	769.88
296.909	793.88
297.14	806.88
297.37	805.88
297.601	874.88
297.831	925.88
298.062	897.88
298.292	849.88
298.523	815.88
298.753	786.88
298.984	799.88
299.214	831.88
299.445	833.88
299.675	858.88
299.905	825.88
300.136	840.88
300.366	796.88
300.597	795.88
300.827	805.88
301.057	852.88
301.288	847.88
301.518	869.88
301.748	866.88
301.979	927.88
302.209	949.88
302.439	1013.88
302.669	1039.88
302.9	961.88
303.13	843.88
303.36	875.88
303.59	873.88
303.82	874.88
304.051	899.88
304.281	853.88
304.511	915.88
304.741	953.88
304.971	1053.88
305.201	1086.88
305.431	951.88
305.661	841.88
305.891	785.88
306.121	767.88
306.352	837.88
306.582	867.88
306.812	927.88
307.042	971.88
307.272	977.88
307.502	1025.88
307.731	1051.88
307.961	1121.88
308.191	981.88
308.421	906.88
308.651	851.88
308.881	852.88
309.111	857.88
309.341	847.88
309.571	843.88
309.8	851.88
310.03	830.88
310.26	851.88
310.49	827.88
310.72	870.88
310.949	894.88
311.179	917.88
311.409	869.88
311.639	863.88
311.868	837.88
312.098	843.88
312.328	863.88
312.557	858.88
312.787	894.88
313.017	885.88
313.246	882.88
313.476	880.88
313.706	893.88
313.935	918.88
314.165	919.88
314.394	941.88
314.624	1017.88
314.853	1035.88
315.083	1088.88
315.312	1031.88
315.542	991.88
315.771	924.88
316.001	915.88
316.23	974.88
316.46	938.88
316.689	941.88
316.919	895.88
317.148	855.88
317.377	882.88
317.607	1012.88
317.836	1087.88
318.065	1097.88
318.295	1043.88
318.524	1032.88
318.753	965.88
318.983	979.88
319.212	912.88
319.441	964.88
319.67	945.88
319.9	979.88
320.129	1023.88
320.358	1049.88
320.587	1021.88
320.816	1046.88
321.046	1009.88
321.275	988.88
321.504	1025.88
321.733	1091.88
321.962	1025.88
322.191	937.88
322.42	915.88
322.649	926.88
322.878	950.88
323.108	922.88
323.337	996.88
323.566	972.88
323.795	977.88
324.024	977.88
324.253	957.88
324.482	963.88
324.71	929.88
324.939	892.88
325.168	912.88
325.397	971.88
325.626	976.88
325.855	946.88
326.084	928.88
326.313	943.88
326.542	961.88
326.77	996.88
326.999	988.88
327.228	934.88
327.457	913.88
327.686	909.88
327.914	911.88
328.143	923.88
328.372	962.88
328.6	951.88
328.829	937.88
329.058	903.88
329.287	924.88
329.515	920.88
329.744	971.88
329.972	1035.88
330.201	1085.88
330.43	1054.88
330.658	995.88
330.887	977.88
331.115	1012.88
331.344	1010.88
331.572	1020.88
331.801	989.88
332.03	1006.88
332.258	1002.88
332.486	1022.88
332.715	1021.88
332.943	1042.88
333.172	996.88
333.4	1022.88
333.629	1019.88
333.857	1101.88
334.085	1222.88
334.314	1384.88
334.542	1466.88
334.771	1334.88
334.999	1164.88
335.227	1121.88
335.455	1067.88
335.684	1114.88
335.912	1113.88
336.14	1108.88
336.369	1059.88
336.597	1035.88
336.825	1034.88
337.053	1077.88
337.281	1132.88
337.51	1189.88
337.738	1187.88
337.966	1105.88
338.194	1037.88
338.422	1006.88
338.65	973.88
338.878	987.88
339.106	985.88
339.334	923.88
339.562	948.88
339.79	995.88
340.018	1028.88
340.246	1066.88
340.474	1070.88
340.702	1052.88
340.93	1032.88
341.158	1029.88
341.386	1001.88
341.614	1006.88
341.842	1009.88
342.07	1015.88
342.298	1043.88
342.526	1012.88
342.754	1002.88
342.981	994.88
343.209	1001.88
343.437	1009.88
343.665	1014.88
343.893	1059.88
344.12	1066.88
344.348	1047.88
344.576	1015.88
344.804	1021.88
345.031	1004.88
345.259	979.88
345.487	963.88
345.714	929.88
345.942	928.88
346.17	932.88
346.397	966.88
346.625	959.88
346.853	883.88
347.08	891.88
347.308	917.88
347.535	957.88
347.763	1006.88
347.99	929.88
348.218	909.88
348.445	958.88
348.673	955.88
348.9	989.88
349.128	1005.88
349.355	1007.88
349.583	1027.88
349.81	979.88
350.037	886.88
350.265	893.88
350.492	899.88
350.72	896.88
350.947	988.88
351.174	958.88
351.402	907.88
351.629	876.88
351.856	874.88
352.083	849.88
352.311	891.88
352.538	899.88
352.765	965.88
352.992	973.88
353.22	933.88
353.447	919.88
353.674	936.88
353.901	915.88
354.128	929.88
354.355	904.88
354.583	975.88
354.81	992.88
355.037	982.88
355.264	967.88
355.491	984.88
355.718	955.88
355.945	940.88
356.172	883.88
356.399	892.88
356.626	924.88
356.853	957.88
357.08	1059.88
357.307	1131.88
357.534	1090.88
357.761	973.88
357.988	909.88
358.215	875.88
358.441	905.88
358.668	894.88
358.895	929.88
359.122	972.88
359.349	1077.88
359.576	1034.88
359.802	933.88
360.029	921.88
360.256	923.88
360.483	914.88
360.709	963.88
360.936	995.88
361.163	1037.88
361.39	1141.88
361.616	1198.88
361.843	1173.88
362.07	1088.88
362.296	938.88
362.523	905.88
362.749	915.88
362.976	967.88
363.203	956.88
363.429	922.88
363.656	918.88
363.882	943.88
364.109	1047.88
364.335	1093.88
364.562	1036.88
364.788	1003.88
365.015	929.88
365.241	930.88
365.468	959.88
365.694	997.88
365.92	1015.88
366.147	982.88
366.373	925.88
366.599	919.88
366.826	926.88
367.052	935.88
367.278	946.88
367.505	972.88
367.731	945.88
367.957	967.88
368.184	1011.88
368.41	1087.88
368.636	1067.88
368.862	1069.88
369.089	1082.88
369.315	1012.88
369.541	984.88
369.767	967.88
369.993	926.88
370.219	950.88
370.445	998.88
370.672	1038.88
370.898	1090.88
371.124	1053.88
371.35	1033.88
371.576	1059.88
371.802	1069.88
372.028	1017.88
372.254	962.88
372.48	963.88
372.706	945.88
372.932	961.88
373.158	948.88
373.384	986.88
373.61	1031.88
373.835	1010.88
374.061	1006.88
374.287	1002.88
374.513	1010.88
374.739	1022.88
374.965	1003.88
375.191	1020.88
375.416	1011.88
375.642	1035.88
375.868	1109.88
376.094	1124.88
376.319	1065.88
376.545	1042.88
376.771	1037.88
376.997	1104.88
377.222	1053.88
377.448	1062.88
377.674	1050.88
377.899	1105.88
378.125	1143.88
378.35	1104.88
378.576	1013.88
378.802	958.88
379.027	979.88
379.253	994.88
379.478	1010.88
379.704	979.88
379.929	1016.88
380.155	1014.88
380.38	1049.88
380.606	1047.88
380.831	1054.88
381.057	1083.88
381.282	1102.88
381.507	1088.88
381.733	1157.88
381.958	1164.88
382.184	1062.88
382.409	1019.88
382.634	1082.88
382.86	1052.88
383.085	1043.88
383.31	1102.88
383.535	1159.88
383.761	1249.88
383.986	1209.88
384.211	1154.88
384.436	1118.88
384.662	1203.88
384.887	1213.88
385.112	1175.88
385.337	1146.88
385.562	1157.88
385.787	1147.88
386.013	1186.88
386.238	1181.88
386.463	1168.88
386.688	1286.88
386.913	1315.88
387.138	1279.88
387.363	1179.88
387.588	1183.88
387.813	1176.88
388.038	1189.88
388.263	1231.88
388.488	1207.88
388.713	1109.88
388.938	1079.88
389.163	1110.88
389.387	1155.88
389.612	1102.88
389.837	1166.88
390.062	1147.88
390.287	1173.88
390.512	1133.88
390.736	1114.88
390.961	1095.88
391.186	1127.88
391.411	1133.88
391.636	1123.88
391.86	1149.88
392.085	1134.88
392.31	1131.88
392.534	1125.88
392.759	1201.88
392.984	1149.88
393.208	1138.88
393.433	1195.88
393.658	1281.88
393.882	1252.88
394.107	1150.88
394.331	1132.88
394.556	1139.88
394.78	1134.88
395.005	1207.88
395.229	1297.88
395.454	1321.88
395.678	1343.88
395.903	1243.88
396.127	1217.88
396.352	1237.88
396.576	1269.88
396.801	1258.88
397.025	1278.88
397.249	1255.88
397.474	1220.88
397.698	1243.88
397.922	1304.88
398.147	1336.88
398.371	1385.88
398.595	1373.88
398.82	1315.88
399.044	1333.88
399.268	1382.88
399.492	1483.88
399.717	1524.88
399.941	1502.88
400.165	1508.88
400.389	1431.88
400.613	1469.88
400.837	1658.88
401.062	1863.88
401.286	1579.88
401.51	1469.88
401.734	1467.88
401.958	1435.88
402.182	1335.88
402.406	1295.88
402.63	1282.88
402.854	1330.88
403.078	1294.88
403.302	1335.88
403.526	1351.88
403.75	1350.88
403.974	1410.88
404.198	1367.88
404.422	1455.88
404.645	1499.88
404.869	1405.88
405.093	1335.88
405.317	1340.88
405.541	1377.88
405.765	1333.88
405.988	1373.88
406.212	1396.88
406.436	1446.88
406.66	1490.88
406.883	1492.88
407.107	1692.88
407.331	1854.88
407.555	1932.88
407.778	1718.88
408.002	1471.88
408.226	1433.88
408.449	1438.88
408.673	1399.88
408.896	1409.88
409.12	1413.88
409.344	1379.88
409.567	1355.88
409.791	1390.88
410.014	1407.88
410.238	1525.88
410.461	1587.88
410.685	1405.88
410.908	1338.88
411.132	1393.88
411.355	1373.88
411.578	1340.88
411.802	1365.88
412.025	1390.88
412.249	1346.88
412.472	1302.88
412.695	1333.88
412.919	1333.88
413.142	1293.88
413.365	1307.88
413.589	1333.88
413.812	1459.88
414.035	1493.88
414.258	1314.88
414.482	1319.88
414.705	1360.88
414.928	1326.88
415.151	1313.88
415.374	1321.88
415.597	1362.88
415.821	1327.88
416.044	1370.88
416.267	1387.88
416.49	1288.88
416.713	1295.88
416.936	1371.88
417.159	1413.88
417.382	1372.88
417.605	1336.88
417.828	1365.88
418.051	1354.88
418.274	1337.88
418.497	1339.88
418.72	1286.88
418.943	1263.88
419.166	1360.88
419.389	1360.88
419.611	1291.88
419.834	1304.88
420.057	1333.88
420.28	1320.88
420.503	1311.88
420.726	1325.88
420.948	1343.88
421.171	1280.88
421.394	1318.88
421.617	1344.88
421.839	1383.88
422.062	1327.88
422.285	1297.88
422.507	1305.88
422.73	1261.88
422.953	1233.88
423.175	1258.88
423.398	1297.88
423.621	1276.88
423.843	1321.88
424.066	1332.88
424.288	1395.88
424.511	1437.88
424.733	1349.88
424.956	1256.88
425.178	1247.88
425.401	1269.88
425.623	1303.88
425.846	1295.88
426.068	1393.88
426.291	1363.88
426.513	1343.88
426.735	1329.88
426.958	1447.88
427.18	1494.88
427.402	1378.88
427.625	1417.88
427.847	1400.88
428.069	1318.88
428.292	1273.88
428.514	1246.88
428.736	1239.88
428.958	1261.88
429.181	1267.88
429.403	1503.88
429.625	1813.88
429.847	1500.88
430.069	1337.88
430.292	1489.88
430.514	1471.88
430.736	1391.88
430.958	1377.88
431.18	1333.88
431.402	1265.88
431.624	1221.88
431.846	1218.88
432.068	1144.88
432.29	1159.88
432.512	1221.88
432.734	1253.88
432.956	1301.88
433.178	1351.88
433.4	1341.88
433.622	1328.88
433.844	1244.88
434.066	1238.88
434.287	1202.88
434.509	1182.88
434.731	1280.88
434.953	1372.88
435.175	1345.88
435.397	1305.88
435.618	1284.88
435.84	1286.88
436.062	1255.88
436.284	1269.88
436.505	1319.88
436.727	1318.88
436.949	1284.88
437.17	1263.88
437.392	1278.88
437.614	1224.88
437.835	1194.88
438.057	1252.88
438.278	1277.88
438.5	1230.88
438.721	1237.88
438.943	1258.88
439.165	1244.88
439.386	1242.88
439.608	1257.88
439.829	1250.88
440.05	1282.88
440.272	1260.88
440.493	1246.88
440.715	1304.88
440.936	1359.88
441.158	1429.88
441.379	1421.88
441.6	1412.88
441.822	1357.88
442.043	1323.88
442.264	1314.88
442.486	1269.88
442.707	1281.88
442.928	1252.88
443.149	1290.88
443.371	1386.88
443.592	1404.88
443.813	1408.88
444.034	1400.88
444.255	1404.88
444.476	1401.88
444.698	1428.88
444.919	1394.88
445.14	1475.88
445.361	1479.88
445.582	1474.88
445.803	1429.88
446.024	1373.88
446.245	1410.88
446.466	1379.88
446.687	1337.88
446.908	1343.88
447.129	1319.88
447.35	1331.88
447.571	1323.88
447.792	1287.88
448.013	1255.88
448.234	1283.88
448.455	1346.88
448.675	1341.88
448.896	1230.88
449.117	1213.88
449.338	1245.88
449.559	1313.88
449.779	1372.88
450	1419.88
450.221	1507.88
450.442	1443.88
450.662	1322.88
450.883	1211.88
451.104	1195.88
451.324	1218.88
451.545	1258.88
451.766	1211.88
451.986	1146.88
452.207	1127.88
452.428	1132.88
452.648	1109.88
452.869	1141.88
453.089	1190.88
453.31	1150.88
453.53	1168.88
453.751	1147.88
453.971	1059.88
454.192	1117.88
454.412	1186.88
454.633	1137.88
454.853	1141.88
455.073	1098.88
455.294	1088.88
455.514	1059.88
455.734	1085.88
455.955	1088.88
456.175	1081.88
456.395	1094.88
456.616	1109.88
456.836	1090.88
457.056	1115.88
457.276	1098.88
457.497	1071.88
457.717	1073.88
457.937	1070.88
458.157	1083.88
458.377	1037.88
458.598	1051.88
458.818	1102.88
459.038	1134.88
459.258	1187.88
459.478	1189.88
459.698	1151.88
459.918	1149.88
460.138	1234.88
460.358	1252.88
460.578	1266.88
460.798	1296.88
461.018	1359.88
461.238	1345.88
461.458	1260.88
461.678	1250.88
461.898	1261.88
462.118	1215.88
462.338	1259.88
462.558	1315.88
462.777	1251.88
462.997	1329.88
463.217	1356.88
463.437	1361.88
463.657	1332.88
463.876	1301.88
464.096	1259.88
464.316	1265.88
464.536	1309.88
464.755	1351.88
464.975	1333.88
465.195	1290.88
465.414	1350.88
465.634	1341.88
465.854	1315.88
466.073	1416.88
466.293	1345.88
466.512	1237.88
466.732	1226.88
466.951	1275.88
467.171	1254.88
467.391	1211.88
467.61	1188.88
467.829	1233.88
468.049	1358.88
468.268	1477.88
468.488	1373.88
468.707	1271.88
468.927	1210.88
469.146	1243.88
469.365	1245.88
469.585	1238.88
469.804	1258.88
470.023	1255.88
470.243	1270.88
470.462	1265.88
470.681	1207.88
470.901	1252.88
471.12	1245.88
471.339	1244.88
471.558	1204.88
471.777	1220.88
471.997	1253.88
472.216	1186.88
472.435	1150.88
472.654	1143.88
472.873	1207.88
473.092	1257.88
473.311	1203.88
473.53	1162.88
473.749	1185.88
473.968	1207.88
474.187	1228.88
474.406	1278.88
474.625	1221.88
474.844	1231.88
475.063	1226.88
475.282	1289.88
475.501	1203.88
475.72	1222.88
475.939	1277.88
476.158	1240.88
476.377	1241.88
476.596	1227.88
476.814	1244.88
477.033	1242.88
477.252	1268.88
477.471	1309.88
477.69	1285.88
477.908	1293.88
478.127	1372.88
478.346	1417.88
478.564	1437.88
478.783	1421.88
479.002	1482.88
479.22	1467.88
479.439	1484.88
479.658	1605.88
479.876	1533.88
480.095	1429.88
480.313	1358.88
480.532	1308.88
480.751	1342.88
480.969	1346.88
481.188	1295.88
481.406	1249.88
481.624	1243.88
481.843	1271.88
482.061	1315.88
482.28	1369.88
482.498	1377.88
482.717	1314.88
482.935	1299.88
483.153	1374.88
483.372	1404.88
483.59	1397.88
483.808	1397.88
484.027	1362.88
484.245	1446.88
484.463	1754.88
484.681	1887.88
484.9	1508.88
485.118	1421.88
485.336	1367.88
485.554	1401.88
485.772	1409.88
485.99	1400.88
486.209	1408.88
486.427	1410.88
486.645	1442.88
486.863	1448.88
487.081	1485.88
487.299	1473.88
487.517	1498.88
487.735	1473.88
487.953	1518.88
488.171	1503.88
488.389	1482.88
488.607	1504.88
488.825	1646.88
489.043	1587.88
489.261	1404.88
489.479	1471.88
489.696	1501.88
489.914	1462.88
490.132	1476.88
490.35	1475.88
490.568	1553.88
490.786	1555.88
491.003	1510.88
491.221	1602.88
491.439	1613.88
491.657	1637.88
491.874	1655.88
492.092	1657.88
492.31	1726.88
492.527	1699.88
492.745	1657.88
492.963	1613.88
493.18	1647.88
493.398	1703.88
493.615	1715.88
493.833	1611.88
494.05	1592.88
494.268	1557.88
494.485	1551.88
494.703	1597.88
494.92	1536.88
495.138	1550.88
495.355	1616.88
495.573	1641.88
495.79	1698.88
496.008	1716.88
496.225	1669.88
496.442	1619.88
496.66	1641.88
496.877	1627.88
497.094	1674.88
497.312	1651.88
497.529	1659.88
497.746	1686.88
497.963	1897.88
498.181	2043.88
498.398	1917.88
498.615	1910.88
498.832	1791.88
499.049	1830.88
499.267	1826.88
499.484	1899.88
499.701	2096.88
499.918	2085.88
500.135	2225.88
500.352	2408.88
500.569	2367.88
500.786	2539.88
501.003	2342.88
501.22	2156.88
501.437	2117.88
501.654	2186.88
501.871	2044.88
502.088	1812.88
502.305	1798.88
502.522	1713.88
502.739	1635.88
502.956	1589.88
503.172	1581.88
503.389	1546.88
503.606	1490.88
503.823	1504.88
504.04	1538.88
504.256	1533.88
504.473	1545.88
504.69	1577.88
504.907	1458.88
505.123	1425.88
505.34	1577.88
505.557	2014.88
505.773	1691.88
505.99	1419.88
506.207	1334.88
506.423	1344.88
506.64	1333.88
506.856	1334.88
507.073	1556.88
507.289	1633.88
507.506	1535.88
507.722	1330.88
507.939	1244.88
508.155	1287.88
508.372	1269.88
508.588	1234.88
508.805	1207.88
509.021	1190.88
509.238	1161.88
509.454	1161.88
509.67	1174.88
509.887	1137.88
510.103	1149.88
510.319	1132.88
510.536	1213.88
510.752	1256.88
510.968	1251.88
511.184	1323.88
511.401	1280.88
511.617	1155.88
511.833	1132.88
512.049	1114.88
512.265	1132.88
512.481	1125.88
512.698	1162.88
512.914	1222.88
513.13	1173.88
513.346	1117.88
513.562	1128.88
513.778	1134.88
513.994	1214.88
514.21	1220.88
514.426	1215.88
514.642	1326.88
514.858	1252.88
515.074	1155.88
515.29	1137.88
515.506	1177.88
515.721	1182.88
515.937	1202.88
516.153	1307.88
516.369	1267.88
516.585	1214.88
516.801	1161.88
517.016	1152.88
517.232	1248.88
517.448	1233.88
517.664	1241.88
517.879	1267.88
518.095	1279.88
518.311	1251.88
518.527	1201.88
518.742	1151.88
518.958	1167.88
519.173	1173.88
519.389	1158.88
519.605	1177.88
519.82	1189.88
520.036	1186.88
520.251	1154.88
520.467	1169.88
520.682	1244.88
520.898	1271.88
521.113	1141.88
521.329	1141.88
521.544	1204.88
521.76	1146.88
521.975	1134.88
522.19	1107.88
522.406	1107.88
522.621	1431.88
522.836	1371.88
523.052	1149.88
523.267	1144.88
523.482	1107.88
523.698	1084.88
523.913	1079.88
524.128	1109.88
524.343	1178.88
524.559	1187.88
524.774	1108.88
524.989	1098.88
525.204	1091.88
525.419	1080.88
525.634	1077.88
525.849	1077.88
526.064	1080.88
526.28	1072.88
526.495	1044.88
526.71	1041.88
526.925	1013.88
527.14	1006.88
527.355	991.88
527.57	982.88
527.785	1025.88
527.999	1019.88
528.214	1037.88
528.429	1013.88
528.644	1061.88
528.859	1062.88
529.074	1081.88
529.289	1142.88
529.503	1129.88
529.718	1113.88
529.933	1019.88
530.148	1003.88
530.363	1002.88
530.577	975.88
530.792	1004.88
531.007	1010.88
531.221	990.88
531.436	1025.88
531.651	1045.88
531.865	1054.88
532.08	995.88
532.295	973.88
532.509	978.88
532.724	987.88
532.938	1009.88
533.153	1077.88
533.367	1051.88
533.582	1037.88
533.796	1006.88
534.011	1040.88
534.225	1034.88
534.44	974.88
534.654	982.88
534.868	1007.88
535.083	1049.88
535.297	1057.88
535.511	1023.88
535.726	983.88
535.94	988.88
536.154	986.88
536.369	985.88
536.583	980.88
536.797	946.88
537.011	981.88
537.225	933.88
537.44	935.88
537.654	969.88
537.868	953.88
538.082	942.88
538.296	969.88
538.51	945.88
538.724	951.88
538.938	942.88
539.153	1032.88
539.367	999.88
539.581	979.88
539.795	1013.88
540.009	1007.88
540.222	975.88
540.436	977.88
540.65	1095.88
540.864	1091.88
541.078	1073.88
541.292	1049.88
541.506	1045.88
541.72	1102.88
541.934	1159.88
542.147	1166.88
542.361	1152.88
542.575	1086.88
542.789	1059.88
543.002	959.88
543.216	991.88
543.43	1049.88
543.644	1047.88
543.857	1142.88
544.071	1091.88
544.285	1105.88
544.498	1096.88
544.712	1083.88
544.925	1128.88
545.139	1115.88
545.352	1081.88
545.566	1060.88
545.779	1077.88
545.993	1104.88
546.206	1137.88
546.42	1103.88
546.633	1069.88
546.847	1085.88
547.06	1078.88
547.274	1121.88
547.487	1101.88
547.7	1112.88
547.914	1109.88
548.127	1119.88
548.34	1090.88
548.554	1091.88
548.767	1082.88
548.98	1093.88
549.193	1073.88
549.407	1153.88
549.62	1160.88
549.833	1077.88
550.046	1061.88
550.259	1050.88
550.473	1037.88
550.686	1038.88
550.899	1025.88
551.112	1018.88
551.325	1002.88
551.538	1057.88
551.751	1149.88
551.964	958.88
552.177	929.88
552.39	995.88
552.603	1009.88
552.816	1009.88
553.029	1097.88
553.242	1089.88
553.455	1059.88
553.667	1063.88
553.88	1068.88
554.093	1029.88
554.306	991.88
554.519	983.88
554.732	971.88
554.944	1014.88
555.157	990.88
555.37	945.88
555.583	917.88
555.795	915.88
556.008	895.88
556.221	925.88
556.433	877.88
556.646	892.88
556.859	899.88
557.071	889.88
557.284	896.88
557.496	867.88
557.709	887.88
557.921	906.88
558.134	869.88
558.346	876.88
558.559	858.88
558.771	867.88
558.984	838.88
559.196	810.88
559.409	844.88
559.621	809.88
559.833	849.88
560.046	854.88
560.258	824.88
560.47	823.88
560.683	826.88
560.895	827.88
561.107	827.88
561.32	837.88
561.532	858.88
561.744	867.88
561.956	845.88
562.168	810.88
562.381	790.88
562.593	835.88
562.805	814.88
563.017	781.88
563.229	809.88
563.441	834.88
563.653	795.88
563.865	777.88
564.077	769.88
564.289	781.88
564.501	787.88
564.713	805.88
564.925	861.88
565.137	892.88
565.349	849.88
565.561	827.88
565.773	822.88
565.985	846.88
566.197	875.88
566.408	883.88
566.62	901.88
566.832	892.88
567.044	915.88
567.255	893.88
567.467	907.88
567.679	924.88
567.891	954.88
568.102	925.88
568.314	851.88
568.526	837.88
568.737	789.88
568.949	740.88
569.161	711.88
569.372	696.88
569.584	669.88
569.795	696.88
570.007	697.88
570.218	656.88
570.43	673.88
570.641	686.88
570.853	678.88
571.064	693.88
571.276	699.88
571.487	675.88
571.698	664.88
571.91	659.88
572.121	663.88
572.333	634.88
572.544	628.88
572.755	600.88
572.966	595.88
573.178	594.88
573.389	593.88
573.6	608.88
573.811	650.88
574.023	634.88
574.234	574.88
574.445	586.88
574.656	568.88
574.867	585.88
575.078	599.88
575.289	575.88
575.501	548.88
575.712	532.88
575.923	561.88
576.134	565.88
576.345	558.88
576.556	565.88
576.767	541.88
576.978	565.88
577.188	537.88
577.399	549.88
577.61	519.88
577.821	532.88
578.032	515.88
578.243	525.88
578.454	527.88
578.665	522.88
578.875	510.88
579.086	485.88
579.297	503.88
579.508	536.88
579.718	521.88
579.929	515.88
580.14	486.88
580.35	487.88
580.561	511.88
580.772	579.88
580.982	516.88
581.193	501.88
581.403	510.88
581.614	511.88
581.825	501.88
582.035	476.88
582.246	498.88
582.456	500.88
582.667	491.88
582.877	494.88
583.087	493.88
583.298	479.88
583.508	468.88
583.719	482.88
583.929	490.88
584.139	489.88
584.35	467.88
584.56	481.88
584.77	459.88
584.981	469.88
585.191	491.88
585.401	496.88
585.611	481.88
585.821	470.88
586.032	461.88
586.242	472.88
586.452	470.88
586.662	469.88
586.872	458.88
587.082	461.88
587.292	481.88
587.502	460.88
587.713	441.88
587.923	461.88
588.133	444.88
588.343	486.88
588.553	444.88
588.762	450.88
588.972	446.88
589.182	479.88
589.392	461.88
589.602	458.88
589.812	455.88
590.022	443.88
590.232	454.88
590.441	451.88
590.651	438.88
590.861	471.88
591.071	441.88
591.281	457.88
591.49	448.88
591.7	447.88
591.91	443.88
592.119	464.88
592.329	461.88
592.539	469.88
592.748	477.88
592.958	475.88
593.167	475.88
593.377	453.88
593.587	462.88
593.796	457.88
594.006	474.88
594.215	446.88
594.424	482.88
594.634	478.88
594.843	487.88
595.053	489.88
595.262	459.88
595.472	447.88
595.681	453.88
595.89	444.88
596.1	421.88
596.309	447.88
596.518	431.88
596.727	447.88
596.937	445.88
597.146	433.88
597.355	428.88
597.564	405.88
597.774	394.88
597.983	414.88
598.192	408.88
598.401	402.88
598.61	406.88
598.819	402.88
599.028	410.88
599.237	408.88
599.446	389.88
599.655	387.88
599.864	397.88
600.073	405.88
600.282	391.88
600.491	385.88
600.7	377.88
600.909	377.88
601.118	398.88
601.327	417.88
601.536	414.88
601.745	399.88
601.953	425.88
602.162	420.88
602.371	433.88
602.58	426.88
602.789	414.88
602.997	405.88
603.206	424.88
603.415	408.88
603.623	407.88
603.832	421.88
604.041	384.88
604.249	385.88
604.458	382.88
604.666	389.88
604.875	384.88
605.084	389.88
605.292	424.88
605.501	405.88
605.709	399.88
605.918	404.88
606.126	405.88
606.334	412.88
606.543	425.88
606.751	427.88
606.96	407.88
607.168	415.88
607.376	390.88
607.585	403.88
607.793	417.88
608.001	403.88
608.21	393.88
608.418	421.88
608.626	412.88
608.834	422.88
609.043	408.88
609.251	412.88
609.459	409.88
609.667	407.88
609.875	405.88
610.083	430.88
610.291	412.88
610.499	424.88
610.707	399.88
610.916	397.88
611.124	403.88
611.332	392.88
611.54	389.88
611.748	399.88
611.955	398.88
612.163	381.88
612.371	393.88
612.579	390.88
612.787	388.88
612.995	393.88
613.203	390.88
613.411	410.88
613.618	405.88
613.826	392.88
614.034	389.88
614.242	397.88
614.449	396.88
614.657	392.88
614.865	390.88
615.072	377.88
615.28	386.88
615.488	405.88
615.695	401.88
615.903	398.88
616.111	387.88
616.318	388.88
616.526	388.88
616.733	386.88
616.941	370.88
617.148	351.88
617.356	381.88
617.563	366.88
617.771	386.88
617.978	380.88
618.185	379.88
618.393	395.88
618.6	389.88
618.807	398.88
619.015	379.88
619.222	374.88
619.429	353.88
619.637	339.88
619.844	346.88
620.051	367.88
620.258	343.88
620.466	341.88
620.673	366.88
620.88	348.88
621.087	357.88
621.294	364.88
621.501	339.88
621.708	357.88
621.915	351.88
622.122	341.88
622.329	381.88
622.536	381.88
622.743	361.88
622.95	358.88
623.157	337.88
623.364	354.88
623.571	346.88
623.778	364.88
623.985	361.88
624.192	342.88
624.399	343.88
624.606	349.88
624.812	346.88
625.019	327.88
625.226	321.88
625.433	336.88
625.639	330.88
625.846	319.88
626.053	293.88
626.259	321.88
626.466	274.88
626.673	309.88
626.879	302.88
627.086	299.88
627.293	311.88
627.499	308.88
627.706	323.88
627.912	335.88
628.119	335.88
628.325	339.88
628.532	314.88
628.738	322.88
628.945	330.88
629.151	322.88
629.357	316.88
629.564	311.88
629.77	315.88
629.976	317.88
630.183	301.88
630.389	311.88
630.595	311.88
630.802	284.88
631.008	309.88
631.214	305.88
631.42	313.88
631.627	283.88
631.833	283.88
632.039	272.88
632.245	302.88
632.451	308.88
632.657	290.88
632.863	282.88
633.069	288.88
633.275	300.88
633.481	298.88
633.688	290.88
633.893	268.88
634.099	261.88
634.305	286.88
634.511	277.88
634.717	277.88
634.923	265.88
635.129	272.88
635.335	247.88
635.541	267.88
635.747	274.88
635.952	293.88
636.158	278.88
636.364	293.88
636.57	266.88
636.775	298.88
636.981	281.88
637.187	302.88
637.392	293.88
637.598	276.88
637.804	286.88
638.009	290.88
638.215	293.88
638.421	262.88
638.626	293.88
638.832	286.88
639.037	268.88
639.243	278.88
639.448	275.88
639.654	257.88
639.859	261.88
640.065	276.88
640.27	260.88
640.475	270.88
640.681	269.88
640.886	245.88
641.091	271.88
641.297	259.88
641.502	271.88
641.707	292.88
641.913	285.88
642.118	281.88
642.323	264.88
642.528	250.88
642.733	265.88
642.939	270.88
643.144	269.88
643.349	266.88
643.554	260.88
643.759	257.88
643.964	284.88
644.169	267.88
644.374	240.88
644.579	254.88
644.784	250.88
644.989	269.88
645.194	257.88
645.399	276.88
645.604	268.88
645.809	265.88
646.014	261.88
646.219	268.88
646.423	268.88
646.628	266.88
646.833	274.88
647.038	258.88
647.243	269.88
647.447	271.88
647.652	277.88
647.857	270.88
648.062	249.88
648.266	267.88
648.471	259.88
648.676	271.88
648.88	267.88
649.085	249.88
649.289	263.88
649.494	247.88
649.698	249.88
649.903	256.88
650.107	238.88
650.312	261.88
650.516	246.88
650.721	251.88
650.925	237.88
651.13	250.88
651.334	250.88
651.539	237.88
651.743	243.88
651.947	238.88
652.152	239.88
652.356	226.88
652.56	217.88
652.764	231.88
652.969	237.88
653.173	247.88
653.377	215.88
653.581	226.88
653.785	222.88
653.99	223.88
654.194	225.88
654.398	218.88
654.602	223.88
654.806	230.88
655.01	234.88
655.214	203.88
655.418	228.88
655.622	217.88
655.826	226.88
656.03	249.88
656.234	237.88
656.438	251.88
656.642	247.88
656.846	232.88
657.049	231.88
657.253	223.88
657.457	203.88
657.661	197.88
657.865	199.88
658.068	190.88
658.272	168.88
658.476	149.88
658.68	153.88
658.883	147.88
659.087	151.88
659.291	137.88
659.494	155.88
659.698	141.88
659.901	138.88
660.105	138.88
660.309	105.88
660.512	129.88
660.716	127.88
660.919	122.88
661.123	116.88
661.326	116.88
661.53	118.88
661.733	111.88
661.936	117.88
662.14	108.88
662.343	106.88
662.546	93.88
662.75	107.88
662.953	102.88
663.156	93.88
663.36	89.88
663.563	84.88
663.766	89.88
663.969	85.88
664.173	81.88
664.376	94.88
664.579	92.88
664.782	95.88
664.985	106.88
665.188	90.88
665.391	91.88
665.594	76.88
665.797	85.88
666	75.88
666.203	83.88
666.406	80.88
666.609	91.88
666.812	93.88
667.015	101.88
667.218	84.88
667.421	83.88
667.624	75.88
667.827	69.88
668.03	85.88
668.232	83.88
668.435	75.88
668.638	71.88
668.841	81.88
669.043	78.88
669.246	93.88
669.449	84.88
669.651	74.88
669.854	78.88
670.057	83.88
670.259	83.88
670.462	79.88
670.665	87.88
670.867	89.88
671.07	84.88
671.272	75.88
671.475	95.88
671.677	72.88
671.88	72.88
672.082	82.88
672.284	89.88
672.487	79.88
672.689	90.88
672.892	76.88
