Data from WStandard_LampEnergy5.5LIBS07252019.E.O._I.C._HRD10591_16-06-24-919.txt Node
Date: Thu Jul 25 16:06:24 EDT 2019
User: cochatt
Spectrometer: HR+D1059
Trigger mode: 1
Integration Time (sec): 1.000000E-1
Scans to average: 1
Electric dark correction enabled: true
Nonlinearity correction enabled: false
Boxcar width: 0
XAxis mode: Wavelengths
Number of Pixels in Spectrum: 2048
>>>>>Begin Spectral Data<<<<<
223.165	-26.12
223.4	-26.12
223.635	-26.12
223.869	-22.12
224.104	-25.12
224.338	-17.12
224.573	-17.12
224.808	-14.12
225.042	1.88
225.277	0.88
225.511	-1.12
225.746	2.88
225.98	12.88
226.215	-4.12
226.449	20.88
226.683	27.88
226.918	19.88
227.152	39.88
227.387	27.88
227.621	38.88
227.856	38.88
228.09	45.88
228.324	59.88
228.559	37.88
228.793	130.88
229.027	308.88
229.262	334.88
229.496	356.88
229.73	363.88
229.964	402.88
230.199	408.88
230.433	416.88
230.667	461.88
230.901	485.88
231.136	433.88
231.37	420.88
231.604	437.88
231.838	408.88
232.072	431.88
232.306	438.88
232.541	441.88
232.775	509.88
233.009	546.88
233.243	525.88
233.477	498.88
233.711	494.88
233.945	519.88
234.179	478.88
234.413	539.88
234.647	570.88
234.881	542.88
235.115	487.88
235.349	514.88
235.583	516.88
235.817	499.88
236.051	494.88
236.285	497.88
236.519	549.88
236.753	611.88
236.987	628.88
237.221	618.88
237.455	674.88
237.689	671.88
237.922	608.88
238.156	616.88
238.39	608.88
238.624	642.88
238.858	664.88
239.091	675.88
239.325	720.88
239.559	827.88
239.793	851.88
240.027	921.88
240.26	938.88
240.494	692.88
240.728	650.88
240.961	656.88
241.195	673.88
241.429	744.88
241.662	734.88
241.896	670.88
242.13	686.88
242.363	745.88
242.597	839.88
242.83	794.88
243.064	812.88
243.298	881.88
243.531	850.88
243.765	848.88
243.998	843.88
244.232	734.88
244.465	698.88
244.699	702.88
244.932	829.88
245.166	943.88
245.399	876.88
245.633	800.88
245.866	802.88
246.099	858.88
246.333	875.88
246.566	840.88
246.8	947.88
247.033	1053.88
247.266	952.88
247.5	973.88
247.733	920.88
247.966	964.88
248.2	1107.88
248.433	1014.88
248.666	1039.88
248.899	1170.88
249.133	1348.88
249.366	1572.88
249.599	1282.88
249.832	1132.88
250.066	1129.88
250.299	1150.88
250.532	1039.88
250.765	975.88
250.998	1017.88
251.231	1060.88
251.465	1134.88
251.698	1055.88
251.931	1020.88
252.164	1088.88
252.397	1146.88
252.63	1083.88
252.863	967.88
253.096	979.88
253.329	1031.88
253.562	1052.88
253.795	1142.88
254.028	1113.88
254.261	1063.88
254.494	1007.88
254.727	970.88
254.96	1032.88
255.193	1105.88
255.426	1229.88
255.659	1456.88
255.892	1476.88
256.124	1204.88
256.357	1193.88
256.59	1265.88
256.823	1282.88
257.056	1273.88
257.289	1489.88
257.521	1690.88
257.754	1486.88
257.987	1414.88
258.22	1593.88
258.452	1570.88
258.685	1233.88
258.918	1199.88
259.151	1222.88
259.383	1156.88
259.616	1065.88
259.849	1108.88
260.081	1216.88
260.314	1346.88
260.547	1471.88
260.779	1528.88
261.012	1398.88
261.244	1266.88
261.477	1224.88
261.71	1241.88
261.942	1241.88
262.175	1201.88
262.407	1279.88
262.64	1218.88
262.872	1100.88
263.105	1107.88
263.337	1119.88
263.57	1148.88
263.802	1156.88
264.035	1078.88
264.267	1054.88
264.499	1003.88
264.732	1084.88
264.964	1131.88
265.197	1216.88
265.429	1259.88
265.661	1375.88
265.894	1522.88
266.126	1566.88
266.358	1390.88
266.591	1423.88
266.823	1551.88
267.055	1441.88
267.287	1369.88
267.52	1382.88
267.752	1359.88
267.984	1353.88
268.216	1412.88
268.448	1418.88
268.681	1465.88
268.913	1358.88
269.145	1264.88
269.377	1244.88
269.609	1330.88
269.841	1521.88
270.073	1793.88
270.306	1986.88
270.538	2140.88
270.77	1809.88
271.002	1493.88
271.234	1484.88
271.466	1416.88
271.698	1628.88
271.93	1950.88
272.162	1941.88
272.394	1724.88
272.626	1657.88
272.858	1490.88
273.09	1314.88
273.322	1282.88
273.553	1231.88
273.785	1255.88
274.017	1314.88
274.249	1408.88
274.481	1399.88
274.713	1270.88
274.945	1234.88
275.176	1241.88
275.408	1236.88
275.64	1254.88
275.872	1227.88
276.104	1305.88
276.335	1465.88
276.567	1641.88
276.799	1670.88
277.031	1525.88
277.262	1409.88
277.494	1465.88
277.726	1640.88
277.957	1639.88
278.189	1508.88
278.421	1357.88
278.652	1328.88
278.884	1310.88
279.115	1319.88
279.347	1331.88
279.579	1280.88
279.81	1277.88
280.042	1414.88
280.273	1554.88
280.505	1559.88
280.736	1625.88
280.968	1526.88
281.199	1363.88
281.431	1262.88
281.662	1294.88
281.894	1292.88
282.125	1296.88
282.356	1376.88
282.588	1377.88
282.819	1347.88
283.051	1430.88
283.282	1592.88
283.513	1494.88
283.745	1337.88
283.976	1257.88
284.207	1268.88
284.439	1304.88
284.67	1304.88
284.901	1359.88
285.132	1350.88
285.364	1362.88
285.595	1371.88
285.826	1361.88
286.057	1325.88
286.288	1322.88
286.52	1384.88
286.751	1505.88
286.982	1549.88
287.213	1458.88
287.444	1317.88
287.675	1300.88
287.906	1377.88
288.138	1468.88
288.369	1379.88
288.6	1357.88
288.831	1284.88
289.062	1318.88
289.293	1346.88
289.524	1341.88
289.755	1404.88
289.986	1422.88
290.217	1301.88
290.448	1369.88
290.679	1390.88
290.91	1363.88
291.141	1436.88
291.371	1435.88
291.602	1436.88
291.833	1406.88
292.064	1482.88
292.295	1417.88
292.526	1474.88
292.757	1566.88
292.987	1454.88
293.218	1416.88
293.449	1471.88
293.68	1673.88
293.91	1810.88
294.141	1662.88
294.372	1514.88
294.603	1574.88
294.833	1635.88
295.064	1573.88
295.295	1448.88
295.525	1443.88
295.756	1350.88
295.987	1269.88
296.217	1339.88
296.448	1381.88
296.679	1350.88
296.909	1338.88
297.14	1334.88
297.37	1364.88
297.601	1458.88
297.831	1560.88
298.062	1558.88
298.292	1473.88
298.523	1370.88
298.753	1379.88
298.984	1367.88
299.214	1396.88
299.445	1416.88
299.675	1431.88
299.905	1442.88
300.136	1394.88
300.366	1407.88
300.597	1321.88
300.827	1342.88
301.057	1416.88
301.288	1500.88
301.518	1460.88
301.748	1486.88
301.979	1557.88
302.209	1561.88
302.439	1685.88
302.669	1744.88
302.9	1598.88
303.13	1478.88
303.36	1480.88
303.59	1516.88
303.82	1482.88
304.051	1448.88
304.281	1470.88
304.511	1480.88
304.741	1545.88
304.971	1691.88
305.201	1836.88
305.431	1736.88
305.661	1459.88
305.891	1323.88
306.121	1328.88
306.352	1356.88
306.582	1426.88
306.812	1511.88
307.042	1636.88
307.272	1615.88
307.502	1680.88
307.731	1794.88
307.961	1915.88
308.191	1774.88
308.421	1514.88
308.651	1465.88
308.881	1378.88
309.111	1449.88
309.341	1410.88
309.571	1441.88
309.8	1429.88
310.03	1422.88
310.26	1390.88
310.49	1394.88
310.72	1435.88
310.949	1489.88
311.179	1553.88
311.409	1539.88
311.639	1524.88
311.868	1443.88
312.098	1447.88
312.328	1473.88
312.557	1419.88
312.787	1460.88
313.017	1518.88
313.246	1490.88
313.476	1506.88
313.706	1529.88
313.935	1530.88
314.165	1545.88
314.394	1576.88
314.624	1637.88
314.853	1748.88
315.083	1796.88
315.312	1838.88
315.542	1745.88
315.771	1573.88
316.001	1562.88
316.23	1639.88
316.46	1646.88
316.689	1594.88
316.919	1568.88
317.148	1457.88
317.377	1497.88
317.607	1599.88
317.836	1783.88
318.065	1834.88
318.295	1771.88
318.524	1679.88
318.753	1621.88
318.983	1640.88
319.212	1588.88
319.441	1516.88
319.67	1534.88
319.9	1564.88
320.129	1632.88
320.358	1690.88
320.587	1754.88
320.816	1762.88
321.046	1682.88
321.275	1632.88
321.504	1625.88
321.733	1729.88
321.962	1694.88
322.191	1552.88
322.42	1538.88
322.649	1561.88
322.878	1551.88
323.108	1573.88
323.337	1619.88
323.566	1615.88
323.795	1631.88
324.024	1607.88
324.253	1571.88
324.482	1608.88
324.71	1593.88
324.939	1483.88
325.168	1496.88
325.397	1566.88
325.626	1626.88
325.855	1618.88
326.084	1585.88
326.313	1551.88
326.542	1594.88
326.77	1670.88
326.999	1660.88
327.228	1566.88
327.457	1500.88
327.686	1507.88
327.914	1548.88
328.143	1574.88
328.372	1579.88
328.6	1601.88
328.829	1606.88
329.058	1565.88
329.287	1538.88
329.515	1594.88
329.744	1648.88
329.972	1688.88
330.201	1764.88
330.43	1737.88
330.658	1674.88
330.887	1682.88
331.115	1660.88
331.344	1660.88
331.572	1661.88
331.801	1633.88
332.03	1688.88
332.258	1684.88
332.486	1697.88
332.715	1738.88
332.943	1703.88
333.172	1702.88
333.4	1746.88
333.629	1751.88
333.857	1866.88
334.085	2016.88
334.314	2250.88
334.542	2465.88
334.771	2272.88
334.999	2016.88
335.227	1939.88
335.455	1802.88
335.684	1803.88
335.912	1838.88
336.14	1932.88
336.369	1846.88
336.597	1752.88
336.825	1743.88
337.053	1702.88
337.281	1824.88
337.51	1899.88
337.738	1975.88
337.966	1907.88
338.194	1740.88
338.422	1695.88
338.65	1675.88
338.878	1647.88
339.106	1593.88
339.334	1586.88
339.562	1580.88
339.79	1620.88
340.018	1726.88
340.246	1775.88
340.474	1765.88
340.702	1732.88
340.93	1727.88
341.158	1716.88
341.386	1722.88
341.614	1667.88
341.842	1648.88
342.07	1656.88
342.298	1699.88
342.526	1659.88
342.754	1627.88
342.981	1661.88
343.209	1622.88
343.437	1632.88
343.665	1670.88
343.893	1727.88
344.12	1796.88
344.348	1767.88
344.576	1744.88
344.804	1652.88
345.031	1656.88
345.259	1700.88
345.487	1622.88
345.714	1530.88
345.942	1558.88
346.17	1531.88
346.397	1626.88
346.625	1621.88
346.853	1520.88
347.08	1511.88
347.308	1490.88
347.535	1573.88
347.763	1562.88
347.99	1541.88
348.218	1534.88
348.445	1550.88
348.673	1511.88
348.9	1572.88
349.128	1609.88
349.355	1688.88
349.583	1659.88
349.81	1603.88
350.037	1475.88
350.265	1458.88
350.492	1475.88
350.72	1476.88
350.947	1577.88
351.174	1588.88
351.402	1524.88
351.629	1471.88
351.856	1453.88
352.083	1432.88
352.311	1468.88
352.538	1496.88
352.765	1569.88
352.992	1624.88
353.22	1543.88
353.447	1516.88
353.674	1534.88
353.901	1543.88
354.128	1510.88
354.355	1493.88
354.583	1568.88
354.81	1594.88
355.037	1576.88
355.264	1574.88
355.491	1569.88
355.718	1542.88
355.945	1559.88
356.172	1527.88
356.399	1488.88
356.626	1515.88
356.853	1547.88
357.08	1628.88
357.307	1812.88
357.534	1781.88
357.761	1607.88
357.988	1501.88
358.215	1455.88
358.441	1480.88
358.668	1454.88
358.895	1494.88
359.122	1536.88
359.349	1727.88
359.576	1689.88
359.802	1522.88
360.029	1477.88
360.256	1484.88
360.483	1497.88
360.709	1518.88
360.936	1580.88
361.163	1612.88
361.39	1734.88
361.616	1915.88
361.843	1804.88
362.07	1762.88
362.296	1566.88
362.523	1496.88
362.749	1512.88
362.976	1585.88
363.203	1564.88
363.429	1533.88
363.656	1500.88
363.882	1525.88
364.109	1654.88
364.335	1804.88
364.562	1706.88
364.788	1614.88
365.015	1589.88
365.241	1495.88
365.468	1557.88
365.694	1606.88
365.92	1663.88
366.147	1626.88
366.373	1495.88
366.599	1499.88
366.826	1495.88
367.052	1498.88
367.278	1500.88
367.505	1571.88
367.731	1574.88
367.957	1550.88
368.184	1604.88
368.41	1629.88
368.636	1669.88
368.862	1674.88
369.089	1701.88
369.315	1650.88
369.541	1615.88
369.767	1601.88
369.993	1540.88
370.219	1519.88
370.445	1545.88
370.672	1606.88
370.898	1673.88
371.124	1700.88
371.35	1626.88
371.576	1678.88
371.802	1764.88
372.028	1696.88
372.254	1622.88
372.48	1584.88
372.706	1582.88
372.932	1600.88
373.158	1547.88
373.384	1588.88
373.61	1610.88
373.835	1683.88
374.061	1651.88
374.287	1647.88
374.513	1634.88
374.739	1652.88
374.965	1626.88
375.191	1664.88
375.416	1680.88
375.642	1689.88
375.868	1717.88
376.094	1783.88
376.319	1721.88
376.545	1650.88
376.771	1624.88
376.997	1699.88
377.222	1689.88
377.448	1674.88
377.674	1672.88
377.899	1667.88
378.125	1739.88
378.35	1777.88
378.576	1631.88
378.802	1611.88
379.027	1582.88
379.253	1624.88
379.478	1620.88
379.704	1628.88
379.929	1587.88
380.155	1630.88
380.38	1593.88
380.606	1632.88
380.831	1662.88
381.057	1690.88
381.282	1700.88
381.507	1684.88
381.733	1746.88
381.958	1844.88
382.184	1730.88
382.409	1668.88
382.634	1731.88
382.86	1714.88
383.085	1716.88
383.31	1735.88
383.535	1827.88
383.761	1936.88
383.986	1850.88
384.211	1874.88
384.436	1810.88
384.662	1872.88
384.887	1968.88
385.112	1885.88
385.337	1887.88
385.562	1905.88
385.787	1884.88
386.013	1906.88
386.238	1910.88
386.463	1914.88
386.688	2025.88
386.913	2058.88
387.138	2061.88
387.363	1911.88
387.588	1878.88
387.813	1897.88
388.038	1919.88
388.263	2008.88
388.488	1932.88
388.713	1844.88
388.938	1771.88
389.163	1804.88
389.387	1872.88
389.612	1851.88
389.837	1899.88
390.062	1919.88
390.287	1913.88
390.512	1895.88
390.736	1859.88
390.961	1839.88
391.186	1813.88
391.411	1807.88
391.636	1860.88
391.86	1922.88
392.085	1898.88
392.31	1890.88
392.534	1904.88
392.759	1941.88
392.984	1952.88
393.208	1998.88
393.433	2076.88
393.658	2153.88
393.882	2069.88
394.107	1959.88
394.331	1903.88
394.556	1864.88
394.78	1914.88
395.005	1963.88
395.229	2003.88
395.454	2111.88
395.678	2169.88
395.903	2101.88
396.127	1997.88
396.352	1973.88
396.576	2060.88
396.801	2072.88
397.025	2162.88
397.249	2122.88
397.474	2049.88
397.698	2017.88
397.922	2075.88
398.147	2169.88
398.371	2209.88
398.595	2246.88
398.82	2180.88
399.044	2174.88
399.268	2303.88
399.492	2495.88
399.717	2587.88
399.941	2600.88
400.165	2531.88
400.389	2421.88
400.613	2389.88
400.837	2515.88
401.062	2875.88
401.286	2501.88
401.51	2256.88
401.734	2447.88
401.958	2350.88
402.182	2249.88
402.406	2202.88
402.63	2098.88
402.854	2132.88
403.078	2148.88
403.302	2230.88
403.526	2269.88
403.75	2288.88
403.974	2272.88
404.198	2244.88
404.422	2278.88
404.645	2344.88
404.869	2371.88
405.093	2240.88
405.317	2194.88
405.541	2281.88
405.765	2299.88
405.988	2306.88
406.212	2288.88
406.436	2334.88
406.66	2379.88
406.883	2398.88
407.107	2635.88
407.331	2808.88
407.555	3030.88
407.778	2894.88
408.002	2465.88
408.226	2386.88
408.449	2422.88
408.673	2252.88
408.896	2266.88
409.12	2409.88
409.344	2325.88
409.567	2262.88
409.791	2270.88
410.014	2312.88
410.238	2321.88
410.461	2486.88
410.685	2292.88
410.908	2230.88
411.132	2236.88
411.355	2216.88
411.578	2158.88
411.802	2155.88
412.025	2212.88
412.249	2171.88
412.472	2133.88
412.695	2107.88
412.919	2137.88
413.142	2150.88
413.365	2192.88
413.589	2241.88
413.812	2256.88
414.035	2370.88
414.258	2163.88
414.482	2163.88
414.705	2174.88
414.928	2135.88
415.151	2103.88
415.374	2155.88
415.597	2174.88
415.821	2176.88
416.044	2287.88
416.267	2264.88
416.49	2090.88
416.713	2023.88
416.936	2120.88
417.159	2161.88
417.382	2185.88
417.605	2094.88
417.828	2151.88
418.051	2217.88
418.274	2159.88
418.497	2084.88
418.72	2114.88
418.943	2084.88
419.166	2249.88
419.389	2347.88
419.611	2240.88
419.834	2170.88
420.057	2196.88
420.28	2120.88
420.503	2094.88
420.726	2129.88
420.948	2135.88
421.171	2058.88
421.394	2084.88
421.617	2144.88
421.839	2139.88
422.062	2108.88
422.285	2037.88
422.507	2079.88
422.73	2021.88
422.953	1999.88
423.175	2061.88
423.398	2085.88
423.621	2083.88
423.843	2052.88
424.066	2153.88
424.288	2152.88
424.511	2160.88
424.733	2120.88
424.956	1995.88
425.178	1983.88
425.401	2019.88
425.623	2016.88
425.846	2031.88
426.068	2103.88
426.291	2110.88
426.513	2084.88
426.735	2071.88
426.958	2201.88
427.18	2287.88
427.402	2132.88
427.625	2088.88
427.847	2158.88
428.069	2088.88
428.292	2053.88
428.514	1970.88
428.736	1959.88
428.958	2014.88
429.181	2018.88
429.403	2187.88
429.625	2668.88
429.847	2367.88
430.069	2042.88
430.292	2178.88
430.514	2243.88
430.736	2114.88
430.958	2183.88
431.18	2136.88
431.402	2021.88
431.624	1991.88
431.846	1991.88
432.068	1985.88
432.29	2016.88
432.512	1977.88
432.734	2070.88
432.956	2071.88
433.178	2172.88
433.4	2125.88
433.622	2163.88
433.844	2032.88
434.066	1982.88
434.287	1962.88
434.509	2048.88
434.731	2138.88
434.953	2264.88
435.175	2250.88
435.397	2126.88
435.618	2064.88
435.84	2118.88
436.062	2066.88
436.284	2103.88
436.505	2098.88
436.727	2120.88
436.949	2052.88
437.17	2019.88
437.392	2023.88
437.614	2040.88
437.835	1971.88
438.057	2095.88
438.278	2244.88
438.5	2050.88
438.721	2004.88
438.943	1992.88
439.165	1979.88
439.386	1943.88
439.608	1999.88
439.829	1987.88
440.05	2006.88
440.272	1984.88
440.493	1962.88
440.715	1980.88
440.936	2108.88
441.158	2325.88
441.379	2268.88
441.6	2198.88
441.822	2148.88
442.043	2139.88
442.264	2098.88
442.486	2010.88
442.707	2004.88
442.928	1980.88
443.149	2052.88
443.371	2187.88
443.592	2246.88
443.813	2184.88
444.034	2207.88
444.255	2184.88
444.476	2219.88
444.698	2255.88
444.919	2279.88
445.14	2315.88
445.361	2349.88
445.582	2425.88
445.803	2342.88
446.024	2206.88
446.245	2308.88
446.466	2178.88
446.687	2101.88
446.908	2048.88
447.129	2015.88
447.35	2071.88
447.571	2068.88
447.792	1968.88
448.013	1964.88
448.234	2035.88
448.455	2098.88
448.675	2056.88
448.896	1907.88
449.117	1880.88
449.338	1953.88
449.559	1973.88
449.779	2145.88
450	2331.88
450.221	2488.88
450.442	2464.88
450.662	2168.88
450.883	1940.88
451.104	1887.88
451.324	1930.88
451.545	1979.88
451.766	2020.88
451.986	1846.88
452.207	1883.88
452.428	1791.88
452.648	1766.88
452.869	1856.88
453.089	1924.88
453.31	1976.88
453.53	2000.88
453.751	1891.88
453.971	1786.88
454.192	1826.88
454.412	1957.88
454.633	1858.88
454.853	1828.88
455.073	1746.88
455.294	1712.88
455.514	1754.88
455.734	1759.88
455.955	1807.88
456.175	1762.88
456.395	1775.88
456.616	1823.88
456.836	1897.88
457.056	1812.88
457.276	1806.88
457.497	1781.88
457.717	1680.88
457.937	1777.88
458.157	1793.88
458.377	1800.88
458.598	1787.88
458.818	1796.88
459.038	1889.88
459.258	2031.88
459.478	2009.88
459.698	1970.88
459.918	2014.88
460.138	2073.88
460.358	2151.88
460.578	2148.88
460.798	2227.88
461.018	2375.88
461.238	2231.88
461.458	2123.88
461.678	2178.88
461.898	2132.88
462.118	2102.88
462.338	2169.88
462.558	2163.88
462.777	2146.88
462.997	2280.88
463.217	2419.88
463.437	2384.88
463.657	2205.88
463.876	2226.88
464.096	2175.88
464.316	2159.88
464.536	2251.88
464.755	2249.88
464.975	2291.88
465.195	2228.88
465.414	2274.88
465.634	2270.88
465.854	2113.88
466.073	2198.88
466.293	2179.88
466.512	1978.88
466.732	1958.88
466.951	2034.88
467.171	2032.88
467.391	1950.88
467.61	1902.88
467.829	1939.88
468.049	2070.88
468.268	2257.88
468.488	2130.88
468.707	2032.88
468.927	2038.88
469.146	1974.88
469.365	1906.88
469.585	1931.88
469.804	1954.88
470.023	1933.88
470.243	2007.88
470.462	1976.88
470.681	1906.88
470.901	1965.88
471.12	1998.88
471.339	1888.88
471.558	1866.88
471.777	1883.88
471.997	1889.88
472.216	1910.88
472.435	1881.88
472.654	1867.88
472.873	1968.88
473.092	2086.88
473.311	1970.88
473.53	1890.88
473.749	1862.88
473.968	1919.88
474.187	2023.88
474.406	2124.88
474.625	2010.88
474.844	1931.88
475.063	1995.88
475.282	2009.88
475.501	1958.88
475.72	1945.88
475.939	2048.88
476.158	2014.88
476.377	1959.88
476.596	1994.88
476.814	2022.88
477.033	1999.88
477.252	2145.88
477.471	2136.88
477.69	2108.88
477.908	2062.88
478.127	2198.88
478.346	2364.88
478.564	2322.88
478.783	2324.88
479.002	2413.88
479.22	2362.88
479.439	2426.88
479.658	2685.88
479.876	2709.88
480.095	2332.88
480.313	2289.88
480.532	2211.88
480.751	2223.88
480.969	2298.88
481.188	2195.88
481.406	2225.88
481.624	2134.88
481.843	2161.88
482.061	2257.88
482.28	2243.88
482.498	2288.88
482.717	2256.88
482.935	2167.88
483.153	2200.88
483.372	2172.88
483.59	2146.88
483.808	2154.88
484.027	2163.88
484.245	2373.88
484.463	2666.88
484.681	2942.88
484.9	2390.88
485.118	2283.88
485.336	2208.88
485.554	2263.88
485.772	2369.88
485.99	2364.88
486.209	2361.88
486.427	2350.88
486.645	2315.88
486.863	2313.88
487.081	2370.88
487.299	2398.88
487.517	2341.88
487.735	2271.88
487.953	2240.88
488.171	2297.88
488.389	2257.88
488.607	2256.88
488.825	2401.88
489.043	2442.88
489.261	2211.88
489.479	2382.88
489.696	2438.88
489.914	2409.88
490.132	2332.88
490.35	2291.88
490.568	2354.88
490.786	2321.88
491.003	2214.88
491.221	2249.88
491.439	2385.88
491.657	2366.88
491.874	2379.88
492.092	2426.88
492.31	2395.88
492.527	2407.88
492.745	2330.88
492.963	2347.88
493.18	2414.88
493.398	2573.88
493.615	2620.88
493.833	2452.88
494.05	2399.88
494.268	2419.88
494.485	2499.88
494.703	2444.88
494.92	2386.88
495.138	2334.88
495.355	2408.88
495.573	2483.88
495.79	2635.88
496.008	2688.88
496.225	2542.88
496.442	2472.88
496.66	2534.88
496.877	2503.88
497.094	2637.88
497.312	2673.88
497.529	2608.88
497.746	2644.88
497.963	3063.88
498.181	3412.88
498.398	3154.88
498.615	3135.88
498.832	3076.88
499.049	3023.88
499.267	3113.88
499.484	3280.88
499.701	3618.88
499.918	3689.88
500.135	3941.88
500.352	4282.88
500.569	4188.88
500.786	4386.88
501.003	4142.88
501.22	3816.88
501.437	3691.88
501.654	3538.88
501.871	3430.88
502.088	3096.88
502.305	3028.88
502.522	2996.88
502.739	2798.88
502.956	2731.88
503.172	2664.88
503.389	2547.88
503.606	2576.88
503.823	2540.88
504.04	2533.88
504.256	2584.88
504.473	2586.88
504.69	2670.88
504.907	2539.88
505.123	2354.88
505.34	2437.88
505.557	3054.88
505.773	2670.88
505.99	2298.88
506.207	2198.88
506.423	2153.88
506.64	2134.88
506.856	2188.88
507.073	2384.88
507.289	2523.88
507.506	2422.88
507.722	2166.88
507.939	2074.88
508.155	2110.88
508.372	2114.88
508.588	2048.88
508.805	2003.88
509.021	1951.88
509.238	1988.88
509.454	1941.88
509.67	1974.88
509.887	1966.88
510.103	1953.88
510.319	2008.88
510.536	2082.88
510.752	2079.88
510.968	2078.88
511.184	2211.88
511.401	2224.88
511.617	1950.88
511.833	1927.88
512.049	1916.88
512.265	1920.88
512.481	1909.88
512.698	1962.88
512.914	2132.88
513.13	2006.88
513.346	1924.88
513.562	1903.88
513.778	1913.88
513.994	2011.88
514.21	2054.88
514.426	2077.88
514.642	2278.88
514.858	2167.88
515.074	1981.88
515.29	1954.88
515.506	1992.88
515.721	2077.88
515.937	2051.88
516.153	2312.88
516.369	2206.88
516.585	2098.88
516.801	2015.88
517.016	2051.88
517.232	2102.88
517.448	2128.88
517.664	2136.88
517.879	2139.88
518.095	2249.88
518.311	2144.88
518.527	2050.88
518.742	2023.88
518.958	1952.88
519.173	1942.88
519.389	1985.88
519.605	1954.88
519.82	1962.88
520.036	1960.88
520.251	1930.88
520.467	1959.88
520.682	2080.88
520.898	2149.88
521.113	1957.88
521.329	1897.88
521.544	2038.88
521.76	1955.88
521.975	1872.88
522.19	1835.88
522.406	1848.88
522.621	2092.88
522.836	2158.88
523.052	1834.88
523.267	1821.88
523.482	1827.88
523.698	1769.88
523.913	1748.88
524.128	1769.88
524.343	1872.88
524.559	1868.88
524.774	1748.88
524.989	1750.88
525.204	1721.88
525.419	1723.88
525.634	1725.88
525.849	1739.88
526.064	1740.88
526.28	1759.88
526.495	1690.88
526.71	1702.88
526.925	1711.88
527.14	1730.88
527.355	1670.88
527.57	1683.88
527.785	1687.88
527.999	1708.88
528.214	1652.88
528.429	1636.88
528.644	1655.88
528.859	1654.88
529.074	1676.88
529.289	1694.88
529.503	1698.88
529.718	1723.88
529.933	1669.88
530.148	1597.88
530.363	1619.88
530.577	1664.88
530.792	1668.88
531.007	1701.88
531.221	1654.88
531.436	1698.88
531.651	1719.88
531.865	1814.88
532.08	1751.88
532.295	1649.88
532.509	1575.88
532.724	1573.88
532.938	1667.88
533.153	1790.88
533.367	1694.88
533.582	1664.88
533.796	1635.88
534.011	1678.88
534.225	1698.88
534.44	1683.88
534.654	1635.88
534.868	1609.88
535.083	1665.88
535.297	1667.88
535.511	1617.88
535.726	1662.88
535.94	1601.88
536.154	1632.88
536.369	1588.88
536.583	1547.88
536.797	1577.88
537.011	1611.88
537.225	1601.88
537.44	1535.88
537.654	1598.88
537.868	1561.88
538.082	1543.88
538.296	1487.88
538.51	1527.88
538.724	1510.88
538.938	1505.88
539.153	1565.88
539.367	1569.88
539.581	1546.88
539.795	1663.88
540.009	1584.88
540.222	1551.88
540.436	1573.88
540.65	1722.88
540.864	1740.88
541.078	1695.88
541.292	1558.88
541.506	1532.88
541.72	1596.88
541.934	1567.88
542.147	1630.88
542.361	1599.88
542.575	1516.88
542.789	1519.88
543.002	1476.88
543.216	1470.88
543.43	1558.88
543.644	1643.88
543.857	1695.88
544.071	1631.88
544.285	1612.88
544.498	1539.88
544.712	1532.88
544.925	1590.88
545.139	1618.88
545.352	1534.88
545.566	1504.88
545.779	1461.88
545.993	1517.88
546.206	1536.88
546.42	1486.88
546.633	1464.88
546.847	1464.88
547.06	1519.88
547.274	1510.88
547.487	1491.88
547.7	1455.88
547.914	1482.88
548.127	1509.88
548.34	1550.88
548.554	1565.88
548.767	1502.88
548.98	1475.88
549.193	1485.88
549.407	1533.88
549.62	1552.88
549.833	1497.88
550.046	1467.88
550.259	1460.88
550.473	1436.88
550.686	1470.88
550.899	1441.88
551.112	1434.88
551.325	1422.88
551.538	1530.88
551.751	1687.88
551.964	1424.88
552.177	1377.88
552.39	1436.88
552.603	1488.88
552.816	1474.88
553.029	1532.88
553.242	1581.88
553.455	1497.88
553.667	1487.88
553.88	1483.88
554.093	1461.88
554.306	1402.88
554.519	1390.88
554.732	1338.88
554.944	1370.88
555.157	1411.88
555.37	1404.88
555.583	1395.88
555.795	1359.88
556.008	1339.88
556.221	1323.88
556.433	1315.88
556.646	1282.88
556.859	1263.88
557.071	1289.88
557.284	1256.88
557.496	1282.88
557.709	1238.88
557.921	1232.88
558.134	1268.88
558.346	1260.88
558.559	1239.88
558.771	1233.88
558.984	1217.88
559.196	1180.88
559.409	1190.88
559.621	1224.88
559.833	1194.88
560.046	1241.88
560.258	1225.88
560.47	1242.88
560.683	1188.88
560.895	1193.88
561.107	1206.88
561.32	1200.88
561.532	1230.88
561.744	1208.88
561.956	1190.88
562.168	1190.88
562.381	1140.88
562.593	1171.88
562.805	1211.88
563.017	1193.88
563.229	1179.88
563.441	1226.88
563.653	1170.88
563.865	1208.88
564.077	1168.88
564.289	1185.88
564.501	1205.88
564.713	1237.88
564.925	1260.88
565.137	1328.88
565.349	1273.88
565.561	1264.88
565.773	1319.88
565.985	1303.88
566.197	1346.88
566.408	1434.88
566.62	1474.88
566.832	1489.88
567.044	1492.88
567.255	1464.88
567.467	1512.88
567.679	1519.88
567.891	1614.88
568.102	1567.88
568.314	1472.88
568.526	1430.88
568.737	1366.88
568.949	1291.88
569.161	1252.88
569.372	1192.88
569.584	1195.88
569.795	1170.88
570.007	1152.88
570.218	1126.88
570.43	1090.88
570.641	1081.88
570.853	1109.88
571.064	1082.88
571.276	1081.88
571.487	1108.88
571.698	1033.88
571.91	1038.88
572.121	1012.88
572.333	1009.88
572.544	978.88
572.755	966.88
572.966	969.88
573.178	960.88
573.389	943.88
573.6	993.88
573.811	1018.88
574.023	975.88
574.234	959.88
574.445	944.88
574.656	915.88
574.867	895.88
575.078	899.88
575.289	927.88
575.501	899.88
575.712	868.88
575.923	885.88
576.134	904.88
576.345	914.88
576.556	859.88
576.767	866.88
576.978	867.88
577.188	862.88
577.399	880.88
577.61	827.88
577.821	856.88
578.032	852.88
578.243	841.88
578.454	847.88
578.665	811.88
578.875	836.88
579.086	823.88
579.297	826.88
579.508	844.88
579.718	832.88
579.929	783.88
580.14	766.88
580.35	792.88
580.561	827.88
580.772	864.88
580.982	826.88
581.193	807.88
581.403	796.88
581.614	810.88
581.825	781.88
582.035	767.88
582.246	766.88
582.456	811.88
582.667	770.88
582.877	773.88
583.087	779.88
583.298	779.88
583.508	751.88
583.719	788.88
583.929	788.88
584.139	762.88
584.35	748.88
584.56	766.88
584.77	741.88
584.981	725.88
585.191	760.88
585.401	786.88
585.611	776.88
585.821	752.88
586.032	726.88
586.242	724.88
586.452	701.88
586.662	761.88
586.872	727.88
587.082	737.88
587.292	763.88
587.502	732.88
587.713	754.88
587.923	747.88
588.133	713.88
588.343	745.88
588.553	740.88
588.762	712.88
588.972	709.88
589.182	757.88
589.392	753.88
589.602	747.88
589.812	738.88
590.022	725.88
590.232	713.88
590.441	726.88
590.651	749.88
590.861	726.88
591.071	713.88
591.281	698.88
591.49	693.88
591.7	714.88
591.91	730.88
592.119	705.88
592.329	710.88
592.539	801.88
592.748	750.88
592.958	764.88
593.167	765.88
593.377	754.88
593.587	771.88
593.796	794.88
594.006	779.88
594.215	754.88
594.424	785.88
594.634	739.88
594.843	753.88
595.053	766.88
595.262	726.88
595.472	721.88
595.681	700.88
595.89	695.88
596.1	690.88
596.309	667.88
596.518	680.88
596.727	686.88
596.937	660.88
597.146	659.88
597.355	664.88
597.564	633.88
597.774	655.88
597.983	627.88
598.192	612.88
598.401	614.88
598.61	631.88
598.819	627.88
599.028	614.88
599.237	604.88
599.446	625.88
599.655	616.88
599.864	590.88
600.073	612.88
600.282	620.88
600.491	598.88
600.7	606.88
600.909	606.88
601.118	587.88
601.327	578.88
601.536	619.88
601.745	601.88
601.953	582.88
602.162	571.88
602.371	597.88
602.58	596.88
602.789	607.88
602.997	582.88
603.206	586.88
603.415	575.88
603.623	580.88
603.832	579.88
604.041	550.88
604.249	552.88
604.458	565.88
604.666	570.88
604.875	583.88
605.084	576.88
605.292	567.88
605.501	555.88
605.709	560.88
605.918	564.88
606.126	555.88
606.334	556.88
606.543	567.88
606.751	571.88
606.96	548.88
607.168	539.88
607.376	548.88
607.585	549.88
607.793	548.88
608.001	546.88
608.21	544.88
608.418	552.88
608.626	528.88
608.834	538.88
609.043	534.88
609.251	520.88
609.459	555.88
609.667	565.88
609.875	531.88
610.083	544.88
610.291	549.88
610.499	551.88
610.707	526.88
610.916	515.88
611.124	519.88
611.332	546.88
611.54	517.88
611.748	532.88
611.955	520.88
612.163	500.88
612.371	520.88
612.579	506.88
612.787	522.88
612.995	531.88
613.203	524.88
613.411	524.88
613.618	512.88
613.826	519.88
614.034	508.88
614.242	525.88
614.449	497.88
614.657	514.88
614.865	502.88
615.072	518.88
615.28	531.88
615.488	528.88
615.695	517.88
615.903	562.88
616.111	521.88
616.318	518.88
616.526	504.88
616.733	506.88
616.941	483.88
617.148	518.88
617.356	480.88
617.563	486.88
617.771	515.88
617.978	490.88
618.185	485.88
618.393	485.88
618.6	492.88
618.807	486.88
619.015	475.88
619.222	503.88
619.429	497.88
619.637	463.88
619.844	481.88
620.051	482.88
620.258	490.88
620.466	455.88
620.673	447.88
620.88	450.88
621.087	461.88
621.294	424.88
621.501	466.88
621.708	459.88
621.915	454.88
622.122	469.88
622.329	464.88
622.536	460.88
622.743	449.88
622.95	446.88
623.157	463.88
623.364	454.88
623.571	448.88
623.778	456.88
623.985	462.88
624.192	464.88
624.399	432.88
624.606	431.88
624.812	438.88
625.019	446.88
625.226	431.88
625.433	435.88
625.639	428.88
625.846	410.88
626.053	404.88
626.259	425.88
626.466	397.88
626.673	421.88
626.879	405.88
627.086	410.88
627.293	406.88
627.499	416.88
627.706	411.88
627.912	421.88
628.119	412.88
628.325	396.88
628.532	419.88
628.738	411.88
628.945	405.88
629.151	397.88
629.357	416.88
629.564	408.88
629.77	383.88
629.976	366.88
630.183	375.88
630.389	402.88
630.595	383.88
630.802	382.88
631.008	384.88
631.214	397.88
631.42	378.88
631.627	382.88
631.833	382.88
632.039	375.88
632.245	364.88
632.451	397.88
632.657	370.88
632.863	367.88
633.069	349.88
633.275	368.88
633.481	373.88
633.688	386.88
633.893	328.88
634.099	350.88
634.305	357.88
634.511	363.88
634.717	344.88
634.923	326.88
635.129	334.88
635.335	337.88
635.541	376.88
635.747	354.88
635.952	356.88
636.158	355.88
636.364	345.88
636.57	362.88
636.775	345.88
636.981	352.88
637.187	345.88
637.392	348.88
637.598	352.88
637.804	351.88
638.009	335.88
638.215	346.88
638.421	347.88
638.626	330.88
638.832	339.88
639.037	334.88
639.243	321.88
639.448	332.88
639.654	327.88
639.859	336.88
640.065	333.88
640.27	331.88
640.475	327.88
640.681	338.88
640.886	351.88
641.091	327.88
641.297	307.88
641.502	332.88
641.707	319.88
641.913	330.88
642.118	315.88
642.323	329.88
642.528	327.88
642.733	333.88
642.939	310.88
643.144	304.88
643.349	331.88
643.554	328.88
643.759	336.88
643.964	311.88
644.169	318.88
644.374	311.88
644.579	326.88
644.784	318.88
644.989	305.88
645.194	309.88
645.399	323.88
645.604	290.88
645.809	292.88
646.014	313.88
646.219	328.88
646.423	320.88
646.628	324.88
646.833	323.88
647.038	322.88
647.243	330.88
647.447	314.88
647.652	332.88
647.857	314.88
648.062	302.88
648.266	337.88
648.471	322.88
648.676	306.88
648.88	296.88
649.085	312.88
649.289	316.88
649.494	293.88
649.698	299.88
649.903	310.88
650.107	278.88
650.312	294.88
650.516	279.88
650.721	290.88
650.925	305.88
651.13	286.88
651.334	273.88
651.539	273.88
651.743	267.88
651.947	272.88
652.152	266.88
652.356	256.88
652.56	253.88
652.764	260.88
652.969	276.88
653.173	260.88
653.377	244.88
653.581	254.88
653.785	246.88
653.99	239.88
654.194	254.88
654.398	238.88
654.602	251.88
654.806	225.88
655.01	235.88
655.214	242.88
655.418	229.88
655.622	228.88
655.826	233.88
656.03	242.88
656.234	263.88
656.438	240.88
656.642	238.88
656.846	234.88
657.049	210.88
657.253	234.88
657.457	210.88
657.661	185.88
657.865	184.88
658.068	179.88
658.272	174.88
658.476	160.88
658.68	145.88
658.883	147.88
659.087	150.88
659.291	133.88
659.494	127.88
659.698	128.88
659.901	134.88
660.105	125.88
660.309	118.88
660.512	118.88
660.716	112.88
660.919	115.88
661.123	112.88
661.326	102.88
661.53	99.88
661.733	103.88
661.936	96.88
662.14	104.88
662.343	113.88
662.546	85.88
662.75	98.88
662.953	109.88
663.156	91.88
663.36	89.88
663.563	79.88
663.766	88.88
663.969	99.88
664.173	87.88
664.376	72.88
664.579	93.88
664.782	67.88
664.985	88.88
665.188	86.88
665.391	83.88
665.594	88.88
665.797	76.88
666	83.88
666.203	78.88
666.406	76.88
666.609	77.88
666.812	82.88
667.015	85.88
667.218	89.88
667.421	77.88
667.624	94.88
667.827	83.88
668.03	68.88
668.232	65.88
668.435	94.88
668.638	84.88
668.841	80.88
669.043	68.88
669.246	82.88
669.449	82.88
669.651	75.88
669.854	85.88
670.057	82.88
670.259	84.88
670.462	82.88
670.665	101.88
670.867	89.88
671.07	73.88
671.272	76.88
671.475	87.88
671.677	75.88
671.88	70.88
672.082	77.88
672.284	90.88
672.487	66.88
672.689	83.88
672.892	89.88
