Data from WStandard_LampEnergy10_LIBS07252019.E.O._I.C._HRD10591_15-52-45-928.txt Node
Date: Thu Jul 25 15:52:45 EDT 2019
User: cochatt
Spectrometer: HR+D1059
Trigger mode: 1
Integration Time (sec): 1.000000E-1
Scans to average: 1
Electric dark correction enabled: true
Nonlinearity correction enabled: false
Boxcar width: 0
XAxis mode: Wavelengths
Number of Pixels in Spectrum: 2048
>>>>>Begin Spectral Data<<<<<
223.165	-22.31
223.4	-22.31
223.635	-22.31
223.869	-13.31
224.104	-12.31
224.338	-18.31
224.573	-16.31
224.808	-21.31
225.042	-13.31
225.277	-1.31
225.511	-3.31
225.746	0.69
225.98	11.69
226.215	6.69
226.449	26.69
226.683	15.69
226.918	17.69
227.152	42.69
227.387	38.69
227.621	39.69
227.856	44.69
228.09	48.69
228.324	47.69
228.559	64.69
228.793	245.69
229.027	655.69
229.262	717.69
229.496	720.69
229.73	758.69
229.964	845.69
230.199	839.69
230.433	875.69
230.667	943.69
230.901	1007.69
231.136	906.69
231.37	868.69
231.604	867.69
231.838	884.69
232.072	879.69
232.306	867.69
232.541	898.69
232.775	1070.69
233.009	1150.69
233.243	1118.69
233.477	990.69
233.711	1044.69
233.945	1095.69
234.179	1040.69
234.413	1140.69
234.647	1215.69
234.881	1118.69
235.115	1071.69
235.349	1058.69
235.583	1107.69
235.817	1067.69
236.051	1037.69
236.285	1039.69
236.519	1145.69
236.753	1255.69
236.987	1324.69
237.221	1287.69
237.455	1478.69
237.689	1380.69
237.922	1321.69
238.156	1285.69
238.39	1306.69
238.624	1365.69
238.858	1437.69
239.091	1479.69
239.325	1568.69
239.559	1833.69
239.793	1881.69
240.027	2079.69
240.26	2046.69
240.494	1486.69
240.728	1386.69
240.961	1426.69
241.195	1431.69
241.429	1597.69
241.662	1623.69
241.896	1478.69
242.13	1512.69
242.363	1675.69
242.597	1824.69
242.83	1726.69
243.064	1802.69
243.298	1913.69
243.531	1853.69
243.765	1828.69
243.998	1808.69
244.232	1607.69
244.465	1528.69
244.699	1557.69
244.932	1834.69
245.166	2093.69
245.399	1988.69
245.633	1772.69
245.866	1779.69
246.099	1878.69
246.333	1874.69
246.566	1918.69
246.8	2056.69
247.033	2315.69
247.266	2145.69
247.5	2094.69
247.733	2061.69
247.966	2268.69
248.2	2500.69
248.433	2422.69
248.666	2483.69
248.899	2707.69
249.133	3140.69
249.366	3485.69
249.599	2852.69
249.832	2551.69
250.066	2524.69
250.299	2626.69
250.532	2440.69
250.765	2172.69
250.998	2335.69
251.231	2424.69
251.465	2486.69
251.698	2410.69
251.931	2370.69
252.164	2450.69
252.397	2546.69
252.63	2501.69
252.863	2194.69
253.096	2210.69
253.329	2311.69
253.562	2449.69
253.795	2599.69
254.028	2585.69
254.261	2370.69
254.494	2396.69
254.727	2204.69
254.96	2368.69
255.193	2569.69
255.426	2882.69
255.659	3283.69
255.892	3391.69
256.124	2786.69
256.357	2667.69
256.59	2867.69
256.823	2892.69
257.056	2962.69
257.289	3466.69
257.521	3928.69
257.754	3458.69
257.987	3230.69
258.22	3664.69
258.452	3546.69
258.685	2854.69
258.918	2848.69
259.151	2812.69
259.383	2684.69
259.616	2383.69
259.849	2519.69
260.081	2860.69
260.314	3195.69
260.547	3510.69
260.779	3509.69
261.012	3271.69
261.244	2883.69
261.477	2828.69
261.71	2875.69
261.942	2882.69
262.175	2878.69
262.407	3002.69
262.64	2832.69
262.872	2692.69
263.105	2515.69
263.337	2593.69
263.57	2594.69
263.802	2621.69
264.035	2514.69
264.267	2375.69
264.499	2336.69
264.732	2455.69
264.964	2710.69
265.197	2802.69
265.429	2898.69
265.661	3254.69
265.894	3574.69
266.126	3731.69
266.358	3280.69
266.591	3401.69
266.823	3652.69
267.055	3316.69
267.287	3293.69
267.52	3218.69
267.752	3194.69
267.984	3227.69
268.216	3406.69
268.448	3460.69
268.681	3372.69
268.913	3128.69
269.145	2923.69
269.377	2889.69
269.609	3157.69
269.841	3662.69
270.073	4267.69
270.306	4719.69
270.538	5014.69
270.77	4135.69
271.002	3583.69
271.234	3386.69
271.466	3386.69
271.698	3844.69
271.93	4575.69
272.162	4583.69
272.394	4091.69
272.626	3919.69
272.858	3487.69
273.09	3028.69
273.322	2979.69
273.553	2863.69
273.785	2882.69
274.017	3039.69
274.249	3224.69
274.481	3300.69
274.713	2997.69
274.945	2899.69
275.176	2973.69
275.408	2911.69
275.64	2848.69
275.872	2807.69
276.104	3047.69
276.335	3494.69
276.567	3910.69
276.799	3942.69
277.031	3555.69
277.262	3333.69
277.494	3464.69
277.726	3930.69
277.957	3858.69
278.189	3439.69
278.421	3147.69
278.652	3085.69
278.884	3066.69
279.115	3094.69
279.347	3140.69
279.579	3078.69
279.81	3062.69
280.042	3362.69
280.273	3727.69
280.505	3706.69
280.736	3711.69
280.968	3592.69
281.199	3118.69
281.431	3014.69
281.662	2998.69
281.894	3013.69
282.125	3125.69
282.356	3218.69
282.588	3332.69
282.819	3241.69
283.051	3478.69
283.282	3759.69
283.513	3607.69
283.745	3122.69
283.976	2958.69
284.207	3007.69
284.439	3061.69
284.67	3137.69
284.901	3180.69
285.132	3246.69
285.364	3209.69
285.595	3251.69
285.826	3164.69
286.057	3177.69
286.288	3136.69
286.52	3298.69
286.751	3579.69
286.982	3642.69
287.213	3326.69
287.444	3008.69
287.675	3017.69
287.906	3217.69
288.138	3422.69
288.369	3351.69
288.6	3166.69
288.831	3074.69
289.062	3069.69
289.293	3170.69
289.524	3219.69
289.755	3290.69
289.986	3277.69
290.217	3037.69
290.448	3099.69
290.679	3230.69
290.91	3216.69
291.141	3304.69
291.371	3428.69
291.602	3361.69
291.833	3383.69
292.064	3468.69
292.295	3432.69
292.526	3516.69
292.757	3640.69
292.987	3491.69
293.218	3268.69
293.449	3558.69
293.68	4128.69
293.91	4304.69
294.141	3995.69
294.372	3790.69
294.603	3866.69
294.833	4014.69
295.064	3844.69
295.295	3470.69
295.525	3340.69
295.756	3122.69
295.987	2980.69
296.217	3094.69
296.448	3099.69
296.679	3171.69
296.909	3204.69
297.14	3134.69
297.37	3246.69
297.601	3439.69
297.831	3664.69
298.062	3636.69
298.292	3354.69
298.523	3196.69
298.753	3241.69
298.984	3268.69
299.214	3230.69
299.445	3269.69
299.675	3420.69
299.905	3417.69
300.136	3278.69
300.366	3259.69
300.597	3101.69
300.827	3130.69
301.057	3286.69
301.288	3462.69
301.518	3454.69
301.748	3546.69
301.979	3710.69
302.209	3756.69
302.439	4064.69
302.669	4210.69
302.9	3896.69
303.13	3474.69
303.36	3482.69
303.59	3554.69
303.82	3505.69
304.051	3513.69
304.281	3517.69
304.511	3492.69
304.741	3706.69
304.971	4116.69
305.201	4493.69
305.431	4073.69
305.661	3386.69
305.891	3057.69
306.121	3039.69
306.352	3269.69
306.582	3408.69
306.812	3644.69
307.042	3869.69
307.272	3925.69
307.502	4030.69
307.731	4317.69
307.961	4600.69
308.191	4267.69
308.421	3644.69
308.651	3410.69
308.881	3360.69
309.111	3371.69
309.341	3303.69
309.571	3354.69
309.8	3354.69
310.03	3344.69
310.26	3283.69
310.49	3303.69
310.72	3385.69
310.949	3513.69
311.179	3627.69
311.409	3523.69
311.639	3406.69
311.868	3354.69
312.098	3419.69
312.328	3396.69
312.557	3374.69
312.787	3464.69
313.017	3489.69
313.246	3518.69
313.476	3515.69
313.706	3649.69
313.935	3572.69
314.165	3647.69
314.394	3697.69
314.624	3945.69
314.853	4147.69
315.083	4271.69
315.312	4406.69
315.542	4121.69
315.771	3636.69
316.001	3666.69
316.23	3890.69
316.46	3871.69
316.689	3778.69
316.919	3570.69
317.148	3468.69
317.377	3425.69
317.607	3790.69
317.836	4298.69
318.065	4415.69
318.295	4152.69
318.524	3998.69
318.753	3854.69
318.983	3802.69
319.212	3768.69
319.441	3709.69
319.67	3641.69
319.9	3760.69
320.129	3934.69
320.358	4136.69
320.587	4207.69
320.816	4127.69
321.046	3983.69
321.275	3849.69
321.504	3899.69
321.733	4207.69
321.962	4074.69
322.191	3714.69
322.42	3788.69
322.649	3660.69
322.878	3690.69
323.108	3725.69
323.337	3878.69
323.566	3843.69
323.795	3850.69
324.024	3858.69
324.253	3785.69
324.482	3872.69
324.71	3688.69
324.939	3507.69
325.168	3563.69
325.397	3707.69
325.626	3825.69
325.855	3882.69
326.084	3709.69
326.313	3709.69
326.542	3819.69
326.77	3911.69
326.999	3921.69
327.228	3744.69
327.457	3516.69
327.686	3542.69
327.914	3616.69
328.143	3742.69
328.372	3650.69
328.6	3714.69
328.829	3698.69
329.058	3575.69
329.287	3600.69
329.515	3826.69
329.744	3828.69
329.972	3935.69
330.201	4180.69
330.43	4063.69
330.658	3944.69
330.887	3966.69
331.115	3916.69
331.344	4044.69
331.572	3885.69
331.801	3868.69
332.03	3939.69
332.258	3975.69
332.486	3998.69
332.715	4004.69
332.943	4003.69
333.172	3909.69
333.4	3999.69
333.629	4112.69
333.857	4327.69
334.085	4782.69
334.314	5399.69
334.542	5846.69
334.771	5338.69
334.999	4743.69
335.227	4436.69
335.455	4218.69
335.684	4250.69
335.912	4284.69
336.14	4436.69
336.369	4319.69
336.597	4039.69
336.825	4027.69
337.053	4133.69
337.281	4366.69
337.51	4459.69
337.738	4668.69
337.966	4530.69
338.194	4055.69
338.422	3899.69
338.65	3856.69
338.878	3854.69
339.106	3789.69
339.334	3741.69
339.562	3688.69
339.79	3732.69
340.018	3997.69
340.246	4172.69
340.474	4196.69
340.702	4065.69
340.93	4076.69
341.158	4001.69
341.386	3867.69
341.614	3946.69
341.842	3862.69
342.07	3868.69
342.298	3926.69
342.526	3914.69
342.754	3800.69
342.981	3781.69
343.209	3810.69
343.437	3814.69
343.665	3862.69
343.893	3998.69
344.12	4167.69
344.348	4195.69
344.576	4070.69
344.804	3891.69
345.031	3804.69
345.259	3884.69
345.487	3718.69
345.714	3621.69
345.942	3498.69
346.17	3523.69
346.397	3652.69
346.625	3693.69
346.853	3502.69
347.08	3406.69
347.308	3480.69
347.535	3562.69
347.763	3742.69
347.99	3573.69
348.218	3476.69
348.445	3535.69
348.673	3542.69
348.9	3680.69
349.128	3828.69
349.355	3934.69
349.583	3877.69
349.81	3590.69
350.037	3361.69
350.265	3342.69
350.492	3350.69
350.72	3455.69
350.947	3551.69
351.174	3701.69
351.402	3473.69
351.629	3322.69
351.856	3303.69
352.083	3276.69
352.311	3260.69
352.538	3436.69
352.765	3558.69
352.992	3670.69
353.22	3576.69
353.447	3420.69
353.674	3425.69
353.901	3566.69
354.128	3468.69
354.355	3459.69
354.583	3590.69
354.81	3634.69
355.037	3670.69
355.264	3593.69
355.491	3588.69
355.718	3558.69
355.945	3562.69
356.172	3451.69
356.399	3392.69
356.626	3366.69
356.853	3520.69
357.08	3879.69
357.307	4208.69
357.534	4152.69
357.761	3663.69
357.988	3405.69
358.215	3326.69
358.441	3384.69
358.668	3371.69
358.895	3407.69
359.122	3617.69
359.349	3970.69
359.576	3944.69
359.802	3553.69
360.029	3362.69
360.256	3339.69
360.483	3421.69
360.709	3571.69
360.936	3643.69
361.163	3807.69
361.39	4206.69
361.616	4555.69
361.843	4340.69
362.07	4020.69
362.296	3546.69
362.523	3495.69
362.749	3464.69
362.976	3548.69
363.203	3618.69
363.429	3484.69
363.656	3418.69
363.882	3571.69
364.109	3898.69
364.335	4228.69
364.562	3906.69
364.788	3748.69
365.015	3570.69
365.241	3414.69
365.468	3538.69
365.694	3707.69
365.92	3884.69
366.147	3678.69
366.373	3444.69
366.599	3411.69
366.826	3362.69
367.052	3476.69
367.278	3454.69
367.505	3563.69
367.731	3608.69
367.957	3604.69
368.184	3685.69
368.41	3923.69
368.636	3998.69
368.862	3910.69
369.089	3980.69
369.315	3884.69
369.541	3730.69
369.767	3601.69
369.993	3536.69
370.219	3502.69
370.445	3623.69
370.672	3862.69
370.898	3965.69
371.124	3926.69
371.35	3706.69
371.576	3880.69
371.802	3940.69
372.028	3836.69
372.254	3661.69
372.48	3572.69
372.706	3478.69
372.932	3532.69
373.158	3610.69
373.384	3621.69
373.61	3815.69
373.835	3964.69
374.061	3742.69
374.287	3710.69
374.513	3721.69
374.739	3783.69
374.965	3798.69
375.191	3780.69
375.416	3818.69
375.642	3838.69
375.868	4018.69
376.094	4143.69
376.319	3874.69
376.545	3668.69
376.771	3766.69
376.997	3962.69
377.222	3907.69
377.448	3800.69
377.674	3913.69
377.899	3872.69
378.125	4034.69
378.35	4090.69
378.576	3734.69
378.802	3591.69
379.027	3588.69
379.253	3596.69
379.478	3668.69
379.704	3659.69
379.929	3669.69
380.155	3671.69
380.38	3774.69
380.606	3750.69
380.831	3731.69
381.057	3911.69
381.282	3960.69
381.507	3821.69
381.733	4116.69
381.958	4268.69
382.184	3875.69
382.409	3823.69
382.634	3880.69
382.86	3835.69
383.085	3868.69
383.31	3938.69
383.535	4271.69
383.761	4496.69
383.986	4316.69
384.211	4180.69
384.436	4108.69
384.662	4339.69
384.887	4514.69
385.112	4262.69
385.337	4359.69
385.562	4286.69
385.787	4296.69
386.013	4357.69
386.238	4322.69
386.463	4276.69
386.688	4589.69
386.913	4833.69
387.138	4686.69
387.363	4341.69
387.588	4364.69
387.813	4302.69
388.038	4366.69
388.263	4538.69
388.488	4358.69
388.713	4054.69
388.938	4064.69
389.163	4132.69
389.387	4136.69
389.612	4161.69
389.837	4243.69
390.062	4274.69
390.287	4250.69
390.512	4186.69
390.736	4132.69
390.961	4084.69
391.186	4028.69
391.411	4098.69
391.636	4224.69
391.86	4212.69
392.085	4230.69
392.31	4213.69
392.534	4216.69
392.759	4240.69
392.984	4212.69
393.208	4270.69
393.433	4416.69
393.658	4556.69
393.882	4534.69
394.107	4336.69
394.331	4246.69
394.556	4151.69
394.78	4266.69
395.005	4393.69
395.229	4512.69
395.454	4832.69
395.678	4949.69
395.903	4674.69
396.127	4442.69
396.352	4530.69
396.576	4639.69
396.801	4685.69
397.025	4603.69
397.249	4618.69
397.474	4475.69
397.698	4527.69
397.922	4698.69
398.147	4901.69
398.371	5068.69
398.595	5028.69
398.82	4879.69
399.044	4972.69
399.268	5137.69
399.492	5501.69
399.717	5626.69
399.941	5775.69
400.165	5618.69
400.389	5374.69
400.613	5389.69
400.837	5882.69
401.062	6668.69
401.286	5775.69
401.51	5294.69
401.734	5531.69
401.958	5308.69
402.182	4966.69
402.406	4820.69
402.63	4776.69
402.854	4803.69
403.078	4862.69
403.302	4971.69
403.526	5018.69
403.75	5031.69
403.974	5076.69
404.198	5035.69
404.422	5183.69
404.645	5384.69
404.869	5294.69
405.093	4918.69
405.317	4854.69
405.541	5047.69
405.765	5087.69
405.988	5033.69
406.212	5192.69
406.436	5165.69
406.66	5383.69
406.883	5408.69
407.107	6014.69
407.331	6581.69
407.555	7130.69
407.778	6490.69
408.002	5416.69
408.226	5246.69
408.449	5330.69
408.673	5150.69
408.896	5116.69
409.12	5229.69
409.344	5112.69
409.567	4932.69
409.791	5029.69
410.014	5156.69
410.238	5344.69
410.461	5626.69
410.685	5133.69
410.908	4905.69
411.132	5052.69
411.355	5010.69
411.578	4844.69
411.802	4953.69
412.025	5050.69
412.249	4943.69
412.472	4810.69
412.695	4790.69
412.919	4776.69
413.142	4731.69
413.365	4781.69
413.589	4917.69
413.812	5077.69
414.035	5251.69
414.258	4907.69
414.482	4788.69
414.705	4842.69
414.928	4782.69
415.151	4733.69
415.374	4745.69
415.597	4881.69
415.821	4884.69
416.044	5049.69
416.267	5065.69
416.49	4663.69
416.713	4623.69
416.936	4745.69
417.159	4945.69
417.382	4969.69
417.605	4756.69
417.828	4872.69
418.051	4944.69
418.274	4808.69
418.497	4611.69
418.72	4660.69
418.943	4682.69
419.166	4876.69
419.389	5073.69
419.611	4894.69
419.834	4741.69
420.057	4818.69
420.28	4705.69
420.503	4615.69
420.726	4692.69
420.948	4695.69
421.171	4549.69
421.394	4689.69
421.617	4827.69
421.839	4822.69
422.062	4726.69
422.285	4531.69
422.507	4599.69
422.73	4476.69
422.953	4424.69
423.175	4470.69
423.398	4640.69
423.621	4604.69
423.843	4656.69
424.066	4714.69
424.288	4911.69
424.511	4957.69
424.733	4866.69
424.956	4426.69
425.178	4462.69
425.401	4530.69
425.623	4554.69
425.846	4550.69
426.068	4752.69
426.291	4814.69
426.513	4711.69
426.735	4716.69
426.958	5076.69
427.18	5247.69
427.402	4797.69
427.625	4954.69
427.847	5001.69
428.069	4678.69
428.292	4549.69
428.514	4428.69
428.736	4398.69
428.958	4462.69
429.181	4603.69
429.403	5051.69
429.625	6176.69
429.847	5352.69
430.069	4679.69
430.292	5023.69
430.514	5192.69
430.736	4802.69
430.958	5016.69
431.18	4816.69
431.402	4536.69
431.624	4390.69
431.846	4429.69
432.068	4319.69
432.29	4388.69
432.512	4456.69
432.734	4588.69
432.956	4649.69
433.178	4828.69
433.4	4774.69
433.622	4797.69
433.844	4544.69
434.066	4393.69
434.287	4358.69
434.509	4582.69
434.731	4815.69
434.953	5116.69
435.175	4966.69
435.397	4786.69
435.618	4695.69
435.84	4724.69
436.062	4566.69
436.284	4588.69
436.505	4684.69
436.727	4755.69
436.949	4578.69
437.17	4470.69
437.392	4464.69
437.614	4397.69
437.835	4359.69
438.057	4576.69
438.278	4760.69
438.5	4517.69
438.721	4459.69
438.943	4498.69
439.165	4427.69
439.386	4381.69
439.608	4402.69
439.829	4484.69
440.05	4485.69
440.272	4390.69
440.493	4371.69
440.715	4564.69
440.936	4755.69
441.158	5179.69
441.379	5085.69
441.6	4994.69
441.822	4917.69
442.043	4804.69
442.264	4690.69
442.486	4466.69
442.707	4479.69
442.928	4477.69
443.149	4595.69
443.371	4916.69
443.592	5002.69
443.813	4928.69
444.034	4888.69
444.255	4887.69
444.476	5032.69
444.698	5078.69
444.919	5034.69
445.14	5091.69
445.361	5103.69
445.582	5318.69
445.803	5081.69
446.024	4927.69
446.245	5085.69
446.466	4947.69
446.687	4686.69
446.908	4722.69
447.129	4500.69
447.35	4643.69
447.571	4515.69
447.792	4372.69
448.013	4374.69
448.234	4439.69
448.455	4649.69
448.675	4646.69
448.896	4298.69
449.117	4233.69
449.338	4327.69
449.559	4555.69
449.779	4834.69
450	5176.69
450.221	5560.69
450.442	5329.69
450.662	4706.69
450.883	4217.69
451.104	4135.69
451.324	4335.69
451.545	4412.69
451.766	4323.69
451.986	4106.69
452.207	4080.69
452.428	3960.69
452.648	3917.69
452.869	4061.69
453.089	4291.69
453.31	4300.69
453.53	4369.69
453.751	4232.69
453.971	3976.69
454.192	4098.69
454.412	4390.69
454.633	4190.69
454.853	4096.69
455.073	3820.69
455.294	3815.69
455.514	3913.69
455.734	3888.69
455.955	4003.69
456.175	3935.69
456.395	3962.69
456.616	3970.69
456.836	4078.69
457.056	4003.69
457.276	4050.69
457.497	3872.69
457.717	3774.69
457.937	3861.69
458.157	3963.69
458.377	3874.69
458.598	3892.69
458.818	3926.69
459.038	4223.69
459.258	4435.69
459.478	4397.69
459.698	4337.69
459.918	4380.69
460.138	4626.69
460.358	4686.69
460.578	4675.69
460.798	4872.69
461.018	5102.69
461.238	4890.69
461.458	4716.69
461.678	4763.69
461.898	4638.69
462.118	4500.69
462.338	4711.69
462.558	4744.69
462.777	4715.69
462.997	4940.69
463.217	5220.69
463.437	5150.69
463.657	4848.69
463.876	4708.69
464.096	4734.69
464.316	4819.69
464.536	4967.69
464.755	4943.69
464.975	4911.69
465.195	4779.69
465.414	4970.69
465.634	4951.69
465.854	4740.69
466.073	4978.69
466.293	4896.69
466.512	4360.69
466.732	4307.69
466.951	4538.69
467.171	4478.69
467.391	4293.69
467.61	4250.69
467.829	4330.69
468.049	4654.69
468.268	5100.69
468.488	4772.69
468.707	4541.69
468.927	4476.69
469.146	4361.69
469.365	4212.69
469.585	4290.69
469.804	4300.69
470.023	4367.69
470.243	4484.69
470.462	4410.69
470.681	4280.69
470.901	4423.69
471.12	4390.69
471.339	4362.69
471.558	4229.69
471.777	4259.69
471.997	4336.69
472.216	4283.69
472.435	4095.69
472.654	4209.69
472.873	4390.69
473.092	4629.69
473.311	4362.69
473.53	4120.69
473.749	4147.69
473.968	4303.69
474.187	4478.69
474.406	4673.69
474.625	4447.69
474.844	4415.69
475.063	4388.69
475.282	4524.69
475.501	4367.69
475.72	4386.69
475.939	4658.69
476.158	4474.69
476.377	4445.69
476.596	4448.69
476.814	4514.69
477.033	4581.69
477.252	4711.69
477.471	4795.69
477.69	4626.69
477.908	4632.69
478.127	4858.69
478.346	5260.69
478.564	5189.69
478.783	5167.69
479.002	5335.69
479.22	5155.69
479.439	5383.69
479.658	6044.69
479.876	5934.69
480.095	5142.69
480.313	5012.69
480.532	4887.69
480.751	4820.69
480.969	4978.69
481.188	4898.69
481.406	4807.69
481.624	4686.69
481.843	4770.69
482.061	4907.69
482.28	5003.69
482.498	5058.69
482.717	4939.69
482.935	4771.69
483.153	4822.69
483.372	4898.69
483.59	4794.69
483.808	4820.69
484.027	4964.69
484.245	5287.69
484.463	6077.69
484.681	6839.69
484.9	5323.69
485.118	4968.69
485.336	4857.69
485.554	5003.69
485.772	5314.69
485.99	5175.69
486.209	5243.69
486.427	5156.69
486.645	5190.69
486.863	5163.69
487.081	5286.69
487.299	5436.69
487.517	5325.69
487.735	5093.69
487.953	5055.69
488.171	5085.69
488.389	5069.69
488.607	5055.69
488.825	5572.69
489.043	5578.69
489.261	4996.69
489.479	5295.69
489.696	5436.69
489.914	5430.69
490.132	5151.69
490.35	5133.69
490.568	5379.69
490.786	5248.69
491.003	5006.69
491.221	5183.69
491.439	5413.69
491.657	5308.69
491.874	5428.69
492.092	5411.69
492.31	5458.69
492.527	5397.69
492.745	5349.69
492.963	5269.69
493.18	5491.69
493.398	5848.69
493.615	5994.69
493.833	5520.69
494.05	5330.69
494.268	5419.69
494.485	5472.69
494.703	5400.69
494.92	5275.69
495.138	5282.69
495.355	5395.69
495.573	5610.69
495.79	6003.69
496.008	5928.69
496.225	5579.69
496.442	5598.69
496.66	5643.69
496.877	5686.69
497.094	5827.69
497.312	5865.69
497.529	5711.69
497.746	5969.69
497.963	6932.69
498.181	7540.69
498.398	7125.69
498.615	6918.69
498.832	6719.69
499.049	6700.69
499.267	6723.69
499.484	7208.69
499.701	7759.69
499.918	7803.69
500.135	8406.69
500.352	9036.69
500.569	8890.69
500.786	9422.69
501.003	8855.69
501.22	7984.69
501.437	7917.69
501.654	7828.69
501.871	7510.69
502.088	6672.69
502.305	6767.69
502.522	6483.69
502.739	5919.69
502.956	5744.69
503.172	5821.69
503.389	5693.69
503.606	5525.69
503.823	5577.69
504.04	5544.69
504.256	5510.69
504.473	5562.69
504.69	5821.69
504.907	5398.69
505.123	5181.69
505.34	5458.69
505.557	6902.69
505.773	5967.69
505.99	5061.69
506.207	4768.69
506.423	4795.69
506.64	4705.69
506.856	4762.69
507.073	5346.69
507.289	5690.69
507.506	5524.69
507.722	4813.69
507.939	4568.69
508.155	4530.69
508.372	4689.69
508.588	4451.69
508.805	4338.69
509.021	4262.69
509.238	4241.69
509.454	4292.69
509.67	4322.69
509.887	4196.69
510.103	4269.69
510.319	4261.69
510.536	4517.69
510.752	4600.69
510.968	4528.69
511.184	4908.69
511.401	4809.69
511.617	4239.69
511.833	4132.69
512.049	4128.69
512.265	4093.69
512.481	4196.69
512.698	4280.69
512.914	4580.69
513.13	4357.69
513.346	4158.69
513.562	4095.69
513.778	4213.69
513.994	4400.69
514.21	4525.69
514.426	4558.69
514.642	5000.69
514.858	4775.69
515.074	4340.69
515.29	4192.69
515.506	4378.69
515.721	4413.69
515.937	4420.69
516.153	5020.69
516.369	4811.69
516.585	4555.69
516.801	4310.69
517.016	4380.69
517.232	4439.69
517.448	4534.69
517.664	4662.69
517.879	4621.69
518.095	4860.69
518.311	4713.69
518.527	4414.69
518.742	4339.69
518.958	4253.69
519.173	4231.69
519.389	4268.69
519.605	4352.69
519.82	4300.69
520.036	4400.69
520.251	4233.69
520.467	4241.69
520.682	4571.69
520.898	4816.69
521.113	4203.69
521.329	4126.69
521.544	4396.69
521.76	4255.69
521.975	4052.69
522.19	3996.69
522.406	4016.69
522.621	4799.69
522.836	4751.69
523.052	3952.69
523.267	4050.69
523.482	4010.69
523.698	3800.69
523.913	3756.69
524.128	3930.69
524.343	4121.69
524.559	4127.69
524.774	3929.69
524.989	3819.69
525.204	3813.69
525.419	3771.69
525.634	3783.69
525.849	3864.69
526.064	3777.69
526.28	3792.69
526.495	3715.69
526.71	3693.69
526.925	3596.69
527.14	3561.69
527.355	3606.69
527.57	3602.69
527.785	3735.69
527.999	3599.69
528.214	3602.69
528.429	3494.69
528.644	3553.69
528.859	3663.69
529.074	3627.69
529.289	3658.69
529.503	3771.69
529.718	3684.69
529.933	3615.69
530.148	3503.69
530.363	3547.69
530.577	3511.69
530.792	3631.69
531.007	3654.69
531.221	3544.69
531.436	3690.69
531.651	3796.69
531.865	3907.69
532.08	3728.69
532.295	3480.69
532.509	3370.69
532.724	3470.69
532.938	3617.69
533.153	3887.69
533.367	3760.69
533.582	3653.69
533.796	3562.69
534.011	3626.69
534.225	3621.69
534.44	3524.69
534.654	3537.69
534.868	3486.69
535.083	3646.69
535.297	3647.69
535.511	3546.69
535.726	3565.69
535.94	3529.69
536.154	3490.69
536.369	3429.69
536.583	3382.69
536.797	3371.69
537.011	3494.69
537.225	3420.69
537.44	3303.69
537.654	3497.69
537.868	3406.69
538.082	3210.69
538.296	3217.69
538.51	3277.69
538.724	3304.69
538.938	3284.69
539.153	3430.69
539.367	3440.69
539.581	3388.69
539.795	3571.69
540.009	3498.69
540.222	3410.69
540.436	3486.69
540.65	3754.69
540.864	3797.69
541.078	3637.69
541.292	3424.69
541.506	3506.69
541.72	3494.69
541.934	3494.69
542.147	3664.69
542.361	3506.69
542.575	3380.69
542.789	3322.69
543.002	3195.69
543.216	3255.69
543.43	3496.69
543.644	3576.69
543.857	3700.69
544.071	3601.69
544.285	3512.69
544.498	3431.69
544.712	3452.69
544.925	3542.69
545.139	3601.69
545.352	3373.69
545.566	3295.69
545.779	3289.69
545.993	3366.69
546.206	3417.69
546.42	3310.69
546.633	3219.69
546.847	3269.69
547.06	3316.69
547.274	3312.69
547.487	3301.69
547.7	3298.69
547.914	3287.69
548.127	3372.69
548.34	3399.69
548.554	3391.69
548.767	3351.69
548.98	3333.69
549.193	3276.69
549.407	3498.69
549.62	3503.69
549.833	3362.69
550.046	3290.69
550.259	3285.69
550.473	3192.69
550.686	3250.69
550.899	3165.69
551.112	3108.69
551.325	3076.69
551.538	3290.69
551.751	3693.69
551.964	3052.69
552.177	3096.69
552.39	3103.69
552.603	3179.69
552.816	3214.69
553.029	3342.69
553.242	3475.69
553.455	3280.69
553.667	3248.69
553.88	3235.69
554.093	3204.69
554.306	3114.69
554.519	3107.69
554.732	2939.69
554.944	3031.69
555.157	3092.69
555.37	2994.69
555.583	2998.69
555.795	2956.69
556.008	2866.69
556.221	2775.69
556.433	2784.69
556.646	2766.69
556.859	2808.69
557.071	2728.69
557.284	2725.69
557.496	2762.69
557.709	2631.69
557.921	2698.69
558.134	2652.69
558.346	2667.69
558.559	2637.69
558.771	2670.69
558.984	2595.69
559.196	2532.69
559.409	2560.69
559.621	2574.69
559.833	2618.69
560.046	2664.69
560.258	2649.69
560.47	2577.69
560.683	2547.69
560.895	2548.69
561.107	2615.69
561.32	2610.69
561.532	2629.69
561.744	2556.69
561.956	2597.69
562.168	2522.69
562.381	2514.69
562.593	2488.69
562.805	2549.69
563.017	2496.69
563.229	2548.69
563.441	2618.69
563.653	2488.69
563.865	2576.69
564.077	2514.69
564.289	2516.69
564.501	2564.69
564.713	2611.69
564.925	2684.69
565.137	2872.69
565.349	2631.69
565.561	2638.69
565.773	2690.69
565.985	2727.69
566.197	2878.69
566.408	3087.69
566.62	3056.69
566.832	3080.69
567.044	3102.69
567.255	3037.69
567.467	3051.69
567.679	3194.69
567.891	3202.69
568.102	3166.69
568.314	3032.69
568.526	2883.69
568.737	2752.69
568.949	2582.69
569.161	2523.69
569.372	2468.69
569.584	2390.69
569.795	2408.69
570.007	2363.69
570.218	2222.69
570.43	2192.69
570.641	2261.69
570.853	2233.69
571.064	2259.69
571.276	2182.69
571.487	2158.69
571.698	2108.69
571.91	2119.69
572.121	2070.69
572.333	2038.69
572.544	2018.69
572.755	1932.69
572.966	1962.69
573.178	1938.69
573.389	1967.69
573.6	2042.69
573.811	2167.69
574.023	2020.69
574.234	1986.69
574.445	1918.69
574.656	1882.69
574.867	1804.69
575.078	1882.69
575.289	1884.69
575.501	1863.69
575.712	1838.69
575.923	1852.69
576.134	1871.69
576.345	1805.69
576.556	1807.69
576.767	1762.69
576.978	1751.69
577.188	1727.69
577.399	1714.69
577.61	1701.69
577.821	1724.69
578.032	1690.69
578.243	1682.69
578.454	1701.69
578.665	1666.69
578.875	1647.69
579.086	1637.69
579.297	1672.69
579.508	1724.69
579.718	1678.69
579.929	1622.69
580.14	1586.69
580.35	1584.69
580.561	1638.69
580.772	1801.69
580.982	1655.69
581.193	1643.69
581.403	1597.69
581.614	1607.69
581.825	1596.69
582.035	1576.69
582.246	1539.69
582.456	1572.69
582.667	1597.69
582.877	1534.69
583.087	1534.69
583.298	1542.69
583.508	1530.69
583.719	1519.69
583.929	1551.69
584.139	1542.69
584.35	1508.69
584.56	1494.69
584.77	1528.69
584.981	1530.69
585.191	1539.69
585.401	1568.69
585.611	1516.69
585.821	1518.69
586.032	1479.69
586.242	1459.69
586.452	1443.69
586.662	1480.69
586.872	1463.69
587.082	1488.69
587.292	1555.69
587.502	1550.69
587.713	1531.69
587.923	1460.69
588.133	1482.69
588.343	1499.69
588.553	1461.69
588.762	1444.69
588.972	1432.69
589.182	1502.69
589.392	1498.69
589.602	1476.69
589.812	1456.69
590.022	1425.69
590.232	1415.69
590.441	1484.69
590.651	1487.69
590.861	1427.69
591.071	1410.69
591.281	1412.69
591.49	1423.69
591.7	1409.69
591.91	1417.69
592.119	1415.69
592.329	1484.69
592.539	1495.69
592.748	1474.69
592.958	1495.69
593.167	1523.69
593.377	1522.69
593.587	1508.69
593.796	1511.69
594.006	1504.69
594.215	1552.69
594.424	1508.69
594.634	1499.69
594.843	1503.69
595.053	1532.69
595.262	1430.69
595.472	1446.69
595.681	1439.69
595.89	1407.69
596.1	1363.69
596.309	1383.69
596.518	1330.69
596.727	1352.69
596.937	1366.69
597.146	1278.69
597.355	1282.69
597.564	1294.69
597.774	1251.69
597.983	1208.69
598.192	1228.69
598.401	1233.69
598.61	1226.69
598.819	1222.69
599.028	1234.69
599.237	1229.69
599.446	1220.69
599.655	1172.69
599.864	1198.69
600.073	1190.69
600.282	1159.69
600.491	1154.69
600.7	1180.69
600.909	1158.69
601.118	1174.69
601.327	1161.69
601.536	1163.69
601.745	1187.69
601.953	1197.69
602.162	1188.69
602.371	1188.69
602.58	1175.69
602.789	1155.69
602.997	1182.69
603.206	1168.69
603.415	1146.69
603.623	1176.69
603.832	1162.69
604.041	1122.69
604.249	1114.69
604.458	1113.69
604.666	1132.69
604.875	1133.69
605.084	1131.69
605.292	1157.69
605.501	1100.69
605.709	1136.69
605.918	1120.69
606.126	1085.69
606.334	1117.69
606.543	1105.69
606.751	1160.69
606.96	1127.69
607.168	1092.69
607.376	1097.69
607.585	1093.69
607.793	1114.69
608.001	1107.69
608.21	1087.69
608.418	1100.69
608.626	1074.69
608.834	1083.69
609.043	1086.69
609.251	1060.69
609.459	1050.69
609.667	1098.69
609.875	1105.69
610.083	1108.69
610.291	1143.69
610.499	1107.69
610.707	1074.69
610.916	1052.69
611.124	1044.69
611.332	1026.69
611.54	1091.69
611.748	1038.69
611.955	1046.69
612.163	1028.69
612.371	1038.69
612.579	1029.69
612.787	1051.69
612.995	1058.69
613.203	1054.69
613.411	1028.69
613.618	1055.69
613.826	1032.69
614.034	1040.69
614.242	1028.69
614.449	1043.69
614.657	1043.69
614.865	1051.69
615.072	1059.69
615.28	1036.69
615.488	1044.69
615.695	1080.69
615.903	1052.69
616.111	1038.69
616.318	1053.69
616.526	1007.69
616.733	1002.69
616.941	982.69
617.148	974.69
617.356	1001.69
617.563	999.69
617.771	1012.69
617.978	982.69
618.185	978.69
618.393	979.69
618.6	1002.69
618.807	998.69
619.015	1001.69
619.222	960.69
619.429	944.69
619.637	920.69
619.844	937.69
620.051	963.69
620.258	960.69
620.466	914.69
620.673	930.69
620.88	898.69
621.087	891.69
621.294	906.69
621.501	882.69
621.708	895.69
621.915	906.69
622.122	940.69
622.329	941.69
622.536	918.69
622.743	918.69
622.95	883.69
623.157	889.69
623.364	915.69
623.571	938.69
623.778	916.69
623.985	895.69
624.192	902.69
624.399	877.69
624.606	863.69
624.812	858.69
625.019	834.69
625.226	874.69
625.433	840.69
625.639	853.69
625.846	806.69
626.053	812.69
626.259	807.69
626.466	790.69
626.673	786.69
626.879	747.69
627.086	766.69
627.293	774.69
627.499	816.69
627.706	818.69
627.912	818.69
628.119	832.69
628.325	806.69
628.532	795.69
628.738	794.69
628.945	787.69
629.151	793.69
629.357	806.69
629.564	777.69
629.77	799.69
629.976	741.69
630.183	756.69
630.389	741.69
630.595	785.69
630.802	767.69
631.008	722.69
631.214	726.69
631.42	716.69
631.627	726.69
631.833	740.69
632.039	694.69
632.245	717.69
632.451	754.69
632.657	739.69
632.863	722.69
633.069	724.69
633.275	727.69
633.481	703.69
633.688	690.69
633.893	724.69
634.099	701.69
634.305	664.69
634.511	678.69
634.717	686.69
634.923	660.69
635.129	647.69
635.335	669.69
635.541	677.69
635.747	686.69
635.952	671.69
636.158	683.69
636.364	674.69
636.57	682.69
636.775	686.69
636.981	669.69
637.187	658.69
637.392	676.69
637.598	681.69
637.804	687.69
638.009	666.69
638.215	661.69
638.421	618.69
638.626	667.69
638.832	656.69
639.037	630.69
639.243	647.69
639.448	622.69
639.654	641.69
639.859	628.69
640.065	622.69
640.27	662.69
640.475	653.69
640.681	632.69
640.886	628.69
641.091	619.69
641.297	636.69
641.502	628.69
641.707	620.69
641.913	629.69
642.118	599.69
642.323	626.69
642.528	621.69
642.733	602.69
642.939	623.69
643.144	616.69
643.349	612.69
643.554	612.69
643.759	593.69
643.964	606.69
644.169	600.69
644.374	593.69
644.579	602.69
644.784	580.69
644.989	607.69
645.194	593.69
645.399	578.69
645.604	602.69
645.809	585.69
646.014	596.69
646.219	574.69
646.423	599.69
646.628	608.69
646.833	622.69
647.038	591.69
647.243	572.69
647.447	597.69
647.652	621.69
647.857	612.69
648.062	611.69
648.266	595.69
648.471	617.69
648.676	622.69
648.88	603.69
649.085	598.69
649.289	579.69
649.494	583.69
649.698	567.69
649.903	578.69
650.107	539.69
650.312	570.69
650.516	550.69
650.721	557.69
650.925	528.69
651.13	535.69
651.334	540.69
651.539	518.69
651.743	503.69
651.947	521.69
652.152	504.69
652.356	502.69
652.56	478.69
652.764	481.69
652.969	486.69
653.173	479.69
653.377	468.69
653.581	463.69
653.785	444.69
653.99	456.69
654.194	437.69
654.398	441.69
654.602	442.69
654.806	435.69
655.01	431.69
655.214	426.69
655.418	441.69
655.622	456.69
655.826	464.69
656.03	465.69
656.234	466.69
656.438	500.69
656.642	500.69
656.846	463.69
657.049	441.69
657.253	411.69
657.457	365.69
657.661	347.69
657.865	333.69
658.068	328.69
658.272	304.69
658.476	276.69
658.68	248.69
658.883	243.69
659.087	231.69
659.291	223.69
659.494	218.69
659.698	202.69
659.901	200.69
660.105	190.69
660.309	175.69
660.512	175.69
660.716	180.69
660.919	163.69
661.123	158.69
661.326	142.69
661.53	132.69
661.733	134.69
661.936	142.69
662.14	120.69
662.343	132.69
662.546	126.69
662.75	105.69
662.953	101.69
663.156	104.69
663.36	111.69
663.563	107.69
663.766	107.69
663.969	101.69
664.173	103.69
664.376	106.69
664.579	85.69
664.782	92.69
664.985	94.69
665.188	85.69
665.391	82.69
665.594	85.69
665.797	90.69
666	79.69
666.203	77.69
666.406	86.69
666.609	89.69
666.812	95.69
667.015	84.69
667.218	72.69
667.421	85.69
667.624	81.69
667.827	89.69
668.03	86.69
668.232	87.69
668.435	85.69
668.638	83.69
668.841	84.69
669.043	80.69
669.246	79.69
669.449	73.69
669.651	84.69
669.854	76.69
670.057	83.69
670.259	86.69
670.462	91.69
670.665	92.69
670.867	86.69
671.07	74.69
671.272	88.69
671.475	84.69
671.677	85.69
671.88	72.69
672.082	73.69
672.284	76.69
672.487	92.69
672.689	80.69
672.892	86.69
