Data from WStandard_LampEnergy10_LIBS07252019.E.O._I.C._HRD10591_15-54-59-928.txt Node
Date: Thu Jul 25 15:54:59 EDT 2019
User: cochatt
Spectrometer: HR+D1059
Trigger mode: 1
Integration Time (sec): 1.000000E-1
Scans to average: 1
Electric dark correction enabled: true
Nonlinearity correction enabled: false
Boxcar width: 0
XAxis mode: Wavelengths
Number of Pixels in Spectrum: 2048
>>>>>Begin Spectral Data<<<<<
223.165	-8.5
223.4	-8.5
223.635	-8.5
223.869	-22.5
224.104	-15.5
224.338	-10.5
224.573	-23.5
224.808	-8.5
225.042	-12.5
225.277	-11.5
225.511	-1.5
225.746	1.5
225.98	-3.5
226.215	14.5
226.449	17.5
226.683	18.5
226.918	37.5
227.152	28.5
227.387	33.5
227.621	38.5
227.856	37.5
228.09	49.5
228.324	51.5
228.559	51.5
228.793	91.5
229.027	132.5
229.262	151.5
229.496	164.5
229.73	161.5
229.964	164.5
230.199	179.5
230.433	166.5
230.667	172.5
230.901	177.5
231.136	184.5
231.37	151.5
231.604	175.5
231.838	168.5
232.072	175.5
232.306	168.5
232.541	190.5
232.775	204.5
233.009	197.5
233.243	208.5
233.477	177.5
233.711	192.5
233.945	191.5
234.179	194.5
234.413	210.5
234.647	213.5
234.881	197.5
235.115	185.5
235.349	176.5
235.583	195.5
235.817	175.5
236.051	191.5
236.285	193.5
236.519	203.5
236.753	227.5
236.987	241.5
237.221	236.5
237.455	225.5
237.689	227.5
237.922	222.5
238.156	231.5
238.39	215.5
238.624	215.5
238.858	232.5
239.091	242.5
239.325	254.5
239.559	303.5
239.793	302.5
240.027	288.5
240.26	301.5
240.494	248.5
240.728	237.5
240.961	242.5
241.195	252.5
241.429	247.5
241.662	239.5
241.896	257.5
242.13	244.5
242.363	268.5
242.597	273.5
242.83	277.5
243.064	281.5
243.298	284.5
243.531	286.5
243.765	279.5
243.998	284.5
244.232	245.5
244.465	230.5
244.699	252.5
244.932	279.5
245.166	289.5
245.399	296.5
245.633	262.5
245.866	254.5
246.099	288.5
246.333	285.5
246.566	300.5
246.8	333.5
247.033	334.5
247.266	312.5
247.5	304.5
247.733	330.5
247.966	331.5
248.2	350.5
248.433	361.5
248.666	370.5
248.899	376.5
249.133	456.5
249.366	464.5
249.599	396.5
249.832	364.5
250.066	359.5
250.299	353.5
250.532	351.5
250.765	305.5
250.998	324.5
251.231	335.5
251.465	359.5
251.698	344.5
251.931	347.5
252.164	352.5
252.397	358.5
252.63	358.5
252.863	315.5
253.096	336.5
253.329	331.5
253.562	345.5
253.795	355.5
254.028	361.5
254.261	340.5
254.494	317.5
254.727	352.5
254.96	344.5
255.193	387.5
255.426	415.5
255.659	456.5
255.892	454.5
256.124	385.5
256.357	367.5
256.59	397.5
256.823	395.5
257.056	410.5
257.289	475.5
257.521	490.5
257.754	478.5
257.987	429.5
258.22	503.5
258.452	454.5
258.685	379.5
258.918	409.5
259.151	378.5
259.383	365.5
259.616	348.5
259.849	372.5
260.081	418.5
260.314	451.5
260.547	465.5
260.779	448.5
261.012	426.5
261.244	397.5
261.477	384.5
261.71	385.5
261.942	391.5
262.175	399.5
262.407	402.5
262.64	388.5
262.872	357.5
263.105	360.5
263.337	394.5
263.57	372.5
263.802	366.5
264.035	361.5
264.267	336.5
264.499	344.5
264.732	349.5
264.964	373.5
265.197	393.5
265.429	404.5
265.661	456.5
265.894	473.5
266.126	493.5
266.358	458.5
266.591	458.5
266.823	492.5
267.055	440.5
267.287	454.5
267.52	444.5
267.752	449.5
267.984	443.5
268.216	447.5
268.448	479.5
268.681	453.5
268.913	412.5
269.145	409.5
269.377	434.5
269.609	452.5
269.841	514.5
270.073	579.5
270.306	632.5
270.538	621.5
270.77	558.5
271.002	476.5
271.234	480.5
271.466	473.5
271.698	543.5
271.93	610.5
272.162	602.5
272.394	530.5
272.626	509.5
272.858	446.5
273.09	402.5
273.322	403.5
273.553	392.5
273.785	385.5
274.017	417.5
274.249	434.5
274.481	446.5
274.713	419.5
274.945	424.5
275.176	426.5
275.408	430.5
275.64	392.5
275.872	396.5
276.104	448.5
276.335	505.5
276.567	534.5
276.799	542.5
277.031	482.5
277.262	478.5
277.494	492.5
277.726	528.5
277.957	498.5
278.189	458.5
278.421	436.5
278.652	424.5
278.884	437.5
279.115	415.5
279.347	435.5
279.579	422.5
279.81	434.5
280.042	478.5
280.273	487.5
280.505	488.5
280.736	496.5
280.968	467.5
281.199	432.5
281.431	433.5
281.662	408.5
281.894	434.5
282.125	423.5
282.356	453.5
282.588	456.5
282.819	456.5
283.051	489.5
283.282	500.5
283.513	495.5
283.745	429.5
283.976	399.5
284.207	430.5
284.439	436.5
284.67	426.5
284.901	441.5
285.132	447.5
285.364	454.5
285.595	453.5
285.826	446.5
286.057	450.5
286.288	464.5
286.52	458.5
286.751	479.5
286.982	487.5
287.213	453.5
287.444	429.5
287.675	430.5
287.906	470.5
288.138	474.5
288.369	454.5
288.6	457.5
288.831	417.5
289.062	456.5
289.293	435.5
289.524	444.5
289.755	450.5
289.986	459.5
290.217	446.5
290.448	441.5
290.679	446.5
290.91	472.5
291.141	455.5
291.371	507.5
291.602	468.5
291.833	484.5
292.064	493.5
292.295	485.5
292.526	499.5
292.757	502.5
292.987	485.5
293.218	466.5
293.449	519.5
293.68	566.5
293.91	584.5
294.141	532.5
294.372	552.5
294.603	583.5
294.833	583.5
295.064	535.5
295.295	504.5
295.525	461.5
295.756	453.5
295.987	426.5
296.217	446.5
296.448	454.5
296.679	458.5
296.909	449.5
297.14	466.5
297.37	464.5
297.601	513.5
297.831	532.5
298.062	522.5
298.292	473.5
298.523	473.5
298.753	460.5
298.984	478.5
299.214	487.5
299.445	500.5
299.675	487.5
299.905	494.5
300.136	476.5
300.366	473.5
300.597	456.5
300.827	465.5
301.057	484.5
301.288	492.5
301.518	494.5
301.748	513.5
301.979	546.5
302.209	553.5
302.439	567.5
302.669	595.5
302.9	558.5
303.13	496.5
303.36	518.5
303.59	518.5
303.82	512.5
304.051	506.5
304.281	520.5
304.511	531.5
304.741	573.5
304.971	594.5
305.201	632.5
305.431	530.5
305.661	467.5
305.891	463.5
306.121	455.5
306.352	494.5
306.582	506.5
306.812	545.5
307.042	579.5
307.272	569.5
307.502	594.5
307.731	650.5
307.961	638.5
308.191	597.5
308.421	507.5
308.651	504.5
308.881	513.5
309.111	491.5
309.341	495.5
309.571	491.5
309.8	496.5
310.03	492.5
310.26	483.5
310.49	485.5
310.72	504.5
310.949	513.5
311.179	512.5
311.409	502.5
311.639	498.5
311.868	503.5
312.098	508.5
312.328	486.5
312.557	519.5
312.787	512.5
313.017	530.5
313.246	515.5
313.476	530.5
313.706	536.5
313.935	535.5
314.165	536.5
314.394	570.5
314.624	608.5
314.853	636.5
315.083	647.5
315.312	617.5
315.542	594.5
315.771	515.5
316.001	558.5
316.23	575.5
316.46	552.5
316.689	530.5
316.919	515.5
317.148	502.5
317.377	525.5
317.607	567.5
317.836	637.5
318.065	618.5
318.295	610.5
318.524	593.5
318.753	566.5
318.983	575.5
319.212	554.5
319.441	546.5
319.67	556.5
319.9	566.5
320.129	604.5
320.358	600.5
320.587	614.5
320.816	615.5
321.046	587.5
321.275	585.5
321.504	600.5
321.733	613.5
321.962	622.5
322.191	578.5
322.42	560.5
322.649	535.5
322.878	558.5
323.108	562.5
323.337	562.5
323.566	578.5
323.795	567.5
324.024	561.5
324.253	547.5
324.482	567.5
324.71	531.5
324.939	518.5
325.168	543.5
325.397	562.5
325.626	564.5
325.855	560.5
326.084	541.5
326.313	545.5
326.542	580.5
326.77	597.5
326.999	589.5
327.228	571.5
327.457	528.5
327.686	547.5
327.914	530.5
328.143	559.5
328.372	531.5
328.6	574.5
328.829	555.5
329.058	543.5
329.287	560.5
329.515	574.5
329.744	585.5
329.972	595.5
330.201	620.5
330.43	599.5
330.658	570.5
330.887	592.5
331.115	581.5
331.344	576.5
331.572	572.5
331.801	596.5
332.03	605.5
332.258	584.5
332.486	613.5
332.715	604.5
332.943	603.5
333.172	593.5
333.4	604.5
333.629	637.5
333.857	679.5
334.085	743.5
334.314	849.5
334.542	833.5
334.771	756.5
334.999	705.5
335.227	658.5
335.455	618.5
335.684	639.5
335.912	644.5
336.14	645.5
336.369	632.5
336.597	614.5
336.825	613.5
337.053	641.5
337.281	669.5
337.51	680.5
337.738	700.5
337.966	655.5
338.194	598.5
338.422	595.5
338.65	586.5
338.878	558.5
339.106	557.5
339.334	574.5
339.562	560.5
339.79	571.5
340.018	635.5
340.246	612.5
340.474	609.5
340.702	629.5
340.93	613.5
341.158	620.5
341.386	600.5
341.614	594.5
341.842	599.5
342.07	593.5
342.298	616.5
342.526	603.5
342.754	594.5
342.981	590.5
343.209	595.5
343.437	600.5
343.665	584.5
343.893	630.5
344.12	644.5
344.348	626.5
344.576	597.5
344.804	597.5
345.031	580.5
345.259	607.5
345.487	551.5
345.714	541.5
345.942	571.5
346.17	548.5
346.397	566.5
346.625	544.5
346.853	536.5
347.08	522.5
347.308	528.5
347.535	561.5
347.763	571.5
347.99	544.5
348.218	558.5
348.445	548.5
348.673	552.5
348.9	595.5
349.128	596.5
349.355	609.5
349.583	572.5
349.81	578.5
350.037	517.5
350.265	527.5
350.492	541.5
350.72	585.5
350.947	568.5
351.174	566.5
351.402	541.5
351.629	533.5
351.856	529.5
352.083	522.5
352.311	542.5
352.538	550.5
352.765	567.5
352.992	610.5
353.22	553.5
353.447	545.5
353.674	562.5
353.901	585.5
354.128	568.5
354.355	563.5
354.583	580.5
354.81	597.5
355.037	589.5
355.264	592.5
355.491	584.5
355.718	550.5
355.945	546.5
356.172	541.5
356.399	546.5
356.626	561.5
356.853	592.5
357.08	637.5
357.307	678.5
357.534	640.5
357.761	558.5
357.988	535.5
358.215	527.5
358.441	529.5
358.668	507.5
358.895	561.5
359.122	599.5
359.349	625.5
359.576	620.5
359.802	535.5
360.029	517.5
360.256	542.5
360.483	580.5
360.709	611.5
360.936	613.5
361.163	606.5
361.39	700.5
361.616	710.5
361.843	675.5
362.07	651.5
362.296	589.5
362.523	543.5
362.749	532.5
362.976	554.5
363.203	578.5
363.429	557.5
363.656	553.5
363.882	601.5
364.109	639.5
364.335	648.5
364.562	617.5
364.788	595.5
365.015	575.5
365.241	575.5
365.468	582.5
365.694	618.5
365.92	588.5
366.147	580.5
366.373	559.5
366.599	573.5
366.826	557.5
367.052	561.5
367.278	576.5
367.505	577.5
367.731	572.5
367.957	599.5
368.184	615.5
368.41	636.5
368.636	681.5
368.862	662.5
369.089	649.5
369.315	614.5
369.541	622.5
369.767	584.5
369.993	577.5
370.219	590.5
370.445	606.5
370.672	656.5
370.898	686.5
371.124	631.5
371.35	636.5
371.576	630.5
371.802	629.5
372.028	636.5
372.254	618.5
372.48	587.5
372.706	591.5
372.932	611.5
373.158	629.5
373.384	626.5
373.61	636.5
373.835	639.5
374.061	623.5
374.287	624.5
374.513	610.5
374.739	626.5
374.965	623.5
375.191	617.5
375.416	656.5
375.642	654.5
375.868	692.5
376.094	682.5
376.319	663.5
376.545	610.5
376.771	634.5
376.997	727.5
377.222	678.5
377.448	646.5
377.674	667.5
377.899	668.5
378.125	706.5
378.35	678.5
378.576	630.5
378.802	632.5
379.027	626.5
379.253	638.5
379.478	644.5
379.704	634.5
379.929	611.5
380.155	642.5
380.38	656.5
380.606	649.5
380.831	650.5
381.057	707.5
381.282	699.5
381.507	675.5
381.733	746.5
381.958	730.5
382.184	691.5
382.409	691.5
382.634	653.5
382.86	661.5
383.085	680.5
383.31	720.5
383.535	753.5
383.761	794.5
383.986	761.5
384.211	725.5
384.436	721.5
384.662	774.5
384.887	764.5
385.112	755.5
385.337	724.5
385.562	729.5
385.787	730.5
386.013	778.5
386.238	761.5
386.463	774.5
386.688	821.5
386.913	866.5
387.138	813.5
387.363	776.5
387.588	772.5
387.813	751.5
388.038	785.5
388.263	788.5
388.488	761.5
388.713	700.5
388.938	726.5
389.163	727.5
389.387	733.5
389.612	719.5
389.837	758.5
390.062	738.5
390.287	753.5
390.512	745.5
390.736	720.5
390.961	726.5
391.186	718.5
391.411	727.5
391.636	763.5
391.86	752.5
392.085	754.5
392.31	742.5
392.534	747.5
392.759	746.5
392.984	784.5
393.208	777.5
393.433	790.5
393.658	839.5
393.882	812.5
394.107	766.5
394.331	765.5
394.556	746.5
394.78	795.5
395.005	812.5
395.229	822.5
395.454	850.5
395.678	890.5
395.903	832.5
396.127	802.5
396.352	815.5
396.576	849.5
396.801	831.5
397.025	838.5
397.249	819.5
397.474	819.5
397.698	813.5
397.922	860.5
398.147	857.5
398.371	940.5
398.595	889.5
398.82	882.5
399.044	901.5
399.268	915.5
399.492	956.5
399.717	978.5
399.941	999.5
400.165	975.5
400.389	945.5
400.613	971.5
400.837	1094.5
401.062	1172.5
401.286	1014.5
401.51	966.5
401.734	975.5
401.958	950.5
402.182	893.5
402.406	867.5
402.63	873.5
402.854	876.5
403.078	912.5
403.302	884.5
403.526	951.5
403.75	905.5
403.974	920.5
404.198	944.5
404.422	973.5
404.645	993.5
404.869	958.5
405.093	907.5
405.317	914.5
405.541	916.5
405.765	966.5
405.988	916.5
406.212	936.5
406.436	956.5
406.66	989.5
406.883	1019.5
407.107	1123.5
407.331	1200.5
407.555	1255.5
407.778	1134.5
408.002	983.5
408.226	984.5
408.449	970.5
408.673	924.5
408.896	937.5
409.12	926.5
409.344	956.5
409.567	908.5
409.791	929.5
410.014	970.5
410.238	1026.5
410.461	1065.5
410.685	953.5
410.908	927.5
411.132	957.5
411.355	933.5
411.578	920.5
411.802	951.5
412.025	957.5
412.249	915.5
412.472	904.5
412.695	925.5
412.919	901.5
413.142	936.5
413.365	928.5
413.589	933.5
413.812	981.5
414.035	967.5
414.258	899.5
414.482	873.5
414.705	918.5
414.928	885.5
415.151	910.5
415.374	878.5
415.597	943.5
415.821	913.5
416.044	931.5
416.267	954.5
416.49	888.5
416.713	876.5
416.936	951.5
417.159	970.5
417.382	959.5
417.605	922.5
417.828	937.5
418.051	911.5
418.274	959.5
418.497	919.5
418.72	936.5
418.943	917.5
419.166	972.5
419.389	988.5
419.611	948.5
419.834	945.5
420.057	959.5
420.28	940.5
420.503	906.5
420.726	930.5
420.948	950.5
421.171	926.5
421.394	934.5
421.617	992.5
421.839	981.5
422.062	951.5
422.285	930.5
422.507	914.5
422.73	891.5
422.953	887.5
423.175	902.5
423.398	924.5
423.621	918.5
423.843	923.5
424.066	966.5
424.288	1014.5
424.511	1047.5
424.733	960.5
424.956	916.5
425.178	925.5
425.401	932.5
425.623	970.5
425.846	948.5
426.068	960.5
426.291	949.5
426.513	942.5
426.735	976.5
426.958	1042.5
427.18	1055.5
427.402	974.5
427.625	1000.5
427.847	953.5
428.069	934.5
428.292	941.5
428.514	888.5
428.736	876.5
428.958	905.5
429.181	921.5
429.403	1060.5
429.625	1223.5
429.847	1031.5
430.069	958.5
430.292	1031.5
430.514	1002.5
430.736	930.5
430.958	941.5
431.18	910.5
431.402	885.5
431.624	850.5
431.846	793.5
432.068	728.5
432.29	717.5
432.512	801.5
432.734	874.5
432.956	924.5
433.178	969.5
433.4	937.5
433.622	950.5
433.844	884.5
434.066	848.5
434.287	794.5
434.509	781.5
434.731	826.5
434.953	892.5
435.175	880.5
435.397	905.5
435.618	892.5
435.84	851.5
436.062	855.5
436.284	909.5
436.505	944.5
436.727	953.5
436.949	907.5
437.17	888.5
437.392	907.5
437.614	847.5
437.835	814.5
438.057	801.5
438.278	842.5
438.5	862.5
438.721	906.5
438.943	931.5
439.165	935.5
439.386	901.5
439.608	932.5
439.829	936.5
440.05	936.5
440.272	942.5
440.493	966.5
440.715	952.5
440.936	1014.5
441.158	1063.5
441.379	1022.5
441.6	1046.5
441.822	1006.5
442.043	1038.5
442.264	970.5
442.486	940.5
442.707	982.5
442.928	959.5
443.149	975.5
443.371	989.5
443.592	998.5
443.813	1017.5
444.034	995.5
444.255	1016.5
444.476	1025.5
444.698	1028.5
444.919	1034.5
445.14	1153.5
445.361	1104.5
445.582	1074.5
445.803	1073.5
446.024	1046.5
446.245	1053.5
446.466	1048.5
446.687	1034.5
446.908	1072.5
447.129	990.5
447.35	1006.5
447.571	1013.5
447.792	953.5
448.013	944.5
448.234	940.5
448.455	959.5
448.675	1010.5
448.896	913.5
449.117	900.5
449.338	918.5
449.559	928.5
449.779	975.5
450	1025.5
450.221	1022.5
450.442	994.5
450.662	936.5
450.883	913.5
451.104	870.5
451.324	893.5
451.545	898.5
451.766	860.5
451.986	834.5
452.207	807.5
452.428	779.5
452.648	761.5
452.869	771.5
453.089	778.5
453.31	790.5
453.53	772.5
453.751	737.5
453.971	702.5
454.192	726.5
454.412	761.5
454.633	785.5
454.853	794.5
455.073	754.5
455.294	755.5
455.514	740.5
455.734	748.5
455.955	770.5
456.175	729.5
456.395	719.5
456.616	720.5
456.836	768.5
457.056	735.5
457.276	725.5
457.497	704.5
457.717	688.5
457.937	708.5
458.157	734.5
458.377	708.5
458.598	668.5
458.818	658.5
459.038	678.5
459.258	687.5
459.478	708.5
459.698	698.5
459.918	743.5
460.138	798.5
460.358	841.5
460.578	832.5
460.798	866.5
461.018	898.5
461.238	856.5
461.458	833.5
461.678	818.5
461.898	817.5
462.118	800.5
462.338	838.5
462.558	862.5
462.777	838.5
462.997	884.5
463.217	908.5
463.437	865.5
463.657	851.5
463.876	832.5
464.096	809.5
464.316	831.5
464.536	877.5
464.755	866.5
464.975	881.5
465.195	853.5
465.414	880.5
465.634	889.5
465.854	888.5
466.073	978.5
466.293	945.5
466.512	845.5
466.732	874.5
466.951	894.5
467.171	896.5
467.391	863.5
467.61	900.5
467.829	890.5
468.049	988.5
468.268	1048.5
468.488	960.5
468.707	922.5
468.927	896.5
469.146	872.5
469.365	894.5
469.585	921.5
469.804	895.5
470.023	920.5
470.243	936.5
470.462	956.5
470.681	902.5
470.901	922.5
471.12	920.5
471.339	938.5
471.558	909.5
471.777	897.5
471.997	901.5
472.216	857.5
472.435	770.5
472.654	744.5
472.873	772.5
473.092	825.5
473.311	824.5
473.53	825.5
473.749	815.5
473.968	846.5
474.187	854.5
474.406	855.5
474.625	884.5
474.844	860.5
475.063	873.5
475.282	877.5
475.501	812.5
475.72	838.5
475.939	911.5
476.158	870.5
476.377	857.5
476.596	856.5
476.814	809.5
477.033	823.5
477.252	832.5
477.471	872.5
477.69	915.5
477.908	951.5
478.127	975.5
478.346	1017.5
478.564	985.5
478.783	974.5
479.002	1021.5
479.22	1005.5
479.439	1013.5
479.658	1032.5
479.876	1008.5
480.095	920.5
480.313	904.5
480.532	886.5
480.751	876.5
480.969	841.5
481.188	798.5
481.406	764.5
481.624	742.5
481.843	800.5
482.061	818.5
482.28	862.5
482.498	911.5
482.717	874.5
482.935	905.5
483.153	992.5
483.372	1004.5
483.59	987.5
483.808	969.5
484.027	940.5
484.245	1017.5
484.463	1215.5
484.681	1258.5
484.9	1024.5
485.118	962.5
485.336	936.5
485.554	904.5
485.772	924.5
485.99	870.5
486.209	883.5
486.427	885.5
486.645	933.5
486.863	1009.5
487.081	1068.5
487.299	1034.5
487.517	1001.5
487.735	1107.5
487.953	1203.5
488.171	1174.5
488.389	1141.5
488.607	1111.5
488.825	1155.5
489.043	1053.5
489.261	976.5
489.479	1060.5
489.696	1042.5
489.914	1022.5
490.132	1033.5
490.35	1108.5
490.568	1184.5
490.786	1158.5
491.003	1186.5
491.221	1262.5
491.439	1305.5
491.657	1312.5
491.874	1362.5
492.092	1450.5
492.31	1503.5
492.527	1452.5
492.745	1383.5
492.963	1313.5
493.18	1313.5
493.398	1317.5
493.615	1350.5
493.833	1289.5
494.05	1235.5
494.268	1257.5
494.485	1245.5
494.703	1237.5
494.92	1197.5
495.138	1247.5
495.355	1251.5
495.573	1240.5
495.79	1302.5
496.008	1250.5
496.225	1240.5
496.442	1226.5
496.66	1225.5
496.877	1204.5
497.094	1225.5
497.312	1208.5
497.529	1138.5
497.746	1188.5
497.963	1298.5
498.181	1344.5
498.398	1249.5
498.615	1220.5
498.832	1152.5
499.049	1172.5
499.267	1152.5
499.484	1249.5
499.701	1347.5
499.918	1391.5
500.135	1488.5
500.352	1534.5
500.569	1548.5
500.786	1678.5
501.003	1567.5
501.22	1428.5
501.437	1373.5
501.654	1388.5
501.871	1358.5
502.088	1223.5
502.305	1198.5
502.522	1134.5
502.739	1087.5
502.956	1086.5
503.172	1073.5
503.389	1037.5
503.606	966.5
503.823	949.5
504.04	989.5
504.256	1010.5
504.473	974.5
504.69	1027.5
504.907	954.5
505.123	974.5
505.34	1057.5
505.557	1368.5
505.773	1083.5
505.99	916.5
506.207	900.5
506.423	870.5
506.64	926.5
506.856	926.5
507.073	1056.5
507.289	1082.5
507.506	1016.5
507.722	897.5
507.939	848.5
508.155	858.5
508.372	846.5
508.588	812.5
508.805	800.5
509.021	782.5
509.238	787.5
509.454	738.5
509.67	766.5
509.887	717.5
510.103	725.5
510.319	743.5
510.536	773.5
510.752	790.5
510.968	782.5
511.184	805.5
511.401	756.5
511.617	676.5
511.833	700.5
512.049	718.5
512.265	721.5
512.481	720.5
512.698	737.5
512.914	783.5
513.13	761.5
513.346	710.5
513.562	707.5
513.778	712.5
513.994	735.5
514.21	736.5
514.426	756.5
514.642	845.5
514.858	794.5
515.074	724.5
515.29	724.5
515.506	708.5
515.721	743.5
515.937	757.5
516.153	806.5
516.369	788.5
516.585	753.5
516.801	727.5
517.016	729.5
517.232	772.5
517.448	776.5
517.664	766.5
517.879	775.5
518.095	807.5
518.311	766.5
518.527	772.5
518.742	738.5
518.958	756.5
519.173	749.5
519.389	792.5
519.605	794.5
519.82	756.5
520.036	798.5
520.251	741.5
520.467	791.5
520.682	834.5
520.898	820.5
521.113	710.5
521.329	711.5
521.544	788.5
521.76	760.5
521.975	713.5
522.19	709.5
522.406	740.5
522.621	939.5
522.836	864.5
523.052	732.5
523.267	753.5
523.482	752.5
523.698	735.5
523.913	748.5
524.128	760.5
524.343	821.5
524.559	807.5
524.774	769.5
524.989	788.5
525.204	751.5
525.419	748.5
525.634	757.5
525.849	743.5
526.064	716.5
526.28	695.5
526.495	636.5
526.71	618.5
526.925	630.5
527.14	618.5
527.355	647.5
527.57	643.5
527.785	665.5
527.999	656.5
528.214	675.5
528.429	691.5
528.644	721.5
528.859	792.5
529.074	836.5
529.289	871.5
529.503	841.5
529.718	807.5
529.933	724.5
530.148	664.5
530.363	653.5
530.577	653.5
530.792	660.5
531.007	627.5
531.221	620.5
531.436	629.5
531.651	631.5
531.865	662.5
532.08	630.5
532.295	626.5
532.509	624.5
532.724	631.5
532.938	681.5
533.153	717.5
533.367	691.5
533.582	752.5
533.796	726.5
534.011	718.5
534.225	639.5
534.44	632.5
534.654	626.5
534.868	640.5
535.083	709.5
535.297	675.5
535.511	665.5
535.726	681.5
535.94	649.5
536.154	649.5
536.369	615.5
536.583	596.5
536.797	597.5
537.011	584.5
537.225	600.5
537.44	623.5
537.654	639.5
537.868	616.5
538.082	604.5
538.296	604.5
538.51	649.5
538.724	673.5
538.938	714.5
539.153	729.5
539.367	722.5
539.581	699.5
539.795	689.5
540.009	637.5
540.222	625.5
540.436	672.5
540.65	755.5
540.864	795.5
541.078	830.5
541.292	849.5
541.506	887.5
541.72	960.5
541.934	1026.5
542.147	1084.5
542.361	996.5
542.575	906.5
542.789	835.5
543.002	759.5
543.216	730.5
543.43	749.5
543.644	832.5
543.857	880.5
544.071	912.5
544.285	911.5
544.498	951.5
544.712	924.5
544.925	910.5
545.139	969.5
545.352	919.5
545.566	933.5
545.779	922.5
545.993	954.5
546.206	960.5
546.42	975.5
546.633	956.5
546.847	941.5
547.06	949.5
547.274	974.5
547.487	1001.5
547.7	1008.5
547.914	980.5
548.127	965.5
548.34	944.5
548.554	921.5
548.767	960.5
548.98	938.5
549.193	888.5
549.407	968.5
549.62	967.5
549.833	906.5
550.046	902.5
550.259	912.5
550.473	869.5
550.686	892.5
550.899	857.5
551.112	825.5
551.325	827.5
551.538	833.5
551.751	856.5
551.964	712.5
552.177	739.5
552.39	811.5
552.603	866.5
552.816	860.5
553.029	894.5
553.242	918.5
553.455	924.5
553.667	885.5
553.88	892.5
554.093	857.5
554.306	848.5
554.519	844.5
554.732	816.5
554.944	807.5
555.157	844.5
555.37	812.5
555.583	816.5
555.795	783.5
556.008	767.5
556.221	723.5
556.433	726.5
556.646	752.5
556.859	733.5
557.071	750.5
557.284	752.5
557.496	769.5
557.709	764.5
557.921	743.5
558.134	716.5
558.346	748.5
558.559	721.5
558.771	735.5
558.984	704.5
559.196	679.5
559.409	668.5
559.621	658.5
559.833	651.5
560.046	681.5
560.258	647.5
560.47	675.5
560.683	657.5
560.895	676.5
561.107	684.5
561.32	697.5
561.532	696.5
561.744	670.5
561.956	687.5
562.168	679.5
562.381	630.5
562.593	654.5
562.805	624.5
563.017	663.5
563.229	641.5
563.441	629.5
563.653	615.5
563.865	616.5
564.077	636.5
564.289	597.5
564.501	604.5
564.713	636.5
564.925	626.5
565.137	652.5
565.349	648.5
565.561	602.5
565.773	625.5
565.985	628.5
566.197	652.5
566.408	674.5
566.62	668.5
566.832	677.5
567.044	674.5
567.255	650.5
567.467	648.5
567.679	650.5
567.891	647.5
568.102	616.5
568.314	583.5
568.526	538.5
568.737	534.5
568.949	483.5
569.161	478.5
569.372	466.5
569.584	469.5
569.795	450.5
570.007	432.5
570.218	447.5
570.43	447.5
570.641	450.5
570.853	464.5
571.064	458.5
571.276	475.5
571.487	489.5
571.698	502.5
571.91	468.5
572.121	440.5
572.333	451.5
572.544	415.5
572.755	425.5
572.966	407.5
573.178	406.5
573.389	390.5
573.6	416.5
573.811	448.5
574.023	396.5
574.234	378.5
574.445	394.5
574.656	376.5
574.867	390.5
575.078	409.5
575.289	410.5
575.501	398.5
575.712	404.5
575.923	401.5
576.134	391.5
576.345	403.5
576.556	384.5
576.767	392.5
576.978	389.5
577.188	380.5
577.399	370.5
577.61	360.5
577.821	362.5
578.032	367.5
578.243	352.5
578.454	347.5
578.665	367.5
578.875	352.5
579.086	332.5
579.297	351.5
579.508	358.5
579.718	353.5
579.929	342.5
580.14	348.5
580.35	333.5
580.561	351.5
580.772	398.5
580.982	360.5
581.193	341.5
581.403	344.5
581.614	341.5
581.825	334.5
582.035	342.5
582.246	344.5
582.456	348.5
582.667	326.5
582.877	325.5
583.087	356.5
583.298	321.5
583.508	324.5
583.719	326.5
583.929	314.5
584.139	318.5
584.35	307.5
584.56	303.5
584.77	332.5
584.981	325.5
585.191	329.5
585.401	344.5
585.611	304.5
585.821	331.5
586.032	321.5
586.242	312.5
586.452	318.5
586.662	334.5
586.872	307.5
587.082	306.5
587.292	305.5
587.502	315.5
587.713	313.5
587.923	317.5
588.133	310.5
588.343	311.5
588.553	306.5
588.762	316.5
588.972	307.5
589.182	320.5
589.392	314.5
589.602	321.5
589.812	301.5
590.022	315.5
590.232	285.5
590.441	319.5
590.651	320.5
590.861	325.5
591.071	288.5
591.281	296.5
591.49	294.5
591.7	313.5
591.91	311.5
592.119	322.5
592.329	338.5
592.539	329.5
592.748	304.5
592.958	304.5
593.167	317.5
593.377	329.5
593.587	357.5
593.796	342.5
594.006	320.5
594.215	316.5
594.424	320.5
594.634	339.5
594.843	333.5
595.053	355.5
595.262	351.5
595.472	317.5
595.681	325.5
595.89	299.5
596.1	302.5
596.309	325.5
596.518	311.5
596.727	322.5
596.937	333.5
597.146	312.5
597.355	310.5
597.564	308.5
597.774	281.5
597.983	275.5
598.192	280.5
598.401	269.5
598.61	261.5
598.819	294.5
599.028	282.5
599.237	286.5
599.446	293.5
599.655	288.5
599.864	291.5
600.073	279.5
600.282	281.5
600.491	297.5
600.7	276.5
600.909	294.5
601.118	304.5
601.327	302.5
601.536	348.5
601.745	342.5
601.953	359.5
602.162	334.5
602.371	358.5
602.58	364.5
602.789	346.5
602.997	345.5
603.206	356.5
603.415	350.5
603.623	348.5
603.832	342.5
604.041	330.5
604.249	331.5
604.458	294.5
604.666	295.5
604.875	295.5
605.084	311.5
605.292	345.5
605.501	348.5
605.709	332.5
605.918	367.5
606.126	348.5
606.334	366.5
606.543	359.5
606.751	358.5
606.96	366.5
607.168	368.5
607.376	351.5
607.585	337.5
607.793	346.5
608.001	357.5
608.21	365.5
608.418	358.5
608.626	350.5
608.834	350.5
609.043	356.5
609.251	369.5
609.459	348.5
609.667	352.5
609.875	372.5
610.083	368.5
610.291	368.5
610.499	367.5
610.707	367.5
610.916	356.5
611.124	361.5
611.332	352.5
611.54	357.5
611.748	366.5
611.955	338.5
612.163	368.5
612.371	353.5
612.579	353.5
612.787	354.5
612.995	345.5
613.203	349.5
613.411	355.5
613.618	355.5
613.826	364.5
614.034	376.5
614.242	369.5
614.449	352.5
614.657	346.5
614.865	345.5
615.072	356.5
615.28	344.5
615.488	358.5
615.695	357.5
615.903	350.5
616.111	369.5
616.318	358.5
616.526	342.5
616.733	351.5
616.941	344.5
617.148	330.5
617.356	331.5
617.563	338.5
617.771	325.5
617.978	329.5
618.185	336.5
618.393	335.5
618.6	354.5
618.807	357.5
619.015	329.5
619.222	352.5
619.429	313.5
619.637	317.5
619.844	291.5
620.051	310.5
620.258	325.5
620.466	320.5
620.673	320.5
620.88	321.5
621.087	304.5
621.294	291.5
621.501	271.5
621.708	287.5
621.915	313.5
622.122	335.5
622.329	321.5
622.536	322.5
622.743	327.5
622.95	299.5
623.157	305.5
623.364	308.5
623.571	295.5
623.778	320.5
623.985	314.5
624.192	313.5
624.399	315.5
624.606	319.5
624.812	295.5
625.019	314.5
625.226	305.5
625.433	294.5
625.639	292.5
625.846	272.5
626.053	238.5
626.259	240.5
626.466	222.5
626.673	230.5
626.879	238.5
627.086	262.5
627.293	256.5
627.499	289.5
627.706	284.5
627.912	297.5
628.119	300.5
628.325	308.5
628.532	287.5
628.738	285.5
628.945	301.5
629.151	262.5
629.357	286.5
629.564	288.5
629.77	271.5
629.976	287.5
630.183	267.5
630.389	285.5
630.595	294.5
630.802	297.5
631.008	275.5
631.214	281.5
631.42	273.5
631.627	259.5
631.833	244.5
632.039	275.5
632.245	268.5
632.451	264.5
632.657	276.5
632.863	262.5
633.069	256.5
633.275	277.5
633.481	246.5
633.688	263.5
633.893	260.5
634.099	227.5
634.305	259.5
634.511	251.5
634.717	248.5
634.923	223.5
635.129	221.5
635.335	222.5
635.541	228.5
635.747	251.5
635.952	256.5
636.158	262.5
636.364	252.5
636.57	255.5
636.775	274.5
636.981	264.5
637.187	261.5
637.392	245.5
637.598	254.5
637.804	255.5
638.009	256.5
638.215	255.5
638.421	254.5
638.626	258.5
638.832	254.5
639.037	244.5
639.243	254.5
639.448	236.5
639.654	232.5
639.859	224.5
640.065	253.5
640.27	230.5
640.475	245.5
640.681	242.5
640.886	241.5
641.091	252.5
641.297	238.5
641.502	248.5
641.707	241.5
641.913	253.5
642.118	258.5
642.323	228.5
642.528	245.5
642.733	238.5
642.939	230.5
643.144	245.5
643.349	252.5
643.554	244.5
643.759	238.5
643.964	253.5
644.169	229.5
644.374	226.5
644.579	223.5
644.784	240.5
644.989	254.5
645.194	236.5
645.399	249.5
645.604	241.5
645.809	262.5
646.014	246.5
646.219	226.5
646.423	252.5
646.628	235.5
646.833	233.5
647.038	249.5
647.243	234.5
647.447	250.5
647.652	240.5
647.857	244.5
648.062	238.5
648.266	232.5
648.471	233.5
648.676	221.5
648.88	231.5
649.085	240.5
649.289	242.5
649.494	226.5
649.698	244.5
649.903	236.5
650.107	237.5
650.312	221.5
650.516	232.5
650.721	221.5
650.925	233.5
651.13	217.5
651.334	237.5
651.539	226.5
651.743	199.5
651.947	203.5
652.152	216.5
652.356	212.5
652.56	212.5
652.764	219.5
652.969	220.5
653.173	204.5
653.377	215.5
653.581	207.5
653.785	221.5
653.99	221.5
654.194	206.5
654.398	193.5
654.602	197.5
654.806	194.5
655.01	200.5
655.214	196.5
655.418	197.5
655.622	196.5
655.826	210.5
656.03	201.5
656.234	206.5
656.438	233.5
656.642	239.5
656.846	215.5
657.049	209.5
657.253	191.5
657.457	169.5
657.661	160.5
657.865	161.5
658.068	165.5
658.272	152.5
658.476	148.5
658.68	160.5
658.883	159.5
659.087	153.5
659.291	142.5
659.494	148.5
659.698	131.5
659.901	124.5
660.105	119.5
660.309	114.5
660.512	125.5
660.716	118.5
660.919	117.5
661.123	118.5
661.326	116.5
661.53	113.5
661.733	106.5
661.936	97.5
662.14	106.5
662.343	109.5
662.546	93.5
662.75	88.5
662.953	93.5
663.156	88.5
663.36	83.5
663.563	84.5
663.766	92.5
663.969	87.5
664.173	82.5
664.376	84.5
664.579	98.5
664.782	80.5
664.985	77.5
665.188	85.5
665.391	88.5
665.594	78.5
665.797	86.5
666	83.5
666.203	79.5
666.406	86.5
666.609	86.5
666.812	88.5
667.015	85.5
667.218	89.5
667.421	84.5
667.624	88.5
667.827	83.5
668.03	87.5
668.232	77.5
668.435	83.5
668.638	89.5
668.841	91.5
669.043	76.5
669.246	77.5
669.449	84.5
669.651	84.5
669.854	71.5
670.057	86.5
670.259	78.5
670.462	85.5
670.665	88.5
670.867	76.5
671.07	68.5
671.272	76.5
671.475	81.5
671.677	77.5
671.88	90.5
672.082	90.5
672.284	96.5
672.487	76.5
672.689	88.5
672.892	71.5
