Data from WStandard_LampEnergy8_LIBS07252019.E.O._I.C._HRD10591_15-58-16-929.txt Node
Date: Thu Jul 25 15:58:16 EDT 2019
User: cochatt
Spectrometer: HR+D1059
Trigger mode: 1
Integration Time (sec): 1.000000E-1
Scans to average: 1
Electric dark correction enabled: true
Nonlinearity correction enabled: false
Boxcar width: 0
XAxis mode: Wavelengths
Number of Pixels in Spectrum: 2048
>>>>>Begin Spectral Data<<<<<
223.165	-12.06
223.4	-12.06
223.635	-12.06
223.869	-19.06
224.104	-19.06
224.338	-19.06
224.573	-0.06
224.808	-7.06
225.042	0.94
225.277	-9.06
225.511	-19.06
225.746	0.94
225.98	9.94
226.215	9.94
226.449	18.94
226.683	22.94
226.918	20.94
227.152	19.94
227.387	28.94
227.621	32.94
227.856	49.94
228.09	55.94
228.324	37.94
228.559	61.94
228.793	92.94
229.027	213.94
229.262	215.94
229.496	230.94
229.73	210.94
229.964	250.94
230.199	265.94
230.433	254.94
230.667	269.94
230.901	275.94
231.136	257.94
231.37	255.94
231.604	260.94
231.838	276.94
232.072	252.94
232.306	246.94
232.541	284.94
232.775	304.94
233.009	321.94
233.243	312.94
233.477	292.94
233.711	296.94
233.945	307.94
234.179	296.94
234.413	316.94
234.647	342.94
234.881	322.94
235.115	298.94
235.349	305.94
235.583	308.94
235.817	301.94
236.051	288.94
236.285	308.94
236.519	331.94
236.753	365.94
236.987	340.94
237.221	344.94
237.455	401.94
237.689	375.94
237.922	360.94
238.156	337.94
238.39	352.94
238.624	368.94
238.858	382.94
239.091	392.94
239.325	432.94
239.559	464.94
239.793	512.94
240.027	513.94
240.26	496.94
240.494	400.94
240.728	370.94
240.961	384.94
241.195	408.94
241.429	420.94
241.662	418.94
241.896	395.94
242.13	402.94
242.363	413.94
242.597	442.94
242.83	450.94
243.064	454.94
243.298	474.94
243.531	473.94
243.765	470.94
243.998	448.94
244.232	414.94
244.465	405.94
244.699	409.94
244.932	457.94
245.166	498.94
245.399	465.94
245.633	442.94
245.866	464.94
246.099	474.94
246.333	484.94
246.566	514.94
246.8	524.94
247.033	579.94
247.266	546.94
247.5	531.94
247.733	542.94
247.966	556.94
248.2	611.94
248.433	593.94
248.666	602.94
248.899	663.94
249.133	760.94
249.366	788.94
249.599	680.94
249.832	615.94
250.066	625.94
250.299	626.94
250.532	596.94
250.765	530.94
250.998	593.94
251.231	605.94
251.465	615.94
251.698	576.94
251.931	576.94
252.164	593.94
252.397	618.94
252.63	598.94
252.863	566.94
253.096	548.94
253.329	586.94
253.562	597.94
253.795	618.94
254.028	626.94
254.261	603.94
254.494	568.94
254.727	565.94
254.96	588.94
255.193	611.94
255.426	706.94
255.659	753.94
255.892	794.94
256.124	661.94
256.357	658.94
256.59	682.94
256.823	710.94
257.056	690.94
257.289	841.94
257.521	891.94
257.754	800.94
257.987	764.94
258.22	841.94
258.452	838.94
258.685	687.94
258.918	677.94
259.151	680.94
259.383	641.94
259.616	579.94
259.849	630.94
260.081	690.94
260.314	781.94
260.547	838.94
260.779	801.94
261.012	767.94
261.244	678.94
261.477	664.94
261.71	691.94
261.942	678.94
262.175	654.94
262.407	709.94
262.64	661.94
262.872	623.94
263.105	600.94
263.337	625.94
263.57	646.94
263.802	640.94
264.035	606.94
264.267	570.94
264.499	567.94
264.732	613.94
264.964	646.94
265.197	667.94
265.429	693.94
265.661	794.94
265.894	840.94
266.126	834.94
266.358	801.94
266.591	808.94
266.823	863.94
267.055	763.94
267.287	776.94
267.52	770.94
267.752	775.94
267.984	739.94
268.216	800.94
268.448	835.94
268.681	790.94
268.913	744.94
269.145	690.94
269.377	676.94
269.609	763.94
269.841	863.94
270.073	1024.94
270.306	1119.94
270.538	1120.94
270.77	960.94
271.002	837.94
271.234	814.94
271.466	846.94
271.698	930.94
271.93	1054.94
272.162	1020.94
272.394	920.94
272.626	906.94
272.858	792.94
273.09	727.94
273.322	701.94
273.553	667.94
273.785	705.94
274.017	692.94
274.249	763.94
274.481	787.94
274.713	710.94
274.945	701.94
275.176	700.94
275.408	703.94
275.64	668.94
275.872	692.94
276.104	759.94
276.335	832.94
276.567	924.94
276.799	900.94
277.031	838.94
277.262	792.94
277.494	849.94
277.726	906.94
277.957	888.94
278.189	805.94
278.421	736.94
278.652	746.94
278.884	734.94
279.115	744.94
279.347	771.94
279.579	737.94
279.81	732.94
280.042	800.94
280.273	878.94
280.505	891.94
280.736	885.94
280.968	819.94
281.199	748.94
281.431	732.94
281.662	721.94
281.894	719.94
282.125	737.94
282.356	743.94
282.588	792.94
282.819	742.94
283.051	833.94
283.282	932.94
283.513	866.94
283.745	737.94
283.976	712.94
284.207	735.94
284.439	761.94
284.67	770.94
284.901	797.94
285.132	792.94
285.364	767.94
285.595	797.94
285.826	781.94
286.057	744.94
286.288	758.94
286.52	837.94
286.751	822.94
286.982	850.94
287.213	792.94
287.444	752.94
287.675	755.94
287.906	805.94
288.138	845.94
288.369	790.94
288.6	770.94
288.831	768.94
289.062	769.94
289.293	755.94
289.524	771.94
289.755	780.94
289.986	778.94
290.217	737.94
290.448	741.94
290.679	793.94
290.91	814.94
291.141	776.94
291.371	806.94
291.602	827.94
291.833	826.94
292.064	839.94
292.295	822.94
292.526	866.94
292.757	873.94
292.987	850.94
293.218	808.94
293.449	884.94
293.68	968.94
293.91	1009.94
294.141	928.94
294.372	925.94
294.603	936.94
294.833	960.94
295.064	928.94
295.295	828.94
295.525	790.94
295.756	755.94
295.987	735.94
296.217	738.94
296.448	772.94
296.679	772.94
296.909	777.94
297.14	780.94
297.37	808.94
297.601	845.94
297.831	905.94
298.062	902.94
298.292	800.94
298.523	787.94
298.753	796.94
298.984	819.94
299.214	809.94
299.445	832.94
299.675	845.94
299.905	843.94
300.136	838.94
300.366	798.94
300.597	768.94
300.827	798.94
301.057	816.94
301.288	840.94
301.518	855.94
301.748	867.94
301.979	900.94
302.209	936.94
302.439	966.94
302.669	1002.94
302.9	943.94
303.13	842.94
303.36	843.94
303.59	856.94
303.82	861.94
304.051	868.94
304.281	848.94
304.511	871.94
304.741	952.94
304.971	1030.94
305.201	1070.94
305.431	973.94
305.661	818.94
305.891	757.94
306.121	766.94
306.352	839.94
306.582	849.94
306.812	914.94
307.042	924.94
307.272	964.94
307.502	989.94
307.731	1031.94
307.961	1064.94
308.191	987.94
308.421	889.94
308.651	856.94
308.881	831.94
309.111	816.94
309.341	823.94
309.571	825.94
309.8	833.94
310.03	822.94
310.26	813.94
310.49	813.94
310.72	879.94
310.949	853.94
311.179	916.94
311.409	882.94
311.639	857.94
311.868	837.94
312.098	855.94
312.328	855.94
312.557	863.94
312.787	891.94
313.017	868.94
313.246	872.94
313.476	877.94
313.706	873.94
313.935	891.94
314.165	904.94
314.394	941.94
314.624	965.94
314.853	1035.94
315.083	1060.94
315.312	1048.94
315.542	983.94
315.771	900.94
316.001	918.94
316.23	977.94
316.46	959.94
316.689	969.94
316.919	883.94
317.148	868.94
317.377	896.94
317.607	956.94
317.836	1045.94
318.065	1071.94
318.295	1043.94
318.524	980.94
318.753	946.94
318.983	910.94
319.212	940.94
319.441	933.94
319.67	925.94
319.9	936.94
320.129	989.94
320.358	1013.94
320.587	1026.94
320.816	1029.94
321.046	1037.94
321.275	968.94
321.504	1004.94
321.733	1050.94
321.962	998.94
322.191	935.94
322.42	939.94
322.649	907.94
322.878	903.94
323.108	960.94
323.337	962.94
323.566	971.94
323.795	939.94
324.024	954.94
324.253	931.94
324.482	946.94
324.71	922.94
324.939	877.94
325.168	916.94
325.397	953.94
325.626	963.94
325.855	938.94
326.084	936.94
326.313	921.94
326.542	940.94
326.77	1002.94
326.999	969.94
327.228	931.94
327.457	860.94
327.686	888.94
327.914	919.94
328.143	907.94
328.372	937.94
328.6	919.94
328.829	894.94
329.058	913.94
329.287	946.94
329.515	950.94
329.744	973.94
329.972	1012.94
330.201	1036.94
330.43	1030.94
330.658	1005.94
330.887	973.94
331.115	978.94
331.344	997.94
331.572	985.94
331.801	960.94
332.03	1002.94
332.258	1021.94
332.486	1034.94
332.715	1023.94
332.943	1023.94
333.172	1006.94
333.4	1026.94
333.629	1053.94
333.857	1106.94
334.085	1209.94
334.314	1387.94
334.542	1397.94
334.771	1282.94
334.999	1151.94
335.227	1112.94
335.455	1094.94
335.684	1045.94
335.912	1082.94
336.14	1118.94
336.369	1060.94
336.597	1021.94
336.825	1006.94
337.053	1056.94
337.281	1096.94
337.51	1175.94
337.738	1194.94
337.966	1097.94
338.194	1010.94
338.422	995.94
338.65	981.94
338.878	968.94
339.106	948.94
339.334	972.94
339.562	938.94
339.79	969.94
340.018	1024.94
340.246	1036.94
340.474	1042.94
340.702	1022.94
340.93	1022.94
341.158	1019.94
341.386	1008.94
341.614	989.94
341.842	1019.94
342.07	1001.94
342.298	998.94
342.526	1006.94
342.754	960.94
342.981	996.94
343.209	955.94
343.437	978.94
343.665	984.94
343.893	1031.94
344.12	1074.94
344.348	1046.94
344.576	1021.94
344.804	988.94
345.031	989.94
345.259	988.94
345.487	964.94
345.714	937.94
345.942	889.94
346.17	912.94
346.397	922.94
346.625	955.94
346.853	888.94
347.08	895.94
347.308	904.94
347.535	933.94
347.763	955.94
347.99	935.94
348.218	933.94
348.445	922.94
348.673	930.94
348.9	961.94
349.128	1022.94
349.355	982.94
349.583	965.94
349.81	957.94
350.037	887.94
350.265	848.94
350.492	892.94
350.72	920.94
350.947	940.94
351.174	949.94
351.402	886.94
351.629	868.94
351.856	882.94
352.083	847.94
352.311	875.94
352.538	909.94
352.765	955.94
352.992	954.94
353.22	908.94
353.447	901.94
353.674	905.94
353.901	911.94
354.128	899.94
354.355	925.94
354.583	957.94
354.81	966.94
355.037	937.94
355.264	936.94
355.491	930.94
355.718	924.94
355.945	920.94
356.172	894.94
356.399	902.94
356.626	916.94
356.853	984.94
357.08	1034.94
357.307	1112.94
357.534	1065.94
357.761	947.94
357.988	894.94
358.215	890.94
358.441	881.94
358.668	868.94
358.895	894.94
359.122	985.94
359.349	1050.94
359.576	1010.94
359.802	931.94
360.029	908.94
360.256	887.94
360.483	918.94
360.709	948.94
360.936	989.94
361.163	1015.94
361.39	1098.94
361.616	1144.94
361.843	1154.94
362.07	1085.94
362.296	924.94
362.523	892.94
362.749	900.94
362.976	968.94
363.203	966.94
363.429	937.94
363.656	906.94
363.882	952.94
364.109	1062.94
364.335	1119.94
364.562	1058.94
364.788	998.94
365.015	939.94
365.241	907.94
365.468	924.94
365.694	971.94
365.92	1007.94
366.147	962.94
366.373	933.94
366.599	880.94
366.826	903.94
367.052	930.94
367.278	931.94
367.505	937.94
367.731	951.94
367.957	974.94
368.184	994.94
368.41	1061.94
368.636	1081.94
368.862	1110.94
369.089	1080.94
369.315	1005.94
369.541	995.94
369.767	963.94
369.993	931.94
370.219	961.94
370.445	982.94
370.672	1008.94
370.898	1088.94
371.124	1015.94
371.35	982.94
371.576	1021.94
371.802	1046.94
372.028	1005.94
372.254	950.94
372.48	940.94
372.706	946.94
372.932	991.94
373.158	938.94
373.384	978.94
373.61	1026.94
373.835	1040.94
374.061	1024.94
374.287	1005.94
374.513	981.94
374.739	1009.94
374.965	1013.94
375.191	1005.94
375.416	1027.94
375.642	1042.94
375.868	1074.94
376.094	1141.94
376.319	1032.94
376.545	1003.94
376.771	1031.94
376.997	1081.94
377.222	1072.94
377.448	1056.94
377.674	1066.94
377.899	1046.94
378.125	1120.94
378.35	1091.94
378.576	1004.94
378.802	960.94
379.027	988.94
379.253	978.94
379.478	1032.94
379.704	1000.94
379.929	1009.94
380.155	1015.94
380.38	1003.94
380.606	1016.94
380.831	1022.94
381.057	1079.94
381.282	1077.94
381.507	1082.94
381.733	1135.94
381.958	1123.94
382.184	1067.94
382.409	1030.94
382.634	1052.94
382.86	1045.94
383.085	1033.94
383.31	1107.94
383.535	1182.94
383.761	1228.94
383.986	1147.94
384.211	1127.94
384.436	1150.94
384.662	1186.94
384.887	1197.94
385.112	1139.94
385.337	1156.94
385.562	1140.94
385.787	1132.94
386.013	1173.94
386.238	1176.94
386.463	1191.94
386.688	1266.94
386.913	1328.94
387.138	1273.94
387.363	1178.94
387.588	1162.94
387.813	1196.94
388.038	1216.94
388.263	1252.94
388.488	1179.94
388.713	1096.94
388.938	1076.94
389.163	1129.94
389.387	1138.94
389.612	1116.94
389.837	1148.94
390.062	1156.94
390.287	1159.94
390.512	1150.94
390.736	1122.94
390.961	1097.94
391.186	1100.94
391.411	1115.94
391.636	1111.94
391.86	1128.94
392.085	1117.94
392.31	1117.94
392.534	1129.94
392.759	1148.94
392.984	1154.94
393.208	1163.94
393.433	1175.94
393.658	1245.94
393.882	1209.94
394.107	1159.94
394.331	1144.94
394.556	1129.94
394.78	1180.94
395.005	1190.94
395.229	1248.94
395.454	1295.94
395.678	1304.94
395.903	1244.94
396.127	1229.94
396.352	1226.94
396.576	1261.94
396.801	1233.94
397.025	1235.94
397.249	1240.94
397.474	1242.94
397.698	1250.94
397.922	1287.94
398.147	1318.94
398.371	1350.94
398.595	1333.94
398.82	1325.94
399.044	1349.94
399.268	1397.94
399.492	1490.94
399.717	1481.94
399.941	1503.94
400.165	1530.94
400.389	1423.94
400.613	1478.94
400.837	1682.94
401.062	1828.94
401.286	1531.94
401.51	1471.94
401.734	1543.94
401.958	1421.94
402.182	1346.94
402.406	1320.94
402.63	1326.94
402.854	1287.94
403.078	1302.94
403.302	1357.94
403.526	1364.94
403.75	1389.94
403.974	1369.94
404.198	1365.94
404.422	1395.94
404.645	1490.94
404.869	1419.94
405.093	1342.94
405.317	1335.94
405.541	1342.94
405.765	1372.94
405.988	1369.94
406.212	1395.94
406.436	1420.94
406.66	1458.94
406.883	1511.94
407.107	1690.94
407.331	1817.94
407.555	1961.94
407.778	1685.94
408.002	1479.94
408.226	1390.94
408.449	1438.94
408.673	1364.94
408.896	1395.94
409.12	1412.94
409.344	1353.94
409.567	1360.94
409.791	1350.94
410.014	1413.94
410.238	1510.94
410.461	1584.94
410.685	1402.94
410.908	1328.94
411.132	1346.94
411.355	1357.94
411.578	1305.94
411.802	1362.94
412.025	1389.94
412.249	1341.94
412.472	1303.94
412.695	1312.94
412.919	1296.94
413.142	1302.94
413.365	1340.94
413.589	1357.94
413.812	1407.94
414.035	1448.94
414.258	1355.94
414.482	1317.94
414.705	1312.94
414.928	1319.94
415.151	1288.94
415.374	1334.94
415.597	1329.94
415.821	1332.94
416.044	1337.94
416.267	1330.94
416.49	1257.94
416.713	1268.94
416.936	1318.94
417.159	1417.94
417.382	1385.94
417.605	1297.94
417.828	1336.94
418.051	1351.94
418.274	1339.94
418.497	1276.94
418.72	1303.94
418.943	1298.94
419.166	1349.94
419.389	1406.94
419.611	1302.94
419.834	1308.94
420.057	1312.94
420.28	1255.94
420.503	1319.94
420.726	1340.94
420.948	1313.94
421.171	1280.94
421.394	1300.94
421.617	1348.94
421.839	1312.94
422.062	1319.94
422.285	1310.94
422.507	1290.94
422.73	1242.94
422.953	1222.94
423.175	1236.94
423.398	1302.94
423.621	1266.94
423.843	1282.94
424.066	1312.94
424.288	1384.94
424.511	1446.94
424.733	1360.94
424.956	1234.94
425.178	1297.94
425.401	1269.94
425.623	1236.94
425.846	1254.94
426.068	1332.94
426.291	1356.94
426.513	1355.94
426.735	1320.94
426.958	1429.94
427.18	1499.94
427.402	1370.94
427.625	1453.94
427.847	1416.94
428.069	1301.94
428.292	1245.94
428.514	1251.94
428.736	1269.94
428.958	1228.94
429.181	1276.94
429.403	1476.94
429.625	1778.94
429.847	1477.94
430.069	1280.94
430.292	1468.94
430.514	1458.94
430.736	1356.94
430.958	1388.94
431.18	1289.94
431.402	1218.94
431.624	1224.94
431.846	1196.94
432.068	1150.94
432.29	1154.94
432.512	1202.94
432.734	1251.94
432.956	1276.94
433.178	1371.94
433.4	1320.94
433.622	1310.94
433.844	1274.94
434.066	1206.94
434.287	1160.94
434.509	1221.94
434.731	1320.94
434.953	1406.94
435.175	1352.94
435.397	1261.94
435.618	1270.94
435.84	1244.94
436.062	1242.94
436.284	1262.94
436.505	1290.94
436.727	1306.94
436.949	1261.94
437.17	1257.94
437.392	1251.94
437.614	1184.94
437.835	1179.94
438.057	1247.94
438.278	1257.94
438.5	1204.94
438.721	1247.94
438.943	1253.94
439.165	1215.94
439.386	1228.94
439.608	1245.94
439.829	1265.94
440.05	1260.94
440.272	1231.94
440.493	1235.94
440.715	1275.94
440.936	1366.94
441.158	1417.94
441.379	1400.94
441.6	1400.94
441.822	1349.94
442.043	1365.94
442.264	1338.94
442.486	1278.94
442.707	1285.94
442.928	1242.94
443.149	1296.94
443.371	1364.94
443.592	1404.94
443.813	1367.94
444.034	1380.94
444.255	1390.94
444.476	1392.94
444.698	1434.94
444.919	1386.94
445.14	1483.94
445.361	1460.94
445.582	1431.94
445.803	1381.94
446.024	1357.94
446.245	1408.94
446.466	1365.94
446.687	1353.94
446.908	1357.94
447.129	1313.94
447.35	1334.94
447.571	1313.94
447.792	1282.94
448.013	1238.94
448.234	1293.94
448.455	1325.94
448.675	1302.94
448.896	1204.94
449.117	1212.94
449.338	1257.94
449.559	1313.94
449.779	1358.94
450	1437.94
450.221	1486.94
450.442	1435.94
450.662	1285.94
450.883	1193.94
451.104	1164.94
451.324	1202.94
451.545	1246.94
451.766	1192.94
451.986	1175.94
452.207	1141.94
452.428	1114.94
452.648	1082.94
452.869	1101.94
453.089	1147.94
453.31	1154.94
453.53	1170.94
453.751	1130.94
453.971	1086.94
454.192	1102.94
454.412	1162.94
454.633	1174.94
454.853	1161.94
455.073	1074.94
455.294	1090.94
455.514	1076.94
455.734	1064.94
455.955	1077.94
456.175	1062.94
456.395	1074.94
456.616	1099.94
456.836	1067.94
457.056	1100.94
457.276	1089.94
457.497	1062.94
457.717	1024.94
457.937	1052.94
458.157	1092.94
458.377	1073.94
458.598	1044.94
458.818	1038.94
459.038	1116.94
459.258	1158.94
459.478	1148.94
459.698	1124.94
459.918	1147.94
460.138	1243.94
460.358	1232.94
460.578	1259.94
460.798	1298.94
461.018	1373.94
461.238	1302.94
461.458	1285.94
461.678	1274.94
461.898	1229.94
462.118	1180.94
462.338	1260.94
462.558	1287.94
462.777	1288.94
462.997	1344.94
463.217	1349.94
463.437	1332.94
463.657	1305.94
463.876	1298.94
464.096	1237.94
464.316	1257.94
464.536	1286.94
464.755	1307.94
464.975	1294.94
465.195	1270.94
465.414	1322.94
465.634	1312.94
465.854	1273.94
466.073	1392.94
466.293	1346.94
466.512	1223.94
466.732	1224.94
466.951	1239.94
467.171	1228.94
467.391	1213.94
467.61	1189.94
467.829	1248.94
468.049	1354.94
468.268	1485.94
468.488	1334.94
468.707	1275.94
468.927	1235.94
469.146	1188.94
469.365	1264.94
469.585	1269.94
469.804	1230.94
470.023	1227.94
470.243	1251.94
470.462	1244.94
470.681	1217.94
470.901	1243.94
471.12	1248.94
471.339	1234.94
471.558	1204.94
471.777	1202.94
471.997	1194.94
472.216	1179.94
472.435	1149.94
472.654	1134.94
472.873	1178.94
473.092	1235.94
473.311	1180.94
473.53	1173.94
473.749	1168.94
473.968	1180.94
474.187	1252.94
474.406	1228.94
474.625	1216.94
474.844	1212.94
475.063	1219.94
475.282	1231.94
475.501	1180.94
475.72	1231.94
475.939	1287.94
476.158	1276.94
476.377	1229.94
476.596	1233.94
476.814	1232.94
477.033	1221.94
477.252	1264.94
477.471	1298.94
477.69	1295.94
477.908	1292.94
478.127	1357.94
478.346	1444.94
478.564	1428.94
478.783	1436.94
479.002	1449.94
479.22	1442.94
479.439	1464.94
479.658	1578.94
479.876	1528.94
480.095	1394.94
480.313	1348.94
480.532	1312.94
480.751	1292.94
480.969	1325.94
481.188	1300.94
481.406	1288.94
481.624	1230.94
481.843	1297.94
482.061	1287.94
482.28	1326.94
482.498	1339.94
482.717	1314.94
482.935	1266.94
483.153	1381.94
483.372	1372.94
483.59	1389.94
483.808	1368.94
484.027	1384.94
484.245	1473.94
484.463	1724.94
484.681	1926.94
484.9	1462.94
485.118	1383.94
485.336	1338.94
485.554	1370.94
485.772	1433.94
485.99	1378.94
486.209	1400.94
486.427	1408.94
486.645	1428.94
486.863	1444.94
487.081	1467.94
487.299	1443.94
487.517	1483.94
487.735	1466.94
487.953	1553.94
488.171	1485.94
488.389	1469.94
488.607	1449.94
488.825	1635.94
489.043	1561.94
489.261	1392.94
489.479	1476.94
489.696	1489.94
489.914	1474.94
490.132	1429.94
490.35	1464.94
490.568	1579.94
490.786	1489.94
491.003	1498.94
491.221	1568.94
491.439	1581.94
491.657	1618.94
491.874	1656.94
492.092	1710.94
492.31	1688.94
492.527	1671.94
492.745	1653.94
492.963	1607.94
493.18	1611.94
493.398	1705.94
493.615	1718.94
493.833	1606.94
494.05	1532.94
494.268	1556.94
494.485	1600.94
494.703	1563.94
494.92	1556.94
495.138	1551.94
495.355	1573.94
495.573	1600.94
495.79	1687.94
496.008	1677.94
496.225	1588.94
496.442	1667.94
496.66	1592.94
496.877	1618.94
497.094	1658.94
497.312	1698.94
497.529	1631.94
497.746	1668.94
497.963	1857.94
498.181	1933.94
498.398	1913.94
498.615	1889.94
498.832	1804.94
499.049	1788.94
499.267	1787.94
499.484	1877.94
499.701	2027.94
499.918	2042.94
500.135	2237.94
500.352	2401.94
500.569	2411.94
500.786	2505.94
501.003	2318.94
501.22	2078.94
501.437	2035.94
501.654	2110.94
501.871	2035.94
502.088	1790.94
502.305	1776.94
502.522	1668.94
502.739	1618.94
502.956	1581.94
503.172	1554.94
503.389	1525.94
503.606	1476.94
503.823	1470.94
504.04	1496.94
504.256	1520.94
504.473	1500.94
504.69	1556.94
504.907	1431.94
505.123	1434.94
505.34	1604.94
505.557	2042.94
505.773	1666.94
505.99	1410.94
506.207	1314.94
506.423	1328.94
506.64	1306.94
506.856	1338.94
507.073	1511.94
507.289	1639.94
507.506	1513.94
507.722	1301.94
507.939	1238.94
508.155	1252.94
508.372	1253.94
508.588	1238.94
508.805	1185.94
509.021	1193.94
509.238	1161.94
509.454	1152.94
509.67	1166.94
509.887	1132.94
510.103	1138.94
510.319	1146.94
510.536	1185.94
510.752	1214.94
510.968	1210.94
511.184	1271.94
511.401	1284.94
511.617	1146.94
511.833	1108.94
512.049	1100.94
512.265	1110.94
512.481	1107.94
512.698	1170.94
512.914	1235.94
513.13	1152.94
513.346	1129.94
513.562	1096.94
513.778	1097.94
513.994	1149.94
514.21	1210.94
514.426	1213.94
514.642	1296.94
514.858	1196.94
515.074	1134.94
515.29	1095.94
515.506	1152.94
515.721	1128.94
515.937	1178.94
516.153	1305.94
516.369	1222.94
516.585	1226.94
516.801	1173.94
517.016	1180.94
517.232	1157.94
517.448	1213.94
517.664	1208.94
517.879	1209.94
518.095	1305.94
518.311	1230.94
518.527	1173.94
518.742	1163.94
518.958	1157.94
519.173	1128.94
519.389	1174.94
519.605	1170.94
519.82	1182.94
520.036	1166.94
520.251	1181.94
520.467	1188.94
520.682	1257.94
520.898	1256.94
521.113	1145.94
521.329	1129.94
521.544	1212.94
521.76	1148.94
521.975	1096.94
522.19	1114.94
522.406	1119.94
522.621	1391.94
522.836	1335.94
523.052	1113.94
523.267	1115.94
523.482	1081.94
523.698	1092.94
523.913	1032.94
524.128	1088.94
524.343	1147.94
524.559	1166.94
524.774	1104.94
524.989	1059.94
525.204	1061.94
525.419	1069.94
525.634	1069.94
525.849	1082.94
526.064	1061.94
526.28	1065.94
526.495	995.94
526.71	1013.94
526.925	1000.94
527.14	988.94
527.355	989.94
527.57	1000.94
527.785	1018.94
527.999	986.94
528.214	992.94
528.429	1018.94
528.644	1054.94
528.859	1049.94
529.074	1102.94
529.289	1110.94
529.503	1096.94
529.718	1108.94
529.933	1039.94
530.148	968.94
530.363	970.94
530.577	982.94
530.792	996.94
531.007	981.94
531.221	964.94
531.436	1011.94
531.651	1008.94
531.865	1068.94
532.08	990.94
532.295	970.94
532.509	955.94
532.724	960.94
532.938	1038.94
533.153	1086.94
533.367	1031.94
533.582	1044.94
533.796	1033.94
534.011	1014.94
534.225	1025.94
534.44	959.94
534.654	994.94
534.868	981.94
535.083	1043.94
535.297	1054.94
535.511	1009.94
535.726	968.94
535.94	989.94
536.154	976.94
536.369	949.94
536.583	943.94
536.797	952.94
537.011	984.94
537.225	952.94
537.44	939.94
537.654	972.94
537.868	960.94
538.082	906.94
538.296	896.94
538.51	918.94
538.724	968.94
538.938	956.94
539.153	1013.94
539.367	972.94
539.581	999.94
539.795	989.94
540.009	962.94
540.222	939.94
540.436	985.94
540.65	1049.94
540.864	1112.94
541.078	1061.94
541.292	1015.94
541.506	1085.94
541.72	1128.94
541.934	1148.94
542.147	1199.94
542.361	1138.94
542.575	1084.94
542.789	1014.94
543.002	948.94
543.216	963.94
543.43	1025.94
543.644	1078.94
543.857	1114.94
544.071	1119.94
544.285	1091.94
544.498	1108.94
544.712	1088.94
544.925	1112.94
545.139	1121.94
545.352	1080.94
545.566	1063.94
545.779	1088.94
545.993	1088.94
546.206	1115.94
546.42	1093.94
546.633	1068.94
546.847	1058.94
547.06	1052.94
547.274	1119.94
547.487	1097.94
547.7	1119.94
547.914	1107.94
548.127	1069.94
548.34	1090.94
548.554	1056.94
548.767	1082.94
548.98	1076.94
549.193	1082.94
549.407	1114.94
549.62	1091.94
549.833	1072.94
550.046	1041.94
550.259	1043.94
550.473	1049.94
550.686	1033.94
550.899	1001.94
551.112	1005.94
551.325	992.94
551.538	1054.94
551.751	1160.94
551.964	916.94
552.177	937.94
552.39	972.94
552.603	982.94
552.816	1011.94
553.029	1077.94
553.242	1077.94
553.455	1056.94
553.667	1024.94
553.88	1047.94
554.093	1050.94
554.306	1020.94
554.519	962.94
554.732	983.94
554.944	981.94
555.157	979.94
555.37	986.94
555.583	955.94
555.795	946.94
556.008	896.94
556.221	900.94
556.433	873.94
556.646	894.94
556.859	866.94
557.071	894.94
557.284	882.94
557.496	896.94
557.709	886.94
557.921	881.94
558.134	855.94
558.346	856.94
558.559	858.94
558.771	845.94
558.984	809.94
559.196	810.94
559.409	826.94
559.621	817.94
559.833	844.94
560.046	833.94
560.258	826.94
560.47	859.94
560.683	820.94
560.895	846.94
561.107	830.94
561.32	815.94
561.532	828.94
561.744	813.94
561.956	830.94
562.168	807.94
562.381	780.94
562.593	780.94
562.805	825.94
563.017	771.94
563.229	791.94
563.441	825.94
563.653	797.94
563.865	785.94
564.077	755.94
564.289	793.94
564.501	791.94
564.713	809.94
564.925	811.94
565.137	880.94
565.349	800.94
565.561	806.94
565.773	810.94
565.985	838.94
566.197	880.94
566.408	923.94
566.62	922.94
566.832	900.94
567.044	906.94
567.255	889.94
567.467	900.94
567.679	922.94
567.891	956.94
568.102	889.94
568.314	862.94
568.526	809.94
568.737	812.94
568.949	727.94
569.161	734.94
569.372	722.94
569.584	702.94
569.795	694.94
570.007	669.94
570.218	652.94
570.43	630.94
570.641	650.94
570.853	678.94
571.064	672.94
571.276	685.94
571.487	638.94
571.698	650.94
571.91	629.94
572.121	601.94
572.333	621.94
572.544	618.94
572.755	594.94
572.966	583.94
573.178	570.94
573.389	576.94
573.6	622.94
573.811	638.94
574.023	584.94
574.234	584.94
574.445	574.94
574.656	552.94
574.867	574.94
575.078	567.94
575.289	569.94
575.501	552.94
575.712	559.94
575.923	580.94
576.134	539.94
576.345	562.94
576.556	545.94
576.767	544.94
576.978	531.94
577.188	544.94
577.399	552.94
577.61	509.94
577.821	524.94
578.032	511.94
578.243	501.94
578.454	527.94
578.665	523.94
578.875	493.94
579.086	497.94
579.297	480.94
579.508	514.94
579.718	493.94
579.929	514.94
580.14	486.94
580.35	497.94
580.561	521.94
580.772	548.94
580.982	529.94
581.193	502.94
581.403	478.94
581.614	490.94
581.825	476.94
582.035	483.94
582.246	494.94
582.456	509.94
582.667	490.94
582.877	475.94
583.087	489.94
583.298	468.94
583.508	482.94
583.719	474.94
583.929	457.94
584.139	473.94
584.35	466.94
584.56	461.94
584.77	479.94
584.981	477.94
585.191	478.94
585.401	487.94
585.611	502.94
585.821	442.94
586.032	473.94
586.242	456.94
586.452	438.94
586.662	451.94
586.872	442.94
587.082	445.94
587.292	456.94
587.502	454.94
587.713	453.94
587.923	457.94
588.133	468.94
588.343	457.94
588.553	442.94
588.762	453.94
588.972	411.94
589.182	475.94
589.392	472.94
589.602	446.94
589.812	443.94
590.022	434.94
590.232	426.94
590.441	455.94
590.651	444.94
590.861	428.94
591.071	448.94
591.281	410.94
591.49	440.94
591.7	453.94
591.91	466.94
592.119	441.94
592.329	468.94
592.539	456.94
592.748	456.94
592.958	454.94
593.167	460.94
593.377	450.94
593.587	484.94
593.796	481.94
594.006	466.94
594.215	480.94
594.424	467.94
594.634	463.94
594.843	463.94
595.053	498.94
595.262	446.94
595.472	468.94
595.681	460.94
595.89	443.94
596.1	423.94
596.309	442.94
596.518	444.94
596.727	447.94
596.937	419.94
597.146	417.94
597.355	398.94
597.564	415.94
597.774	407.94
597.983	387.94
598.192	396.94
598.401	387.94
598.61	400.94
598.819	388.94
599.028	423.94
599.237	390.94
599.446	388.94
599.655	388.94
599.864	378.94
600.073	395.94
600.282	386.94
600.491	400.94
600.7	399.94
600.909	386.94
601.118	398.94
601.327	411.94
601.536	405.94
601.745	389.94
601.953	396.94
602.162	412.94
602.371	421.94
602.58	413.94
602.789	422.94
602.997	410.94
603.206	412.94
603.415	409.94
603.623	407.94
603.832	419.94
604.041	398.94
604.249	390.94
604.458	388.94
604.666	371.94
604.875	370.94
605.084	382.94
605.292	404.94
605.501	382.94
605.709	418.94
605.918	392.94
606.126	387.94
606.334	385.94
606.543	411.94
606.751	421.94
606.96	395.94
607.168	417.94
607.376	391.94
607.585	402.94
607.793	396.94
608.001	382.94
608.21	398.94
608.418	420.94
608.626	384.94
608.834	382.94
609.043	402.94
609.251	410.94
609.459	392.94
609.667	398.94
609.875	413.94
610.083	401.94
610.291	417.94
610.499	410.94
610.707	388.94
610.916	394.94
611.124	407.94
611.332	393.94
611.54	406.94
611.748	406.94
611.955	410.94
612.163	392.94
612.371	388.94
612.579	404.94
612.787	400.94
612.995	407.94
613.203	404.94
613.411	398.94
613.618	385.94
613.826	405.94
614.034	388.94
614.242	384.94
614.449	382.94
614.657	413.94
614.865	396.94
615.072	380.94
615.28	408.94
615.488	408.94
615.695	412.94
615.903	388.94
616.111	394.94
616.318	391.94
616.526	384.94
616.733	376.94
616.941	378.94
617.148	381.94
617.356	362.94
617.563	381.94
617.771	366.94
617.978	349.94
618.185	373.94
618.393	390.94
618.6	366.94
618.807	378.94
619.015	368.94
619.222	368.94
619.429	378.94
619.637	364.94
619.844	338.94
620.051	339.94
620.258	350.94
620.466	359.94
620.673	345.94
620.88	365.94
621.087	336.94
621.294	339.94
621.501	354.94
621.708	323.94
621.915	339.94
622.122	377.94
622.329	374.94
622.536	383.94
622.743	346.94
622.95	343.94
623.157	341.94
623.364	357.94
623.571	350.94
623.778	342.94
623.985	328.94
624.192	349.94
624.399	356.94
624.606	330.94
624.812	342.94
625.019	340.94
625.226	327.94
625.433	324.94
625.639	330.94
625.846	307.94
626.053	320.94
626.259	306.94
626.466	295.94
626.673	284.94
626.879	286.94
627.086	301.94
627.293	317.94
627.499	324.94
627.706	344.94
627.912	321.94
628.119	331.94
628.325	325.94
628.532	321.94
628.738	346.94
628.945	308.94
629.151	338.94
629.357	313.94
629.564	302.94
629.77	306.94
629.976	298.94
630.183	291.94
630.389	286.94
630.595	299.94
630.802	317.94
631.008	313.94
631.214	295.94
631.42	313.94
631.627	300.94
631.833	294.94
632.039	304.94
632.245	297.94
632.451	308.94
632.657	273.94
632.863	270.94
633.069	277.94
633.275	292.94
633.481	281.94
633.688	272.94
633.893	279.94
634.099	275.94
634.305	293.94
634.511	289.94
634.717	273.94
634.923	250.94
635.129	256.94
635.335	282.94
635.541	276.94
635.747	284.94
635.952	294.94
636.158	269.94
636.364	288.94
636.57	277.94
636.775	291.94
636.981	270.94
637.187	278.94
637.392	288.94
637.598	281.94
637.804	267.94
638.009	288.94
638.215	284.94
638.421	259.94
638.626	258.94
638.832	288.94
639.037	283.94
639.243	264.94
639.448	285.94
639.654	266.94
639.859	260.94
640.065	262.94
640.27	280.94
640.475	266.94
640.681	276.94
640.886	263.94
641.091	265.94
641.297	275.94
641.502	271.94
641.707	274.94
641.913	261.94
642.118	277.94
642.323	267.94
642.528	254.94
642.733	261.94
642.939	252.94
643.144	252.94
643.349	253.94
643.554	275.94
643.759	258.94
643.964	257.94
644.169	257.94
644.374	275.94
644.579	264.94
644.784	254.94
644.989	266.94
645.194	256.94
645.399	259.94
645.604	266.94
645.809	266.94
646.014	262.94
646.219	266.94
646.423	267.94
646.628	249.94
646.833	257.94
647.038	249.94
647.243	254.94
647.447	267.94
647.652	270.94
647.857	263.94
648.062	261.94
648.266	261.94
648.471	256.94
648.676	251.94
648.88	270.94
649.085	262.94
649.289	278.94
649.494	258.94
649.698	257.94
649.903	258.94
650.107	242.94
650.312	242.94
650.516	245.94
650.721	249.94
650.925	250.94
651.13	243.94
651.334	252.94
651.539	235.94
651.743	231.94
651.947	230.94
652.152	257.94
652.356	252.94
652.56	227.94
652.764	233.94
652.969	222.94
653.173	236.94
653.377	241.94
653.581	216.94
653.785	240.94
653.99	221.94
654.194	224.94
654.398	224.94
654.602	219.94
654.806	219.94
655.01	225.94
655.214	232.94
655.418	217.94
655.622	219.94
655.826	241.94
656.03	220.94
656.234	237.94
656.438	267.94
656.642	267.94
656.846	234.94
657.049	222.94
657.253	224.94
657.457	227.94
657.661	197.94
657.865	180.94
658.068	185.94
658.272	160.94
658.476	170.94
658.68	172.94
658.883	148.94
659.087	140.94
659.291	151.94
659.494	135.94
659.698	128.94
659.901	119.94
660.105	136.94
660.309	132.94
660.512	138.94
660.716	139.94
660.919	104.94
661.123	116.94
661.326	104.94
661.53	114.94
661.733	100.94
661.936	114.94
662.14	103.94
662.343	86.94
662.546	96.94
662.75	101.94
662.953	89.94
663.156	100.94
663.36	98.94
663.563	89.94
663.766	107.94
663.969	81.94
664.173	91.94
664.376	89.94
664.579	91.94
664.782	76.94
664.985	95.94
665.188	88.94
665.391	86.94
665.594	91.94
665.797	90.94
666	88.94
666.203	75.94
666.406	84.94
666.609	101.94
666.812	88.94
667.015	92.94
667.218	79.94
667.421	67.94
667.624	80.94
667.827	65.94
668.03	77.94
668.232	76.94
668.435	84.94
668.638	70.94
668.841	90.94
669.043	70.94
669.246	91.94
669.449	80.94
669.651	87.94
669.854	80.94
670.057	98.94
670.259	84.94
670.462	85.94
670.665	84.94
670.867	83.94
671.07	94.94
671.272	87.94
671.475	63.94
671.677	76.94
671.88	75.94
672.082	73.94
672.284	96.94
672.487	86.94
672.689	86.94
672.892	76.94
